2.910526006210254618e-02
5.531631099349125780e-01
9.005777793795757269e-01
1.071685469582193129e+00
1.197177820977428864e+00
1.348094452871827942e+00
1.469658096910358536e+00
1.491286845260169969e+00
1.419089705064190410e+00
1.311500806010892806e+00
1.216191671627302684e+00
1.143190422889379221e+00
1.079092299418696665e+00
1.017475279876541627e+00
9.713086617846512505e-01
9.502775024777391222e-01
9.402585408507247999e-01
9.272010479408807626e-01
9.232197079547975749e-01
9.360688284356560862e-01
9.315263475483600564e-01
8.671092189984265231e-01
7.559954426934263338e-01
6.619745722930976406e-01
6.309034866499650951e-01
6.544151827775562813e-01
6.970732113820830023e-01
7.301503513654117317e-01
7.458325733979308536e-01
7.616485441141579438e-01
7.931036198433675244e-01
8.109938246436324549e-01
7.625288480741760910e-01
6.470870989704320397e-01
5.337897988747259959e-01
4.880731139538043717e-01
5.077982140826484692e-01
5.447049481994359343e-01
5.609468453137699262e-01
5.447149064722733858e-01
4.948283154875359746e-01
4.205069807198484888e-01
3.467828375440018540e-01
2.938133315477793883e-01
2.591584191025697037e-01
2.412607280828292788e-01
2.582216405442911977e-01
3.149309885842946355e-01
3.736724966341207210e-01
3.817242748784120954e-01
3.192200534722963168e-01
2.258929813297495259e-01
1.813596917092373251e-01
2.103423577892936658e-01
1.916819212874639744e-01
-6.745470050381188742e-02
-5.922042844076985668e-01
-1.095990202954554071e+00
-1.195179373002139611e+00
-8.157759587269222123e-01
-2.718606147260594352e-01
9.717510994416894698e-02
2.220304193044870256e-01
2.142151261896166892e-01
1.655940382821328993e-01
1.106928222370002629e-01
6.948329131104091783e-02
5.088193083871538763e-02
4.498004119512425542e-02
3.706061469246052509e-02
2.595348054489998030e-02
2.004788709559196525e-02
9.278090891034276866e-04
-8.741123478429664584e-02
-2.601773681175823527e-01
-4.219170447042356331e-01
-4.507892090172173627e-01
-3.420744664920008504e-01
-2.005471280294366665e-01
-1.094378284358648312e-01
-6.915935683571823589e-02
-4.988093401324857068e-02
-4.560024106558865920e-02
-6.598270207828171863e-02
-1.068640877904533382e-01
-1.414592101039793826e-01
-1.325409528928263025e-01
-6.662882109588570689e-02
1.932587516336475159e-02
7.556299898984528141e-02
9.504691696119041411e-02
9.353288510462061389e-02
6.353446505872663297e-02
-5.739304654768004332e-03
-8.852543985928328085e-02
-1.394478274947290597e-01
-1.374552934808326576e-01
-9.672383459284819573e-02
-4.535153705319310696e-02
-2.502533510005785361e-03
2.860826707782524944e-02
4.872561371820633563e-02
4.800831992464094783e-02
1.389350976945070981e-02
-4.658560415835875240e-02
-1.057882323064118224e-01
-1.407542079162281967e-01
-1.478883182525959072e-01
-1.272575985859315806e-01
-6.442892943649899951e-02
4.871980199943781037e-02
1.438191080764698870e-01
3.479651357341701640e-02
-4.425344580840636088e-01
-1.149690028788678209e+00
-1.622292408208666270e+00
-1.516218253240513736e+00
-9.854898275847904232e-01
-4.414816149209166429e-01
-9.003828794248719403e-02
1.078838115574496243e-01
1.969556628451471225e-01
1.657611995891887513e-01
4.513151626314652887e-02
-7.987827211161802055e-02
-1.514866547076366698e-01
-1.715384350823737636e-01
-1.598846648131089232e-01
-1.220962156013618988e-01
-6.239535520938466889e-02
-4.247914126606813778e-03
1.834576627007078464e-02
-8.997145762039679417e-03
-6.679467287831397648e-02
-1.203135531757436733e-01
-1.480974911042907682e-01
-1.480876917568478834e-01
-1.221889412391189006e-01
-7.334587604064120303e-02
-1.806140416118772948e-02
2.003432902355096329e-02
3.176072789156902249e-02
2.886997809979853502e-02
3.467054185502446706e-02
6.526131435958576477e-02
1.072539991268337267e-01
1.239439801114537165e-01
1.018786886186421881e-01
7.639110911522455083e-02
8.887990772982681809e-02
1.360402217584939510e-01
1.811804003138346719e-01
1.994893644094807017e-01
1.934516704370614626e-01
1.702768032073579962e-01
1.253702341324640923e-01
5.946438802494778686e-02
-1.082433339075417750e-03
-1.692494761181513249e-02
3.121030635524144059e-02
1.239283163403296639e-01
2.172015081192301411e-01
2.717545087590054753e-01
2.647171011290724296e-01
1.922270387298418148e-01
8.660533342859896844e-02
1.590462673907994465e-02
3.319487606805451851e-02
1.093587682246421611e-01
1.104471013448910799e-01
-1.165676152468191756e-01
-5.576734539987466821e-01
-9.547557822895353929e-01
-1.030564908673653690e+00
-7.848042016740095494e-01
-4.527268114128069620e-01
-2.060280298888680084e-01
-3.870405296556175129e-02
8.796216530671174816e-02
1.538075129509644812e-01
1.476318207938367433e-01
1.157634854983859568e-01
1.083102034582535400e-01
1.213307415241283299e-01
1.158976804057135490e-01
7.590591528304334312e-02
2.329934047295168648e-02
-1.569417630558204296e-02
-3.362153994853005201e-02
-3.174737905159421419e-02
-8.286980491425571457e-03
3.911297066296000324e-02
1.100771237945732672e-01
1.901907862024967422e-01
2.315657518955327454e-01
1.834363051039462345e-01
6.696825751239260383e-02
-2.688873771107045882e-02
-3.221105726226294874e-02
3.752460288244455211e-02
1.243774765424480039e-01
1.808341931203308606e-01
1.942277817240504745e-01
1.763782134411635560e-01
1.442178744374759680e-01
1.145972201958465470e-01
9.735190877663374431e-02
8.650693221738577077e-02
7.561635567947551373e-02
7.496931907374461412e-02
9.670467271156016342e-02
1.356356173579398583e-01
1.764973467514736882e-01
2.051542852846797438e-01
2.073198077238940784e-01
1.736351920994150533e-01
1.117040904019163672e-01
4.652688377894058369e-02
9.345699902387209074e-03
2.030174123056375027e-02
7.139987768612748864e-02
1.287745275014479662e-01
1.583519787177764537e-01
1.525741913763709046e-01
1.373475706444979572e-01
1.488975787700275721e-01
1.721518900184855205e-01
7.574912758277393965e-02
-3.183808967748533725e-01
-9.655568139089008017e-01
-1.456154977620331303e+00
-1.376974976827575858e+00
-8.007698278003435588e-01
-1.841202544744094949e-01
1.648316771141233317e-01
2.843441511961304347e-01
3.136631759976228895e-01
2.973503264141859614e-01
2.294152807061920762e-01
1.340987313035757189e-01
5.918300761277080907e-02
3.707846751990134110e-02
6.673956976359016191e-02
1.176968866865412966e-01
1.492544673154913015e-01
1.329898155367087997e-01
6.668951389862400048e-02
-2.027222551632949094e-02
-7.843846474786780876e-02
-7.560516001425401922e-02
-2.633950381209564789e-02
2.737443248983174177e-02
6.253905764046947813e-02
9.488007146994317798e-02
1.506082460929435152e-01
2.166912853211615808e-01
2.339602656965593386e-01
1.659082946104342982e-01
6.739275616120536661e-02
4.233477738545631669e-02
1.185224673982784444e-01
2.095368724201809862e-01
2.299423049285716780e-01
1.991448386569381612e-01
1.892565831007668731e-01
2.147481549116178889e-01
2.244867130325985671e-01
1.831094845166765794e-01
1.200318264163367649e-01
8.830021686253727853e-02
9.067828300347172132e-02
7.923273592447657721e-02
4.064583259888460143e-02
3.142618455057425569e-02
8.817470129253926481e-02
1.611650364615209996e-01
1.831171522089646841e-01
1.441154260036108525e-01
7.602442627757850790e-02
1.770693942602700327e-02
-6.621772182259431233e-03
2.142494648862194873e-03
4.575871848261375829e-02
1.305568015725399322e-01
1.841285224775144058e-01
2.879814670957458328e-02
-4.358052971682763732e-01
-1.010730010068781493e+00
-1.298208278448076625e+00
-1.110857342890058330e+00
-6.639570466680664307e-01
-2.761411945008615532e-01
-3.394244911187824232e-02
1.426320336081731976e-01
2.750389617845825363e-01
3.139504538696575864e-01
2.553581262910266103e-01
1.574256202178308528e-01
7.321291292951792595e-02
2.122998548291249454e-02
1.133800630078417304e-02
5.483404868927196224e-02
1.268108523711568847e-01
1.581323456688549789e-01
1.109507907179912989e-01
3.071887761938833089e-02
-1.817314753907176006e-02
-3.347251012648050361e-02
-5.639048520959390187e-02
-9.307270181272633836e-02
-8.383578683752834770e-02
2.949548490223765501e-02
2.037983350252588755e-01
3.062522650782636968e-01
2.591856972256261771e-01
1.334050794213890168e-01
6.526598231329897026e-02
1.121902623845069530e-01
2.050914941875017494e-01
2.325884172268053995e-01
1.682456028748932353e-01
9.088918528951392406e-02
7.680558261489135730e-02
1.218455840845643623e-01
1.790226246377494557e-01
2.170802849453303540e-01
2.235334410776972924e-01
1.893433625341717219e-01
1.134369024849960078e-01
1.792231118800436881e-02
-5.099322870938031299e-02
-5.569668736451380275e-02
-1.684818966599381518e-03
7.627195742926240474e-02
1.509898854375656685e-01
2.071690562464063856e-01
2.220590011368896721e-01
1.752876328719286114e-01
9.702480171477342874e-02
6.909735009740006206e-02
1.103317307589439661e-01
7.404211366731279498e-02
-2.291372128138765563e-01
-7.522983076791689427e-01
-1.158651411504159956e+00
-1.153019600421503865e+00
-7.977340300796232908e-01
-3.911708626108498787e-01
-1.192002960898078667e-01
3.428296629111811378e-02
1.159664603157502805e-01
1.194287266443180839e-01
6.041189647855750577e-02
1.103541362813503443e-02
2.632992415008737069e-02
8.680612194398079628e-02
1.368550190835951808e-01
1.451520232654117948e-01
1.097589174705967535e-01
4.385035916832525499e-02
-2.545864003770768533e-02
-7.087850813651273840e-02
-8.328261404330115913e-02
-6.751093678410924337e-02
-2.983452408213383908e-02
2.081208203854040956e-02
6.388486571021537164e-02
7.271303360868863752e-02
4.346505013437299003e-02
1.554302679427537782e-02
3.332937183218961930e-02
7.995482224655865722e-02
8.980665684495643675e-02
3.921818253543870453e-02
-1.490146135151048171e-02
-3.018115085424378542e-03
7.101321756944674324e-02
1.345779521858072869e-01
1.380223978162127829e-01
1.078659268372988422e-01
9.072389184599861933e-02
8.572084709622425358e-02
6.724954584622996889e-02
4.020500524359475747e-02
3.064632614017717693e-02
4.667535907778226634e-02
8.197302038949189074e-02
1.301059364224025350e-01
1.708853477959064726e-01
1.722814909088250801e-01
1.261944035004793074e-01
6.302849883250671859e-02
1.986409394043581536e-02
1.111112281894201075e-02
3.697450946100860891e-02
9.448223798453929401e-02
1.662763011586699813e-01
2.274032505819768846e-01
2.700334706538701224e-01
2.652455748480577746e-01
8.422291143731067131e-02
-4.199537025828888326e-01
-1.129405642949321997e+00
-1.583566482026800282e+00
-1.416850980842533581e+00
-7.999234566081326880e-01
-2.148112927887258494e-01
9.286641300398841559e-02
2.102821723483516703e-01
2.584466901503941760e-01
2.464289448149392103e-01
1.680282080468814554e-01
7.188723010731404295e-02
1.245658307674885404e-02
-1.808956013719916281e-03
7.487101480625413946e-03
2.191926970143580344e-02
3.321692649967808442e-02
4.288493051972493836e-02
5.743996556009213494e-02
6.724490014131603854e-02
4.436741634311882482e-02
-1.770070342157543941e-02
-7.867689743726941076e-02
-8.583360270143150506e-02
-2.518805956144330727e-02
7.006946486384431350e-02
1.540066374803068516e-01
2.013463242433710665e-01
2.097690541399654940e-01
1.877475823985154113e-01
1.508222793673923423e-01
1.168121651702013347e-01
9.525308730849549321e-02
8.708780329115849150e-02
9.443806719970873620e-02
1.227556763715725724e-01
1.702803814995817178e-01
2.198825181503646642e-01
2.460528608455755384e-01
2.324839335397103079e-01
1.872575116090550718e-01
1.383922088031694086e-01
1.088605031389452693e-01
1.025739801696985698e-01
1.149575869306152381e-01
1.417144156517527176e-01
1.753100261747135291e-01
2.039922965576995706e-01
2.171630537235533509e-01
2.129785014322790326e-01
1.992691784468644256e-01
1.786961583034027967e-01
1.417208267554613821e-01
9.604354677815685193e-02
9.305675217899450624e-02
1.739591764054419787e-01
2.559556733739676848e-01
1.239820908034880292e-01
-3.559893740437676812e-01
-9.897987474722186318e-01
-1.342926246564174919e+00
-1.173141035611739103e+00
-6.813891860119924981e-01
-2.391795581667016668e-01
1.314528596120870252e-03
1.167011069719327276e-01
1.906740491662087256e-01
2.323692546152800187e-01
2.281295213493119700e-01
1.681689068974594747e-01
5.801271611510794290e-02
-5.962484249144868464e-02
-1.287095674140610324e-01
-1.327553174156523574e-01
-9.894878543510210456e-02
-6.056904156559193841e-02
-3.180606832701229902e-02
-6.288896363452978200e-03
2.791839660601563508e-02
6.634909638621565298e-02
8.118953298560399601e-02
4.191482831651160978e-02
-4.607249729606525956e-02
-1.248533258838493698e-01
-1.318757749482083741e-01
-6.708786365365373983e-02
1.298675192641947536e-02
6.336891581091377845e-02
9.160917001229931800e-02
1.316162317337277177e-01
1.881620843865771109e-01
2.239953011788770321e-01
2.064964014585168595e-01
1.437114087469351376e-01
6.858848993956016826e-02
1.626919510628008214e-02
1.943902574843791448e-02
8.929900822959972728e-02
1.872699876020172127e-01
2.428112411970020368e-01
2.166836109781998254e-01
1.355531891921501753e-01
6.022531650537143316e-02
2.946565494218371731e-02
3.606450907253141991e-02
5.377531972842880537e-02
7.881599473256895028e-02
1.270276139859647657e-01
1.919018414063112521e-01
2.339515134286590525e-01
2.251780665024354089e-01
1.889858295563425494e-01
1.764573022159297289e-01
1.857840824953373715e-01
1.014575555426848325e-01
-2.293165561616955506e-01
-7.696047205674608760e-01
-1.189923279019337254e+00
-1.164272889705159963e+00
-7.514201105176113726e-01
-3.019326555902609455e-01
-4.140122235615551621e-02
6.311243918684590615e-02
1.014409569425385044e-01
9.562052228191303405e-02
6.234639450365557500e-02
5.058954763687732725e-02
8.419533847410426430e-02
1.317211293681524731e-01
1.515120200118788285e-01
1.360617959465001969e-01
1.062313010800885749e-01
7.666201821325012433e-02
3.692214991186786033e-02
-2.134072676928125759e-02
-6.775803037425887076e-02
-5.916349312247817099e-02
-7.279177916654929435e-03
2.132149952414737204e-02
-2.640146405568866150e-03
-2.214966012283286351e-02
1.531604277736047133e-02
6.424473220217465086e-02
4.896423117297678262e-02
-1.687630592640958910e-02
-5.073734162481138149e-02
-5.420546728772242251e-03
9.477629618616367768e-02
1.883187895062680972e-01
2.285505405017679292e-01
2.233532686598598549e-01
2.142928387582757888e-01
2.142153112029884787e-01
1.962835022119404083e-01
1.430123875655358312e-01
7.510614114154690046e-02
2.873522804280734255e-02
2.433489107194961379e-02
6.337928767738751357e-02
1.348822775792091755e-01
2.081262308334407285e-01
2.375447344866630228e-01
2.025115675523784242e-01
1.355126855605434111e-01
8.644155687287380374e-02
6.862051831285913284e-02
6.301933755636335288e-02
5.752074399642755076e-02
6.139484760318666273e-02
9.581453801861943009e-02
1.670736916988502241e-01
2.125885731612733309e-01
7.302267011556833054e-02
-3.900048490044014105e-01
-1.048992740602230356e+00
-1.472884665475141963e+00
-1.331871782924077152e+00
-7.899875624465442225e-01
-2.961806254244441217e-01
-6.927620824075483852e-02
7.988182178674000863e-03
8.836071769847872459e-02
1.709504463109089989e-01
1.799745578140676261e-01
9.084107826426393584e-02
-3.776118518904165999e-02
-1.182933768583998291e-01
-1.142585612338781198e-01
-5.423786281975893214e-02
2.294318533940923818e-02
9.534751819636091974e-02
1.439687037021867011e-01
1.551239076183631715e-01
1.279484017053222344e-01
6.765555454277036307e-02
-8.042003188859815632e-03
-6.073014283553365700e-02
-5.561056563295193461e-02
6.409360191892924524e-03
9.076852966230736230e-02
1.597838600861496150e-01
1.977640292088707896e-01
2.098813894108754741e-01
2.090446526495662316e-01
2.090937987027725320e-01
2.122883927341938093e-01
2.028229137345668176e-01
1.757817073834172517e-01
1.581288536140885159e-01
1.764640992211359005e-01
2.224597977135438776e-01
2.636357026542941462e-01
2.737708454195522667e-01
2.496254757626988896e-01
2.080556025197941583e-01
1.699269432822463899e-01
1.399347369691199272e-01
1.029154035484908802e-01
5.526919430229114416e-02
3.359933162030788456e-02
8.040931640534386415e-02
1.796728364456041116e-01
2.584488110998255372e-01
2.624974950266951712e-01
2.089198541943943499e-01
1.544840642050352708e-01
1.348218618762048737e-01
1.524045174114584678e-01
1.902805629465792181e-01
1.836138421417606859e-01
-2.274940967327293388e-03
-4.543952584689706642e-01
-1.010446205364123440e+00
-1.289198845790793913e+00
-1.063676949070866629e+00
-5.321463432357530499e-01
-8.376557551528941714e-02
1.112227042359605622e-01
1.493456261151551168e-01
1.582366853028872311e-01
1.687703991076345278e-01
1.626332006923846274e-01
1.350080680487953377e-01
1.012463064859700640e-01
7.616397864400079043e-02
5.931068296316506505e-02
3.601693289769163087e-02
-3.500834234479636639e-03
-4.004596958248769767e-02
-3.512894742362745321e-02
1.943047341644022277e-02
7.704833610011824208e-02
8.640910450827617162e-02
5.377485951127385089e-02
2.765417225480169827e-02
3.511341090366523060e-02
5.836030023968059866e-02
6.174154498931994084e-02
2.957144170922152218e-02
-1.335981836133391318e-02
-2.002757413289503463e-02
3.333946559154160605e-02
1.175068941138104617e-01
1.653798168734555707e-01
1.342875533339726035e-01
5.594393764696098392e-02
-4.118739297038997299e-03
-2.161252594178181968e-02
-7.567779998992127909e-03
3.807582313317815770e-02
1.103391460692450393e-01
1.666613870619218507e-01
1.701516814575458059e-01
1.431458598972179252e-01
1.287887943463037754e-01
1.257561075556850594e-01
9.781663659500121344e-02
2.791717761219544500e-02
-5.088479630731640446e-02
-6.756419540619093556e-02
2.753829505488505913e-02
1.905689589300680331e-01
2.968284015486623018e-01
2.694138654551498924e-01
1.740267341156935821e-01
1.358294257600277388e-01
1.665265606432803080e-01
1.025534001229508052e-01
-2.477141766653554456e-01
-8.364240672612768268e-01
-1.298847634457523492e+00
-1.289098401962154083e+00
-8.666540817788491724e-01
-3.854772183992338230e-01
-7.279082389003313502e-02
9.094050419367022409e-02
1.704914239579506385e-01
1.675446408604395754e-01
8.628559253855505595e-02
-2.293126374027538647e-02
-9.936390273898018655e-02
-1.164962184765414299e-01
-8.515957645056168590e-02
-2.631860506331935856e-02
3.796959926997504897e-02
7.673114748670992191e-02
6.538451862053626384e-02
9.747367207344877216e-03
-5.726286624514280443e-02
-9.734307352852064610e-02
-8.840374327977360003e-02
-4.410891632407568097e-02
-6.600241546476084617e-03
1.005096737786149823e-02
5.463162331896435908e-02
1.628235406891785642e-01
2.647500590725499481e-01
2.510150496516700969e-01
1.237089866586632558e-01
2.063303523783328181e-03
-1.876775845055593181e-02
4.361305818567646347e-02
1.127351944734580752e-01
1.530518697330067457e-01
1.886082986741191014e-01
2.373408820943487541e-01
2.668347009676489412e-01
2.337985268371914060e-01
1.432601799957178290e-01
4.320502963711322919e-02
-2.204964582346393906e-02
-3.287605292363592752e-02
1.028177890012515680e-02
8.859360166904303724e-02
1.664129827692236163e-01
2.056759708792031682e-01
1.904512840532678053e-01
1.419302717618302068e-01
9.896520109603614002e-02
7.558377583161314528e-02
5.418300428533166097e-02
3.488042537666979220e-02
6.678586853063082918e-02
1.876078757662406893e-01
3.136012626198645958e-01
2.203163540894182981e-01
-2.690158905648621923e-01
-9.930085201371381398e-01
-1.458465694417545366e+00
-1.320068945323975340e+00
-7.639769196681017727e-01
-2.358653856863565101e-01
5.533740164896672892e-02
1.797964011509217697e-01
2.289510226429274375e-01
2.238944872538004560e-01
1.836484213940464405e-01
1.493620080821654872e-01
1.478662146305293468e-01
1.595168452359654598e-01
1.350227032900659652e-01
6.158246339793436996e-02
-1.058072407075418692e-02
-2.965430649254886808e-02
1.387492822123973868e-03
4.138501902678008715e-02
5.313360212476388872e-02
2.693836813558827051e-02
-1.867919867647347548e-02
-5.890809526399136409e-02
-8.308041300469283519e-02
-8.789825735630130144e-02
-6.179563428990975799e-02
6.284342676924966654e-03
9.853750905515334946e-02
1.678402644174513958e-01
1.842203083208200087e-01
1.663467003176957171e-01
1.481291352141556328e-01
1.349559640085351286e-01
1.147810306548892878e-01
9.136267281121007722e-02
8.360017312308296034e-02
1.036171885688630251e-01
1.455181081295611190e-01
1.861476000839791534e-01
1.969695541639944203e-01
1.665908049465896212e-01
1.120496914285119272e-01
6.275712321975224217e-02
3.726700528880991931e-02
3.955828082076091184e-02
6.580288323494162817e-02
1.021068547004358451e-01
1.301851552993381345e-01
1.488158383783751426e-01
1.708121728388454219e-01
1.941639941974460382e-01
2.000485931696205921e-01
1.804132207959570355e-01
1.544869501136919010e-01
1.447514269491327610e-01
1.012956153516738206e-01
-1.327347544455863282e-01
-6.541908654738677331e-01
-1.245491243667970371e+00
-1.462956439004335474e+00
-1.120636991728421350e+00
-5.242130224970280583e-01
-8.762873465976606102e-02
9.056501879806228006e-02
1.486378876690233608e-01
1.774896936870353215e-01
1.696415662671145463e-01
1.276192860210844104e-01
9.313962812960603632e-02
9.036133705645227332e-02
1.015568854636431789e-01
1.068574673280722198e-01
1.115902457031623662e-01
1.137413806417771484e-01
8.743748680079801994e-02
3.426048081229268738e-02
1.450378255092640151e-04
9.591899851994047446e-03
3.949097458365814772e-02
7.069391436793434624e-02
1.050582277647237744e-01
1.287997684715190272e-01
1.151834939754685927e-01
6.848782415469546747e-02
2.354376752103912868e-02
5.081683912108239665e-04
-4.351313381987775494e-03
1.797265328089120082e-02
9.163380258101683218e-02
2.015475204834059342e-01
2.817007630604936308e-01
2.896970671197267033e-01
2.520447416388891804e-01
2.150410212778136598e-01
1.888780765232275505e-01
1.514171422511608467e-01
8.839309627360425470e-02
2.634979452397497035e-02
1.846570797551682491e-02
8.446056073890056970e-02
1.750783982071317246e-01
2.171193635025359392e-01
1.932015495764801971e-01
1.567098670464695809e-01
1.569768554084410850e-01
1.772615659049560366e-01
1.770458891903851362e-01
1.603988423608934122e-01
1.564896710393502977e-01
1.688931091642713878e-01
1.929915976026961855e-01
2.429726282133040371e-01
2.881324239049385949e-01
1.744437235716285173e-01
-2.709600931141844526e-01
-9.567730678885645323e-01
-1.450531883058535199e+00
-1.382659572289350436e+00
-8.665021402901325054e-01
-3.207907772828959003e-01
1.242397135686960918e-02
1.719933406293097378e-01
2.434472963296235859e-01
2.393352334118253877e-01
1.630256120934976405e-01
5.648946430057820434e-02
-2.484559726365360294e-02
-4.782535402582294842e-02
-1.742607652473350185e-02
3.240055595311398112e-02
6.890652240409989027e-02
8.048596623420867235e-02
6.957982099209547577e-02
4.077028087652435906e-02
-1.198967075579315811e-03
-4.852159688055178444e-02
-8.688529536354497318e-02
-1.000572542752585642e-01
-8.162115478089647380e-02
-3.568822156313673777e-02
3.010193273170604089e-02
1.003167768453950004e-01
1.487475692083550238e-01
1.562511157624240088e-01
1.314738545329525721e-01
1.058401031489510369e-01
1.002055908637873999e-01
9.858505061857571194e-02
7.841633371281883647e-02
6.338699143140602565e-02
9.539889598354622802e-02
1.553310211172737876e-01
1.780924447309736591e-01
1.451286436556561699e-01
9.840196842824865120e-02
6.772493225329775934e-02
4.109141676064418519e-02
9.504230486647315124e-03
-1.130027424545331860e-03
4.107620207100654008e-02
1.264002534389496446e-01
2.013631174092403719e-01
2.264374593615437192e-01
2.211618170557035634e-01
2.217759655155774612e-01
2.119904982585829045e-01
1.476081158748808742e-01
4.918737425452646139e-02
1.247304013279682856e-02
8.956332569982609904e-02
1.739576955462316388e-01
4.612818498271466922e-02
-3.997073372604997843e-01
-9.487057199125377149e-01
-1.199518783663727772e+00
-9.935732620481624311e-01
-5.734268302714131682e-01
-2.353895048505385001e-01
-2.875139955472629655e-02
1.180039312573534782e-01
2.044748881090363568e-01
2.043262662992426648e-01
1.519157545169024237e-01
1.000374048578868830e-01
6.257679294369764000e-02
2.909357527780666655e-02
-6.009795889441940306e-03
-3.946760555516150987e-02
-6.232722249836974981e-02
-6.390331523244968670e-02
-4.050363667660486500e-02
-3.607164285158899909e-03
2.337471914024817979e-02
2.650322831739041624e-02
1.595295859039023295e-02
7.367153225006308273e-03
2.450354912315387372e-03
6.124792706051129451e-04
9.089261652072187433e-03
2.973153852894213495e-02
5.250693084656169601e-02
7.054582515864803172e-02
9.150777427906535422e-02
1.210693771991694784e-01
1.384033390579872125e-01
1.163249884636148035e-01
7.007147688899172111e-02
4.664584951338222873e-02
6.291478099740344110e-02
9.362940747581241507e-02
1.150725855838344164e-01
1.273831524634929935e-01
1.410609765455456410e-01
1.632534610311971168e-01
1.902049390175911958e-01
2.000173922716435015e-01
1.652352761833291439e-01
8.816083439950932188e-02
1.139037129457487647e-02
-2.204761590215396569e-02
-7.801800307109888963e-03
3.007598479792047974e-02
7.095464403925619279e-02
1.041497856542849265e-01
1.183533345075906407e-01
1.110439222510986035e-01
1.072871225142238150e-01
1.208023281253523540e-01
5.967069035300780894e-02
-2.546067971757158821e-01
-8.433587480185078533e-01
-1.378631583022823293e+00
-1.430702325151675502e+00
-9.457221646096496404e-01
-3.056301683697555394e-01
1.054110469827194141e-01
2.221148542962534111e-01
1.910224824174787395e-01
1.357312290234316265e-01
8.613791718339058878e-02
3.251418512539590300e-02
-1.583734111735721900e-02
-1.511490344647109865e-02
6.744050665768992758e-02
1.863717336975447836e-01
2.312579129999657868e-01
1.390857645963906875e-01
-2.990020028567978022e-02
-1.552677699415707102e-01
-1.730253246658423893e-01
-1.120838568000773056e-01
-3.849924350965754083e-02
1.371114828367226215e-02
5.648619176315745893e-02
1.066178616889338071e-01
1.494634659928709697e-01
1.502677103604137532e-01
9.358886129831507639e-02
6.547477804403331603e-03
-5.293030998211300381e-02
-3.398007559116970194e-02
6.271151476581093842e-02
1.759493054289403002e-01
2.401075828630577502e-01
2.442974408184749591e-01
2.180126983352818071e-01
1.839387380832151198e-01
1.514142024300365041e-01
1.303217860025764618e-01
1.223721187275376293e-01
1.146756838689834690e-01
1.026904638038278195e-01
1.044005570215117695e-01
1.373079659431024335e-01
1.958517809946411503e-01
2.570896692447298126e-01
2.944490144705694812e-01
2.861596360187864119e-01
2.281742265104172995e-01
1.484938288513845961e-01
9.599397163678424771e-02
9.980837319105334560e-02
1.476023467721921945e-01
2.121260868673038591e-01
2.731500902557273958e-01
2.771712404985837708e-01
1.002944964405900613e-01
-3.446238401985503574e-01
-9.090178644675290798e-01
-1.236366971693563022e+00
-1.115659412468486211e+00
-7.082287057259826213e-01
-3.090077852007370174e-01
-2.938600767676738390e-02
1.655171046622599118e-01
2.782188851135117269e-01
2.832210390288107948e-01
2.148338029092182744e-01
1.476347192525982455e-01
1.161274749981500987e-01
1.007707253790768587e-01
8.102002159651729152e-02
6.384792316112494759e-02
5.847178389277971067e-02
5.735943225494401221e-02
5.405555528731668946e-02
5.792810393657433360e-02
7.698364554723399755e-02
9.515592033398997951e-02
8.478388669368551456e-02
4.705129765955728266e-02
2.064911595024034735e-02
3.564018142021416896e-02
7.783149937124897444e-02
1.122615464225729942e-01
1.201281643125978876e-01
1.060224573405505744e-01
9.146514156106004545e-02
9.670159370570394208e-02
1.099756861991657425e-01
9.706088860973689780e-02
5.740043639620510951e-02
3.465491318276683885e-02
5.847194544469067057e-02
1.117723667537274812e-01
1.599840159045674559e-01
1.806421723094942533e-01
1.629650647849645584e-01
1.072974087977106722e-01
3.443954413090020289e-02
-2.086539694268267978e-02
-3.650993343916072303e-02
-2.076117376472452064e-02
3.517399685128234574e-03
3.543497961799461915e-02
1.002079441977561519e-01
1.989359885989068488e-01
2.707217854687765102e-01
2.382587782289080081e-01
1.029842806032108676e-01
-2.537935239327566983e-02
-2.904256111229551116e-02
7.041850495629402296e-02
7.482505102287041743e-02
-2.264095687779226485e-01
-7.758582704055926316e-01
-1.184332508547281115e+00
-1.110911904575169196e+00
-6.613945278733049937e-01
-2.236225258537189453e-01
-1.259296241460650112e-04
8.598740426508019730e-02
1.325667237748700267e-01
1.418407625169421649e-01
1.219654183295307004e-01
1.239740276740351338e-01
1.618340173777045032e-01
1.921141009054941340e-01
1.813857944368490460e-01
1.375030172175668031e-01
7.732232417148941772e-02
6.433532786623787428e-03
-6.210670748760255266e-02
-9.386255376409390061e-02
-6.076790283222723715e-02
1.788320360927337510e-02
8.643231520080103814e-02
1.114407848700984804e-01
1.041516869585880078e-01
8.402094087041586667e-02
5.755964241102561052e-02
3.578698503954297339e-02
3.101204628840634192e-02
3.520201931970156489e-02
3.809466272361481526e-02
5.488852194665628376e-02
9.872250475912391909e-02
1.470852593777565442e-01
1.707857330454529421e-01
1.690675190290529817e-01
1.498358719213942203e-01
1.097525215036177643e-01
5.607292813106887902e-02
1.616856763885126530e-02
7.267137629473880041e-03
1.952599001950127561e-02
3.709658533689947496e-02
5.332570706630458679e-02
6.170529737299043638e-02
5.438976147182765508e-02
3.069034806857924569e-02
-6.087199061879251458e-03
-4.866771195420876300e-02
-7.518114508351841918e-02
-6.076311811866505486e-02
-9.060118209842238021e-03
4.717682522478949120e-02
8.553694512391496474e-02
1.187407167208475445e-01
1.601864344215600533e-01
1.519382331957208343e-01
-5.297833082435693397e-02
-5.543946645742154899e-01
-1.184453750687289419e+00
-1.518435990975740779e+00
-1.269816490022712463e+00
-6.254859435181352456e-01
-3.374495903999204238e-02
2.566984102945286672e-01
3.043873683633478988e-01
2.542053971164602300e-01
1.833679323187231147e-01
1.135531417962289402e-01
5.517487458378730891e-02
1.822788484697211372e-02
6.434588489435368736e-03
1.495835741749731995e-02
3.389724138504431744e-02
5.163228039777624512e-02
5.630459241387263808e-02
3.651577557367123583e-02
-1.217883361012973148e-02
-7.393487719091171306e-02
-1.162233138096535195e-01
-1.195288176340299352e-01
-9.348020188291775168e-02
-5.375788324298737958e-02
1.652587549889106104e-03
7.511632461065496924e-02
1.367990973432637314e-01
1.382871317868162309e-01
7.434093444134930173e-02
1.095043722827009416e-02
1.852648868895480361e-02
8.378449956752717642e-02
1.344568491592887383e-01
1.490970166546579656e-01
1.766200237585216493e-01
2.416950854850380415e-01
3.000822879662871090e-01
3.005258957367499262e-01
2.408099334330704999e-01
1.556118801472046731e-01
8.444738174203889058e-02
5.394176859192027773e-02
6.622879352683416765e-02
1.015644049609787103e-01
1.395259596886331832e-01
1.721832325528909746e-01
1.995624563675952035e-01
2.236713460485358629e-01
2.410402551113050851e-01
2.336134379501708935e-01
1.813978386598472659e-01
9.735456691760101255e-02
4.383865658214258776e-02
9.171360313371079709e-02
2.195745445938658558e-01
2.420939075577235866e-01
-6.900111609818071479e-02
-6.860049647411204932e-01
-1.217450106937343346e+00
-1.270816113562289074e+00
-8.806657664633097404e-01
-4.054199360885414327e-01
-9.032899111974590500e-02
7.548071385790543208e-02
1.711256297913463786e-01
2.164453372400719222e-01
2.087452398509001272e-01
1.631015569715587310e-01
9.893448623812044207e-02
3.545440436155600228e-02
-1.306086000071964709e-03
-1.583207876369526531e-03
1.224912490072200925e-02
1.837910702895721726e-02
2.292275614043457269e-02
3.931964571099660910e-02
6.008503274934862831e-02
6.484712138478497534e-02
4.879409350776685306e-02
2.590287823307048376e-02
8.246983751891479031e-03
9.887619949878077505e-04
1.008747135501968442e-02
3.577006653697017979e-02
6.508929073159183676e-02
8.478480497984315634e-02
9.917046675689850099e-02
1.249851486346737067e-01
1.606491157521626467e-01
1.719576364741827179e-01
1.320854791389419192e-01
6.674392055777056409e-02
3.134516722184962217e-02
5.244523100825335127e-02
1.111435756937910468e-01
1.688318137272817043e-01
1.943323719843039754e-01
1.790954154737054715e-01
1.367628313222779002e-01
8.415430981615323880e-02
2.997481738180926211e-02
-1.023625611151380080e-02
-1.083694968879520340e-02
3.558817748814942228e-02
1.062466006315940376e-01
1.727937294722877437e-01
2.200006602188556426e-01
2.396228631197023229e-01
2.259834127924022495e-01
1.865270038506093020e-01
1.497185750641991941e-01
1.404671562193200995e-01
1.137554258655556622e-01
-6.601715174901078009e-02
-4.731899320472109371e-01
-9.234579144545408402e-01
-1.080177786404024287e+00
-8.311196820894646287e-01
-4.110719125857488221e-01
-9.402587320421312844e-02
6.614283726773785566e-02
1.436808575928292531e-01
1.719490913508146535e-01
1.437253581370424305e-01
7.603899600024693894e-02
1.420271616267695068e-02
-3.511091494681227443e-03
2.280965435028880009e-02
5.495626643026372410e-02
5.919069149411331637e-02
4.378592394153028866e-02
4.232552398156565199e-02
6.726822103078024251e-02
9.125442705508307606e-02
7.931054504078897949e-02
3.732315691330363727e-02
1.304537352105400450e-02
4.137558325281532473e-02
1.007279698862846712e-01
1.334852864706541631e-01
1.109825508247355430e-01
6.889453803729175818e-02
5.944799643058224642e-02
8.131429967066589048e-02
9.540388134062320613e-02
9.372234184881833574e-02
1.028505487510816274e-01
1.354851182627728745e-01
1.768947486377314693e-01
2.026462211984988437e-01
1.941711111991762662e-01
1.536092334741948617e-01
1.050290201589644951e-01
6.833888847612264172e-02
3.816311764324233080e-02
5.358973745010861545e-03
-8.292154385547350487e-03
3.247472808908175024e-02
1.188306564762183493e-01
1.889300119524044974e-01
1.899152103918963497e-01
1.279610457105027355e-01
5.378992632603083607e-02
1.545697016499590626e-02
2.141307225290976432e-02
4.238721959932641864e-02
5.582454647364250289e-02
8.531586947972868984e-02
1.756036208751921290e-01
2.969387807878619001e-01
2.699373365758204746e-01
-1.249090664254903782e-01
-8.442688190912385204e-01
-1.448823117982369402e+00
-1.477792665030678743e+00
-9.542708390543395147e-01
-3.215624854548058131e-01
7.593851359832892722e-02
2.298780906780215350e-01
2.639972094961268723e-01
2.411852359236752175e-01
1.785327367942129428e-01
9.906884169488594516e-02
2.445839360568159704e-02
-3.587127231387862020e-02
-7.461915809551360190e-02
-8.327213337285981065e-02
-6.063350187028074267e-02
-1.928248313996841837e-02
1.769346550763483544e-02
3.098229178705393105e-02
1.617661218844382298e-02
-2.031539106209640649e-02
-6.687849962848579910e-02
-1.045969836347864779e-01
-1.114276926041347232e-01
-7.723762947612604346e-02
-1.349750431594339516e-02
5.199371029594861138e-02
8.921442207078500441e-02
8.610340866134823246e-02
6.733226233879616163e-02
7.617533248775590349e-02
1.174993480734088935e-01
1.440576198413596742e-01
1.221573497048337731e-01
8.210404328083724390e-02
8.204664723914453783e-02
1.386256473686284796e-01
2.071349080974553003e-01
2.279981085594179890e-01
1.846043726653603390e-01
1.110844659066063250e-01
5.318075842692849414e-02
3.135854199324998592e-02
3.718745410974405585e-02
5.504743653733991382e-02
8.028804462942601416e-02
1.166246161388306835e-01
1.627168729010052273e-01
2.050199831412314322e-01
2.225268106850606664e-01
2.001272547939409729e-01
1.443117181019626383e-01
9.090927479231607211e-02
8.681023741373714020e-02
1.328553000654230931e-01
1.260452477695210571e-01
-9.178373504188742926e-02
-5.414075690734577728e-01
-9.799261454792363990e-01
-1.090631237961873001e+00
-8.184553970447396853e-01
-4.063082525845841397e-01
-1.037101451637478661e-01
3.414579076306572397e-02
7.674514755472665317e-02
9.447751809975621362e-02
1.241675383979502223e-01
1.675018457154583418e-01
1.950656648505399160e-01
1.766800219458179722e-01
1.147712037998999401e-01
4.400200951538850436e-02
-1.523524893637244124e-03
-1.797431132315269880e-02
-2.648543815429352938e-02
-4.091802951810196570e-02
-4.829810373730559353e-02
-2.381715128536239165e-02
3.859695760833192768e-02
1.090231345767913862e-01
1.374495820666134238e-01
1.019322759853527605e-01
3.494632396359739074e-02
-1.616832178162164180e-02
-3.928864524811375575e-02
-4.859580318546263128e-02
-4.057350397201252290e-02
1.465453248470825233e-02
1.236267276925518549e-01
2.288274808894915080e-01
2.573179277397736331e-01
2.060276745917080654e-01
1.368885308201468198e-01
9.540175452449370375e-02
7.676144994167180546e-02
6.287007646011058548e-02
5.456041085824760856e-02
6.608679319216984038e-02
1.028825270568426709e-01
1.478318779125699367e-01
1.727179584790525801e-01
1.630039771165555373e-01
1.241365701172194025e-01
6.743793039510143084e-02
6.605924157887312596e-03
-3.095982168930811948e-02
-1.658417167355238225e-02
4.199187220905585549e-02
9.995660749672397039e-02
1.299972754479893355e-01
1.583127718435096420e-01
2.191912045564803901e-01
2.597884782876854759e-01
1.083039514260702302e-01
-3.773815396606149397e-01
-1.050135329679294571e+00
-1.463771633661042681e+00
-1.301650497367236481e+00
-7.385175799350700565e-01
-1.990885510268273761e-01
1.053958055485755690e-01
2.209445687082081666e-01
2.205518173594870068e-01
1.422318275817119337e-01
4.982314259586134719e-02
5.413109332009221480e-03
1.482888941613269562e-02
5.411038473551360584e-02
1.089798949642557940e-01
1.536095236219613969e-01
1.349413626975825564e-01
3.455335398090333965e-02
-7.812333222822590018e-02
-1.180513684371636285e-01
-8.940621130864620514e-02
-5.675551375791570985e-02
-4.456490298808005873e-02
-2.784506928404794496e-02
9.633625528276432842e-03
6.220622002889771018e-02
1.210802249527970498e-01
1.676226381006759025e-01
1.738211858337379845e-01
1.353267587974393837e-01
8.395963830042124654e-02
5.741142628564493977e-02
6.855971307290829875e-02
1.045665396598274843e-01
1.477093900827687600e-01
1.867608107640339465e-01
2.094346872599097409e-01
2.062930355494218826e-01
1.843563173889121720e-01
1.562169863927375113e-01
1.226348617373223815e-01
8.565451737521696807e-02
6.575430394191933425e-02
8.243125028356279582e-02
1.255190427181851753e-01
1.651486323039875470e-01
1.844984914812716481e-01
1.871277573700049768e-01
1.792345659279213910e-01
1.654909449230062002e-01
1.577879771607965109e-01
1.601390780362458299e-01
1.503730143403279595e-01
1.160947798338012871e-01
9.977561567287387967e-02
1.424364141493862923e-01
1.631669755394052623e-01
-2.662146694691107027e-02
-4.989511352418725676e-01
-1.023547602486743369e+00
-1.227333565130353188e+00
-9.793935552405362843e-01
-5.155868644526213629e-01
-1.410003784783601111e-01
6.476288792055938381e-02
1.905910474476381622e-01
2.884439064178873080e-01
3.294826697785381842e-01
2.909648811599551688e-01
2.017281973923179816e-01
1.096730668777252948e-01
3.989969618607230872e-02
-6.474635922304779710e-03
-3.032282431417196791e-02
-2.936745718073779585e-02
-7.462242653655058039e-03
2.376290085485993631e-02
4.761800463390546828e-02
4.846162783351635334e-02
2.739583489594071483e-02
4.068899528335395352e-03
-7.203759508383630883e-03
-7.707134414080545060e-03
4.009162756708030580e-03
3.788587215452280527e-02
9.245734338102506999e-02
1.480633886438251223e-01
1.898565324310790003e-01
2.202585326778142005e-01
2.331942806817305369e-01
2.041053003664302645e-01
1.363397966457223220e-01
8.235866470487836211e-02
8.061405336390534138e-02
1.094405991170593617e-01
1.346987950995634231e-01
1.580509704737418086e-01
1.885544446212164271e-01
2.036437388789438807e-01
1.708572523383644348e-01
9.888130042874937464e-02
3.760382076450102112e-02
1.611403385288048482e-02
1.252752953887819806e-02
3.900346175578588842e-03
8.162230999589100214e-03
5.307532514953307995e-02
1.299483819390181427e-01
1.952930723276415925e-01
2.084337300175507501e-01
1.666788411716137452e-01
1.148853172970839970e-01
1.094582208919732957e-01
1.308166150337661815e-01
2.250119174987683102e-02
-3.881229005512937258e-01
-1.007043937794835697e+00
-1.411099285399732395e+00
-1.262441988000774451e+00
-7.131755356363488341e-01
-1.978372220791083103e-01
6.168274714818698656e-02
1.438455290648060769e-01
1.645227753340228471e-01
1.437216002050071273e-01
8.199744745669106105e-02
2.252912921029788865e-02
9.531367139976303776e-03
3.500784731160994090e-02
5.398947346420514271e-02
3.640661910674755641e-02
-1.088154708321750937e-02
-6.245368920015792469e-02
-1.003624032312925157e-01
-1.202797517460314075e-01
-1.192964470981108804e-01
-9.118659179260771297e-02
-4.034696432777838682e-02
1.211714111824879411e-02
4.579366240205845484e-02
5.668048871975015640e-02
5.352865552351970813e-02
4.426549439672698705e-02
2.720945321280721085e-02
8.217957906176374949e-04
-1.536455299093707205e-02
1.158497960922534424e-02
8.216866461314110970e-02
1.527105571017093877e-01
1.936056153597619234e-01
2.175350428252236790e-01
2.293154365715426302e-01
2.061555595981705014e-01
1.464420584315981877e-01
8.636464013345784840e-02
5.477046397346026912e-02
4.898734806543297154e-02
6.367126515385242158e-02
1.078774628320990359e-01
1.764047559304472435e-01
2.300527874903001979e-01
2.225086410116114133e-01
1.407193142512390138e-01
2.441061452947385080e-02
-5.340864370200382183e-02
-5.030061575074915026e-02
3.811470351516507704e-03
5.493011333138590746e-02
9.787616864177399456e-02
1.664570127925769638e-01
2.457525835016632909e-01
2.090739651142940470e-01
-1.008393713858883739e-01
-6.528877531907596454e-01
-1.135430434293413615e+00
-1.223673849680672721e+00
-9.242924711656157477e-01
-5.131844983336369959e-01
-1.832862419988993685e-01
6.900626647764357413e-02
2.617886526879941722e-01
3.396663379108981751e-01
2.825969053199397507e-01
1.620868636806729046e-01
5.929409475759950254e-02
-1.818199270821052593e-04
-2.659864725099041899e-02
-3.245584357764720596e-02
-2.246672180500871446e-02
2.901634107846389962e-03
3.582698229544618862e-02
6.036016077000414676e-02
6.449844440771801413e-02
3.748417039902012665e-02
-2.812830922748041362e-02
-1.015450808373370706e-01
-1.168790392653630550e-01
-5.464832053185192384e-02
2.766776923501175142e-02
8.040745121098570591e-02
1.115494365725717141e-01
1.320615172948393645e-01
1.272314811594307260e-01
1.026965366508254263e-01
9.377033650357050054e-02
1.072655833995854596e-01
1.087610252976913272e-01
8.568383359892821349e-02
7.291122849271966522e-02
1.006933388273327512e-01
1.533994278145974499e-01
1.915643441538938674e-01
1.935628250531833405e-01
1.637284100511340601e-01
1.172205182156555031e-01
7.386403191258210377e-02
5.274413647137667083e-02
6.070602381683326554e-02
9.138253853369789070e-02
1.329585620773059695e-01
1.759096045232360350e-01
2.173324019246972161e-01
2.523156596011755237e-01
2.620897049444449456e-01
2.218609532504651760e-01
1.280098129057753165e-01
2.679724147772895651e-02
2.544407317204402767e-03
7.628058895189138156e-02
9.150214005646049864e-02
-1.943602546071950821e-01
-7.828580231027423286e-01
-1.280502322258372905e+00
-1.272067407455279797e+00
-8.059227780354032422e-01
-2.912067251600078399e-01
1.740295807150071122e-02
1.850323505081878928e-01
3.180931675522162272e-01
3.859208158091982366e-01
3.425092864462022102e-01
2.460210991150588722e-01
1.866009854365439091e-01
1.753242826892262296e-01
1.509701188192612564e-01
6.367432919226775900e-02
-6.281903233057353764e-02
-1.431578509582478453e-01
-1.128034269332967576e-01
4.178827385276542850e-03
1.206130754248466441e-01
1.693429765985661195e-01
1.538008126227995709e-01
1.212886466881419878e-01
9.877142696414943634e-02
7.604305665914654067e-02
4.455734507967579888e-02
1.707478436822010628e-02
5.120859905040870547e-03
7.499648592353024522e-03
3.097344489388106914e-02
9.585922160754035970e-02
1.986378631438650844e-01
2.831661805515569008e-01
2.820535934203350914e-01
1.949634767269423918e-01
9.925052252357083327e-02
6.922800443155760486e-02
1.069287241515955583e-01
1.572198820072705505e-01
1.678362259310147153e-01
1.357126300907654792e-01
1.041808405261954451e-01
1.061006773835808104e-01
1.216429178632533331e-01
1.105567132711000045e-01
6.726093090123591578e-02
2.479876834758811682e-02
1.609580241549580376e-02
4.402519493837630388e-02
8.535906586536118335e-02
1.142677336016798828e-01
1.219676907743501570e-01
1.260726103666636178e-01
1.609094699063247647e-01
2.286403720331451617e-01
2.360901059659400170e-01
1.548023764923913033e-02
-5.032912244595131313e-01
-1.104589108839490574e+00
-1.384159362547177308e+00
-1.148176956619170186e+00
-6.214798041210493063e-01
-1.599038756621377066e-01
9.999050336602287314e-02
2.103722584742518109e-01
2.196810520095742736e-01
1.461210877190057267e-01
3.717387984149764235e-02
-3.979233660828830621e-02
-4.340983440500467694e-02
1.830795629792492107e-02
9.639755381691687830e-02
1.392181865018665421e-01
1.265349001637751936e-01
6.620495864393105556e-02
-2.078162795729465370e-02
-9.968487462916270081e-02
-1.325053251971135271e-01
-1.119734987267937409e-01
-7.229649159389819890e-02
-4.712088331133976876e-02
-2.593045756370773031e-02
2.200445301832283304e-02
8.598858320799918076e-02
1.142469480227832762e-01
8.124961630737217999e-02
2.559560285346460656e-02
1.230145375999478624e-02
6.404453146135720421e-02
1.350049025400761327e-01
1.653803537213022201e-01
1.537140237536967213e-01
1.471098694070643864e-01
1.691660914771237201e-01
1.871758835324355552e-01
1.478470383104597830e-01
3.927415655977031100e-02
-8.031987942288670856e-02
-1.320201417353704665e-01
-9.551843508738191990e-02
-1.602326777954067930e-02
5.857607106166200228e-02
1.156979600456001372e-01
1.578989959151957390e-01
1.770770434640190905e-01
1.597849576103194391e-01
1.055223579218600577e-01
3.628156553003444862e-02
-4.690470230035357485e-03
2.692300045469754252e-02
1.238731719335173925e-01
1.748605734248065424e-01
1.128474512294657534e-02
-4.071960063090660498e-01
-8.597159912826455308e-01
-1.037216967021591829e+00
-8.728043134958901605e-01
-5.720834950055725399e-01
-3.165764293578566257e-01
-1.113242837864986678e-01
7.160047285928082539e-02
1.979955235641155387e-01
2.569288783170391999e-01
2.870083627950471561e-01
2.894270087782617740e-01
2.272679631853348203e-01
1.133657062889135980e-01
1.000442900846809299e-02
-4.655624972170145648e-02
-5.751636622714575986e-02
-2.425805901784123739e-02
4.340104351321270176e-02
1.041624525248645849e-01
1.199086829172297808e-01
1.009284942534750540e-01
8.294953641514798970e-02
7.299087241020008054e-02
4.803546034308103785e-02
5.018401183420825862e-04
-3.908885378171497033e-02
-3.169202193282190383e-02
2.633111946326628303e-02
1.018584079650073776e-01
1.603288887451427558e-01
1.826525216329871470e-01
1.653757194605448566e-01
1.270302105409155946e-01
9.504471382495179033e-02
8.172975185838129986e-02
9.138883120777188673e-02
1.348430217364008366e-01
2.065700110677078927e-01
2.605619724274786386e-01
2.525926550663845638e-01
2.016371386831323775e-01
1.617138177103810692e-01
1.441946941525245884e-01
1.155360292214363815e-01
6.040993566925309533e-02
7.626109313554363736e-03
-7.723987071512851063e-03
1.706168477802737227e-02
5.989725942007302628e-02
1.035586423809520540e-01
1.436176759723401253e-01
1.695949320953401007e-01
1.573403034497910524e-01
1.051697333562591485e-01
6.245278663445440193e-02
6.351309867025033140e-02
2.372829227877238517e-02
-2.167127149353083593e-01
-6.730100643969302299e-01
-1.086093884621730288e+00
-1.133336003532745773e+00
-7.827320977516669664e-01
-3.196636113433645177e-01
-1.191523691816768343e-02
1.111008131446674513e-01
1.440979208333846573e-01
1.425588675605912181e-01
1.209911764702104042e-01
9.756553140205787011e-02
8.644879713823010181e-02
8.838934057118413845e-02
9.623221317309271772e-02
8.966157083241588222e-02
4.514016360457125121e-02
-3.138829685476116071e-02
-9.853650818532296018e-02
-1.153162990387344711e-01
-7.741980437200939036e-02
-1.748679161946813457e-02
2.770908222758618547e-02
4.844295813296179559e-02
6.035061211797242142e-02
7.489000640333642878e-02
7.938591011881664106e-02
5.514397967358304620e-02
1.061331729581504492e-02
-2.084335583051658003e-02
-1.583658556184122657e-02
2.625406616458103928e-02
9.482899708041479803e-02
1.632459754342334701e-01
1.962808540547018032e-01
1.924254179451117264e-01
1.840880957148881281e-01
1.798990373657745612e-01
1.517795451086119407e-01
9.135405713132054017e-02
3.874127748355002399e-02
3.616389129042399397e-02
7.644161568243328098e-02
1.171474464246373415e-01
1.330945766999580282e-01
1.360992808194580184e-01
1.442029160155285927e-01
1.444671575969873889e-01
1.027944091044882685e-01
2.076216867145163139e-02
-4.023603175967519624e-02
-2.276422463253930176e-02
5.752703641839752857e-02
1.384653686809499684e-01
1.918976595803689456e-01
2.449008119807186135e-01
2.964962073654326402e-01
2.171684338059994834e-01
-1.790965145646359058e-01
-8.543885423205667129e-01
-1.412600044904979146e+00
-1.443298952474926677e+00
-9.763327299831655592e-01
-4.038209113950175788e-01
-1.579870380427354781e-02
1.806834070044506246e-01
2.670674424124304669e-01
2.650232809710870718e-01
1.803461741032079679e-01
6.208621117893678432e-02
-1.982567235427803304e-02
-3.007409264348879716e-02
7.495170369485810655e-03
4.430993464178376029e-02
6.306952665385862078e-02
8.144198086482443144e-02
1.044480783547539898e-01
1.053507473879267131e-01
6.258667810590072544e-02
-7.029475914816053078e-03
-6.247819959894208852e-02
-7.354749608592928145e-02
-3.679628158838835900e-02
2.883828752062941175e-02
9.389786520449762419e-02
1.339407494779082941e-01
1.401940864013060950e-01
1.199927820840754750e-01
9.397294353066482087e-02
8.895396027563549912e-02
1.144633473640898486e-01
1.431102542066199079e-01
1.425111574259074199e-01
1.272817990856946468e-01
1.404713960214176716e-01
1.871473023641015976e-01
2.242881798200858923e-01
2.128564643681020163e-01
1.579396286191125376e-01
9.997684041856870485e-02
7.055586944007870287e-02
6.052231914792180478e-02
4.618319617024668061e-02
3.560018470585243899e-02
5.663261536182682965e-02
1.101034655880910457e-01
1.679568049885085401e-01
2.044119193363400921e-01
2.042929291955806470e-01
1.602870979280045516e-01
8.828117287345858821e-02
3.968602534216592037e-02
6.889748162809350429e-02
1.454913210887616437e-01
9.538222575355938260e-02
-2.703909594769909885e-01
-8.666871709418026981e-01
-1.276950745485408545e+00
-1.172752555674603903e+00
-7.032360749189293658e-01
-2.691558285367904868e-01
-4.627724596761416398e-02
5.812124613508987125e-02
1.322720100906923657e-01
1.651934387205094557e-01
1.506205669145986858e-01
1.320969974964175675e-01
1.430086036627516433e-01
1.628997758561956111e-01
1.462269658088867774e-01
7.857023343592065001e-02
-8.610685417860704238e-04
-3.567931131340184442e-02
-1.323946631533151272e-02
2.713934971451662653e-02
4.966032303723950936e-02
5.682056950076332102e-02
6.336478166987277727e-02
6.662568607012038513e-02
5.588340038910069585e-02
3.353516267028521652e-02
1.376622945419390259e-02
6.511727341328334660e-03
1.339549572169606954e-02
3.833404877500055929e-02
8.825311408221195308e-02
1.568038993562660688e-01
2.186789063884042872e-01
2.465655353188567489e-01
2.271055348097726356e-01
1.638859478172054740e-01
8.299865488456752149e-02
3.499264837248663995e-02
6.059081771737462319e-02
1.411224289047467717e-01
2.085690594489793825e-01
2.181266119212953714e-01
1.890061423011570596e-01
1.648777809198530564e-01
1.574687411246146751e-01
1.439154369376621501e-01
1.077799356084437610e-01
6.362302198288727340e-02
3.751557183440596549e-02
4.016586426302780344e-02
6.796924171692080019e-02
1.127399504517612727e-01
1.553519873938037643e-01
1.701332092347993541e-01
1.639430640136917139e-01
1.823635643412518104e-01
2.173424873769285171e-01
1.246875204866030179e-01
-2.641503953115723613e-01
-8.781928414759821999e-01
-1.334514351415871047e+00
-1.280244319254705276e+00
-7.823711486330103826e-01
-2.298507385591674890e-01
9.932715277687005628e-02
2.140968270930272421e-01
2.289626029936854823e-01
1.991048383378294928e-01
1.391565166630228390e-01
7.760355336666527326e-02
4.636845413675382693e-02
5.466773309807958225e-02
8.872241572175909585e-02
1.229604447725855254e-01
1.321338505886884562e-01
1.048138300376819931e-01
4.948879963928057291e-02
-1.182736799428763842e-02
-5.443678557220613112e-02
-6.144380212764379706e-02
-3.397127422049480566e-02
1.005318966745736599e-02
5.231142939834923511e-02
8.378690532413055059e-02
1.004671029624739503e-01
1.034391901341980002e-01
1.000236003011668595e-01
9.234167671519968867e-02
7.569975708960358096e-02
6.167120662127349023e-02
7.694896762275298119e-02
1.125826202669340248e-01
1.139482871554212545e-01
6.868389524753358566e-02
5.261968673954888626e-02
1.197804452287336840e-01
2.074207341196580290e-01
2.246800751751418246e-01
1.705902528771160442e-01
1.027376074394958927e-01
5.511101521914255758e-02
3.672896778280908964e-02
5.452709278171679469e-02
9.414196422124930519e-02
1.163771050692053860e-01
1.012753492870597655e-01
7.008385198289131257e-02
5.161730571690732045e-02
4.679720058181384423e-02
3.420941673271284816e-02
2.431731443466898963e-03
-2.763172206167814615e-02
-1.229234540673450858e-02
6.944174581016329673e-02
1.457054177241685622e-01
3.044484958575670308e-02
-4.308361036457634685e-01
-1.104898198490002592e+00
-1.556705353097197264e+00
-1.458482601358850106e+00
-9.428579838672384028e-01
-3.992049541272432722e-01
-4.942416502687019958e-02
1.226644862683507753e-01
1.826623276146056296e-01
1.646014908231420437e-01
1.059376662715752482e-01
4.546356977073866962e-02
-1.060556971590750214e-02
-8.097300028505581559e-02
-1.650755431437413157e-01
-2.215274445873875453e-01
-2.073294441254162901e-01
-1.367207735705887883e-01
-7.402624394698587018e-02
-6.433215469480373094e-02
-9.733848918241137793e-02
-1.401702649886609198e-01
-1.770073929140452695e-01
-2.057159593965190436e-01
-2.161961437947455822e-01
-1.939657845762109700e-01
-1.412659293291011753e-01
-7.628499530239890580e-02
-1.272513176343174034e-02
4.490455027031267643e-02
9.103838662107124891e-02
1.174707888529882838e-01
1.240228322479288714e-01
1.318635365012006677e-01
1.754905826484764453e-01
2.655043879285273745e-01
3.688223014387694842e-01
4.373121260639897256e-01
4.483685475992474356e-01
4.163868153775302505e-01
3.707680762801773833e-01
3.247557621710924214e-01
2.722066018585492242e-01
2.155958824990465983e-01
1.808196444664640912e-01
1.904569803226227598e-01
2.317615496028943012e-01
2.722926850894583639e-01
3.034448470409452092e-01
3.402510523131681563e-01
3.744897418370082276e-01
3.625223088002187954e-01
2.847061771297637600e-01
1.953024334700972364e-01
1.744491943649498222e-01
2.159450414879084124e-01
1.698962691740936448e-01
-1.468503575929676619e-01
-6.928160245194679989e-01
-1.111147465569255477e+00
-1.074029165570984601e+00
-6.706661379477463214e-01
-2.585948021231611049e-01
-2.208544063611877356e-02
1.077034532537119588e-01
1.989937025809109528e-01
2.189662580015325211e-01
1.578524564939858266e-01
8.770060730726345066e-02
7.660363067599473830e-02
1.189162705841181472e-01
1.603976571214992264e-01
1.599050534752583241e-01
1.223481217231956186e-01
7.669615052073938677e-02
3.082904868423671021e-02
-2.093393306757983935e-02
-5.074660805217728887e-02
-1.750606674077954256e-02
6.125316926678610330e-02
1.204958390993779160e-01
1.300351915328773478e-01
1.095090010688731103e-01
7.633894978950486743e-02
3.757430817415874369e-02
2.637275792735678526e-02
8.989489536025158101e-02
2.173163963191750980e-01
3.234149893628442962e-01
3.419264962692639132e-01
2.886747395666982019e-01
2.110141074999207778e-01
1.443933033220595741e-01
1.178703429522411777e-01
1.301810027069217057e-01
1.352639715685520772e-01
1.001694937451203249e-01
5.361357633296524178e-02
4.325903153698748560e-02
6.555903408942587163e-02
7.456688837074602894e-02
5.333529422095260181e-02
3.331670528340829190e-02
3.575391297870206958e-02
3.921455931956164404e-02
2.165329929552838040e-02
-5.954420008766839884e-04
8.495852564014435768e-03
6.054479100915020201e-02
1.247669467068393684e-01
1.622081766843629924e-01
1.768251337558180702e-01
2.035879168144965612e-01
2.173502247839656509e-01
6.897162671928036559e-02
-3.958878820111670360e-01
-1.062568874728682999e+00
-1.493393842814173311e+00
-1.345991929620387939e+00
-7.736701988803349472e-01
-2.142231102115374486e-01
9.424089705063409816e-02
1.985056114725344822e-01
1.976895371917869459e-01
1.361413227722389208e-01
5.225938411441666265e-02
-9.920786365807933438e-03
-3.591382492660206288e-02
-3.741309478908912134e-02
-2.113765480203251210e-02
1.519978074711827998e-02
5.915333044970053078e-02
6.755867428872001923e-02
-5.709057007744853390e-03
-1.402879749642686191e-01
-2.339273847873021561e-01
-2.094525551911254613e-01
-1.077176371135602356e-01
-2.227816517727168252e-02
1.551726449729207494e-02
4.046804029582069806e-02
8.243381338517084822e-02
1.312342775597652444e-01
1.558233726415212128e-01
1.384593639700189005e-01
9.954897676781770954e-02
8.544646159463838153e-02
1.116429298335076259e-01
1.399632043398494341e-01
1.401850855602669033e-01
1.377438246587434356e-01
1.686888617390790157e-01
2.188255683905928617e-01
2.301820743150139736e-01
1.584149312398760168e-01
2.658532831895301166e-02
-7.958545473948754057e-02
-8.736791616167564889e-02
-2.979226559565943677e-03
1.076636500150947445e-01
1.828337213105572234e-01
2.015027135661291158e-01
1.834611840014047646e-01
1.637205814481387800e-01
1.553568381304748502e-01
1.418854273831257340e-01
1.083540054549191056e-01
6.594840634105184063e-02
5.170151758251539942e-02
1.093286649970167390e-01
2.250940948453553636e-01
2.499061334344091223e-01
-3.110634767508484166e-02
-6.256941019950472693e-01
-1.179857640931718965e+00
-1.282124080902720342e+00
-9.141344004987768113e-01
-4.190763561249608027e-01
-6.912848015947382907e-02
1.322061900031212545e-01
2.684435356626871383e-01
3.483256466813314245e-01
3.489751461515774311e-01
2.886419087889592894e-01
2.088406510232531654e-01
1.324150037415098846e-01
6.436762540480477079e-02
1.205283306661564073e-02
-1.552258800778808304e-02
-2.085887726446179063e-02
-1.480965633803015165e-02
-8.814168399013497419e-04
2.724315002886433523e-02
6.922256303666313171e-02
1.038145891557822470e-01
1.009009213012837664e-01
5.473160766335216643e-02
-1.318796306830807841e-03
-2.240750131966368422e-02
6.704927992637253059e-03
6.117757577400270708e-02
1.072877256774132093e-01
1.414682875823448094e-01
1.837614854989089719e-01
2.293763289700604113e-01
2.387920705179475411e-01
1.934292096769243408e-01
1.259781971894727015e-01
7.616668908284131290e-02
5.210692608552208033e-02
4.768175976734927851e-02
6.074250653718138437e-02
8.372624118232376011e-02
1.033480588448581067e-01
1.155273361582934560e-01
1.262524085027735554e-01
1.351079460335887217e-01
1.279998868492813191e-01
9.571513258631721144e-02
5.452584697003848291e-02
3.653554730973176262e-02
6.116182691650335485e-02
1.181526111189118849e-01
1.709655333500710306e-01
1.820517513797598463e-01
1.513665125117677757e-01
1.250534233158662467e-01
1.366477876336874842e-01
1.220261363215769945e-01
-7.336150397428370384e-02
-5.261057185308325446e-01
-1.051692354271770879e+00
-1.296624007841726378e+00
-1.103252402863106552e+00
-6.774248261543275307e-01
-3.087116725396124584e-01
-8.465093227573178281e-02
3.731820996326603440e-02
7.251075857816252634e-02
3.293960499837800260e-02
-1.492807947709022531e-02
-6.376446898910551053e-03
4.768803813310185102e-02
8.825390596074289551e-02
8.724582647125264656e-02
6.129889665461671355e-02
2.474507637920122724e-02
-2.611479490766381584e-02
-8.357405058684386212e-02
-1.198034096471270876e-01
-1.157337402041485608e-01
-7.911991509161789282e-02
-2.964778915297302392e-02
2.077016469416902850e-02
6.716265250986991342e-02
1.002706555175823938e-01
1.077059220110203608e-01
8.378397760345186740e-02
3.419180089378773268e-02
-1.785346299075326812e-02
-3.324431275294582877e-02
7.985530608777557243e-03
7.534104205856401171e-02
1.211954880925052713e-01
1.344284360358223573e-01
1.322734862297339498e-01
1.233728111033335351e-01
1.078824861885349234e-01
8.818320588697867168e-02
6.157459751707036050e-02
2.643635421531755764e-02
-1.337755491526079754e-04
3.861464335952505180e-03
3.510190161646319085e-02
7.452968191569367407e-02
1.190330390410925254e-01
1.704103311125320652e-01
2.039095611277561837e-01
1.866801375865314305e-01
1.240285562975115552e-01
5.844905227035413625e-02
2.218639147842975737e-02
1.359083015475308354e-02
3.128205490042787473e-02
1.000128668282116717e-01
2.028831233730719052e-01
1.869832203857308972e-01
-1.554241195148629850e-01
-8.031883025146329125e-01
-1.367373123361941278e+00
-1.415210011397644463e+00
-9.392173983451475028e-01
-3.395267111379525193e-01
4.387324229819339338e-02
1.945937629509150724e-01
2.442152577252982293e-01
2.552687685578344245e-01
2.271127711576985675e-01
1.719620601626683787e-01
1.136762587202509583e-01
6.254954934908885100e-02
2.278520924547293436e-02
2.995628161923898081e-03
1.018056912830064310e-02
4.357617555317179481e-02
9.000050156518328570e-02
1.216611295721438113e-01
1.144575489885248931e-01
7.576825220124087934e-02
4.083069187299880054e-02
3.590512152488312125e-02
5.651675223090531219e-02
8.493440233934620998e-02
1.139489677537081219e-01
1.455825792291707277e-01
1.773295249800555806e-01
1.991181382200178374e-01
2.026508157439589064e-01
1.926092614887918442e-01
1.847893114311907337e-01
1.876209404327443542e-01
1.898358611458743350e-01
1.732587690435972161e-01
1.446804665118230637e-01
1.463480678785011868e-01
2.020321867730973664e-01
2.650520851823746082e-01
2.680982921143588160e-01
2.062770532751855845e-01
1.323660982746972525e-01
9.114158492348556351e-02
8.351578864997395713e-02
8.921432165282502935e-02
1.058669858819295817e-01
1.456645549734437162e-01
2.021783802637648619e-01
2.501580368727547299e-01
2.762712736754187048e-01
2.854591098788354375e-01
2.791431103360048072e-01
2.508364978324741923e-01
2.081711245251241515e-01
1.758247814092248063e-01
1.455333457068394842e-01
1.645090648512150672e-02
-3.454107836689346844e-01
-8.825769783362920062e-01
-1.245907742538482799e+00
-1.122813172878536214e+00
-6.280115801961208000e-01
-1.543102000671642271e-01
8.707252784788800659e-02
1.707707955282075640e-01
2.137377636608682463e-01
2.364531639642781236e-01
2.235551162053270313e-01
1.839138498876070615e-01
1.362789631222141862e-01
8.997419311615603710e-02
5.292128738030176666e-02
3.306488152298815014e-02
2.350457999600058870e-02
4.237756257666973336e-03
-3.337487616560089188e-02
-7.345908544590341871e-02
-8.933060722205797555e-02
-6.705782690193301532e-02
-2.123896843916268234e-02
1.456188717388262957e-02
2.286024662641894176e-02
1.549619926427036470e-02
4.329061679992720485e-03
-1.373202838706821111e-02
-3.426555262884196235e-02
-3.578834526733384175e-02
2.340814994983789893e-03
7.802505149714467070e-02
1.529863359089983776e-01
1.821258538237774671e-01
1.692656155844663446e-01
1.452428924138243482e-01
9.439696721397516921e-02
-9.823175863708438066e-03
-1.081034001053282068e-01
-1.071690199847030317e-01
-1.821820484855455474e-02
6.043045009299337356e-02
7.970436813012128641e-02
7.413768928183554763e-02
8.220063449254910726e-02
1.010851756999728707e-01
1.107302326899155948e-01
9.037831252835054618e-02
1.805612491900238092e-02
-9.183490385371669007e-02
-1.565417842632910728e-01
-1.004345302955145375e-01
3.978751377320666888e-02
1.580845618502556005e-01
2.127628786935785721e-01
2.274020689116440508e-01
1.524505553088237042e-01
-1.555022011797305426e-01
-7.021333788446568747e-01
-1.180416180638763191e+00
-1.228472871200440020e+00
-8.459011995720400190e-01
-3.595795355788149461e-01
-2.170736256316917884e-02
1.556628830556801846e-01
2.304765285125150442e-01
2.147290208498100761e-01
1.322796713230441346e-01
5.028933344527797278e-02
1.775087589190982654e-02
2.698950049960843062e-02
4.841389688396833396e-02
6.947003369157622732e-02
8.612523288512514974e-02
8.134994500752927571e-02
3.588528809414177900e-02
-4.380989798596254120e-02
-1.232961248745740035e-01
-1.672380522190528851e-01
-1.596069460618654567e-01
-1.035243925420889083e-01
-1.957165341255389171e-02
5.839628344488580203e-02
1.017759560075836012e-01
1.066300436077361469e-01
9.448552222211778484e-02
8.908546418121095212e-02
9.017925730467371559e-02
8.479212555235361715e-02
7.959518609436619374e-02
9.406890898609790441e-02
1.317775958965355376e-01
1.789087177588468414e-01
2.141396987628436388e-01
2.181004226268641877e-01
1.884217982205625419e-01
1.374787798176491938e-01
7.680159209013692756e-02
1.938653297138783274e-02
-1.433333141291037900e-02
-1.370294083877053419e-02
8.903797580618412477e-03
3.808261229869112224e-02
7.567500912761483678e-02
1.255317898403073562e-01
1.702936677303172053e-01
1.842806492386121486e-01
1.670625997864468026e-01
1.399243728356012184e-01
1.076132306640157077e-01
6.096580673800107431e-02
2.743168168988367045e-02
6.432856416258776744e-02
1.514608745484694874e-01
1.125456164220224181e-01
-2.603887541565091945e-01
-9.108899685056637274e-01
-1.417293249660373400e+00
-1.376531031399657490e+00
-8.586601384176624219e-01
-2.871811868396811351e-01
5.538915201326936183e-02
2.006657483193156066e-01
2.748524415820768341e-01
3.184939036895778064e-01
3.106453746711781427e-01
2.460699477935208157e-01
1.532539447671307786e-01
7.205437006044745907e-02
2.965271727407650312e-02
2.642004999057361372e-02
4.164573202324128864e-02
5.659811888310789518e-02
6.824936578237468521e-02
7.910521524224754797e-02
8.316703248262233283e-02
7.306292257132729340e-02
5.584836411638804260e-02
4.307493906579785981e-02
2.815203548223679450e-02
1.239366236266496377e-03
-1.614093772170053370e-02
1.168133619996958132e-02
8.276439300957935674e-02
1.570814602329647092e-01
2.055207753525502001e-01
2.300372064203727029e-01
2.346015390274688028e-01
2.085200688420445481e-01
1.581333323618605569e-01
1.252011681026692080e-01
1.403281301688264204e-01
1.812819367604867060e-01
2.066976001763262127e-01
2.071600250471180849e-01
1.975375371378235434e-01
1.772455718564681093e-01
1.276222178891996961e-01
5.509123170869603681e-02
5.330303978894990885e-03
3.982167385638868060e-03
2.080586809649964675e-02
2.982115414105408757e-02
5.436592874569250861e-02
1.165496044548573890e-01
1.904291317388926430e-01
2.318850178444226973e-01
2.234421138459950218e-01
1.818074370368844561e-01
1.456097089082909746e-01
1.423473178509382930e-01
1.202948317371324016e-01
-6.648923764172405548e-02
-5.023491232872804302e-01
-1.011004448105563780e+00
-1.236029529208992006e+00
-1.004488869680183472e+00
-5.138949721010284133e-01
-8.765064811360057107e-02
1.355778711565556738e-01
2.038964344720954891e-01
1.923147645888599044e-01
1.458843246626888857e-01
1.025328278004816185e-01
8.802066136581146449e-02
9.581255946524883105e-02
9.741427936734468884e-02
7.458749128976921439e-02
3.561266264765797218e-02
-2.059908115140569873e-04
-2.479024630860921299e-02
-4.117947293921996738e-02
-5.090236894171972643e-02
-5.290908248322479662e-02
-4.714748407097955896e-02
-2.653720433188119093e-02
2.675996456195897655e-02
1.168010399579736402e-01
2.034579206646104366e-01
2.224433710953442611e-01
1.517143682060385079e-01
4.035310166571562385e-02
-2.997952936392372231e-02
3.835456639993994107e-03
1.401210411592894445e-01
2.868434350177053171e-01
3.315889239502115560e-01
2.656225224669844232e-01
1.825970269865896667e-01
1.389387996906678024e-01
9.087608447875909767e-02
2.382264949240960397e-03
-6.729051037287277215e-02
-4.937902076795600004e-02
2.928561832772290721e-02
9.658853847513178270e-02
1.319277954771074235e-01
1.561732495872248105e-01
1.741054856108419646e-01
1.742435871069961395e-01
1.591146731535381109e-01
1.407571717671918521e-01
1.200136625251918415e-01
9.597274028163153836e-02
8.159686481047612183e-02
9.136431483259771502e-02
1.327027262189388601e-01
2.073030542939474641e-01
2.699679509087826723e-01
1.819226089284929349e-01
-2.028277885320091956e-01
-8.187631619388563431e-01
-1.318836377972885332e+00
-1.368144032785276298e+00
-9.896442925676481872e-01
-4.921895908297729272e-01
-1.165197261381049065e-01
1.027136755807602081e-01
1.999292194192264227e-01
1.864714179436603725e-01
9.613247444290606847e-02
-2.156141038489753359e-03
-6.523840128149664686e-02
-9.202032333800704011e-02
-8.492286078053738752e-02
-4.448397486366474640e-02
8.405177670832528203e-03
4.185778946179335297e-02
4.071357209083120710e-02
1.260103898654137133e-02
-2.566361462053208184e-02
-6.053618016713586958e-02
-8.296508862749076008e-02
-8.531580275378171374e-02
-6.530537602241383299e-02
-2.795973093492622186e-02
2.492608960983841437e-02
9.448984036618170157e-02
1.622467464624357814e-01
1.893858521449232613e-01
1.604364263649184219e-01
1.137450022676023964e-01
1.024564824135196506e-01
1.297040687204193965e-01
1.542420390318348378e-01
1.581322883063195350e-01
1.660527724210413281e-01
1.931086796685581031e-01
2.138376488205374903e-01
1.943220900393270445e-01
1.320481755628737375e-01
5.668309519829872051e-02
2.825609029812301692e-03
-1.526489201457446876e-02
-4.609090097062816700e-03
2.871238617154210290e-02
8.739502858159615972e-02
1.590559124492119392e-01
2.088815027727350671e-01
2.145256284824916260e-01
1.855413911634346824e-01
1.370263723039897574e-01
7.674206663346001822e-02
2.869399077612655793e-02
3.313373997457157161e-02
1.020992077402356479e-01
1.690234146803952231e-01
7.696729316373299157e-02
-3.140778907398111830e-01
-9.042590397833063509e-01
-1.304963271404386393e+00
-1.198281101766450307e+00
-7.093501627510705454e-01
-2.373038900155410025e-01
5.258368011022404587e-03
1.015820627108689200e-01
1.876237475813779532e-01
2.818327965432458337e-01
3.216747626865313348e-01
2.705608178612524117e-01
1.638486136951110006e-01
5.974422129951151295e-02
-1.706341925396957088e-02
-6.499323336596449230e-02
-8.135425727762195247e-02
-7.166852204308866992e-02
-5.279995321098385902e-02
-2.987810839103787267e-02
8.058748878165246377e-03
5.545104214993465397e-02
7.700709273529773857e-02
4.782497356733397820e-02
-1.006678239254387569e-02
-4.806191920396967604e-02
-3.829164130991850878e-02
7.523709894897371436e-03
5.589469344701056275e-02
7.957502809246833064e-02
8.040850646957375947e-02
9.132829959476677917e-02
1.352514539396706128e-01
1.819677515059699990e-01
1.796107951942501890e-01
1.240303374361493294e-01
6.124169032743102120e-02
3.364470704529823331e-02
5.185858354530438474e-02
1.029344135020014289e-01
1.634414324387067907e-01
2.085721194174258719e-01
2.203980764028506401e-01
1.942719830910047962e-01
1.402995853823537642e-01
7.934102872258040617e-02
3.431457220990208334e-02
1.957560044215702136e-02
3.574697616381281723e-02
7.474959524057608884e-02
1.283464237617015224e-01
1.854760871024629110e-01
2.222444754447132353e-01
2.174683534940563823e-01
1.907694024260237209e-01
1.844676334090545045e-01
1.614659088447549518e-01
-3.414952566166325892e-02
-5.054798040072524534e-01
-1.072399157027455807e+00
-1.339119390718455094e+00
-1.089987471511086659e+00
-5.330771301406211915e-01
-5.523219325517665645e-02
1.639631444807075344e-01
2.007374004449330174e-01
1.772431015315395486e-01
1.360753865866573542e-01
7.740193706572950916e-02
2.359404551105658693e-02
1.346976737420957707e-02
5.072950057894826809e-02
9.229925674144820458e-02
9.595412149616310005e-02
6.078338689651816007e-02
1.369054917458148446e-02
-2.817759154114089781e-02
-6.577987820817124409e-02
-9.714407900372196147e-02
-1.097316210166455336e-01
-9.377257550237028116e-02
-4.538786379271210480e-02
3.391715895560939997e-02
1.167146209950248315e-01
1.492806646576370078e-01
1.043469486667969875e-01
1.846386764190830615e-02
-3.966518801100230029e-02
-2.183813010472738375e-02
7.145547570723159714e-02
1.874088430736091382e-01
2.572751886242603536e-01
2.593862906673920499e-01
2.305174607023053601e-01
2.099148798656860493e-01
1.993557047841301999e-01
1.779908244411279594e-01
1.322310682691414940e-01
7.112572920433651857e-02
2.245598947818432112e-02
1.074926325825836283e-02
3.692281045257030797e-02
8.143192614890168435e-02
1.236565754943818735e-01
1.523908893099073236e-01
1.596281856354946349e-01
1.393161490775371436e-01
1.042599890009370117e-01
8.655660851152797985e-02
9.941147551659305914e-02
1.223913307752170082e-01
1.519230033686849723e-01
2.238992545231816012e-01
3.219178051896475212e-01
2.791681517906399179e-01
-1.127760420075641229e-01
-7.974532573629954380e-01
-1.352920679646838931e+00
-1.385305990192604364e+00
-9.576313638482849555e-01
-4.467669909965568120e-01
-9.156156155528730189e-02
1.227379555181076498e-01
2.575485198911428020e-01
3.088121471753678682e-01
2.716758773176701225e-01
1.901253573573381817e-01
1.173226615958191388e-01
6.903344312639629610e-02
3.504698514057190406e-02
1.493582887286316885e-02
2.051835248807807113e-02
5.073136226557004025e-02
8.202489952850736121e-02
8.885917959499248231e-02
6.902282104250782868e-02
4.182203660997250994e-02
2.349066718150195909e-02
1.802494584235170630e-02
3.245227798574314149e-02
7.592159228317449382e-02
1.330513011211761076e-01
1.667221893992539561e-01
1.641044753988943616e-01
1.552829333534933853e-01
1.726554030474994339e-01
2.122207013710327994e-01
2.392233137089725126e-01
2.162931349571419748e-01
1.415969286947331984e-01
7.298092825078060508e-02
7.816678180987317315e-02
1.504404105609102871e-01
2.176984597102291918e-01
2.347076063580045002e-01
2.186344569185627862e-01
1.988510898682183947e-01
1.790665340868473621e-01
1.506882627682878673e-01
1.147222155506534419e-01
8.757338368366054948e-02
8.857025684209184069e-02
1.151844949792071859e-01
1.397386292395741136e-01
1.452583877739519191e-01
1.512649333361942849e-01
1.743465722837994336e-01
1.755201511757180644e-01
1.071789320517633759e-01
1.657112951177237836e-02
1.733573947030827081e-02
1.076814994269989501e-01
7.308993128609531098e-02
-3.165042257101087775e-01
-9.557143115478892170e-01
-1.377214187067548723e+00
-1.239542126823346857e+00
-7.236029184386382207e-01
-2.589993960935728090e-01
-2.455599111906708529e-02
7.909216838950862416e-02
1.439746931172098954e-01
1.611446167176718847e-01
1.296240527663282127e-01
1.022531685224389170e-01
1.123851385080308768e-01
1.233292167175111115e-01
8.038503944627156672e-02
-1.528410206593529275e-02
-1.102232239370563305e-01
-1.584904512304205204e-01
-1.558265608775568911e-01
-1.235666072159260637e-01
-7.712694731496377853e-02
-1.863627588278709418e-02
4.326617831924346042e-02
8.394122923978372675e-02
8.172076386736056020e-02
3.788210490022654586e-02
-2.334631612271222817e-02
-6.782951832156271232e-02
-6.672783055483427761e-02
-8.934812332813450719e-03
9.248323444225833856e-02
2.011107985066534487e-01
2.663828425615843432e-01
2.523490822823582502e-01
1.759779533181044520e-01
1.002244995518662835e-01
7.270275738689103984e-02
8.554211504577771685e-02
9.945089630892432753e-02
9.140169181609564264e-02
7.269422832883029595e-02
6.708284367098256429e-02
8.362227217366265120e-02
1.140736464621674856e-01
1.416769171362035340e-01
1.437237872062702981e-01
1.027110058416071947e-01
3.174642278773039117e-02
-2.355360287862137691e-02
-2.604202407540492578e-02
1.600073366223649443e-02
6.022859798101194012e-02
7.258656858953521640e-02
6.001405304637320165e-02
6.479717740852372621e-02
1.079451788058779643e-01
1.150257717494090476e-01
-8.170387744162133092e-02
-5.851931824192809772e-01
-1.218676071578588260e+00
-1.560195758562942681e+00
-1.331803262454175130e+00
-7.049419725131533809e-01
-9.901904667439712093e-02
2.358413992995755937e-01
3.231329153851387748e-01
2.794489400985018523e-01
1.860567118490132899e-01
9.224672904255859507e-02
3.627914385963951216e-02
3.310484595043891587e-02
6.186403720718039456e-02
8.792553888404017193e-02
9.555008814220913860e-02
8.663738043627408625e-02
6.062236656168245447e-02
1.600139439088484050e-02
-3.211694754767980414e-02
-5.574825064202380137e-02
-5.017339266169065087e-02
-5.090399613265050166e-02
-8.177262569707452466e-02
-1.013208372460249890e-01
-5.062916479545238185e-02
5.672429672698309222e-02
1.428547984316993202e-01
1.549158027760187406e-01
1.124934606466400228e-01
7.730655902754680897e-02
9.026083674366010279e-02
1.312524716179349349e-01
1.533475228092742726e-01
1.557769932190321838e-01
1.789524420462915155e-01
2.274578390210154344e-01
2.550720763745388808e-01
2.310334982424820105e-01
1.750918568064679659e-01
1.213842119152657023e-01
8.155804940481779786e-02
5.502670178375216464e-02
5.150357443338068192e-02
8.032648890666237163e-02
1.273463478545662497e-01
1.652709693995327578e-01
1.808291981747366384e-01
1.758208723580822475e-01
1.544625087036207711e-01
1.239331579651916648e-01
9.701646321896534308e-02
8.873282238385467313e-02
1.161173735235712379e-01
1.904931929701224602e-01
2.790636900081339689e-01
2.587605919270367649e-01
-2.918472588207832868e-02
-5.713134888280805290e-01
-1.062070512038393533e+00
-1.159944598649237157e+00
-8.631549133123290751e-01
-4.658964694251427341e-01
-1.791751264389412623e-01
1.423986212877237541e-02
1.735197124771303279e-01
