7.539204870678259396e-02
6.434052976857673745e-02
4.720511312134392096e-02
4.408940271323428389e-02
5.868427547819911327e-02
7.472003599798325568e-02
8.093429432703047599e-02
8.535810968434277834e-02
9.874039506649814890e-02
1.088260814089903744e-01
9.242762377870200607e-02
5.722989674048174075e-02
3.858887638193235492e-02
4.867276392182781630e-02
6.730341320331326149e-02
9.067666718174383078e-02
1.498152280485491872e-01
2.528262358554774769e-01
3.314389219520404439e-01
2.993939948323087186e-01
1.703427691392476462e-01
5.652282586965260563e-02
3.380281221329564656e-02
6.884972230169239538e-02
9.257039246392499698e-02
8.467044693894119900e-02
6.902328381607342189e-02
6.791647299686126571e-02
7.987063571806346518e-02
9.293500921683391092e-02
1.067077174283014990e-01
1.252192550383405545e-01
1.354313420955752523e-01
1.190662644439380996e-01
8.481230637281123030e-02
6.501748047484171011e-02
7.172375456221055656e-02
7.620590074270668091e-02
5.570607487189642437e-02
3.665007870533096984e-02
3.113738350382289424e-02
-6.951918682520130677e-02
-4.262878748852272359e-01
-9.789823272927861142e-01
-1.345564056878925108e+00
-1.183303205524907087e+00
-5.944332712456761314e-01
2.870046042043050694e-04
3.101756360861638862e-01
3.480685169299491677e-01
2.645363152488865999e-01
1.708197280402931617e-01
1.013492439026427577e-01
5.481750151365707285e-02
3.157089070207345916e-02
3.258455718189803146e-02
4.344636705283500683e-02
4.213999812978045517e-02
2.201293830895158926e-02
-4.317830373958926257e-03
-2.305981772055320025e-02
-3.397542576904231254e-02
-4.319751196870477011e-02
-4.654394574632758630e-02
-3.258454782694746726e-02
-1.562217652437666252e-03
3.113201149737050005e-02
4.732282560265436283e-02
3.768090890710266289e-02
1.925914636983208639e-02
4.195867329595694140e-02
1.398009835206764362e-01
2.640878504586346431e-01
3.073770522672892858e-01
2.249110586329752248e-01
9.720077548438778303e-02
2.925446874701700950e-02
3.420113772168273392e-02
7.219984671286437672e-02
1.341932413477394670e-01
2.084752986537384833e-01
2.323893582187152029e-01
1.654991080437739348e-01
6.302651905085820960e-02
8.294629301940283084e-03
1.536432396543104678e-02
4.282698820921722327e-02
5.997024286774833152e-02
6.472490997267939250e-02
6.383970250664794399e-02
6.012156554066896974e-02
5.029025692263156683e-02
2.820037718966919918e-02
-2.062625975732821151e-04
-1.429839610395581065e-02
-3.279375180527314970e-02
-1.702867563562630304e-01
-5.337145713555606630e-01
-9.922762858773149786e-01
-1.192829818883022419e+00
-9.431619826594517253e-01
-4.449026172375249444e-01
-2.617791592295214131e-02
1.932064550731363295e-01
2.711648287549210390e-01
2.589562180803773872e-01
1.770930812475421945e-01
7.787087057826487524e-02
2.448966847571230898e-02
2.697376871363421288e-02
4.493618325299585797e-02
4.431901499355799662e-02
2.588704920441254123e-02
4.711244665196463732e-03
-1.159521759872926029e-02
-1.779593372361201048e-02
-7.708680753120419199e-03
9.952881213914950218e-03
1.322225234494416382e-02
1.215014650847792699e-03
5.000064285823325322e-03
4.383147718266390547e-02
9.125404487849357593e-02
1.089793633708696918e-01
1.002086202083279920e-01
1.045580027341463797e-01
1.492048296058715307e-01
2.241403561248228316e-01
2.898944126871118021e-01
2.974689089622998273e-01
2.282634664900627386e-01
1.239210077174504321e-01
5.315734612672333437e-02
4.821872821782636348e-02
8.662632563651696815e-02
1.250808120731033146e-01
1.368370380621339866e-01
1.228089377413510985e-01
1.037017961300442936e-01
1.017946377392265067e-01
1.179445050723226390e-01
1.301887576902070187e-01
1.233513071503987563e-01
1.086212013894329309e-01
1.043159594562038245e-01
1.051318789234706869e-01
8.147259533481823746e-02
2.155054837344532598e-02
-2.621306612789732482e-02
7.722089037841831788e-03
8.609104829257951952e-02
6.766933483720597581e-03
-4.075235963846777221e-01
-1.005609859615204327e+00
-1.332431296293246525e+00
-1.094331648595276096e+00
-4.893304826842176380e-01
5.022209200254293404e-02
2.989718310993334516e-01
3.090962084408819810e-01
2.140607360534697023e-01
1.131258782884835001e-01
6.348624533475730192e-02
6.878711576589953414e-02
8.514406498994576966e-02
8.617318130223237949e-02
1.031750324132713614e-01
1.589555217494511286e-01
1.990686411834200198e-01
1.580299855373903384e-01
6.208082453455728011e-02
-1.629151848223344551e-03
9.838264691219868879e-03
6.561665913330270994e-02
1.109555230900120676e-01
1.174214853464281422e-01
9.252859544936865854e-02
5.911693824515390494e-02
3.741338632924851026e-02
4.498904044650642309e-02
9.589162596418381035e-02
1.850297804045254735e-01
2.758681025339468351e-01
3.131076678397447521e-01
2.629643777830134033e-01
1.512209566082876600e-01
4.665023129223066362e-02
-3.214673776724107372e-04
1.212770086146567304e-02
5.565515848696261925e-02
9.496808287963728890e-02
1.051129172942780188e-01
8.939225457825170085e-02
7.502778660456232984e-02
7.821127732884712580e-02
8.465355556830536643e-02
7.697053145593713008e-02
6.262329238886521487e-02
5.783212689551909397e-02
5.952108923094018983e-02
5.115677315475246345e-02
3.022916315540640636e-02
1.555451300085270924e-02
2.618169996458260401e-02
5.523192142783495129e-02
4.603979835088842232e-02
-1.169784221395267360e-01
-5.201393747185897309e-01
-1.029832476697919441e+00
-1.283765087951766359e+00
-1.044164340358815224e+00
-4.844051451693311972e-01
1.905939972039817631e-02
2.644293066921014068e-01
2.903850103142491257e-01
2.164234421620164217e-01
1.341768896061021898e-01
8.223680007020850447e-02
5.419621781887857398e-02
3.116996886437327710e-02
8.357607914210715347e-03
-9.371871003178215004e-03
-2.186046689577110860e-02
-3.232117827536658966e-02
-3.689440773845354543e-02
-2.892848657310258254e-02
-1.548951882654670334e-02
-1.424085045007242659e-02
-2.712096604658409404e-02
-3.239695952601154977e-02
-1.437900989061753620e-02
1.052448688241017921e-02
1.291070739903465298e-02
-6.874219851896526401e-03
-9.495048960340292388e-03
4.199006128722290038e-02
1.367921272162352930e-01
2.165142698757606954e-01
2.192007293806389201e-01
1.353586105730845146e-01
3.034452092789008404e-02
-9.593490530562624741e-03
3.375748085440594820e-02
9.955815934476393292e-02
1.298242494395258351e-01
1.266687932037798558e-01
1.184122075766025073e-01
1.073533067859139961e-01
7.776534083623491689e-02
3.446686594283041721e-02
3.694606517141674120e-03
-1.125583952739678695e-04
1.161795552348566379e-02
2.035959672957223313e-02
2.241204652485333584e-02
2.971436507114841655e-02
4.663091623920806450e-02
5.453227576648377040e-02
4.001739133119917163e-02
2.149137957228073117e-02
-5.784843437106924023e-03
-1.459293352260638554e-01
-5.115718820167078906e-01
-9.853938654324585489e-01
-1.209918934298563009e+00
-9.620413410320880487e-01
-4.225115078662047274e-01
4.848632839622832313e-02
2.689820300383767293e-01
2.883297801896492762e-01
2.314674231278606997e-01
1.798733385961301945e-01
1.469126685644891739e-01
1.170611620498228367e-01
9.086442426616977985e-02
8.258474664747247895e-02
9.135013505600600436e-02
9.796553674363378539e-02
8.960064897692010533e-02
7.888434690836743091e-02
9.474599324857573002e-02
1.443970089986250094e-01
1.872642737450919415e-01
1.752644220831187372e-01
1.207812601376678646e-01
8.830926058498342335e-02
1.123350812530787696e-01
1.574447733549505513e-01
1.734154054448125981e-01
1.629392894343059117e-01
1.727503564697482619e-01
2.328921865247126910e-01
3.217247476782130744e-01
3.811919647688882251e-01
3.613119347194340136e-01
2.609233603305818328e-01
1.288304673343952378e-01
2.581967091559376343e-02
-1.158186416737423674e-02
1.720072193850629566e-02
8.383467801227277583e-02
1.501753280174781824e-01
1.881069440625107725e-01
1.880235804879333006e-01
1.580499660014947350e-01
1.166521215187483751e-01
8.027577075506493742e-02
5.946623728074216381e-02
5.911952942262221206e-02
6.651362808104510638e-02
5.417487560091988757e-02
1.522249850546646133e-02
-2.213260137085141382e-02
-2.696474019423406032e-02
5.297574428474415009e-04
4.679437023021777026e-03
-1.394807842460508984e-01
-5.269483491026075717e-01
-1.013565499096028555e+00
-1.228039172837117166e+00
-9.576347439213060975e-01
-4.081725987837422909e-01
5.464159141376769002e-02
2.710981444048905509e-01
2.975177255683538746e-01
2.290299981390473416e-01
1.308397327286757172e-01
5.431364872664071197e-02
2.811177256984434547e-02
3.562240232634197867e-02
3.297694605247758481e-02
9.033040555108343833e-04
-3.431625887031669597e-02
-4.029161307042076340e-02
-2.297541757193927864e-02
-1.651262960603546923e-02
-3.651411941109512088e-02
-5.940269733652871198e-02
-5.323397812728575956e-02
-1.952309682305383015e-02
9.164631296034253874e-03
1.299643640520915105e-02
7.714538388439865293e-03
1.392941238583800430e-02
2.903736880411871696e-02
5.325175693410877376e-02
1.108350085988862588e-01
2.027191415651188877e-01
2.661201762401220750e-01
2.359145976696418456e-01
1.325789456692327284e-01
4.043534064021518659e-02
6.948401040864426309e-03
7.422440298005258258e-03
5.687151716911554959e-03
4.066554045295995255e-03
2.049050461625917183e-02
5.198871725585035852e-02
8.148018336237965176e-02
9.876561628190300146e-02
1.011860840444791243e-01
9.023818263479782553e-02
7.557195562335980443e-02
7.039911782125898854e-02
7.737180117031219884e-02
8.486422020323947102e-02
8.032448705264116917e-02
6.508822673394772107e-02
5.552107135530814225e-02
6.381883836559801293e-02
5.061666556433638137e-02
-1.062997009269314452e-01
-4.985870767429141925e-01
-9.718449695325893645e-01
-1.169438176279028463e+00
-9.193851250163879163e-01
-4.292991241625836452e-01
-1.011887391594368940e-02
2.164176117800189481e-01
2.881548884349511841e-01
2.640266720488892993e-01
1.865748384894914957e-01
9.645163818316145055e-02
3.060742478649774306e-02
9.913375992371974837e-03
3.176371238828185062e-02
7.194600071170918765e-02
9.744697703141333434e-02
8.851446519681298308e-02
5.363775472761139057e-02
1.866460522540677042e-02
1.776164897289534556e-03
1.747227045536954917e-03
5.891570902016277263e-03
8.463511697131135755e-03
1.906395241297577370e-02
4.489578071968224060e-02
7.469615937189751087e-02
9.242355209113717329e-02
9.404419752480247530e-02
8.992426445258357159e-02
1.083881229412286540e-01
1.812259657095495746e-01
2.951087049201551737e-01
3.729975041814596048e-01
3.430406004888595373e-01
2.240005581985258787e-01
1.079454458577175924e-01
5.868309084952354204e-02
6.011617573799322295e-02
6.273778140262116498e-02
4.730441988868002573e-02
3.309682131411820216e-02
4.194486361375383832e-02
6.834508576157635740e-02
8.483480548238769847e-02
7.342074893521149948e-02
4.685211555530450350e-02
3.240522386036883556e-02
3.955399410435801039e-02
5.307853244032236656e-02
5.256280033991329870e-02
3.490774114394629146e-02
2.395176887168012220e-02
4.253669662492247372e-02
4.550826019460867122e-02
-1.037320380607239245e-01
-5.020823993028713517e-01
-1.000232434438262930e+00
-1.243793469129450324e+00
-1.031743577269869760e+00
-5.277299879395398463e-01
-4.381501474965993070e-02
2.447844895704214263e-01
3.302845121055272837e-01
2.798112482990762762e-01
1.843185784075012101e-01
1.194142006890624996e-01
1.016826241251081453e-01
9.705535630067624320e-02
8.004664727370493227e-02
6.456356819953444626e-02
6.806328674067167739e-02
7.521868221667503407e-02
6.326879083821287941e-02
3.848790655196211719e-02
1.758291240914309356e-02
-1.114907104884715547e-03
-1.782483828279763857e-02
-1.113502302984184511e-02
3.436191914982805740e-02
1.009091285042895692e-01
1.479662517802439181e-01
1.347028475034247885e-01
5.165271647706333458e-02
-3.976479489052701932e-02
-3.707867267316653642e-02
8.145923894397748277e-02
2.091868597142874930e-01
2.383785281087353325e-01
1.808564809608161350e-01
1.217187686701010352e-01
1.107452721303387733e-01
1.329625504032882766e-01
1.495589541738648331e-01
1.412786681873349492e-01
1.205366397543134460e-01
1.121804702971026663e-01
1.249397863868139252e-01
1.441256512215346175e-01
1.555066691290407366e-01
1.673796996544955062e-01
1.903539708082793713e-01
2.041750520839621941e-01
1.766129030741029893e-01
1.122436732550729926e-01
5.450038652283738239e-02
4.009110724810672349e-02
6.709770258273392574e-02
1.014291613452146940e-01
7.967262907533828598e-02
-1.084098253637697934e-01
-5.446007113492238316e-01
-1.081120714584612674e+00
-1.331338984963697625e+00
-1.052394578755624144e+00
-4.476117093003397773e-01
6.960151052950433459e-02
2.946891803768919571e-01
2.997844444981844214e-01
2.282361115785160599e-01
1.584743729224828979e-01
1.105186461342139159e-01
8.039350300670483618e-02
5.348566361663510682e-02
1.967653717343677625e-02
-1.428120028553535488e-02
-3.321065664609847840e-02
-2.970560012052005788e-02
-1.143728360301425953e-02
4.122738237772465703e-03
6.609538581962534458e-03
3.127612069706843696e-03
5.569763638111678225e-03
1.609670438956451941e-02
3.294014802319792518e-02
5.585164942755642403e-02
7.533233642986754408e-02
7.334844419123341674e-02
5.128111056803999479e-02
4.818995830318702905e-02
1.071792312778541284e-01
2.114287381379601205e-01
2.779178614324831487e-01
2.459063205750884606e-01
1.516706509017688720e-01
8.242629308742455141e-02
7.850325266952515313e-02
1.097164729051020859e-01
1.270137244445864733e-01
1.114176850370489219e-01
8.078649059000302113e-02
6.689648740395541526e-02
8.619557068442131043e-02
1.226632193115487629e-01
1.379423555970417936e-01
1.055959536241457830e-01
4.008405880582908282e-02
-1.364265144653276952e-02
-2.483339355990948558e-02
-2.757342005008597136e-03
2.224673506253372485e-02
2.952222690701765406e-02
2.330664707414729225e-02
2.112488374434261240e-02
4.685957436407258564e-05
-1.476462866682396180e-01
-5.145933163817130174e-01
-9.690154832227700910e-01
-1.173978500298191952e+00
-9.453688010007613718e-01
-4.691512369159717144e-01
-5.753177326725577440e-02
1.607213307341537889e-01
2.277997674275690776e-01
2.032995156067369247e-01
1.288308431059986270e-01
5.731398566918658594e-02
3.241004176334591480e-02
4.986850633140105238e-02
6.843650075084008189e-02
5.727631945845890193e-02
2.270511179480669967e-02
-6.697258617877812487e-03
-1.308222827881859278e-02
-4.459016728905959570e-03
2.855986170606387119e-03
2.831661192874122129e-03
-5.871227725649693675e-03
-2.103964992818605981e-02
-2.526421366887220479e-02
1.591649376962691632e-03
4.976803830721510807e-02
7.754938627854959798e-02
5.940920555549675242e-02
3.379971966657400323e-02
7.687156432620446955e-02
2.089052221606954307e-01
3.418559294416934069e-01
3.552791334635704845e-01
2.322508328487948859e-01
7.961476047910875931e-02
-1.128341804672163690e-03
-7.116915177230737598e-03
1.492374177771914855e-02
3.717910347092664991e-02
4.774041010123623169e-02
3.922333831524641573e-02
2.090808588314911273e-02
1.221995964038913134e-02
2.037859573018536291e-02
3.894070727250006220e-02
6.247761628482741136e-02
8.944743183478272297e-02
1.056718982451534811e-01
7.275088088622630456e-02
-3.488112804490529906e-02
-1.631751113044016821e-01
-1.972822586770853481e-01
-9.500282943981207262e-02
2.149773930316526901e-02
-6.473960946945218897e-02
-4.681047434910987626e-01
-1.002820022406548883e+00
-1.247027219585579827e+00
-9.559707442471470085e-01
-3.457607094308775553e-01
1.653789836784899936e-01
3.794823211443558719e-01
3.732151860752731531e-01
2.808859359182815929e-01
1.682699125708773946e-01
7.052993555486056221e-02
3.353606560216375321e-02
6.616171075730981066e-02
1.053035704171009362e-01
8.989090617023610952e-02
4.074997533331572996e-02
2.277920875930830591e-02
5.179078368290045142e-02
8.103838280556066587e-02
7.665273178085676986e-02
6.390777462045399426e-02
8.054784724080772673e-02
1.197351205983205880e-01
1.465640071009010614e-01
1.488469668962210390e-01
1.440244613113960959e-01
1.460548818281746097e-01
1.538017358006303903e-01
1.730283200371068864e-01
2.222578345045629622e-01
2.998032103679148519e-01
3.580119225017296403e-01
3.403638184784543719e-01
2.530194074994742692e-01
1.688937769595649507e-01
1.451906763090278496e-01
1.657236435222024518e-01
1.756489304841458154e-01
1.484879165913514931e-01
1.112707258878726096e-01
1.124949501490184745e-01
1.649135956592249763e-01
2.268804386812761642e-01
2.501018066393106420e-01
2.285283989259848103e-01
1.858789380719589601e-01
1.413131758657375503e-01
1.068191082721887536e-01
9.341417913080415913e-02
9.808808776123494055e-02
1.004729683012215991e-01
9.035055476753306447e-02
7.945274466800070212e-02
4.658394120910708952e-02
-1.192360940621534082e-01
-5.168868179176095978e-01
-1.006744815009837035e+00
-1.225205744424589627e+00
-9.682942497541328075e-01
-4.347219312508014966e-01
2.688635980335726816e-02
2.557522535720867518e-01
2.883297687288201572e-01
2.102645353921139548e-01
9.888087889937482999e-02
2.069044469705092273e-02
4.856805414548649377e-03
2.326863828013187030e-02
2.450943149207016059e-02
-7.576185591607302247e-03
-4.503677347895577998e-02
-6.273873504031453330e-02
-6.809625515976341914e-02
-7.611140612092294477e-02
-7.882444223426504637e-02
-6.011756873810644025e-02
-2.723296871514115786e-02
-3.882051156862087633e-03
1.314336893759134126e-03
-9.407423260349972310e-04
-2.541697695067268812e-03
-5.876554175566956785e-03
-9.420165404907504536e-03
5.201191564189881419e-03
6.274677585855933937e-02
1.570637616816801529e-01
2.288134999475804066e-01
2.146589372670241747e-01
1.269320126283724759e-01
4.626510220018746622e-02
2.482154292480705238e-02
3.904551223266112397e-02
4.775348179157717921e-02
4.639214466354214111e-02
4.550033752672943965e-02
4.155414569239487821e-02
3.448568848777583407e-02
4.217588358535926535e-02
7.201013170351266979e-02
9.701844758363928345e-02
8.323982547891965733e-02
3.758061556299245598e-02
1.657398475168146007e-02
7.040233364853244746e-02
1.666340622319213982e-01
2.041122396954635487e-01
1.370322510580758990e-01
3.492329499864181563e-02
-4.072802916130444789e-02
-1.763334402630394315e-01
-5.168411654460097759e-01
-9.963690293033461431e-01
-1.280276827343614254e+00
-1.109743025386910498e+00
-6.061913976673947158e-01
-1.066963701322683894e-01
1.811630851228222816e-01
2.600219416615793255e-01
2.195347811580949382e-01
1.447306644891393212e-01
8.536013375335485542e-02
4.818742783607109226e-02
1.952009080074007183e-02
6.196518049389476701e-04
9.161847223406013180e-03
4.551763053084344202e-02
7.801835332302925474e-02
7.316896265882159855e-02
3.156030005385947190e-02
-1.294869579377208244e-02
-2.642664555790409653e-02
-5.098715190925991354e-03
2.679901420933471570e-02
4.866229064104303503e-02
6.531792950415668542e-02
8.772878206873624407e-02
1.059359372818311079e-01
1.066523483026958208e-01
1.088600647440597785e-01
1.513507010512132323e-01
2.390757393970397715e-01
3.165313543982284927e-01
3.126642545287788844e-01
2.220916235247130943e-01
1.205026766914595315e-01
8.002030675867538578e-02
9.649057085761660046e-02
1.191360301266590899e-01
1.185964243888647240e-01
1.052511038165887952e-01
1.020923668157541209e-01
1.150492268723811162e-01
1.286478236601731051e-01
1.263919714800651739e-01
1.050135366769296280e-01
6.982934632989050427e-02
3.229364076039947101e-02
9.340289527555906829e-03
9.708521751360082996e-03
2.529120299818071391e-02
4.359833802621262272e-02
6.350805494602905499e-02
9.513455906727605327e-02
1.249129982948455619e-01
5.103385431271366401e-02
-2.832823343624849555e-01
-8.516399489422133984e-01
-1.285994099484468522e+00
-1.192961536394278932e+00
-6.291954610737104936e-01
-3.480430764082285966e-02
2.703635043535288496e-01
3.153787597532609621e-01
2.724909414119401352e-01
2.312052446623624191e-01
1.879305567877235517e-01
1.365541052758273977e-01
9.840322334924708758e-02
8.445167899831276803e-02
8.004124915631075088e-02
7.047922591584990237e-02
5.332298909151717003e-02
3.181521534311235883e-02
1.349449773799001745e-02
6.218226022238398931e-03
1.011249687611876120e-02
1.924383299987739160e-02
2.937506295505380380e-02
4.098462477990064134e-02
5.596679274358667966e-02
7.300605889058411901e-02
8.707155364884529292e-02
9.408846082539631950e-02
1.008735348981857904e-01
1.321517961456480095e-01
2.089845073559990496e-01
3.023251120085992949e-01
3.340777972664599749e-01
2.615212718849663776e-01
1.395700177953004550e-01
6.012868933549908590e-02
5.095442424707409546e-02
6.981189061263048945e-02
7.728587894243604817e-02
7.806572248168154593e-02
9.251825693601635481e-02
1.144053606122783090e-01
1.160448626423865592e-01
9.026296000758773919e-02
6.343979766594606828e-02
6.059822959533165548e-02
7.776016388799954215e-02
9.472568600125436111e-02
9.817340325633538978e-02
8.535644725435492797e-02
5.747920330099097475e-02
2.530466946120731378e-02
1.501072609796279267e-02
2.686364979388817381e-02
-3.931041328288558540e-02
-3.436971965658080497e-01
-8.687603139568179644e-01
-1.278453261902384730e+00
-1.217885758747997871e+00
-7.308479500005877760e-01
-1.873046375245335238e-01
1.381262124880128228e-01
2.361943702266512402e-01
2.116158030757820385e-01
1.453698942839332930e-01
7.938404781430097312e-02
3.048007436151179556e-02
4.274762204842796898e-04
-9.880462472923135994e-03
9.977996439425144970e-05
1.858381209753429825e-02
2.525801612733597976e-02
1.362630943406374640e-02
3.311825789320528221e-03
1.790724570125670073e-02
4.807108480585729066e-02
5.741157581112391051e-02
3.257003151498413795e-02
4.236716987773560608e-03
1.009781997780769686e-02
5.172192159750440416e-02
9.541243586097233886e-02
1.118357814241756343e-01
1.079453769251615125e-01
1.167424334950761255e-01
1.582206682609900994e-01
2.107725831779636017e-01
2.251397605573699778e-01
1.802347629471807988e-01
1.172388007279115130e-01
8.971265643658424271e-02
9.375533203179561847e-02
8.665241111422290754e-02
5.838182954530181379e-02
4.402258601435844049e-02
6.984870993767779146e-02
1.142975649555813822e-01
1.330343524967893543e-01
1.127344069928945675e-01
8.222669398693699394e-02
7.115376246303564689e-02
7.658307690892375563e-02
7.668327039714806226e-02
6.210026364338992050e-02
3.927538581854802396e-02
1.111904801913671248e-02
-2.316417750766928269e-02
-4.781661054345923145e-02
-4.738593129686063943e-02
-8.248750152730355278e-02
-2.999637496173012674e-01
-7.391994511989629091e-01
-1.140671734191099240e+00
-1.144952244341670422e+00
-7.118608738961235138e-01
-1.560013858473931481e-01
2.218587494392136872e-01
3.588857099862414746e-01
3.363130710277930646e-01
2.459482047176994313e-01
1.546729122641348209e-01
1.008381210356107394e-01
8.900725262247538572e-02
8.553257853167711700e-02
3.709126358706191229e-02
-6.053496740905527085e-02
-1.298967360050047315e-01
-1.053284300617994690e-01
-2.258275988620987024e-02
3.882700248224840722e-02
5.159951395213229625e-02
3.941060625393324329e-02
3.155688097625418409e-02
4.325508511908212478e-02
6.802140531225291109e-02
8.583991485399329602e-02
9.249962033830130825e-02
1.027426003129292414e-01
1.196301650917461074e-01
1.355442716875081832e-01
1.648432193534481172e-01
2.256755711251245688e-01
2.880219380404401286e-01
2.960317478204490538e-01
2.405004003938021606e-01
1.625803810650135461e-01
1.003274144472863089e-01
6.701830011334761195e-02
6.191708380425926112e-02
7.773784148858607634e-02
1.058468261692193796e-01
1.381184203404557942e-01
1.615583293806534260e-01
1.605989425739961229e-01
1.309139963045741484e-01
8.645519365650027044e-02
4.976818485505832279e-02
3.566022380628344063e-02
4.191731435489809421e-02
5.254551531326540070e-02
5.063053762204983155e-02
3.356326476550634819e-02
1.908663773157830840e-02
1.580476987296030450e-02
-4.796818648373285532e-02
-3.245321255174010155e-01
-8.425410347274255862e-01
-1.304675504697997868e+00
-1.306226941643389594e+00
-8.132058864729961867e-01
-2.098149027118096366e-01
1.548991671438617324e-01
2.550960362990305486e-01
2.382298022752556421e-01
2.048001150768373191e-01
1.743662755244859974e-01
1.432588345378617845e-01
1.139504041192818812e-01
8.963040344217322597e-02
6.584461197181330772e-02
3.851341390823282557e-02
1.426536750354708699e-02
-6.476102327998591035e-04
-1.254115537803053397e-02
-2.549909372169898922e-02
-2.766484658119670870e-02
-9.956923618446165275e-03
1.380968766834008744e-02
2.362938376778274049e-02
2.245047360604696812e-02
3.054691627289481473e-02
5.282925611996391879e-02
7.034184183161758253e-02
7.284617549784508372e-02
8.829927119026910465e-02
1.546500274870869496e-01
2.481494858331573794e-01
2.755810010905471730e-01
1.851213346881542543e-01
5.018352478519051696e-02
-1.638590734710854840e-02
7.590363433266823605e-03
6.142834050980140737e-02
9.432083009798934714e-02
1.050618277250563171e-01
1.162257208173762130e-01
1.388422976666752184e-01
1.598132355022442719e-01
1.566389551331059116e-01
1.276419019724053527e-01
1.058350507266712648e-01
1.237002069556885492e-01
1.627557492859657839e-01
1.701905410998749979e-01
1.297722893345427397e-01
7.930083069736430790e-02
5.502214008594055045e-02
5.688783704032240873e-02
5.959437218645985412e-02
-5.448340022367839652e-03
-2.535454596481108713e-01
-6.898945909797734588e-01
-1.054144040222950274e+00
-1.029921588029871327e+00
-6.267789340218777872e-01
-1.534816306504718231e-01
1.513193217401928858e-01
2.707134260368798118e-01
2.735705836843432270e-01
2.141372399920305203e-01
1.391109137559868869e-01
8.737354583659012741e-02
6.965500070139647726e-02
7.022402508516105424e-02
7.179750920397309777e-02
7.268814684561572537e-02
7.334496786002119018e-02
6.102055743225551915e-02
2.986614052046296722e-02
5.777028511498643812e-04
-5.818356144584761920e-03
4.275749432091791730e-03
1.934757342536342489e-02
4.820077560602248345e-02
9.283274535307242670e-02
1.210250580479660110e-01
1.040957831920174131e-01
6.438227170351353001e-02
5.483684597870456395e-02
1.070835009806150873e-01
2.085829094125852268e-01
3.007342791924079162e-01
3.057208329476487352e-01
2.042109329080921132e-01
7.701218342587019816e-02
2.131873094178094244e-02
4.313587723151875164e-02
7.370522257017450563e-02
6.954691967916816486e-02
5.071474995629258326e-02
4.558922580784430245e-02
4.394699046491765820e-02
2.308390061283536673e-02
-1.014852654049593073e-02
-2.527942419980967748e-02
-2.634840101762193562e-03
4.673725416373490649e-02
8.837538707764888701e-02
9.315756143799898414e-02
6.305376143942194311e-02
2.639708082918345092e-02
1.396657525862644682e-02
4.134612311252289230e-02
8.400668645917336308e-02
3.700210053722417791e-02
-2.535182751810536872e-01
-7.925803559043734792e-01
-1.263109142907283822e+00
-1.252517671881452133e+00
-7.319468033583602651e-01
-1.170050705438547695e-01
2.032342179202977495e-01
2.153767420232503005e-01
1.410284284577326686e-01
1.249818887355460678e-01
1.425845537237472038e-01
1.276798390183271903e-01
7.979538654978809986e-02
3.845466604646302633e-02
2.029058079828998523e-02
1.272479348947202528e-02
6.492395981923445095e-03
7.892308221787451908e-03
1.960015643151454684e-02
2.921573109738189941e-02
2.503652503810724697e-02
1.191903278149721371e-02
3.550542386629744127e-03
6.291153634755028770e-03
1.798806874573602790e-02
3.475582918160357443e-02
5.011023306865304561e-02
5.748766922755237097e-02
6.577581112025000787e-02
1.055114009534268565e-01
1.994169776524445659e-01
3.135054917823060783e-01
3.615110523968774192e-01
2.965196612226184691e-01
1.789653999649519489e-01
1.076097953484082687e-01
1.042252388053640372e-01
1.140579468846985994e-01
9.859983556646607916e-02
7.621337238093776889e-02
7.762340868987620268e-02
1.044089574354319233e-01
1.372629603550818422e-01
1.556145034036157671e-01
1.427528778048813007e-01
9.793158438752627704e-02
5.054436858033289903e-02
3.704288259509467413e-02
5.714381032891097806e-02
7.428242794789735592e-02
6.234532564902509066e-02
3.486691691951025046e-02
2.444258953788178146e-02
3.171475234556411088e-02
-2.426691745056868202e-02
-2.803218567693048224e-01
-7.529752733886849736e-01
-1.183865783249691050e+00
-1.229085892692075799e+00
-8.425953063591764547e-01
-3.110517953229893218e-01
8.052445122536272537e-02
2.534626374172317953e-01
2.634215306656726430e-01
1.980242669831068225e-01
1.356070154403319350e-01
1.064087238849912853e-01
8.512563548136611868e-02
4.553056901961594072e-02
4.164962227457602584e-03
-7.532959766439126237e-03
7.962965801141199187e-03
2.037078568508345761e-02
1.526534415621630218e-02
4.215201257784384134e-03
-2.256280522909484207e-03
-4.995862396240112989e-03
-2.925087365656635872e-03
7.115828280888152405e-03
1.792784509599585144e-02
1.912006856456064177e-02
2.197049862789826613e-02
5.635141387501930998e-02
1.237260730180077262e-01
1.818443889194988061e-01
2.062128029726826850e-01
2.177942627275247789e-01
2.209375544478181796e-01
1.851854545266168051e-01
1.116820103609993259e-01
5.036755303989413901e-02
3.763874472689205525e-02
5.911517476384665210e-02
7.792187914888815126e-02
7.645956952742702373e-02
6.381256812571185766e-02
5.346572081047754749e-02
5.008225898796022507e-02
5.635109187919452173e-02
7.447652891470023240e-02
9.980667409157045755e-02
1.217745173393676439e-01
1.276998063152256779e-01
1.091052324609372154e-01
7.497228067100523974e-02
5.087996037333342159e-02
5.227750168919777923e-02
6.695209984765325417e-02
6.403604275697968862e-02
-1.723962471139761296e-02
-2.787180079686374934e-01
-7.411133792005494270e-01
-1.170380244930371072e+00
-1.211891573756626705e+00
-7.940470789043893030e-01
-2.239837962366485469e-01
1.714305901418089473e-01
3.186273285828937762e-01
3.062179455490267044e-01
2.206535742286556689e-01
1.245306278200485062e-01
7.424865594549714953e-02
8.708824447542153069e-02
1.241162344602090295e-01
1.374417767859234807e-01
1.225065713761980674e-01
1.096516509172957149e-01
1.143575484360249694e-01
1.182396134811831978e-01
1.014801478600671353e-01
7.222399715021800282e-02
5.482384590354705267e-02
6.090802976623310022e-02
7.930899024940439579e-02
9.049732996814992270e-02
8.456371814096012851e-02
6.495280469077130414e-02
4.548489620797196986e-02
5.024417546992322042e-02
1.024708534401497645e-01
1.966296647248913232e-01
2.839673419665553200e-01
3.046000211257527956e-01
2.474363491960722694e-01
1.654103023193934097e-01
1.159085826786046547e-01
1.049842400680060794e-01
1.065000450127941145e-01
1.086007738522377364e-01
1.175007435998095817e-01
1.330448260727333520e-01
1.412569092229013223e-01
1.303590461345626450e-01
1.070963147209142707e-01
8.995847256690549243e-02
8.455922382858789554e-02
7.701784012435587690e-02
5.657690291129075649e-02
3.060223741028545233e-02
1.133035647427832297e-02
1.317505235814420139e-03
-1.346901370178090612e-03
8.434427003423457248e-03
2.947094677781494226e-02
-1.709935294617806814e-03
-2.290415591383751504e-01
-7.116972354793210664e-01
-1.203294661769121365e+00
-1.293223167012367503e+00
-8.734077658936493238e-01
-2.741963002456780929e-01
1.324397175029500273e-01
2.641482925569544338e-01
2.395719964153530113e-01
1.686747700445053455e-01
9.651607572615990283e-02
4.134735191548696148e-02
1.418782971873168777e-02
9.953299332362304866e-03
5.677023535037592147e-03
-1.716905377187713522e-02
-5.054363772164682800e-02
-7.030516696302735458e-02
-6.746340833802219605e-02
-5.699529007708386413e-02
-5.174630786417555584e-02
-4.157824504479654126e-02
-1.435894570581915802e-02
1.494435269087882046e-02
2.491098581403595330e-02
2.766377653756734237e-02
4.939548760297475527e-02
7.798672918625207395e-02
7.962839780947239543e-02
6.893092766866489030e-02
1.027617726716755775e-01
1.846072757346484960e-01
2.360968413039925828e-01
2.028962969914626935e-01
1.348469564803532195e-01
1.116266048260097232e-01
1.355129565823483262e-01
1.500729685009612735e-01
1.291650757897734869e-01
9.690954353610754801e-02
7.840998883248925799e-02
7.336156775609467551e-02
7.466391064028181368e-02
7.996649392726624950e-02
8.064492618804404434e-02
6.480787559213764537e-02
3.786497848658900572e-02
2.276148096099952362e-02
3.516011063715029916e-02
6.792758233670150025e-02
9.913230405910460064e-02
1.096341899739169123e-01
9.758509888952837663e-02
6.998540870759906163e-02
-6.495658346533654710e-03
-2.287686723350003948e-01
-6.354651616171240747e-01
-1.039581026078051362e+00
-1.134261748243243995e+00
-8.355121608158069257e-01
-3.721843760846226812e-01
-2.410229489390458557e-03
1.963292719481587456e-01
2.582328666244698701e-01
2.259192044902278429e-01
1.471384247775168186e-01
7.712358023777700355e-02
4.945713000093325540e-02
5.857908756987745269e-02
6.922326960796001960e-02
5.230775414105270915e-02
2.196107511306117505e-02
1.635929152547291321e-02
3.969880705641649216e-02
5.749077355975489023e-02
5.007556942575059483e-02
3.614170183711094830e-02
3.985644686923300178e-02
6.136279551739731025e-02
8.585500607634949377e-02
1.021639719165839399e-01
1.067520240190525799e-01
1.055271754962371356e-01
1.148427625904103466e-01
1.499911004624359945e-01
2.114979872640396774e-01
2.777354658462243830e-01
3.051174917590169788e-01
2.582926364785824158e-01
1.596254383790152998e-01
8.364889311503770353e-02
7.974797115515303014e-02
1.232349415559239880e-01
1.584848543742180260e-01
1.606939095827857322e-01
1.371845220030472323e-01
9.894206432309438082e-02
5.911983658572982081e-02
4.150349152296402971e-02
6.126561054547253332e-02
1.002296018409985084e-01
1.210096852857831390e-01
1.098332013938241175e-01
9.009373927638401891e-02
8.564298585355729909e-02
8.765217274558424754e-02
7.266857138745215494e-02
4.214945877958015813e-02
1.877022959517929412e-02
-1.877894002426870601e-02
-1.829074755569222444e-01
-5.689146999069415456e-01
-1.037832933459441831e+00
-1.233257034988796352e+00
-9.527160808143415593e-01
-3.957044534090501386e-01
7.135191522963130195e-02
2.737325603373986227e-01
2.739851280549563950e-01
1.986601459008986992e-01
1.245643155470390895e-01
8.386705436651147039e-02
9.327969059263085949e-02
1.389161219189513075e-01
1.623951955502613009e-01
1.185226047662087390e-01
3.811838931961600285e-02
-1.043888496306629061e-02
-5.575440284929437766e-03
1.866942127131139550e-02
2.951605946920974471e-02
2.621303176571970067e-02
2.259219851397078691e-02
2.665087249971907421e-02
3.886402681435366380e-02
5.652373649258617128e-02
7.450570461104824571e-02
8.497511902675093654e-02
8.600795327227619969e-02
9.529941373727907061e-02
1.385191243160337482e-01
2.073085756649924449e-01
2.459379257357694748e-01
2.070082306400754524e-01
1.127810145480832166e-01
3.538720901846495459e-02
1.896387069472659989e-02
4.444069421275079201e-02
6.872168398376490850e-02
7.189474288047127681e-02
6.023090330339109233e-02
4.561042399559706723e-02
3.794863625404806817e-02
4.941581745523344893e-02
8.618507919897254455e-02
1.288120819148451390e-01
1.390380457144797244e-01
1.008828153839272240e-01
3.966947137587358702e-02
-9.220390330636214771e-03
-3.263225798305155467e-02
-3.594442926484838624e-02
-2.152653981227276025e-02
1.301425864875907674e-02
2.477781824557985513e-02
-1.185109600787104533e-01
-5.209648084688620617e-01
-1.026216960812140977e+00
-1.248358523036902090e+00
-9.772904237138529959e-01
-4.258770569486122204e-01
4.060935631101691284e-02
2.662565000579835139e-01
3.105560508828957289e-01
2.655701023917561576e-01
1.820518523270599209e-01
9.596720516156513614e-02
4.107521097057949960e-02
3.282724845128347918e-02
5.764609130777589158e-02
8.343079895314715888e-02
8.355605658321485496e-02
5.592000712445203275e-02
2.417706330849492269e-02
1.496275009967946469e-02
2.817296723110002815e-02
4.218270931945029834e-02
4.580244075262442094e-02
4.258316510489564694e-02
3.600375954472573303e-02
3.296479760555168920e-02
4.264101549270796904e-02
5.907052869812740720e-02
6.771462941118530643e-02
7.812817872141523956e-02
1.265150243832583454e-01
2.228140255685207849e-01
3.098515487488227027e-01
3.140655224047583793e-01
2.349808509360954978e-01
1.453547822413164547e-01
1.043269851013107763e-01
1.055158527092738691e-01
1.101054458168283789e-01
1.025429437333958832e-01
9.876869937637346164e-02
1.081686239964918944e-01
1.158160062704944038e-01
1.125213297344330593e-01
1.104531276776368892e-01
1.111814455558765985e-01
8.670026918768615476e-02
1.588705649714774668e-02
-7.126835726935354387e-02
-1.138833420654828399e-01
-9.441698292814443283e-02
-5.785845908809431060e-02
-3.875406072405085389e-02
-2.148629248706115241e-02
-1.389239326806264441e-02
-1.250192881076475915e-01
-4.768684175128867220e-01
-9.695539520772928910e-01
-1.242457063732380851e+00
-1.037935872139989835e+00
-5.134561130832072662e-01
-3.172580336922571631e-02
2.281105876679734856e-01
3.090095941427996040e-01
2.889662539325130730e-01
2.161667149328434789e-01
1.450985640469821814e-01
1.221024716003391714e-01
1.478420174479407878e-01
1.857060199568390246e-01
1.968711872639173355e-01
1.677903013352728678e-01
1.181316248884936998e-01
8.369360899940372911e-02
8.538999952692068185e-02
1.093726314774314534e-01
1.194744022961549967e-01
9.524277228749425395e-02
5.480102067681823924e-02
3.497621385048456377e-02
5.035117900200184599e-02
7.879073292368073134e-02
9.544730749089130883e-02
1.101529748648353568e-01
1.483778277030769477e-01
2.057724341255012523e-01
2.488897960423789024e-01
2.501170598572206027e-01
2.042833764543854902e-01
1.316855485012267402e-01
7.441320755763258799e-02
6.180989314404113089e-02
7.779874185547377974e-02
8.752073309552697855e-02
8.225870272281464446e-02
7.352317591905656313e-02
6.621222043918331690e-02
6.158375874832135166e-02
6.744746505155925498e-02
8.707143560723241971e-02
1.073178216333377649e-01
1.084118524464109945e-01
8.529776107469556889e-02
5.607271525034058374e-02
4.246244524980272161e-02
3.815822102167896329e-02
1.170000902855754775e-02
-4.307931492909663346e-02
-8.091712891836450039e-02
-7.632010727296985320e-02
-1.336370020603851183e-01
-4.476185759705486045e-01
-1.028786184199095732e+00
-1.506459438220943525e+00
-1.430988786087494358e+00
-8.054010479076634255e-01
-9.425008536879292409e-02
3.007553290035118732e-01
3.577312648305707721e-01
2.670892345780171984e-01
1.747244517565151312e-01
1.207327478793913111e-01
9.775346001012566455e-02
9.287366602000780846e-02
8.853786502283640669e-02
6.725419599605980681e-02
3.476528527320627004e-02
1.773166010583262370e-02
2.291494752519335210e-02
2.421367033280755199e-02
7.142586733247266104e-03
-5.097536774080566740e-03
1.162611308859146791e-02
4.743565849926970751e-02
7.375477832041885118e-02
7.399153791351058274e-02
5.317512925109867117e-02
3.099768604846717124e-02
2.997401079836005747e-02
6.434788200394354896e-02
1.339934000323760588e-01
2.188585389167600204e-01
2.755099906741532712e-01
2.615626986080299976e-01
1.842846609124746127e-01
1.041073216273283308e-01
6.926657396553453916e-02
7.045547116438068136e-02
7.358590121208921642e-02
6.783365866324443660e-02
6.596848612982714188e-02
7.819192516997329478e-02
9.900583188759365383e-02
1.125991722039375864e-01
1.067168977632598353e-01
8.287983642991622601e-02
5.505858432982773526e-02
4.017970060943153870e-02
4.590621794399002420e-02
6.346217068297790864e-02
7.327568111604089440e-02
5.896593925250864787e-02
2.512396446292695928e-02
6.175832207715141985e-03
2.107458920847666423e-02
-2.028291639362711507e-02
-2.936531630439747631e-01
-8.084370126233617615e-01
-1.237367999620202053e+00
-1.208557508912299738e+00
-7.381669968204405130e-01
-1.795051262147447368e-01
1.868349420870246413e-01
3.334731827581914332e-01
3.435651467755322930e-01
2.716956546679034079e-01
1.550238408504534815e-01
5.213718334121514308e-02
6.040226877454141566e-03
-1.156525445502962039e-03
-1.277051566462506643e-02
-3.399068775893936134e-02
-3.650017886788608362e-02
-1.263403305379083054e-02
8.247364286797008101e-03
-7.436981082471266422e-04
-3.096257795261317391e-02
-5.131814588352803796e-02
-4.075424857348273339e-02
-3.691095893683447697e-03
4.099243934849963744e-02
7.953366981228229826e-02
1.017155037888463481e-01
9.423998557130129627e-02
6.722711013416235448e-02
7.075347188590468128e-02
1.421126988226686649e-01
2.458069347479585331e-01
3.015590962800324126e-01
2.701159937025142121e-01
1.870986378502003389e-01
1.136303956026406825e-01
8.092971389882823441e-02
8.491482492125210224e-02
1.047119315952160373e-01
1.178191948096817127e-01
1.125171625449722518e-01
9.193395820392867568e-02
6.916971704406339738e-02
6.207912744574915070e-02
8.342315674161378258e-02
1.260091189254275434e-01
1.629100194948690516e-01
1.682667635978813414e-01
1.366530064859822202e-01
8.435035444169854124e-02
3.371147010821552714e-02
-1.296943801222893641e-03
-9.902536439557192705e-03
1.066629519302018936e-02
-3.275254094229301458e-03
-2.045568999498944551e-01
-6.560273660058050238e-01
-1.103030949927107596e+00
-1.137622764101581252e+00
-6.756926817018578113e-01
-6.609923408539314371e-02
3.202518222395557279e-01
4.057598008329104666e-01
3.174813473398964137e-01
1.941065430457644680e-01
1.154276633538876135e-01
9.979905354367933634e-02
1.203482871649696334e-01
1.450334244283253415e-01
1.616769868234568253e-01
1.654205280719271420e-01
1.495385027937594646e-01
1.158456124626813522e-01
7.953807468727229490e-02
6.469964762581502382e-02
9.092410842277021121e-02
1.453213457003672826e-01
1.781221462995679905e-01
1.549432668794265555e-01
1.006264387759077394e-01
6.412185950313986638e-02
6.148984481140746389e-02
7.911690617789612912e-02
1.085857159737943362e-01
1.547957645108243019e-01
2.195430887413437615e-01
2.811618755764757061e-01
2.937244292929937495e-01
2.303619780856036026e-01
1.289060913664592245e-01
6.329962094920396631e-02
6.477736878029434486e-02
9.809447814677266231e-02
1.162722957088261899e-01
1.075966577272858271e-01
8.406854716488748602e-02
5.643602423306268850e-02
3.422284730811316067e-02
3.125658973370935845e-02
5.693962279355910261e-02
1.006742410284268419e-01
1.307733023292403374e-01
1.215305742654448351e-01
8.016943757851664742e-02
3.489833522629143259e-02
2.369369155163112903e-03
-2.026948899052240932e-02
-3.261248281825495504e-02
-2.774201797244768564e-02
-5.975470031364381318e-02
-2.805280533953377065e-01
-7.576601903793227510e-01
-1.234937737440485961e+00
-1.297950482651641035e+00
-8.594093799445974291e-01
-2.633071714280925124e-01
1.352443579154170572e-01
2.728884707569243506e-01
2.621269599607713996e-01
1.949144153798630097e-01
1.121843519280968371e-01
4.595136377649178261e-02
1.755084321215423168e-02
1.273611875887009984e-02
-3.622025397168623581e-03
-4.250771319526833875e-02
-7.810595411942496125e-02
-8.484523915039678121e-02
-7.149373072472255120e-02
-6.552061782629862996e-02
-7.329171487131720675e-02
-7.528581335392191265e-02
-5.858584401326760727e-02
-3.346416181694352593e-02
-1.370546868379149061e-02
6.215311012324996331e-04
1.285480576251609927e-02
1.990886515940813034e-02
2.433862070538670569e-02
4.605160462071210270e-02
1.082815503935909418e-01
1.991737643571406535e-01
2.542686979370725742e-01
2.160583249380751691e-01
1.141079795072722086e-01
3.799469589056744118e-02
3.155775806327584809e-02
6.031893785847916578e-02
7.401339037185916681e-02
5.925420166594576321e-02
3.440000396537556265e-02
2.082019944465079986e-02
2.611685093014984305e-02
4.310984251896098768e-02
5.346354455302607805e-02
3.973486338310674992e-02
8.717608371718952448e-03
-7.173589133446746022e-03
1.041470755853360873e-02
3.693387623257116809e-02
3.535201270247957661e-02
6.712535057822210938e-03
-1.029921333952469459e-02
-6.747961033366096364e-04
-3.861045845063253851e-02
-2.631424171115893662e-01
-7.011517530699618028e-01
-1.106930006021772606e+00
-1.137520911829196457e+00
-7.420432031535361128e-01
-2.175118139952217922e-01
1.371143643570389981e-01
2.588087485395872411e-01
2.374556451445185568e-01
1.658607095146226451e-01
9.527736788939990265e-02
4.710714762861799992e-02
2.443216173858686613e-02
2.018577194273593611e-02
2.447980301931419397e-02
3.128147287674257204e-02
4.232037146338899630e-02
6.081473447534922749e-02
7.866441793851466913e-02
7.989264839103409066e-02
6.639515836190379439e-02
6.410380896279721519e-02
8.551844537694075488e-02
1.054912125488988300e-01
9.471627835057983003e-02
6.162879649025375384e-02
4.399533284426224850e-02
6.163651808605438709e-02
8.637858977133285043e-02
7.669047709477244679e-02
5.076434732368986791e-02
7.936758027298082552e-02
1.693948740606721348e-01
2.276536651880851636e-01
1.961433565708047555e-01
1.364964934205397384e-01
1.294006960812784657e-01
1.735488652734420156e-01
2.186860832334097671e-01
2.315784075002743359e-01
2.066805762365049037e-01
1.551256948009968606e-01
9.984188912480726485e-02
6.581179570740078311e-02
6.514856555676168393e-02
8.789577991535951762e-02
1.111937137209118992e-01
1.214045694204223258e-01
1.202790591854187296e-01
1.123548222849041767e-01
9.811891857643915971e-02
7.670994742860699767e-02
5.352042273374846976e-02
3.854728657435527867e-02
-4.715864174769639899e-03
-2.024733151707190371e-01
-6.326683972027971059e-01
-1.092518949217591961e+00
-1.194314032172671958e+00
-8.072240863789246212e-01
-2.246569332303136601e-01
1.889797850915233557e-01
3.333284862890652511e-01
3.162490695395075990e-01
2.549212409564813875e-01
2.020931026662574903e-01
1.642585362946051286e-01
1.280006202650704472e-01
8.972246326770848268e-02
7.044035234948921309e-02
8.563507368421205412e-02
1.102952364006528768e-01
1.012674347031719824e-01
5.304884528836332352e-02
8.512164669181337961e-03
8.981700034612068867e-03
5.049105672332955541e-02
9.670194405855526976e-02
1.225549085491149104e-01
1.351055981846320531e-01
1.511947554145629258e-01
1.643720720508795308e-01
1.514915437466944625e-01
1.140619320657034197e-01
9.557595482030457890e-02
1.415912903209844975e-01
2.372867360909190482e-01
3.003323992694651445e-01
2.627342760273448374e-01
1.546598905709413441e-01
7.351938309499871094e-02
7.096827465046839922e-02
1.079554015334845407e-01
1.233299692810254367e-01
1.070472051299922317e-01
9.285859965209534994e-02
1.047319312692639448e-01
1.296786406636212252e-01
1.404529961092363943e-01
1.310785078968841055e-01
1.186336044213345403e-01
1.151665073455536703e-01
1.114867733533854155e-01
9.156658526231871431e-02
5.656788825160679463e-02
2.628722006949217593e-02
1.407786242733626535e-02
1.550074537811175178e-02
2.217044107486781240e-02
-4.013180563630442538e-03
-1.777853878228665141e-01
-5.833341509112095480e-01
-1.047955938393314357e+00
-1.198600965500082660e+00
-8.765202425563847211e-01
-3.297094195609956979e-01
9.995673835255533546e-02
2.950953394883714664e-01
3.190821389282576526e-01
2.540385421771670371e-01
1.599676672754911100e-01
8.322579899645554669e-02
4.203966093022529216e-02
2.760180620087111791e-02
2.491713644862045274e-02
2.275444710690390643e-02
1.600675372621132228e-02
7.943934998526610072e-03
6.139439886374034074e-03
1.507389365963311689e-02
3.144187479935801194e-02
4.513837594469240905e-02
4.770904415562062656e-02
4.098238268042016241e-02
3.551295777381113100e-02
3.829305488366058913e-02
4.262738905820370044e-02
3.761373197199212315e-02
3.014112408577336241e-02
4.625122564559318306e-02
1.010977561831609556e-01
1.688485824369371502e-01
1.940154937229560117e-01
1.489572306438469163e-01
7.287087066922723344e-02
2.788276998062500997e-02
2.780848272364076779e-02
4.212004144797713845e-02
4.981458904416467132e-02
5.278808231964676745e-02
5.475335273335420194e-02
5.483466530609944212e-02
5.108684491212364676e-02
4.086287704802885751e-02
2.514069123598167838e-02
1.141083374090612335e-02
8.899032047827670072e-03
2.210532954365364289e-02
4.355496528676854051e-02
5.230242027192465865e-02
3.268868012083510355e-02
-1.749199361537986074e-03
-1.466612924903002400e-02
1.353639024501392986e-02
3.155231269948945150e-02
-1.034663329959846223e-01
-4.973279846817094119e-01
-9.919546615747441010e-01
-1.207925060679214901e+00
-9.473206613756445238e-01
-4.172931529169612852e-01
4.002272315313117057e-02
2.727216358757038606e-01
3.152662625533477203e-01
2.435981750813923652e-01
1.270945575397693372e-01
3.104196515633189310e-02
-6.529566844499602729e-03
1.023992860992081061e-02
5.199295177208718144e-02
8.442125665987221250e-02
7.975135769835257904e-02
3.291448868367847364e-02
-2.851232546908131354e-02
-6.586964882899734586e-02
-6.638988954067150117e-02
-5.065347268121495744e-02
-4.170317755478934740e-02
-3.848830239600899844e-02
-2.826220320178397805e-02
-1.044026082508715987e-02
7.219913481394887173e-03
2.230513725185080676e-02
3.726067123672877068e-02
6.205353112871611621e-02
1.162264407784853321e-01
1.979971474412241250e-01
2.538182447675292330e-01
2.261794510932972346e-01
1.434893747676110054e-01
1.035791996323431052e-01
1.384107701336716734e-01
1.652871343972269202e-01
1.157095890689231604e-01
3.372152220763467018e-02
-3.284044664641338346e-03
1.118669948435105019e-02
3.204820684251422080e-02
3.350083757596298423e-02
2.538315114103139453e-02
2.508585285342132890e-02
3.456706543441936258e-02
3.883110302058132013e-02
2.382211095257261158e-02
-3.789884416388805688e-03
-2.288493847746098098e-02
-2.320756249466066762e-02
-1.307838831245247344e-02
-9.487605049844374805e-03
-5.211401560158921559e-02
-2.349137049819923773e-01
-6.376890666750110181e-01
-1.128708657111955560e+00
-1.345170902250320877e+00
-1.056607539672115736e+00
-4.576342548159792467e-01
6.453383376591395604e-02
3.264571794254891857e-01
3.847515101442614549e-01
3.405083007434247522e-01
2.552474601980391777e-01
1.752745380116526031e-01
1.306736367308772295e-01
1.179581519837885201e-01
1.136052140343489919e-01
9.876170929931740727e-02
6.766282637228955565e-02
2.728319099395093081e-02
-3.616675053390586841e-03
-7.734993780135682520e-03
1.145239264386069614e-02
3.492202777141837494e-02
5.049808726895161498e-02
5.772871823418870146e-02
6.137629199472403180e-02
6.902221889561467594e-02
8.261577171527731411e-02
9.276063745722405718e-02
9.425772480882649296e-02
1.035286369422473429e-01
1.462059249190838517e-01
2.198217619195444728e-01
2.766923756109585519e-01
2.658584622026728961e-01
1.957240275098282023e-01
1.273672954389995504e-01
1.011885124779079020e-01
1.042818586160115524e-01
1.115204679406828769e-01
1.186699446418111176e-01
1.278984509430278471e-01
1.310047372782260633e-01
1.201723697325779161e-01
1.049592833762652971e-01
1.066232181105741528e-01
1.309538526444922191e-01
1.546740895001620097e-01
1.503114487352156248e-01
1.210547550590951454e-01
9.759775666312836551e-02
9.795497528914762220e-02
1.057701175573236563e-01
1.013750424464377187e-01
9.023594862920862603e-02
5.382375719925206609e-02
-1.116417157272062699e-01
-4.956354231563045998e-01
-9.600599032697039181e-01
-1.168161913284071263e+00
-9.410351747479900331e-01
-4.585809217655137937e-01
-2.410141728311386566e-02
2.202209628564189003e-01
2.940215058601482467e-01
2.602163079543624580e-01
1.800175458355633140e-01
1.055381950300594979e-01
6.370275017316394395e-02
5.217639077208573173e-02
5.343067273422225094e-02
5.251061621117616984e-02
4.668294920849829638e-02
4.117670843944435527e-02
3.821196963926825479e-02
3.709125073039984399e-02
4.549202197033309220e-02
7.255083497587559715e-02
1.023371688787059336e-01
1.021687028922983465e-01
7.117597295944723401e-02
4.571566914442040663e-02
4.343856697433177289e-02
4.244072173034722784e-02
3.098539099684862602e-02
3.949155822037159896e-02
1.018862600659723450e-01
2.058475161545360033e-01
2.921028751827446368e-01
2.980034628360853644e-01
2.143535692880775001e-01
1.039354763152458977e-01
4.653295845392884517e-02
6.631719295581582629e-02
1.231913087299961324e-01
1.633074432749354044e-01
1.655212300532936387e-01
1.448955725057970712e-01
1.250882212967962259e-01
1.149717517936671290e-01
1.087181704540147453e-01
1.022813385676822340e-01
1.005647770386585704e-01
1.024848626978653032e-01
9.667467560107600999e-02
8.460753579357387089e-02
8.308223069314291109e-02
9.236212566687367065e-02
9.209727922315018300e-02
7.326551430032908485e-02
2.261330939943359888e-02
-1.440739949867954339e-01
-5.338670061427047697e-01
-1.052346401679516541e+00
-1.331118231234003302e+00
-1.083556612694229759e+00
-4.715805091012713057e-01
7.218014125811103576e-02
3.038511472252473644e-01
2.951578533017774619e-01
2.159597253196737510e-01
1.541622008711650282e-01
1.150899451350761854e-01
8.461810080506171339e-02
5.616872963706046051e-02
2.944466067607251492e-02
1.131771518910285046e-02
1.131412077048548487e-02
2.981245101181704757e-02
5.563128053172664705e-02
7.253353007340626601e-02
6.996621195615511379e-02
5.479130691710933782e-02
4.396226709426759305e-02
4.142970900071979434e-02
4.100092861453549786e-02
5.081746568127184366e-02
8.148713146532342300e-02
1.111440319756782369e-01
1.065829377116834925e-01
8.398174973435473811e-02
1.043142865179863682e-01
1.920220184946688224e-01
2.881627697320764958e-01
3.076004815671081194e-01
2.308801507247755791e-01
1.210265015773841629e-01
5.488829251411773968e-02
5.240702090848744360e-02
7.420837969086802044e-02
7.641326615373776610e-02
5.334500734468550220e-02
2.824381773273471757e-02
2.046171557308558431e-02
2.881867214179827802e-02
3.689230904210610146e-02
3.160138464884942877e-02
2.015699186849474051e-02
1.857295056272246364e-02
2.224646049575780549e-02
1.007347307622119201e-02
-2.209252349375396413e-02
-5.301477823264699740e-02
-5.668964800252402486e-02
-2.591948739971897814e-02
-8.081906349851536442e-03
-1.331795378676310926e-01
-5.196137930019185669e-01
-1.053891739410004691e+00
-1.363256565599916925e+00
-1.179082425158855418e+00
-6.484347409212248836e-01
-1.371366771542829321e-01
1.538657270616734796e-01
2.504683179642271385e-01
2.391074690571368955e-01
1.825449133311019823e-01
1.268132444134690284e-01
9.547621488236457399e-02
8.168362886387839361e-02
6.818569596422321966e-02
4.752321988480653209e-02
2.104449520132714233e-02
-7.745165294155878510e-03
-3.506182278103676941e-02
-5.559527288062412337e-02
-6.174720771393391039e-02
-5.070183716890286352e-02
-3.012355649206607117e-02
-1.000128271614165662e-02
7.047071476925553107e-03
2.626207398951088678e-02
5.179717507864353004e-02
7.235196854964627555e-02
6.844375418185397186e-02
5.009731698212580020e-02
6.649211717811234768e-02
1.467884722985054180e-01
2.440187679785243424e-01
2.739469859475394120e-01
2.098895160097520030e-01
1.111434983144844874e-01
5.547187388269956415e-02
6.628879685794918097e-02
1.093468051175136291e-01
1.404377240499866952e-01
1.425156157759734643e-01
1.240513604974431694e-01
1.020254616809344733e-01
9.218409356227680318e-02
1.001960797360419431e-01
1.167038518871919006e-01
1.270648345896226716e-01
1.233498404537172743e-01
1.077255775915346436e-01
9.005778884542452178e-02
7.870995899499988457e-02
7.384414506947700740e-02
7.565868527155449053e-02
8.808265282940076768e-02
8.356342988576546948e-02
-4.537593399819191131e-02
-4.185209241057675222e-01
-9.457147448613073548e-01
-1.260617654489340156e+00
-1.072776969446544992e+00
-5.236347683293121058e-01
-8.290405471869308207e-03
2.551956453836494165e-01
3.152060380897301894e-01
2.810639689032652377e-01
2.088608379243712398e-01
1.356301497517707066e-01
9.975621583616578469e-02
1.104546790347539637e-01
1.354491793048127057e-01
1.348108949850805593e-01
1.025405877368535945e-01
6.965553649217014198e-02
6.784823951846005730e-02
9.506703227935012213e-02
1.198170436547921491e-01
1.189422928868748841e-01
1.062963412786975675e-01
1.135887395136258027e-01
1.423680377999946844e-01
1.577056547064513703e-01
1.400725733214123192e-01
1.169063894193122233e-01
1.261641957375921608e-01
1.721706219302263086e-01
2.333834726245934688e-01
2.871845616863306638e-01
3.072631998335951797e-01
2.681297081223822376e-01
1.806229315707809091e-01
9.881388557308534715e-02
6.818317203529693227e-02
8.068934585400605597e-02
9.311721141627674059e-02
8.030305042075827626e-02
5.685242828087311295e-02
4.879997518956297881e-02
6.214371654131011641e-02
8.334772407740065336e-02
9.412022287751231620e-02
8.366589546157555957e-02
6.084693777785069035e-02
4.925040665225888237e-02
5.676710553812306520e-02
6.330067167067443545e-02
5.202714087612853033e-02
3.455016725383688869e-02
3.275534993840184539e-02
5.034179529841067979e-02
5.096700740163160465e-02
-6.917445442781017251e-02
-4.297980114458699319e-01
-9.641696597024823623e-01
-1.321338494320839940e+00
-1.174960500029659460e+00
-6.131243038434199821e-01
-3.401587953099789730e-02
2.865148970061941469e-01
3.551977186287573196e-01
2.946205014018312696e-01
1.984870469404642901e-01
1.179554825999601653e-01
7.694372770358501312e-02
7.264164758100621899e-02
7.908615416481883098e-02
6.701229638874024730e-02
3.128434795391640821e-02
-3.815883947733449827e-03
-1.436172274421176551e-02
-7.223356642945281438e-03
-9.526231617548227421e-03
-3.055158314468559705e-02
-5.081190128872251771e-02
-5.056473055501678471e-02
-3.096326862196798271e-02
-5.274425997741968158e-03
1.424575453573604863e-02
2.069548263803754062e-02
1.763733764898387651e-02
2.460939862259048719e-02
7.122860916565115774e-02
1.698714517266924906e-01
2.815886209841747534e-01
3.293574805694015062e-01
2.763508130337711255e-01
1.755029372588848835e-01
1.102269096343021088e-01
1.051367099686407042e-01
1.230736224676636237e-01
1.286192328518940553e-01
1.233178168650551076e-01
1.235889748802228572e-01
1.278284136126618398e-01
1.197625704956670339e-01
9.984045707215062626e-02
9.031982525749639168e-02
9.860036252620911490e-02
1.017954559281850496e-01
8.334734788612314926e-02
5.803645740895106708e-02
4.802786473114588339e-02
5.776661705385138096e-02
7.965789435820060105e-02
1.029844753127475143e-01
9.213493117983520553e-02
-5.255815440319620141e-02
-4.399761630486287989e-01
-9.814895024848724336e-01
-1.320205657026909396e+00
-1.172045978817387812e+00
-6.717586509805451023e-01
-1.880852699630945757e-01
8.695517983621781077e-02
1.955823208239039768e-01
2.118826484080479633e-01
1.604702092165616045e-01
7.316351153592515200e-02
4.375797179859811786e-03
-1.877782080316737698e-02
-1.709761841560756418e-02
-2.448270081249923763e-02
-5.065028590118223623e-02
-7.482385913092945429e-02
-6.895843044033077296e-02
-3.322774369205486189e-02
-3.299979475518531429e-03
-9.715708278161002895e-03
-4.085290876502868651e-02
-6.108350096374799004e-02
-5.112176000931205333e-02
-1.916517898220726490e-02
1.264106492198377278e-02
2.709463892880099173e-02
2.661511108105735213e-02
3.250883824970320080e-02
7.043620401337390147e-02
1.459801065348013405e-01
2.200181595265919277e-01
2.300306106907284154e-01
1.618033630133704770e-01
7.447197948954173419e-02
3.450692377014175777e-02
5.396760061599534253e-02
1.007575376503071218e-01
1.366198789597785346e-01
1.402908546911515730e-01
1.168573920892816143e-01
9.019192271836766472e-02
8.110921466107828826e-02
9.207243172239894247e-02
1.091754807280359146e-01
1.161950721297599631e-01
1.072635466411378108e-01
8.668791276879329877e-02
6.208634959391803876e-02
3.935958152073454341e-02
1.927722636879673421e-02
1.935915858726643471e-03
-4.019158139119394062e-03
-1.726555780367132302e-03
-6.793134413090684554e-02
-3.429478060591190092e-01
-8.283374766520137378e-01
-1.222271648914085018e+00
-1.170292918918888647e+00
-6.915222011555279824e-01
-1.490067689601962675e-01
1.765517299390923500e-01
2.862402844933903401e-01
2.929304069285803558e-01
2.513248860121676809e-01
1.703559066464413463e-01
7.779868804499318058e-02
2.008565827325298897e-02
1.759205227358382612e-02
4.249328613311052077e-02
5.253209490575644347e-02
4.221458023195023140e-02
3.845157624144426856e-02
4.966810411164510053e-02
5.449288316280115341e-02
4.284995813703518924e-02
3.382262972857139061e-02
4.738028461393776342e-02
8.371965039812973020e-02
1.309487793669610878e-01
1.691533263601049109e-01
1.720373006301484653e-01
1.363759558948255957e-01
1.072526447432337465e-01
1.420256376235796980e-01
2.435952997141516141e-01
3.426628346938924707e-01
3.549507071015143289e-01
2.664384365438254298e-01
1.569425328020694899e-01
1.190166373812161782e-01
1.598905995894002452e-01
2.100513802628163063e-01
2.170047867603539793e-01
1.903518623137737675e-01
1.613300842148765457e-01
1.428072443876627351e-01
1.334039177575858659e-01
1.319530158406287679e-01
1.395436981239910057e-01
1.527844989470148462e-01
1.572086617409025611e-01
1.369278899263546567e-01
9.696412572554842513e-02
6.168431557977156754e-02
4.333935736634535185e-02
3.411957329970019548e-02
3.763878804727401051e-02
6.173709761904540294e-02
3.313161861734683494e-02
-2.206902605132311235e-01
-7.526839411184202966e-01
-1.258421951908127223e+00
-1.289978981205266440e+00
-7.798401687308640362e-01
-1.269978702502401191e-01
2.744007552020396035e-01
3.686732938350621436e-01
3.091860663919526742e-01
2.224450227859176010e-01
1.497503652129536789e-01
9.483064661782927840e-02
5.584423694774547781e-02
2.915814857345986125e-02
9.515065124491160070e-03
-5.064553102751809081e-03
-9.722600037451897131e-03
-1.027530624350362016e-03
1.060956325896745579e-02
7.446060731794814855e-03
-1.187286757804440623e-02
-2.447066478503385004e-02
-9.959444905809586648e-03
2.142352530775814765e-02
4.405413980855062139e-02
5.328333668787393895e-02
6.437076915954817458e-02
8.103998690454657094e-02
9.249518538299777992e-02
1.090416301533495697e-01
1.693165702899642466e-01
2.759372995912913740e-01
3.507430638927187538e-01
3.155098389513005253e-01
2.015192833394227612e-01
1.159852152739803410e-01
1.122021371336643647e-01
1.457926484449108551e-01
1.489689142265668287e-01
1.059035373486111181e-01
5.516605690732803713e-02
4.206578091008008474e-02
7.129775429416128352e-02
1.014096731324400646e-01
9.281525563296756653e-02
5.373995630946730440e-02
2.127197138529116419e-02
1.286200471804301720e-02
1.897975688223742241e-02
2.638981358310128755e-02
2.980227171124501945e-02
3.147384094021941220e-02
3.743186376161706380e-02
3.988318640008248206e-02
-2.125881869287573125e-02
-2.568248644173592443e-01
-6.868008146872072173e-01
-1.086206364676442826e+00
-1.138104190541722627e+00
-7.913597349722060192e-01
-3.036379739366460440e-01
7.050399237224816429e-02
2.598981986943973976e-01
2.938140308199524431e-01
2.263737600570175645e-01
1.351264506323888170e-01
8.115683840406562322e-02
6.256863100874557326e-02
4.634683561727757917e-02
2.872667648616990602e-02
3.082621970064849948e-02
4.992659830363212897e-02
5.382454320060820613e-02
2.580670575518256155e-02
-1.224221405011804119e-02
-3.090182471692819524e-02
-3.099314476691088921e-02
-3.434531093257311291e-02
-4.421866020330189606e-02
-3.915809598634009681e-02
-9.398880431446895653e-03
2.445805074315565014e-02
4.051810866477214418e-02
4.823834469006921255e-02
7.780093775878171858e-02
1.413719536924693265e-01
2.112065881774599085e-01
2.365782336435837407e-01
1.928445050896014090e-01
1.160197095725071098e-01
6.766345384457436718e-02
6.502873147496616990e-02
7.197284979479964817e-02
5.720018835980480304e-02
3.086405932644453384e-02
1.781342449359777855e-02
2.476835087631193769e-02
4.411643788460455073e-02
6.468445561598652749e-02
7.604445155361701236e-02
7.785210839387819715e-02
7.469200926175698085e-02
6.123272270726391742e-02
3.324184414297175205e-02
1.707198686748805875e-03
-2.555296566510548151e-02
-5.596866965564793045e-02
-8.554770758903237904e-02
-9.091230472034685095e-02
-9.817709494873182174e-02
-2.433213497360750543e-01
-6.410954541769012804e-01
-1.127655675680671932e+00
-1.298027611360967670e+00
-9.476318881571812458e-01
-3.312949575911416367e-01
1.410800390201985832e-01
3.088162516617903863e-01
2.745867419826633071e-01
1.846323173461354439e-01
1.118294611503140440e-01
7.759010958221848608e-02
8.274435299150420531e-02
1.036432083456183262e-01
1.024697396230615509e-01
6.617276644621487847e-02
2.204542962368961564e-02
1.081900726226707465e-03
-5.462201729890502067e-04
-4.866924788427314658e-03
-1.213049726531252245e-02
-3.957449819264725541e-03
2.353998627309613484e-02
5.359475223219406503e-02
6.983925010512107012e-02
6.982397650350717633e-02
6.495889551942714280e-02
7.080773108506946412e-02
9.267275231835114813e-02
1.310393588543000698e-01
1.928276719357361058e-01
2.593738034345036692e-01
2.618107889279557843e-01
1.591868819252257039e-01
2.525789139476011802e-02
-2.565365561977456244e-02
2.155419081359904315e-02
9.002426808758157151e-02
1.201042068609846220e-01
1.107809092426017689e-01
8.913970491753241132e-02
8.287660031253864246e-02
1.034393330514719322e-01
1.354164059509047058e-01
1.536851551755468448e-01
1.513702933290260455e-01
1.373304312522037052e-01
1.165286801635602859e-01
8.995558367524952859e-02
6.494201595459021814e-02
5.009223116315447699e-02
4.488647277791087131e-02
4.851970363809546966e-02
6.622908599674856567e-02
6.312020723372485653e-02
-8.596648975927669023e-02
-4.880732278411233915e-01
-9.938588492464396351e-01
-1.212342218763174495e+00
-9.232605362658083958e-01
-3.494440532144351685e-01
1.174698364481126661e-01
3.129196173662804892e-01
3.181894222303414121e-01
2.552035843771931489e-01
1.900673070284585320e-01
1.492854800239931945e-01
1.311308339116009913e-01
1.139235045913492700e-01
8.406935273779615747e-02
5.034064567567914095e-02
2.864722816350435963e-02
2.293615654225796344e-02
2.565524733356783216e-02
3.288399113194800244e-02
4.443017982269937410e-02
4.718581517018457377e-02
2.406576102105962775e-02
-1.283188693580395931e-02
-2.681509414073699610e-02
-3.964278786433127720e-03
3.049460643144049840e-02
5.088811742074055705e-02
6.365428841417455907e-02
9.672223948956151784e-02
1.707915311438767403e-01
2.728991341341028831e-01
3.448956736915769206e-01
3.232201389389168789e-01
2.155467413059118653e-01
1.098600058860461498e-01
7.982217016100065510e-02
1.092212839187154394e-01
1.328609864958184006e-01
1.217892492218205919e-01
9.832691911396906903e-02
8.453612424849270279e-02
7.320138562604232291e-02
5.550891231254869579e-02
4.516871649583251158e-02
5.509041998760786513e-02
7.304432362475149487e-02
8.021384127592909308e-02
7.629876615990002775e-02
7.195413679190025558e-02
6.970622287446888443e-02
6.649533344264033086e-02
7.002138304957433723e-02
8.851855930538109207e-02
7.782284155575101836e-02
-8.596178023526196421e-02
-4.897520363951159972e-01
-9.781458197276370337e-01
-1.188408686289410765e+00
-9.281675545919571002e-01
-4.056885877804093932e-01
3.172016388750627247e-02
2.423892953028551345e-01
2.901943279541659426e-01
2.693787271770592961e-01
2.292596999151866877e-01
1.858786192236485391e-01
1.412034532483205373e-01
1.001213644184872353e-01
7.370113171763874316e-02
6.436246180460530875e-02
6.043043449330445099e-02
4.885864521036996366e-02
2.588686232754237870e-02
5.728312578445939746e-04
-7.226694707765606192e-03
1.531650022362877374e-02
5.393653964820047803e-02
7.681410790906738340e-02
6.644016464921630172e-02
3.616412865590201003e-02
1.719221511427631091e-02
2.985064453863995118e-02
6.558109222604165123e-02
1.050089163182086754e-01
1.512424472531020692e-01
2.175217563320525627e-01
2.758090276736400726e-01
2.630211980835707730e-01
1.656496831172605544e-01
5.436115684541549531e-02
4.315495221337234052e-03
2.267785241229156729e-02
7.186353119657443167e-02
1.168828911672277898e-01
1.346978887892742449e-01
1.171211566739288334e-01
8.239631099083463694e-02
6.310914934428865641e-02
7.231535671457725578e-02
9.083247039048812643e-02
9.132118236804093181e-02
6.923352012658341714e-02
4.335824340061537191e-02
2.601380937714969921e-02
5.370666278942703639e-03
-3.290534263889227651e-02
-7.453234076650147588e-02
-8.353975298373080005e-02
-6.280413670048179409e-02
-1.263682920154665934e-01
-4.447981292386478103e-01
-9.862011779104969955e-01
-1.370681120552391885e+00
-1.217958185929826076e+00
-6.166061335856594106e-01
-1.590946325369001213e-02
2.849042859647485937e-01
3.237149373026572685e-01
2.551867650575054269e-01
1.701272974281355654e-01
1.049202194291667112e-01
7.639757657050172401e-02
7.680160249684352125e-02
8.006522564593357427e-02
6.423822355704028597e-02
2.629763845837572098e-02
-1.579446288299764592e-02
-3.849152233217050662e-02
-3.543111806208847081e-02
-1.984374259971392884e-02
-6.036439297524943265e-03
2.892372156527213758e-03
1.164972635524889021e-02
2.698328404913599710e-02
5.251588895543950891e-02
7.816343437300934949e-02
8.025392168352413202e-02
5.007809937755468288e-02
2.158939367929136460e-02
5.088828358776655708e-02
1.527123887484461706e-01
2.629370632894721949e-01
2.911014320883971718e-01
2.163749405305639695e-01
1.028646449016091258e-01
2.370172736468530161e-02
7.473895928032023989e-03
4.996166776500540752e-02
1.319090008748271536e-01
2.131866281369804439e-01
2.414639339943189245e-01
1.971526725225245802e-01
1.207334055613948631e-01
7.310737384518872783e-02
7.376319745130534289e-02
9.057004676516426656e-02
8.592909756598816895e-02
5.816401022280730942e-02
3.061586903085591893e-02
1.586702141271303934e-02
8.083118663184660213e-03
5.514351409027561622e-03
2.206688026352116028e-02
4.487751000853186512e-02
-3.543483539984691039e-02
-3.693299585242142413e-01
-9.061389148487536405e-01
-1.286409494593663272e+00
-1.176508219104110076e+00
-6.618918971680409769e-01
-1.229329284804492328e-01
1.858354123672301961e-01
2.693058854404583036e-01
2.353835321854216289e-01
1.692270360286439734e-01
1.104378939577886493e-01
6.370998503825038572e-02
2.230207267863727402e-02
-1.149175177641633371e-02
-2.852664127634661068e-02
-2.634437636055044982e-02
-1.222152784822358451e-02
3.861203282688945720e-03
1.391696338129968374e-02
1.370823235423950827e-02
5.698459134315881670e-03
-1.109653450561427085e-03
2.880559418401110183e-03
2.288545539116212946e-02
5.972971586119155130e-02
1.071141957938260836e-01
1.453530987966381027e-01
1.534802757382501270e-01
1.434279297152031285e-01
1.684659241460646495e-01
2.682224582216513609e-01
3.969989100177740982e-01
4.402548558771599563e-01
3.401152832625847777e-01
1.763398129999850239e-01
7.598797128481413199e-02
7.528552023029380647e-02
1.153023803880356968e-01
1.367817241334956246e-01
1.314615379759659364e-01
1.185872097063648267e-01
1.108548945460332696e-01
1.076849316548164487e-01
1.025152301741362043e-01
9.064743594504137691e-02
7.794220858809894348e-02
7.871437901854731745e-02
9.467561887828036815e-02
1.031147696851657108e-01
8.148000796179531713e-02
3.785530124053824302e-02
2.591234171696076179e-03
-4.313896952485999151e-03
2.915381528438504635e-03
-4.728560840628413808e-02
-2.762529145206418235e-01
-7.184942366473473507e-01
-1.148992144374707536e+00
-1.212522953323124542e+00
-8.269724014259647316e-01
-2.929612844649790437e-01
6.679067928320969738e-02
1.990029594795221513e-01
2.223836173543761729e-01
2.214946772439464195e-01
2.001989563761037427e-01
1.493674380458577811e-01
9.461384935400724006e-02
7.281063479726590515e-02
8.591409121012957839e-02
1.018082622929139258e-01
9.456222339365262519e-02
6.854039423193750147e-02
4.497398632291037257e-02
3.123404873248667585e-02
1.520444710211457662e-02
-3.846148287328403879e-03
-7.130785353407219883e-03
9.177509575515377035e-03
3.181533415777253182e-02
6.610186953731037041e-02
1.232769518711739204e-01
1.782375982445521256e-01
1.917366349119040414e-01
1.702418467374357536e-01
1.643674542743862321e-01
2.022715257451543347e-01
2.471176683954691700e-01
2.394303406216190810e-01
1.735509784674329203e-01
1.050815062706437208e-01
8.109695487073979858e-02
9.241444554532345090e-02
1.028741129703357043e-01
9.515729046456447571e-02
7.323698521203213241e-02
4.855736890789348614e-02
3.822650144860337273e-02
5.169101862202187675e-02
7.518229750086817542e-02
9.165442808894880278e-02
1.052151660929470239e-01
1.228560847120555438e-01
1.320740401017941046e-01
1.193535643107145328e-01
8.846817098200729368e-02
4.734673144970836384e-02
5.640426994011574907e-03
-1.898436323987340996e-02
-5.291620472543676762e-02
-2.260939346446826093e-01
-6.513796950130015251e-01
-1.166565900652158039e+00
-1.362003871772180741e+00
-1.024927070703824494e+00
-4.088235712600153948e-01
7.612803958626718215e-02
2.725265738990520492e-01
2.762531128177045936e-01
2.133140987489316465e-01
1.405638643473114957e-01
8.062817429263603730e-02
6.367590759890061347e-02
1.171334760902372485e-01
2.092410404139392333e-01
2.400401239345194004e-01
1.501393305304738746e-01
6.076105235114415831e-03
-8.499153920841287513e-02
-9.805405952172151218e-02
-7.606332978416731339e-02
-4.914999071412920473e-02
-1.952834876805762537e-02
7.744481875404904056e-03
2.254148005111487191e-02
2.834931899976494973e-02
3.798492200882930964e-02
5.280523972791989484e-02
6.276306981204811397e-02
7.148182203944465629e-02
1.030260573044772809e-01
1.620228276023874814e-01
2.025793380334365568e-01
1.744730116635512251e-01
9.405905074201002802e-02
3.171940946119865268e-02
3.120240551672023507e-02
7.127203709276935806e-02
1.032331896761709972e-01
1.010320504486398874e-01
7.477526503910182643e-02
5.299581869297539244e-02
5.861773358046225291e-02
9.390766430586568181e-02
1.354767385277254321e-01
1.474395472442083521e-01
1.151678723226897405e-01
6.184827610383190899e-02
2.305758840504063684e-02
1.558836595689515846e-02
3.154988342983753441e-02
4.923914869036954967e-02
5.335944130717432121e-02
4.720535797845946957e-02
1.561754726842312126e-02
-1.305671137292006012e-01
-4.809058096371140456e-01
-9.202418460492799435e-01
-1.124924879572133829e+00
-9.060219760648650089e-01
-4.332528893241292534e-01
-7.703752960435988895e-03
2.288877798051344725e-01
2.909054872323625918e-01
2.381335415271637057e-01
1.462931659198692946e-01
8.346238484031365257e-02
6.623370274295033167e-02
6.768423354268222891e-02
6.427976944658503333e-02
5.576263438286860330e-02
5.337892281191868038e-02
6.580271244201328640e-02
8.922210111600720195e-02
1.033708767550669261e-01
8.264871086362163277e-02
1.922677667573011867e-02
-5.604070721237455754e-02
-8.510858586675887349e-02
-4.201088874121462063e-02
3.021264932382980092e-02
7.068167665888511197e-02
6.851604865983637604e-02
5.797675191371256392e-02
7.333089239432930007e-02
1.276823117302696153e-01
2.113578583824127499e-01
2.856443077736783298e-01
2.967956038398523178e-01
2.301468678175032645e-01
1.386875595559000363e-01
8.864147513164728764e-02
9.066417536092051532e-02
1.068473203167491781e-01
1.073685343599262154e-01
9.415754225672372246e-02
7.632589862910026113e-02
5.108986749913750625e-02
1.942864009135955930e-02
1.696066598459795155e-03
1.809179508266354347e-02
5.781754042753396022e-02
8.428276128340964068e-02
7.408198906314487908e-02
4.153582364727521903e-02
2.042976999931537738e-02
2.517991310984206768e-02
4.031761517588620253e-02
4.982789281818902211e-02
3.715349389214454845e-02
-8.012132493014167967e-02
-4.276362121011800244e-01
-9.479402659292816002e-01
-1.284593973956894120e+00
-1.117177207440984255e+00
-5.545835934271711176e-01
1.111387034512102689e-02
3.393562609817251663e-01
4.440848936288653293e-01
4.074881846047962441e-01
2.937920780914668462e-01
1.760626074125864471e-01
1.125986743331917339e-01
1.061748550855495660e-01
1.191538890443696458e-01
1.123805468561775156e-01
7.242046215317154978e-02
1.860521320698707570e-02
-1.972371575791387333e-02
-3.460568619612082453e-02
-3.683674307928051783e-02
-2.854056110639533600e-02
-1.659642613741862905e-03
4.049974062590318974e-02
8.255244164340061475e-02
1.107539131154528789e-01
1.127028998054192266e-01
8.095950877620627928e-02
3.540362103285015632e-02
2.611521002376303302e-02
8.917810838731644874e-02
1.982218099429336466e-01
2.763521121773465095e-01
2.676516733372463208e-01
1.916522015767574971e-01
1.162435292748478649e-01
8.420933832873328528e-02
8.511360005483863123e-02
9.046251903915911163e-02
8.630570127651900070e-02
7.162286259571472302e-02
5.338279684612278614e-02
4.623464202564883663e-02
5.726051683742982429e-02
7.683197128819818644e-02
9.602658324931516443e-02
1.143312055944304129e-01
1.252136806149140857e-01
1.170104550228520390e-01
8.777413283763815799e-02
4.648665268832590652e-02
8.931457229628726041e-03
-2.400491321624739251e-03
2.541793829008405503e-02
5.076128532086526118e-02
-5.624023653791605099e-02
-4.301777973815473777e-01
-9.861144532621030079e-01
-1.345060921203374837e+00
-1.185870221076286590e+00
-6.322135003449796953e-01
-8.992431713268331239e-02
2.047195607323628597e-01
2.876482125373195364e-01
2.620827531544788758e-01
1.870241589987972075e-01
1.046820839936943442e-01
5.359424359110846053e-02
4.351028210817094871e-02
4.821562623462800207e-02
3.676599461336312047e-02
9.567408844457007261e-03
-5.329006269270740101e-03
8.345514518392806169e-03
3.121194080526345713e-02
3.246425292123009121e-02
1.086898591763548090e-02
-2.473225682486084043e-03
1.635223460030194725e-02
5.410996834249393733e-02
7.951990027652117154e-02
8.408609217667394053e-02
8.256905706658522470e-02
6.994395732069043359e-02
1.758073326017501464e-02
-5.316290085739403676e-02
-4.996096708036745077e-02
6.277916032690721015e-02
1.812751273958313203e-01
1.961096369181904164e-01
1.332594910827169243e-01
8.914680807751068636e-02
9.896622597151816247e-02
1.234432722724632947e-01
1.218360909007538545e-01
