-2.384372239869327892e-01
6.339475669496928700e-02
2.344899393719712122e-01
2.586089749486487621e-01
2.225113536616465382e-01
2.235074206379349393e-01
2.929923026714825185e-01
3.735769667799138660e-01
3.698975642056779312e-01
2.504964421190962187e-01
1.044899201741002204e-01
8.142295028889384723e-02
2.324934936690715992e-01
3.582737502555871645e-01
8.656400538149165713e-02
-6.678366063532683583e-01
-1.317105956294912783e+00
-1.128225526324218464e+00
-2.808727731799874894e-01
2.341638100491863217e-01
-4.784836012349374945e-02
-5.666421994486307012e-01
-6.841115687807599599e-01
-4.105182164430274394e-01
-9.006662077864562022e-02
1.059639165420928342e-01
2.220873231153471794e-01
3.140831526164004628e-01
3.616349154991675974e-01
3.346633011994117335e-01
2.550459521378443672e-01
1.714908034241981460e-01
1.098593509130170454e-01
7.755300681583342237e-02
9.476167350843094084e-02
1.809244000269688013e-01
3.125374886708616184e-01
4.207500099473683308e-01
4.403943191546212388e-01
3.611807558124670026e-01
2.202589357482297172e-01
4.732572630739230457e-02
-1.407031525715358167e-01
-2.858816349705215476e-01
-2.960636503687288368e-01
-1.360594254726538999e-01
1.243150994784791852e-01
3.699873018026091365e-01
5.192323132168633615e-01
5.330653352113610133e-01
4.031324365393698095e-01
1.895286869488551351e-01
2.816477870591101509e-02
1.728488150321698738e-02
1.180311488787403468e-01
2.210675991991233325e-01
2.702158842938431893e-01
2.858373758846419754e-01
3.090505447202757661e-01
3.447025205036204909e-01
3.463371673802447814e-01
2.632196518271825436e-01
1.126531312325406708e-01
5.181625331490156104e-03
6.867729724635995847e-02
2.688311603419885065e-01
2.936621670681913709e-01
-1.824955678729337227e-01
-9.397856079677131547e-01
-1.200607775338300209e+00
-5.830195126730238764e-01
2.419107492249020774e-01
3.773480344078203874e-01
-1.543028785855660168e-01
-6.213806694496418759e-01
-5.913467434319944482e-01
-2.488328081173548090e-01
6.252864220182355326e-02
2.179454162052205379e-01
2.691609258291048912e-01
2.710804226164861275e-01
2.322563079845544887e-01
1.603958260172166361e-01
9.341208919974879066e-02
8.034746088757016569e-02
1.360246669069489212e-01
2.212616030995339100e-01
2.799095962430878104e-01
2.907572603269033551e-01
2.731622702170334316e-01
2.501893834774703840e-01
2.163765322810820846e-01
1.400606758728044909e-01
-3.123738453377977991e-03
-1.919995695723346329e-01
-3.513484522701169621e-01
-3.930533150304162948e-01
-2.812231014638567617e-01
-6.187898486566967282e-02
1.673045039656296806e-01
3.123872327750770728e-01
3.283384163343137097e-01
2.419407098651933929e-01
1.293719616832207653e-01
5.409613788375541160e-02
3.381138467784793045e-02
6.237632442913623038e-02
1.281467863728269763e-01
2.049743961498988465e-01
2.567433109597482277e-01
2.637863510330828998e-01
2.346603661466391821e-01
1.880646908436678089e-01
1.254288491857792343e-01
3.460394698941698238e-02
-5.444249384864348340e-02
-3.681126893462600275e-02
1.510959278858478583e-01
3.165322767220332678e-01
3.781991835515102068e-02
-8.221327111396461440e-01
-1.648312081093488368e+00
-1.598122427136237755e+00
-7.338700439384832075e-01
-3.438777687984512221e-02
-1.069250212971688818e-01
-5.419996812938241426e-01
-6.761766245854760049e-01
-3.900356396267726788e-01
-2.582636042539873666e-03
2.190318956228242131e-01
2.536153170131776324e-01
2.017873120454410363e-01
1.441015335927333108e-01
1.122272529127722185e-01
1.083555728995585776e-01
1.229553522956147033e-01
1.538315944774299449e-01
2.087615379786066094e-01
2.784144248102009001e-01
3.213788584157242223e-01
3.005643127159054462e-01
2.309349979307934730e-01
1.643677198149386398e-01
1.193624892994190612e-01
5.405862669915946495e-02
-6.968721842918025600e-02
-2.147641156096939674e-01
-2.851108746850889997e-01
-2.126840897830952759e-01
-2.397948211678607375e-02
1.778221877205143353e-01
2.939183093382085055e-01
2.940940952158104249e-01
2.180615398178391007e-01
1.378901499982094492e-01
1.197873130888839205e-01
1.907052248438435849e-01
3.117821447797952672e-01
4.002952583868810699e-01
4.052546252560090267e-01
3.420791931076911929e-01
2.480134719158146595e-01
1.492719134378536761e-01
6.913924625402169399e-02
1.906055210454126597e-02
-6.866825326791028278e-03
9.783345724412861877e-03
1.318300312837948907e-01
3.712044990229853569e-01
5.272317821114356207e-01
2.086239949124889526e-01
-7.258414835451243441e-01
-1.685322742287677311e+00
-1.761061918184410935e+00
-8.963107766092774931e-01
-8.384412898525495095e-02
-7.127400376701500950e-02
-5.066857411005231127e-01
-6.558376176683820002e-01
-3.495548301518070500e-01
6.220273071698356054e-02
2.750412158884167901e-01
2.758541221752150441e-01
1.969424906648660767e-01
1.335634440694292435e-01
1.096381883723372697e-01
1.236671470336764000e-01
1.710502356583796790e-01
2.357093841716383087e-01
2.909767313056377813e-01
3.167678136688394930e-01
3.130337204288982655e-01
2.934292098920491254e-01
2.630959469747513602e-01
2.137200429034757654e-01
1.449981706779753521e-01
6.285923024373279988e-02
-4.254592908925609873e-02
-1.661066076611425746e-01
-2.441479357166803921e-01
-2.076168962549503338e-01
-7.127449740319155569e-02
7.952963665695109152e-02
1.741896972403404742e-01
1.987501235052462067e-01
1.790261970035268158e-01
1.535714544201049192e-01
1.548151305957002899e-01
1.945032147240971787e-01
2.607409943074300851e-01
3.295520842279831553e-01
3.728914401545966872e-01
3.600830930262852170e-01
2.774089947802800271e-01
1.572966522968747005e-01
6.545560007290412985e-02
3.862850288438475499e-02
4.410295478700400340e-02
3.153964197353222032e-02
3.830834760835215985e-02
1.760716579123036418e-01
3.988502510093228093e-01
3.232451321457723292e-01
-4.332412170357153314e-01
-1.558026301841849870e+00
-2.061489263461664834e+00
-1.428821842181515533e+00
-3.872185754997635732e-01
2.039804004763601242e-02
-2.820304513528750223e-01
-5.919856058531739462e-01
-4.817974706553344033e-01
-1.414196968712090885e-01
8.337271155892807262e-02
9.029238329192017243e-02
-1.057733445746604495e-03
-4.731361043327973054e-02
-9.717676194140323354e-04
9.654225151180287345e-02
1.869432088418318538e-01
2.471770846413324785e-01
2.792411102236534992e-01
2.794877902005371562e-01
2.442093124602508492e-01
1.958172165908255435e-01
1.679100670264311312e-01
1.452678829480100187e-01
6.011892864559484351e-02
-9.806424979983616175e-02
-2.208389683822941929e-01
-2.101894800783270234e-01
-1.087174832200548114e-01
-2.365506033293821031e-02
1.076720652248822074e-02
3.453485024434981704e-02
7.549419704343904303e-02
1.131777651669482465e-01
1.252861084230207089e-01
1.336344078721960482e-01
1.774859750834082706e-01
2.585345280682130875e-01
3.348223309330961572e-01
3.639342542660674029e-01
3.402964918363827751e-01
2.850376349891486916e-01
2.129282032178838047e-01
1.335175643789816846e-01
7.445602545028333352e-02
6.720297890939815055e-02
1.041085795009918658e-01
1.401890447152223940e-01
1.619968980091897603e-01
2.312527698712742719e-01
3.805415183943629542e-01
4.183054854447735837e-01
-2.218845723135396547e-02
-9.721662733421642111e-01
-1.728781010527649542e+00
-1.483367982226919901e+00
-4.499249083220385192e-01
2.698226420809083925e-01
8.387610287560519351e-02
-4.872978819338329992e-01
-6.890794727230803440e-01
-4.117841955369463403e-01
-5.556039408151330905e-02
7.911573984027597817e-02
3.977864676570973257e-02
1.570018839727442550e-02
9.146072493943842308e-02
2.128452316494532925e-01
2.950334366014736864e-01
3.124468836348102130e-01
2.945445270888980560e-01
2.706913058277974349e-01
2.406228881855995150e-01
1.868594937948908907e-01
1.039455697786688670e-01
2.629632800698408768e-02
2.640110374657327758e-02
1.452280518193926062e-01
3.018202742774790392e-01
3.321436675619541257e-01
1.733776014023217515e-01
-4.719653161752086767e-02
-1.582913656113528744e-01
-1.170660304668100782e-01
-7.761453122153427753e-04
1.058795274480086729e-01
1.745989788605282755e-01
2.214265978817885616e-01
2.674932507135734383e-01
3.142055933867419215e-01
3.437456522115142632e-01
3.332985375548541684e-01
2.735987772604677182e-01
1.823410692822452495e-01
9.737473199239435329e-02
5.360344372598176144e-02
6.446166347503042016e-02
1.170501890918693860e-01
1.776609079447521444e-01
2.093471044239051670e-01
2.114772458673994660e-01
2.516199823434576155e-01
3.922955502387053262e-01
5.104785811598173684e-01
2.639752172835588828e-01
-5.352444005866330290e-01
-1.430713427496411505e+00
-1.562172689608173570e+00
-7.276026721441303247e-01
2.023332661296692592e-01
3.603407074126050436e-01
-9.873048371642557941e-02
-4.519511912043989721e-01
-3.851815934575762435e-01
-1.345356303526988595e-01
1.370024124190553916e-02
3.000423320205711925e-02
4.208776108925717935e-02
1.298229056011016014e-01
2.576202889031652399e-01
3.457293399103191223e-01
3.593765748559575868e-01
3.224581025290102487e-01
2.681105109742416559e-01
2.045176623859940035e-01
1.316525656732099592e-01
6.646543729265487477e-02
3.594977038827475158e-02
5.619729682589283404e-02
1.194718524027712642e-01
1.835536180321357402e-01
1.802004491968071942e-01
6.514480201963143702e-02
-1.297897286365894964e-01
-3.062095083848084820e-01
-3.717799882246918819e-01
-3.070937432898943609e-01
-1.608036159149056066e-01
6.708521321979358382e-03
1.555941385410023747e-01
2.606064446423680958e-01
3.078068691431465331e-01
2.980196802239656884e-01
2.396715530642318792e-01
1.439361590175081140e-01
3.691275120946892890e-02
-3.387989649826815552e-02
-2.947202151520205565e-02
4.011014210449842521e-02
1.242688661818987378e-01
1.794343014013169979e-01
1.926066207819878973e-01
1.765964417808186249e-01
1.724355255372992390e-01
2.333738061846096778e-01
3.395411852522556284e-01
2.927718771699615030e-01
-2.056953460060561012e-01
-1.139662616906035542e+00
-1.847759506498626303e+00
-1.581553635933544033e+00
-5.501025694508407948e-01
1.925539101019242971e-01
7.488983233461372901e-02
-4.255491607981570223e-01
-6.278109781566767467e-01
-4.298778651534376771e-01
-1.389559557647754295e-01
2.873638539433772884e-02
9.666839300688317982e-02
1.636967614034242346e-01
2.538868981609559983e-01
3.212969722020436736e-01
3.295073786048388076e-01
2.871884156336157456e-01
2.205562951455149745e-01
1.473967042825942153e-01
8.541637967734448667e-02
6.011129947797709538e-02
9.267971775662504907e-02
1.868406903511889983e-01
3.147982038832290441e-01
4.042912717207982065e-01
3.656211930017040368e-01
1.662941814766752679e-01
-1.156672274815445101e-01
-3.299998142582278859e-01
-3.646387657008743899e-01
-2.250959502714049154e-01
-6.613532827080020882e-03
1.950419920601799140e-01
3.342320703066349874e-01
4.062135268973278146e-01
4.222020227823972127e-01
3.923553099410662659e-01
3.226714441837876257e-01
2.306207176794393687e-01
1.542366285340757981e-01
1.269814570505247986e-01
1.460473253039568931e-01
1.811539742216285998e-01
2.125702530429360582e-01
2.405086999711820439e-01
2.511804200392581121e-01
2.067144938165878520e-01
1.113385038989395531e-01
6.692661989995318805e-02
1.653744427421625363e-01
2.590380860262185836e-01
-4.479809217674252109e-02
-8.925340707157481956e-01
-1.688031910787151757e+00
-1.575326294115263037e+00
-6.065211759848587736e-01
1.819987512411225528e-01
1.046771343664076592e-01
-4.264979392869209796e-01
-6.799575458782013415e-01
-4.892236080731267034e-01
-1.602217970863969998e-01
5.501327394939219129e-02
1.534345774993716438e-01
2.276129088229607300e-01
3.043281329967581494e-01
3.409061917622348559e-01
3.077816500038247916e-01
2.295548905787855865e-01
1.521103206856363466e-01
1.029958785455120512e-01
9.247839330787188672e-02
1.229101881711703315e-01
1.784808312223978843e-01
2.291891961768775798e-01
2.592033766638259795e-01
2.621860060345257426e-01
2.030277792223361688e-01
3.887649892241019922e-02
-1.975329227998834369e-01
-3.859131677807041694e-01
-4.214944077888412854e-01
-3.034327631730525665e-01
-1.098423176374205418e-01
8.318258947017215243e-02
2.345067081724609703e-01
3.159348784509920516e-01
3.101193005687640780e-01
2.392065864263447916e-01
1.572609996531296184e-01
1.035528493560888552e-01
8.227748669083544131e-02
8.513877029215431713e-02
1.142066055076180336e-01
1.743937258013423530e-01
2.511384468778944390e-01
3.080276407933364435e-01
3.047747965165245598e-01
2.151580697813358090e-01
5.962669103182284547e-02
-5.457310900408131327e-02
3.978292551156869736e-03
1.718107665635890680e-01
7.464982926506219529e-02
-6.038227029707140536e-01
-1.507292885636947855e+00
-1.745843819584258050e+00
-1.009124196404402651e+00
-1.091091460564780069e-01
5.291303810051976170e-02
-4.149678328313438636e-01
-7.794932277507390372e-01
-6.829411816331335539e-01
-3.265226795222770373e-01
8.902943582232161757e-03
2.340872096969814076e-01
3.562508606524426025e-01
3.810487652066963937e-01
3.340101454152942795e-01
2.631707477111087656e-01
1.965037494742477298e-01
1.386937210753644567e-01
1.020422768585646511e-01
1.053736801660915545e-01
1.458097747382268994e-01
1.963225952935269691e-01
2.340872539798980190e-01
2.589762743618693186e-01
2.754114808197130615e-01
2.567379850617851345e-01
1.502601730344370889e-01
-5.370167585299238933e-02
-2.686418729356047086e-01
-3.649845761913589892e-01
-2.835931322423601575e-01
-8.045161063483396990e-02
1.350233738329028876e-01
2.824387583638028332e-01
3.370575489580877049e-01
3.156477072968651987e-01
2.586873817935076425e-01
2.089069045801690838e-01
1.871964033961041884e-01
1.862949923407273833e-01
1.907300344573266415e-01
1.996712994129754559e-01
2.224408198738471176e-01
2.548823871598324686e-01
2.728668671109082955e-01
2.522522797029997932e-01
1.862957139335516543e-01
8.955114378846606993e-02
1.765984880010217084e-02
7.282631737535359695e-02
2.814574552924082318e-01
3.950495523601200154e-01
-1.230832477331556159e-02
-9.544220493080651790e-01
-1.664100893456076813e+00
-1.359354538935277246e+00
-3.683093653778405363e-01
2.030184387157638604e-01
-7.435999140723220657e-02
-5.704366166771988045e-01
-6.270941236391929241e-01
-2.792085628129101216e-01
7.514907289773842258e-02
2.239377894589154039e-01
2.249875761460342072e-01
1.856703177718446174e-01
1.389685995469618907e-01
9.589960715463442809e-02
9.649769879765048020e-02
1.693654188258569004e-01
2.824012288293473172e-01
3.661066372245082579e-01
3.813924876283970034e-01
3.452630118034913376e-01
2.919913815863427464e-01
2.382540084974308081e-01
1.878648179036488119e-01
1.335625968509775718e-01
4.779008672389624401e-02
-9.053007300610339814e-02
-2.459180641783399457e-01
-3.291202698642300417e-01
-2.686348824081272180e-01
-7.381055882665651935e-02
1.731967807214236654e-01
3.706637603113899782e-01
4.457401117173869776e-01
3.859571550499388826e-01
2.472734542549152315e-01
1.297636233477793000e-01
1.253440976287757413e-01
2.481273625489000267e-01
4.038577278660049341e-01
4.685760461671580335e-01
4.094286441416786770e-01
2.967056966655107209e-01
2.092597011232734117e-01
1.673914478834736819e-01
1.408341740774800843e-01
8.736035225779878455e-02
8.760385395306114972e-03
-5.158405154800725645e-03
1.468777751693567668e-01
3.665147888045247049e-01
2.774262694936731610e-01
-3.918676848572673066e-01
-1.237943108512486790e+00
-1.396629878962217575e+00
-6.631465573089178056e-01
9.730927828859425865e-02
9.161178218217577718e-02
-4.182877888755673901e-01
-6.824264276078522151e-01
-4.578781108258965782e-01
-6.702586012154468365e-02
1.585127809804909305e-01
1.727083431530196667e-01
9.985283308115985856e-02
4.520705308745422146e-02
3.253773686821570532e-02
4.113463074250695017e-02
5.939525129034357864e-02
9.908383473467709257e-02
1.652679473609476313e-01
2.280417698362331991e-01
2.398944023341399168e-01
1.859415932081298906e-01
1.065186057576919115e-01
5.402645908543388109e-02
2.812323136550756372e-02
-2.417437341887816379e-02
-1.343583724988327566e-01
-2.610032377159215988e-01
-3.289589180381228828e-01
-3.015529999975848363e-01
-1.991049868325676653e-01
-6.822069292683639874e-02
4.840879442918812059e-02
1.316448841943335391e-01
1.915215048224245542e-01
2.381910950214163603e-01
2.544580728045739426e-01
2.308665175338364128e-01
2.065850509654817979e-01
2.241891341337398647e-01
2.632356440422893296e-01
2.651580458975728583e-01
2.093182661029339420e-01
1.289272370847904248e-01
6.126007819522696213e-02
1.392211405253989190e-02
-2.033407059865490613e-02
-3.894651402796960732e-02
-1.141806323817413579e-02
1.207357909601255858e-01
3.443156360343372357e-01
4.094638567181724254e-01
-6.016775991725111655e-02
-1.020034826810255479e+00
-1.718534447844151547e+00
-1.454095408047919813e+00
-5.548669204457133963e-01
-2.978252957310648097e-03
-1.619638255462912957e-01
-5.095529195212284979e-01
-5.232558402533575848e-01
-2.438562988126558306e-01
1.519536328708752382e-02
1.035502804583145198e-01
8.975407026024231905e-02
7.629761813949770266e-02
8.297765381551480690e-02
8.845474697013459842e-02
1.174684675041376969e-01
2.343777363716059992e-01
4.313443420563128350e-01
5.728518123183228283e-01
5.262318761514838128e-01
3.235549781530645541e-01
1.223327456654908635e-01
3.450863161623082126e-02
4.879217046651618261e-02
8.187103266496463527e-02
5.679520946185671187e-02
-4.297187847821664491e-02
-1.574903020897787664e-01
-1.948847831225816452e-01
-1.141468054325106563e-01
3.396370505251453814e-02
1.543810235472059533e-01
1.944632253634006325e-01
1.778577144230603924e-01
1.603358133678333408e-01
1.759082952589834659e-01
2.283051332302304115e-01
3.010402378077409180e-01
3.585221308847073574e-01
3.655382909493766208e-01
3.249259018477810845e-01
2.755577789821889723e-01
2.420165422461205140e-01
2.104339966144615770e-01
1.648901435872363874e-01
1.167351520761349959e-01
8.592842451227948597e-02
9.744343621571721625e-02
2.024552408947466187e-01
4.016883336739304755e-01
4.739878984831480957e-01
3.514406961152683612e-02
-9.496505373659580584e-01
-1.777760827039954528e+00
-1.634690902072042595e+00
-6.931447920474038682e-01
2.154650382342165882e-02
-4.246910212674877977e-02
-4.341958825157796187e-01
-5.313604169507376573e-01
-2.687810709995459013e-01
4.016650713421687779e-02
1.732748890025632704e-01
1.488834869084445511e-01
9.212841603368512877e-02
8.816339795168387505e-02
1.475121914582259164e-01
2.401876697406443162e-01
3.255570874485260724e-01
3.660963252870647056e-01
3.430349515209373257e-01
2.663576609476870916e-01
1.666345778694549862e-01
8.228302716822419316e-02
5.004691112836383987e-02
8.597810735064918830e-02
1.607541469238179532e-01
1.996335717866165038e-01
1.345660161261830468e-01
-1.897891085384177667e-02
-1.570145853033088623e-01
-1.872967156226759966e-01
-1.121010515978877881e-01
3.391231500785824027e-03
1.012879923143465283e-01
1.564259021819079387e-01
1.810049359242935363e-01
2.157973657900116582e-01
2.836736870521561205e-01
3.553928039713849518e-01
3.805641080380836594e-01
3.385189258871973417e-01
2.504266723182836940e-01
1.565862238124217931e-01
8.844266085459213944e-02
5.983462921843420851e-02
7.483127339801502742e-02
1.213701061460688568e-01
1.604388987818027856e-01
1.650849495825011670e-01
1.841699195071805351e-01
2.918233643882587325e-01
3.789416018431289723e-01
7.383046647232943682e-02
-8.364579056789074318e-01
-1.825129469918620462e+00
-1.942659163468211547e+00
-1.029751204842756618e+00
-6.370575269269879159e-02
8.941936468844097208e-02
-3.413470670131206197e-01
-6.275753843006867116e-01
-5.070698470443892880e-01
-2.273803406186326592e-01
-4.956135553269779004e-02
-9.285127640891389228e-03
-1.066629984789916122e-02
3.247058808734617358e-02
1.359374485038998270e-01
2.515813188868931127e-01
3.163679221438987499e-01
3.053045168063213133e-01
2.411492647513835408e-01
1.625026891577123489e-01
9.557664109617866610e-02
5.202541895756739032e-02
3.689043677055903886e-02
5.202713327225584605e-02
9.379976643969495376e-02
1.487384672653216944e-01
1.880948286422929050e-01
1.647375700411922717e-01
4.529905691567856496e-02
-1.261301918504091624e-01
-2.370066982268674571e-01
-2.150457401593043327e-01
-9.238161413995796267e-02
4.963955500954131406e-02
1.594071024573741058e-01
2.330004170697023147e-01
2.824303564424717194e-01
3.048576164533525201e-01
2.878952026727775171e-01
2.351180679073117952e-01
1.687038487073606041e-01
1.085512155503497306e-01
6.685015557147895582e-02
6.132472257408048966e-02
1.077864390668963890e-01
1.881798197239730186e-01
2.447216177008725013e-01
2.318939718215783097e-01
1.845230284819158184e-01
2.032332933168148614e-01
2.936472252467465238e-01
2.018472103927548555e-01
-3.937809396146405017e-01
-1.310217194403892504e+00
-1.730587436713222793e+00
-1.124970398679280281e+00
-8.574733929697103685e-02
3.562895126994469752e-01
1.553815078837764152e-02
-4.449975543869003625e-01
-5.151609262933866118e-01
-2.799201789002960239e-01
-3.397550303972789176e-02
9.973819691911553487e-02
1.601602975951364194e-01
2.031334864834182519e-01
2.454365590644664030e-01
2.754594645864544278e-01
2.777599163907769064e-01
2.536167541014320848e-01
2.160279505395913124e-01
1.715766918573809752e-01
1.229886906085864984e-01
8.245910203618110612e-02
6.651731677455756386e-02
8.671992292782729206e-02
1.485870726418373478e-01
2.275319286488581561e-01
2.438699454567109792e-01
1.200377255094887963e-01
-1.119189138494574298e-01
-3.082648435399883979e-01
-3.478213331049804791e-01
-2.315342412736788313e-01
-3.835461489542955210e-02
1.573126356977708196e-01
3.033296586546176399e-01
3.677316929808542856e-01
3.554051438752216519e-01
3.024887414206909875e-01
2.417471160645054407e-01
1.850846573431104425e-01
1.369403251507175234e-01
1.074450474513204828e-01
1.079123854933172338e-01
1.424129877440990233e-01
2.032160972454808978e-01
2.651329757919438923e-01
2.878401492748538515e-01
2.439248230100476145e-01
1.641210638570307356e-01
1.442558293330817032e-01
2.450058013018128200e-01
3.208572847704406761e-01
3.195060969564210429e-02
-7.290629271820676660e-01
-1.410841612402812917e+00
-1.251373486970635440e+00
-3.253669788828008058e-01
4.120763140463075680e-01
3.356717771943757977e-01
-1.931529594934997540e-01
-5.110625044812492357e-01
-4.238722963672532651e-01
-1.622670928308656835e-01
4.019016518710398500e-02
1.461180155461190011e-01
2.265491116578325914e-01
3.163586501111243510e-01
3.811322785859276308e-01
3.791983043906571593e-01
3.128500947950964006e-01
2.208655723536832871e-01
1.477137830501988880e-01
1.224632682191490879e-01
1.463089119864159071e-01
1.942126280099840119e-01
2.380603520925133332e-01
2.674439694869993889e-01
2.785066254307995148e-01
2.461886916932943814e-01
1.280670355929076909e-01
-8.440059149361708868e-02
-3.194374183337480577e-01
-4.538062719435971837e-01
-4.062119965787935882e-01
-2.000812350275536777e-01
5.924184199252748029e-02
2.559085168627422968e-01
3.297601041754896767e-01
3.002689074413638637e-01
2.282600041092083254e-01
1.560257854791378129e-01
9.393344040247657289e-02
4.780435810282887554e-02
3.041483384534074408e-02
4.740151926582774483e-02
9.172434229092604752e-02
1.584763374512261624e-01
2.463621021526076760e-01
3.211822124962602776e-01
3.033136317576028418e-01
1.522893135918588214e-01
-3.346017418960707535e-02
-7.134929657009092541e-02
7.062375189736475045e-02
9.021702408162730891e-02
-4.070428341122114269e-01
-1.277229290061999700e+00
-1.703670392367712338e+00
-1.148506224002311171e+00
-1.891305788654910613e-01
1.804242295062034040e-01
-1.932703709920489121e-01
-6.460187517618501962e-01
-6.772417944073555462e-01
-3.816664380426472714e-01
-7.948180884087001352e-02
8.342912512731003039e-02
1.549036598157610967e-01
2.049958761371751814e-01
2.366440515077671836e-01
2.251109575048611255e-01
1.753703452919445072e-01
1.200086241975989731e-01
8.707565781730369769e-02
8.721536892874937053e-02
1.146959190442752713e-01
1.526729849019288210e-01
1.900397245792508349e-01
2.269051888722889432e-01
2.499047712474111171e-01
2.123358025671109039e-01
6.452851533451905985e-02
-1.767342793656905275e-01
-4.019331475260695674e-01
-4.816285190104037106e-01
-3.677313235801407676e-01
-1.199496482774874695e-01
1.446463617947534308e-01
3.213505721154906181e-01
3.682359254682724958e-01
3.174997630898444001e-01
2.416687165529170789e-01
1.946958592655322062e-01
1.762935080303625057e-01
1.575540668199160999e-01
1.339726782742015621e-01
1.341178398822332751e-01
1.790809292131704811e-01
2.501333750184835947e-01
3.007703019662119615e-01
2.946093986558440125e-01
2.235410007722276604e-01
1.067248264507048711e-01
1.225243963967602087e-02
5.248535208210473868e-02
2.370124238598618205e-01
2.920754306550249479e-01
-1.568617971243094766e-01
-9.941078265340859144e-01
-1.450049680776146488e+00
-9.832226747686744206e-01
-1.146325026197342056e-01
1.934092748126014505e-01
-2.257315398855595234e-01
-7.062544234351488814e-01
-7.178587007357842831e-01
-3.485294614106229094e-01
3.929983730399885106e-02
2.391167070922118609e-01
2.728172540002978264e-01
2.455981554741935857e-01
2.238905030627778847e-01
2.114680592211128918e-01
1.890232657261218530e-01
1.584110310555861545e-01
1.460067620785952258e-01
1.707420680666152102e-01
2.225098689372372596e-01
2.744722930836950292e-01
3.071688638487118372e-01
3.140879890578872069e-01
2.881972854660519445e-01
2.110061581791682350e-01
6.329695864285893314e-02
-1.400138904677914742e-01
-3.248124321243572310e-01
-3.909326665552103064e-01
-2.894622427580045287e-01
-6.462997924319946463e-02
1.802164735156750186e-01
3.471335961488101196e-01
3.876675261434188724e-01
3.197662259512071281e-01
2.100778114581711709e-01
1.216427848209978430e-01
7.905100358430258711e-02
8.408743568241935917e-02
1.344469542427508268e-01
2.114605200249313477e-01
2.750270119512792100e-01
2.899723494565870086e-01
2.521074841874858530e-01
1.865149666054508604e-01
1.208220792492792212e-01
6.353355834842558392e-02
3.358166192439937525e-02
1.021077221786176881e-01
3.023278106154210221e-01
4.247912117580106561e-01
5.799022016396278290e-02
-8.800904324852135696e-01
-1.710147112536658298e+00
-1.595691724274333589e+00
-6.819993980830476588e-01
-9.479928154698502585e-03
-1.531646266230373699e-01
-6.280409630927521469e-01
-7.477055520417918988e-01
-4.319337852572808223e-01
-3.193909120853066080e-02
1.931353095182773705e-01
2.401645309369042081e-01
2.111419479338358940e-01
1.746388433032725340e-01
1.500128015136100723e-01
1.345650841344133430e-01
1.203399425647179305e-01
1.171574694395207533e-01
1.715997222633806607e-01
3.216527330596113954e-01
5.033609867958108719e-01
5.655792142654870736e-01
4.403877143203991373e-01
2.326447864414366018e-01
7.904121695408308779e-02
-5.652003220219387059e-03
-8.809068251343270262e-02
-1.877356804445155236e-01
-2.420741975884045938e-01
-1.814354423550517681e-01
-1.281715648368984134e-02
1.725889468520248604e-01
2.726887165994797968e-01
2.564710398211748621e-01
1.779793918234575667e-01
1.187266716216083262e-01
1.175102726862573693e-01
1.506640571797405181e-01
1.806482409820413804e-01
2.095872280658430953e-01
2.601058093847858910e-01
3.171691536506230924e-01
3.295815248659988428e-01
2.726496937340786020e-01
1.788587296141569694e-01
9.468248060566820945e-02
2.977727260500318690e-02
-1.697861353541423729e-02
1.444590022325695743e-02
2.021844488331598910e-01
4.271864983865242826e-01
2.828968604266350328e-01
-5.096210897630377712e-01
-1.500634317189979194e+00
-1.756551627863314202e+00
-1.026371561384078035e+00
-1.717065190062410651e-01
-3.373947268422976264e-02
-4.289297623534024106e-01
-6.551973041593526226e-01
-4.507154785657499496e-01
-8.012120924913399000e-02
1.653410908921225109e-01
2.331605738044164877e-01
2.112238201094941981e-01
1.729126828644172997e-01
1.366245530301586353e-01
1.096483780188767659e-01
1.215067807583361248e-01
1.896300256012913299e-01
2.750485720216945817e-01
3.128977693626510126e-01
2.803191758065968764e-01
2.103459537723951778e-01
1.471386898978165325e-01
1.054169011262137273e-01
7.210779346743173557e-02
2.925935647073139162e-02
-3.265400558639124096e-02
-1.087922323563522142e-01
-1.781580674123345864e-01
-2.114941827847452438e-01
-1.824527286607992016e-01
-8.497814684346090275e-02
4.492829627693332994e-02
1.405750676384198983e-01
1.601227896776190873e-01
1.265677925925388914e-01
1.002264346822604318e-01
1.160395903438009857e-01
1.598709910274699608e-01
2.021481416284715560e-01
2.326930234814950371e-01
2.499764024622282144e-01
2.373556653014337881e-01
1.818632457006384151e-01
1.087778204952745686e-01
6.210434227734642348e-02
5.040081785437565409e-02
4.725205810033378251e-02
5.921074517501051515e-02
1.549927776327695572e-01
3.475790402806144264e-01
4.127474223730133174e-01
-1.839770765827904858e-02
-9.352869448527486584e-01
-1.628445659770756615e+00
-1.380337678172776972e+00
-4.748408534089684774e-01
9.419891260365198526e-02
-7.350184113387062124e-02
-4.308526799173531541e-01
-4.021515981086933311e-01
-4.088346121737495426e-02
2.657722301537436271e-01
3.180311388785934112e-01
2.034407983810657683e-01
8.680857757567098099e-02
4.781822825444516367e-02
7.733565211736344314e-02
1.376136082851335263e-01
1.997932476458240403e-01
2.466728013538096176e-01
2.643892189506448220e-01
2.382704142701582983e-01
1.616845845842452278e-01
5.967234270145431452e-02
-9.502176404548954430e-03
-3.190348439897127374e-03
5.755281082007161070e-02
1.031856720902952218e-01
7.679266865854221524e-02
-1.759059886398947614e-02
-1.139839497685624509e-01
-1.359346651247908544e-01
-6.565622464699130689e-02
4.119766344067599811e-02
1.189592881102480709e-01
1.564146609301080015e-01
1.867518477372563379e-01
2.339248702933393320e-01
2.883063235921249357e-01
3.245442170355609668e-01
3.305040225838243861e-01
3.196314856275185301e-01
3.107276918335332150e-01
2.943223619219883513e-01
2.420451568761852745e-01
1.610376525515896107e-01
1.037297647779354681e-01
9.978357552828172328e-02
1.141752686202882061e-01
1.089587841158542042e-01
1.303059490784357621e-01
2.675225643614473348e-01
4.439356997313756992e-01
2.984256584666230006e-01
-4.490192020455727184e-01
-1.380581278818760804e+00
-1.566314394773593799e+00
-7.463788483206336144e-01
1.792132063201772874e-01
3.108016582710832476e-01
-1.704846050517468403e-01
-5.121392836690582540e-01
-4.154311821721597964e-01
-1.475753415508216371e-01
-2.661555752555753301e-03
3.553564606747286470e-04
-3.114487181636321420e-03
7.302599011318716693e-02
2.060206386905386877e-01
3.195001909303306631e-01
3.606217718105623193e-01
3.401974005877645979e-01
2.984797906702827408e-01
2.318625369444796691e-01
9.675814142209003543e-02
-8.699799170965669126e-02
-1.975305737193503441e-01
-1.387080494391770003e-01
3.485707515444194660e-02
1.714555101954822192e-01
1.643028674803689859e-01
2.112860435799198203e-02
-1.605011613462803688e-01
-2.702383087164780817e-01
-2.617789676597856996e-01
-1.671578457795587502e-01
-4.700735474330791641e-02
5.836659588910275004e-02
1.370132730640719332e-01
1.922250395854029903e-01
2.339209981968260743e-01
2.707145072400984342e-01
2.980615258585020411e-01
2.968333899921187791e-01
2.498852688169192482e-01
1.628691003643685242e-01
7.453885036468377301e-02
5.288042577178355547e-02
1.572270292564055261e-01
3.518720192879687958e-01
4.780643665707775547e-01
4.083884399186715197e-01
2.247061886509303941e-01
1.449760858496209337e-01
2.387015453285813993e-01
2.373414194673565958e-01
-2.591350280720434718e-01
-1.199306852628818865e+00
-1.829638293196105048e+00
-1.468115777769347652e+00
-4.731040027495233558e-01
1.368257475038164861e-01
-3.394387162689322529e-02
-4.674725179003492714e-01
-6.017541850158951711e-01
-3.990430597187585304e-01
-1.033470771116285075e-01
1.190432702665118747e-01
2.327706654048449231e-01
2.591775408639339640e-01
2.403190955934226825e-01
2.161633476009371391e-01
2.082981980730512217e-01
2.226988215895703838e-01
2.485166743283402369e-01
2.560192757383549234e-01
2.149796674994925716e-01
1.280822532474248099e-01
4.809183495159010530e-02
4.221754143870528470e-02
1.227654091095313482e-01
2.227106789560085731e-01
2.458804629871065850e-01
1.403541708822634848e-01
-5.807726965540056102e-02
-2.419572420830641279e-01
-3.096922040361019812e-01
-2.412014239883144562e-01
-9.607967643236962896e-02
5.170856762424565906e-02
1.659105215624354923e-01
2.498792017015635802e-01
3.221271044575507170e-01
3.909837576515535762e-01
4.308308588069681422e-01
3.882349562488991990e-01
2.474484799579007299e-01
8.214511355762943445e-02
-1.047970232004209745e-03
3.538272228442834039e-02
1.433323271529194642e-01
2.509847587012779546e-01
3.021377507530669804e-01
2.602284743566041225e-01
1.445391110408563440e-01
7.060971380823824473e-02
1.514249824083650775e-01
2.591128603851014511e-01
-1.219114299579212440e-02
-8.574521636256476897e-01
-1.708983660308835750e+00
-1.665138201469511969e+00
-6.982054042689571638e-01
1.663140191497139431e-01
1.665031146342491608e-01
-3.560454526318828639e-01
-6.643898096070399717e-01
-5.341052263756649321e-01
-2.237058281155332173e-01
9.527536903265396151e-03
1.174642404017204600e-01
1.674188724473357204e-01
2.182218289967300939e-01
2.762273478839798457e-01
3.078427174329793625e-01
2.839641544990182398e-01
2.204535441547837427e-01
1.632746721490897779e-01
1.378502946305685539e-01
1.368958792762927368e-01
1.510469527826789060e-01
1.848565075064502738e-01
2.416519376341872694e-01
2.990896584054885676e-01
2.964373543876004935e-01
1.690563368704279534e-01
-6.948288140789560252e-02
-2.981473120704281610e-01
-3.832522407376634521e-01
-2.913909858885570525e-01
-8.993425638246857479e-02
1.253977605825519481e-01
2.806787987893771263e-01
3.471268562647579214e-01
3.461208446348902346e-01
3.142221541854877120e-01
2.602200047492359003e-01
1.767797094433251059e-01
9.023399053047322094e-02
6.332336465106698509e-02
1.246565271027563482e-01
2.213192801309536439e-01
2.774414101575132796e-01
2.772216903819094136e-01
2.508368099112724958e-01
2.025142734741302852e-01
1.113805822106426202e-01
1.793559248297999648e-02
4.077873543393615435e-02
1.919428327916104515e-01
1.761098588004160470e-01
-3.811328645407399129e-01
-1.297511465902674965e+00
-1.728287287124723015e+00
-1.155513672526582214e+00
-2.002018262537430815e-01
1.403371886206120078e-01
-2.415900478151331021e-01
-6.565427441073056203e-01
-6.447166738386783669e-01
-3.520628320686887691e-01
-8.899766812814062511e-02
4.781032691299495763e-02
1.253077807318445369e-01
1.922350978299873780e-01
2.400200579218931263e-01
2.644330340702681359e-01
2.800417305507868493e-01
2.818851201696218611e-01
2.477834641390747328e-01
1.840991615636608791e-01
1.316287695061107710e-01
1.226580732117056038e-01
1.588132804480429650e-01
2.214634914372360375e-01
2.723545689929987579e-01
2.549929397751720672e-01
1.328911300737351808e-01
-6.643133874900476743e-02
-2.589950670089489759e-01
-3.549749753248637174e-01
-3.076311822821774511e-01
-1.382675342269699958e-01
7.594065798340432494e-02
2.483322637588077364e-01
3.297813548135983819e-01
3.257858018548054346e-01
2.744650618757930594e-01
2.064892421364075970e-01
1.363215364333305590e-01
8.770777546312247264e-02
8.960711376624855284e-02
1.376322396735412124e-01
1.937300944705520611e-01
2.283095650904741758e-01
2.392450191949055949e-01
2.331970696637564455e-01
2.027210882993009389e-01
1.289431612595916821e-01
2.871710402645405447e-02
-3.425899040179081895e-04
1.321503481985382145e-01
2.854918549177444809e-01
6.233538573909039315e-02
-7.076487320748059417e-01
-1.458254915396460794e+00
-1.355558678394909844e+00
-4.580929636702896768e-01
2.185255489226927972e-01
4.154967635374442331e-02
-5.262065833102602674e-01
-7.503784545174556619e-01
-5.012263795298591562e-01
-1.166311505256140552e-01
1.339704406349959132e-01
2.258645706336567527e-01
2.345022517664369088e-01
2.098358396514033997e-01
1.730999807315343197e-01
1.408645279926794558e-01
1.216442912692771439e-01
1.161327079491389497e-01
1.299555345051419397e-01
1.680820498061298685e-01
2.161100976595166090e-01
2.464780206452859557e-01
2.480602744071674914e-01
2.329963024771276314e-01
2.040463051683266416e-01
1.333273559520828655e-01
-3.562607459701553486e-03
-1.768892630300586966e-01
-3.018263788914792856e-01
-2.951918145255476578e-01
-1.436661599807204925e-01
7.650876351829453970e-02
2.564770987436147398e-01
3.365941651993382688e-01
3.283075028490677338e-01
2.735119845395546090e-01
2.037639288273227767e-01
1.307350351810327993e-01
7.134860385262577209e-02
7.529539706496060636e-02
1.823446981577508397e-01
3.376436476273502740e-01
4.134663641144915025e-01
3.510019097736536975e-01
2.238881822592391491e-01
1.278737693863239988e-01
6.792421113418063705e-02
3.592645957661150247e-04
-4.752494574196042265e-02
3.528554432204489277e-02
2.635435434130529164e-01
3.531689728232620396e-01
-9.446514014377209445e-02
-9.693616876291673012e-01
-1.467068728022279167e+00
-1.013914258608736407e+00
-1.378500851341218914e-01
1.961929119737940708e-01
-1.524196465376951581e-01
-5.225049017375158478e-01
-4.509208750160597634e-01
-9.366069724558816201e-02
1.894392704711190811e-01
2.636802220322954082e-01
2.279855972502876638e-01
2.062254220492656942e-01
2.208616110511715802e-01
2.247848692521937364e-01
1.904591007274478165e-01
1.465599160804648693e-01
1.418445568636206022e-01
1.920648643434415548e-01
2.645299896605293744e-01
3.062704011080540911e-01
2.875422106129534305e-01
2.219238182229261724e-01
1.425181666992925977e-01
6.217651012089420171e-02
-3.283357050625271278e-02
-1.479831971713633787e-01
-2.502314572284374261e-01
-2.829753172213482215e-01
-2.118843362457066837e-01
-5.870300299360811658e-02
1.006039020127842826e-01
1.773369151770165519e-01
1.399303902993768722e-01
5.737791752405513312e-02
4.354315325964240591e-02
1.318670806229149395e-01
2.364533178824128612e-01
2.657085860138664879e-01
2.285767644737416449e-01
1.970529529336756125e-01
2.136704698134808122e-01
2.623556860942777846e-01
2.934614295922663429e-01
2.565420985318726532e-01
1.267104824160803500e-01
-6.432722904588858426e-02
-1.983712744693698071e-01
-1.136298175247376918e-01
2.228426731436413677e-01
5.321109869992680652e-01
3.173373142758789678e-01
-6.081545139842540193e-01
-1.622960024010216440e+00
-1.751035753942901563e+00
-8.849354045902402266e-01
-2.270488003136325594e-02
3.576168842231176870e-02
-4.061294965683565072e-01
-6.130712069107209228e-01
-3.705410941699026628e-01
3.288585033761719234e-03
1.906051265270617689e-01
1.632833518594054012e-01
7.510540901974099848e-02
4.526552967694588703e-02
8.273206117518000502e-02
1.483399497427436708e-01
2.145217789045042456e-01
2.667244821226355533e-01
2.948067284253538256e-01
2.988851300822064627e-01
2.861893860644195708e-01
2.571872082532650761e-01
2.066313501727217450e-01
1.397493791033551647e-01
7.277383192762669484e-02
9.966901157737241904e-03
-6.423685517096427988e-02
-1.518430849057679499e-01
-2.117745698347182071e-01
-1.905829714338600767e-01
-8.231032267243593159e-02
5.680540298591609666e-02
1.523620677741124307e-01
1.691612409594728528e-01
1.303633129244521627e-01
8.837858239554022277e-02
8.894482511517171064e-02
1.515414378870724443e-01
2.523260095723448559e-01
3.294783874086210096e-01
3.354187095950307285e-01
2.802227553028309726e-01
2.062903117925692364e-01
1.414580754633638082e-01
9.859002791192160442e-02
8.926770699331339209e-02
1.051288817755835908e-01
1.221132800790598882e-01
1.648508861465266540e-01
3.030321917457800551e-01
4.676512981039400718e-01
3.136642026137667072e-01
-4.548709913648070202e-01
-1.475301975495647122e+00
-1.832855637241630697e+00
-1.162594083571523162e+00
-2.312099982399344056e-01
4.934399289338525785e-02
-2.746619860570255200e-01
-5.316269006159501931e-01
-3.930725138721634093e-01
-7.663703228078999619e-02
1.186848643823476129e-01
1.298734761277908767e-01
6.897326530918457266e-02
4.933600836140750873e-02
1.025200330350494737e-01
1.953651935949523299e-01
2.826377022403351313e-01
3.411410883693281049e-01
3.674867038342807257e-01
3.552622022091052045e-01
2.876953725987354549e-01
1.678878266341859715e-01
5.057363776801243604e-02
1.138279844673247172e-02
6.356683460683965059e-02
1.241277679615722107e-01
9.036936749978388694e-02
-5.040854621593277018e-02
-2.011563844480103724e-01
-2.482974276901063204e-01
-1.685930564095065032e-01
-3.656401188508574818e-02
6.331083655105718133e-02
1.098248550114487021e-01
1.363060502921224493e-01
1.782377552547836363e-01
2.411795630134254687e-01
3.063139654681884538e-01
3.507924447057293449e-01
3.606427015887719301e-01
3.326146998427998436e-01
2.710101521056868523e-01
1.893200867965023348e-01
1.155969974766611619e-01
8.145410298136324112e-02
9.329370124017180577e-02
1.220591061297715829e-01
1.361151310392520464e-01
1.539441886670465387e-01
2.465961707028895000e-01
4.080927152227743493e-01
3.807814927352849432e-01
-2.028886680299653855e-01
-1.243750013524243192e+00
-1.923268749139522171e+00
-1.538195156268392871e+00
-4.981216416887688792e-01
1.297954014282345359e-01
-3.425040347400841456e-02
-4.346603231844258231e-01
-5.156173584018228784e-01
-2.925934427670257576e-01
-5.731403054683133214e-02
4.430926969216821693e-02
6.410486433802035922e-02
8.910169571332048066e-02
1.436251460962263415e-01
2.076707102292439655e-01
2.615809709770353653e-01
3.019194390203396861e-01
3.270551943350116231e-01
3.185060875513283651e-01
2.570077177972314164e-01
1.592699933226010833e-01
7.538090660916818564e-02
4.852241418178534355e-02
8.816657692346514807e-02
1.583851937921566533e-01
1.795326620907711779e-01
8.835293453626710813e-02
-8.060686597850039159e-02
-2.171028228912923741e-01
-2.486966443647714298e-01
-1.905600534549127534e-01
-9.134364827444742263e-02
1.670414749204361671e-02
1.149957054680989105e-01
1.904159599380157719e-01
2.385412508302484358e-01
2.621688002040996057e-01
2.690911543664709638e-01
2.652273410425283195e-01
2.407454855445259057e-01
1.807915545274981495e-01
9.931808044255061030e-02
4.028816408564066254e-02
4.020344083873661489e-02
1.013120782167030998e-01
1.879013076323099718e-01
2.430930252814683112e-01
2.465035474257206705e-01
2.627208942293784433e-01
3.494260941891633721e-01
3.516185221426729179e-01
-8.491919113754979598e-02
-1.039551928297619110e+00
-1.876160101725891982e+00
-1.735869255404382638e+00
-6.720580293503053415e-01
2.520713131474346946e-01
2.784624326868851418e-01
-2.341890249803061375e-01
-5.383611234193358408e-01
-4.210553345955406757e-01
-1.635745542345298509e-01
-1.935746464174823919e-02
7.891342241427609649e-03
2.988915624188481432e-02
1.077660097831775049e-01
2.203563728199182670e-01
3.118720273639196683e-01
3.400371421727119703e-01
3.023352971273127188e-01
2.297480709043965008e-01
1.533892244058956411e-01
8.620710809803180941e-02
3.994442564095723042e-02
3.817545731204049358e-02
9.639747572174843515e-02
1.910488428837996966e-01
2.488798175779096400e-01
1.850664313293204633e-01
-1.298891299727339757e-02
-2.446336409040534565e-01
-3.687532853348508000e-01
-3.151210771714340053e-01
-1.245750677366119774e-01
9.603310464439789029e-02
2.587923190440424848e-01
3.441225328767776870e-01
3.691736966857409041e-01
3.410205414807069291e-01
2.648872896572019298e-01
1.726004350120025621e-01
1.206612655009120100e-01
1.532495410467362429e-01
2.467385818584137969e-01
3.071202406461503442e-01
2.733693445967926294e-01
1.990843724095803791e-01
1.724133549392950215e-01
1.902673724157068202e-01
1.765968936483274798e-01
1.156455419677824420e-01
1.043240485500232240e-01
1.953169092836056775e-01
1.836300729639601947e-01
-2.651244069186851626e-01
-1.065466667314165283e+00
-1.496862506124728043e+00
-1.000510522395421598e+00
-4.801767789027194810e-02
3.838128637595381587e-01
5.799871029214303392e-02
-4.140303588584876016e-01
-5.078543720529045125e-01
-2.562376181467136416e-01
7.709759672686264387e-02
3.341370878093442576e-01
4.659315905547988246e-01
4.702230929261698167e-01
3.997520465088825747e-01
3.305345137038087633e-01
2.920391981186405417e-01
2.617783745118193450e-01
2.166987210250103102e-01
1.664777256208624656e-01
1.405694260450334465e-01
1.532474026162142233e-01
1.899633073428826369e-01
2.300938736289214748e-01
2.677961307886470022e-01
2.921463194551076059e-01
2.578544117153576676e-01
1.142746719347456086e-01
-1.188501184705582636e-01
-3.296352096131241471e-01
-3.941571826357613828e-01
-2.780445942210294508e-01
-5.733334297369194893e-02
1.486850347952097251e-01
2.618652394790073057e-01
2.804660302237222402e-01
2.486241431537518920e-01
2.003308807121322310e-01
1.426112416374903935e-01
8.405633072929373506e-02
4.579648654463376600e-02
3.814762658476712059e-02
5.597027884881144999e-02
9.692291185497856065e-02
1.577760120843596792e-01
2.182143155068963225e-01
2.437824072744622927e-01
1.989763182164626387e-01
8.119486802541671377e-02
-1.850867616833760942e-02
3.696070835889831568e-02
1.787606714662883789e-01
5.028503148373993786e-03
-7.673277412695436173e-01
-1.656354198513975140e+00
-1.717553606415725742e+00
-7.898758521067110738e-01
1.358348407143092074e-01
1.863497897800863445e-01
-3.737864201232281580e-01
-7.448527561779713091e-01
-6.183790574568371889e-01
-2.627288183654543641e-01
1.046002594810666736e-02
1.390716526568423206e-01
2.042597591596721496e-01
2.548864278087152324e-01
2.727184363658529120e-01
2.369200426518154046e-01
1.723167060033184428e-01
1.271150316240590716e-01
1.199303147616028742e-01
1.315545198742530952e-01
1.461045280247304512e-01
1.745943266205292055e-01
2.317227502995292399e-01
3.024259723674442846e-01
3.328084610526734766e-01
2.589440040101472773e-01
7.170815309362064960e-02
-1.334174466438266260e-01
-2.074116262702537794e-01
-9.372314815005780564e-02
1.045853739589980708e-01
2.533271830080848219e-01
3.288486692742115802e-01
3.738913686745120035e-01
3.879968686514709830e-01
3.271939569527230196e-01
1.756262998273313558e-01
-3.413264894746539935e-03
-9.668536048429511587e-02
-5.389113285212252663e-02
5.981611456571217511e-02
1.577552682438792542e-01
2.175408574109745363e-01
2.506186958218664662e-01
2.528756139890141474e-01
2.074582849827217579e-01
1.059958546659258982e-01
-2.649215233909019487e-02
-1.027067640191769299e-01
-1.560202208682354673e-02
1.790822164544143003e-01
1.316291295688155893e-01
-4.914615615849379227e-01
-1.391867114142028683e+00
-1.698466820394135102e+00
-1.040667749954818921e+00
-1.585222380266410047e-01
4.825839566621413501e-02
-3.712212997303737660e-01
-7.231961008929490564e-01
-6.277664449389488421e-01
-2.504298570467850538e-01
1.206285188989103252e-01
3.695430446409433412e-01
4.999957596430820717e-01
5.172131648880036181e-01
4.322337193085407092e-01
3.010304342150321721e-01
1.932099200870503464e-01
1.424538043061124859e-01
1.448087706392116591e-01
1.753954041154469623e-01
1.994361610827450060e-01
1.967004970665261476e-01
1.840850747291977729e-01
1.927679426161250098e-01
2.117473970367130254e-01
1.748176255400912260e-01
2.995831710542629783e-02
-1.824120588510546037e-01
-3.423200162166203930e-01
-3.486763164248339875e-01
-1.993695153109134588e-01
2.215639678042581953e-02
2.194453428093829095e-01
3.341642185867949033e-01
3.531237921771717136e-01
2.992250829031254389e-01
2.184506993584731105e-01
1.566103013251405607e-01
1.349104454000268072e-01
1.470117951368864473e-01
1.796751883073539335e-01
2.258069446840703098e-01
2.739597330931082264e-01
3.027152249080370949e-01
2.935333538613310034e-01
2.352528849769236208e-01
1.201893009426214659e-01
-2.917422242265180904e-02
-1.160389669629740828e-01
-1.035151821108337006e-02
2.625271629691415809e-01
3.584197583181467639e-01
-1.578969687935290744e-01
-1.181532627810896630e+00
-1.853445448570048892e+00
-1.463315974501417038e+00
-4.553144559626244314e-01
8.087948994449921380e-02
-2.013511372177770320e-01
-6.767956309610512200e-01
-7.408811153877373767e-01
-4.143506114342463409e-01
-3.913809641844250703e-02
1.742867175503932109e-01
2.349539063782229986e-01
2.274503369259075203e-01
1.980764360038420047e-01
1.523844864067586957e-01
1.010938067323113171e-01
7.663199006964978299e-02
1.091332503990598696e-01
1.978610731265744715e-01
2.991556693255376098e-01
3.476316349764512204e-01
3.166639598230807096e-01
2.489657980952487415e-01
1.980519069647248553e-01
1.546729941533516728e-01
6.010928220366271169e-02
-1.079099423916589778e-01
-2.803502588070725388e-01
-3.446548123736535296e-01
-2.436767364869955599e-01
-2.003795394780975153e-02
2.162839006060555125e-01
3.527302278371575173e-01
3.409449706601745400e-01
2.302091485283074557e-01
1.240826639184733210e-01
9.149342766513829384e-02
1.308069787272174711e-01
2.103896664338280320e-01
2.999532062040655145e-01
3.495582962317990150e-01
2.940768703101375170e-01
1.375197899010446312e-01
-9.051469802840734352e-04
-8.461175480330771284e-03
7.081268901045729980e-02
9.496727707909716210e-02
2.879938360717979734e-02
1.400316275520328488e-02
1.843357145866087732e-01
3.907088174396733393e-01
1.969170888773197070e-01
-6.158865943716441693e-01
-1.505554937809434168e+00
-1.572016464523609880e+00
-7.396532121472959576e-01
2.451475087102800154e-02
-1.150040676724219113e-02
-4.813212396142713123e-01
-6.290220946954900860e-01
-2.880911533809674130e-01
1.422877604599548651e-01
3.170624586522933219e-01
2.511627502962830438e-01
1.341152005934703462e-01
7.483347639166104681e-02
6.803374019846782084e-02
8.361950641934737249e-02
1.118621645550428312e-01
1.549336722808358768e-01
2.127290231494535500e-01
2.717471287723529083e-01
2.995599945848367862e-01
2.657993552763370793e-01
1.835430651114127176e-01
1.113624065399936303e-01
8.659039684282961169e-02
7.171811167433447820e-02
1.089414619972841215e-03
-1.285090225036157052e-01
-2.429276336036102490e-01
-2.599118714991691115e-01
-1.569553967862419575e-01
1.534324221447450065e-02
1.649901674243042515e-01
2.117485553055045155e-01
1.486365395935558276e-01
7.386665865115987772e-02
1.186523919737603044e-01
2.949989123372163680e-01
4.596757836731478752e-01
4.811772074142756650e-01
3.812158181936964874e-01
2.636249818072659012e-01
1.823441018414051762e-01
1.325711465112055232e-01
1.076719202722742075e-01
1.050646613762532544e-01
1.005276663250461444e-01
7.330025023201797163e-02
7.004972183659195772e-02
1.894536702307437481e-01
4.208996497698835881e-01
4.883816172934718480e-01
2.180922968924560446e-02
-8.988712409707539930e-01
-1.520278560543891766e+00
-1.189678640512060070e+00
-2.772502036773246137e-01
2.491434244341239890e-01
6.393810952645145873e-02
-3.160941588406016578e-01
-4.053609928322398637e-01
-2.317547966045865326e-01
-3.863289103214450487e-02
5.686380247491258644e-02
7.620889445034118026e-02
6.927873952643405497e-02
6.850974499867508449e-02
9.591315722866468330e-02
1.609617582505749045e-01
2.434615474663497092e-01
3.037550413969337115e-01
3.159162503306093273e-01
2.762493426247709105e-01
1.988659769191641891e-01
1.284514900184942909e-01
1.240643761596761374e-01
1.896498597716072820e-01
2.474246735159089938e-01
2.163924981231544753e-01
9.604534664617003781e-02
-4.324217081197063300e-02
-1.240315953098208301e-01
-1.116300407835425085e-01
-3.244537648744573455e-02
4.835834635648615654e-02
8.373985114904944349e-02
8.381822573044465929e-02
9.238395989683276244e-02
1.334826656522863364e-01
2.012510370595757825e-01
2.924893996907949600e-01
4.013330391958025434e-01
4.717951567611595176e-01
4.205183447753314541e-01
2.453170168518816752e-01
6.061208088402179894e-02
-1.973192702779009294e-02
-7.518928470186963392e-03
-1.152987210798459353e-02
-9.120039038922370112e-02
-1.694386760997031727e-01
-9.982903636662823765e-02
1.731868604958924363e-01
4.488506250439750489e-01
2.692060891116336840e-01
-6.370107677804238699e-01
-1.746994969369473294e+00
-2.022566125054126474e+00
-1.170172088052815473e+00
-1.187534828093203820e-01
1.777354383773184499e-01
-1.698749151620159714e-01
-4.657983924835888412e-01
-4.003416129145597746e-01
-1.694907874920690283e-01
-1.684698840675960194e-02
1.938910088370487256e-02
2.179646142823145338e-02
5.093580787143831001e-02
1.115845006081164770e-01
1.859322273342067233e-01
2.535377878669701213e-01
2.933320862157944298e-01
2.912365325641528835e-01
2.471929971854767982e-01
1.724247398799421127e-01
8.990518626526672330e-02
3.686340681610322800e-02
4.366304043890509995e-02
9.532836350095047484e-02
1.267908452195773139e-01
7.889059727118435950e-02
-3.617472209557502649e-02
-1.437721316374972746e-01
-1.843315519560190241e-01
-1.536309577120401892e-01
-6.923484831287550489e-02
5.222773400687984874e-02
1.765209833270761641e-01
2.617091975738846665e-01
3.015997107570964064e-01
3.259382742400576127e-01
3.525759832801200755e-01
3.637320232787316643e-01
3.296433799498023065e-01
2.435179623362779266e-01
1.362573857349224371e-01
5.683692944846069350e-02
3.497336685378802518e-02
6.828178078516178307e-02
1.323968421838771226e-01
1.825097550249236977e-01
1.767091521589638226e-01
1.454262053189371018e-01
1.940702604746913362e-01
3.237760364343333364e-01
2.486573671435292066e-01
-3.746770871508885437e-01
-1.332835811329571074e+00
-1.765672095588159296e+00
-1.153932211858236911e+00
-1.252280324181781201e-01
3.048301983816471550e-01
-5.142769894204507475e-03
-3.946712567891356160e-01
-4.079433663311076153e-01
-1.802541506535707272e-01
-8.146880795580319079e-03
3.505697044160110964e-02
4.685914073946194358e-02
9.959149690018463674e-02
1.932212588059753766e-01
3.101182982681723876e-01
4.194395229809112502e-01
4.532774740497633181e-01
3.610400257395274259e-01
1.915276349738264661e-01
6.012902023039828209e-02
2.617609611145729764e-02
5.645083088661394244e-02
1.112567701194806247e-01
1.895253074991500863e-01
2.678343959255710116e-01
2.701326678158715855e-01
1.430572832584474097e-01
-6.671868775491388015e-02
-2.375455930767418344e-01
-2.742025562314899245e-01
-1.828136933116508156e-01
-4.682376992824356654e-02
7.120387749417574075e-02
1.814785629709733394e-01
3.043328706922682203e-01
4.055967489443240148e-01
4.365552017018921038e-01
3.926744335821508725e-01
2.999932810293266527e-01
1.851100463288897213e-01
8.121418036487905445e-02
2.975350539488602619e-02
5.288653240147996731e-02
1.371533660255577769e-01
2.435972435055009377e-01
3.150728748062359141e-01
2.967702034317752924e-01
2.008852121324264939e-01
1.410389791151326067e-01
2.096247424062575304e-01
2.503842271304917988e-01
-1.272748542694581431e-01
-1.034724355478205737e+00
-1.831515914280456458e+00
-1.669685609582334695e+00
-6.569656112912282131e-01
1.465118188290342460e-01
8.096250948226749178e-02
-4.308008638872198315e-01
-6.814852668467173968e-01
-5.171915118303308523e-01
-2.218910314740729084e-01
-2.122217211449434898e-02
8.134862217383109773e-02
1.598138180196570779e-01
2.379191010118775484e-01
2.942694115812460876e-01
3.110164888115841131e-01
2.891492747089766113e-01
2.381433724330513091e-01
1.695269782728427155e-01
1.001382805150199673e-01
5.442178769226808238e-02
5.802018056500572035e-02
1.216010931094370917e-01
2.230786480933281135e-01
3.053663304260220701e-01
2.990399581911277194e-01
1.655912281671740593e-01
-6.257754906680647322e-02
-2.880589878274404381e-01
-4.062833612886715962e-01
-3.647825067681881306e-01
-1.877358305301563557e-01
3.616316417181390797e-02
2.074446725379030521e-01
2.864608884723099935e-01
3.052418297703612393e-01
3.015039046167288239e-01
2.718614790129079695e-01
2.060489647730192608e-01
1.306865727484878559e-01
9.483229656067239388e-02
1.237389217996502921e-01
1.967044797390487543e-01
2.717251385570210731e-01
3.185631762218504304e-01
3.132547084497572243e-01
2.285017279369226106e-01
7.678686739089946034e-02
-3.807686566080439872e-02
2.157856761653697761e-02
2.235937634007779951e-01
2.190277114598403740e-01
-3.737757279121078913e-01
-1.329181671578363977e+00
-1.757394139692239676e+00
-1.141880834808958856e+00
-1.335874680408823401e-01
2.490082626320948567e-01
-1.249836145187578074e-01
-5.819900446989441090e-01
-6.237984146554667042e-01
-3.346279111744457357e-01
-2.768936393954954389e-02
1.365807561985097340e-01
1.884701962909719475e-01
2.071066216266985727e-01
2.312339126552515056e-01
2.542970321809756573e-01
2.425249248312827399e-01
1.707701612413454473e-01
7.050400357333755363e-02
2.561989703649440731e-02
8.929351537431223784e-02
2.107087796982142491e-01
2.805145552238239581e-01
2.576394871274114151e-01
2.055487506362030370e-01
1.775146212766908482e-01
1.259979746883846119e-01
-1.968527550428880724e-02
-2.304916513449999926e-01
-3.867119557602405888e-01
-3.888244660444601930e-01
-2.339546654649344304e-01
-3.077293793886919787e-03
2.039135997973260672e-01
3.246507336660107712e-01
3.484830730277609923e-01
2.963617362465159055e-01
1.999563900707396480e-01
1.013437858006549092e-01
5.233203414185064878e-02
8.500710673672380591e-02
1.776902514170460023e-01
2.684512560183748286e-01
3.101757987588181775e-01
3.005384339698742302e-01
2.583735997338544865e-01
1.903981450798511721e-01
9.285457192450338737e-02
-8.770598980290165991e-03
-3.057959317709344621e-02
9.215469212713668645e-02
2.293944682441504679e-01
5.186058886417964364e-02
-5.664454278754693650e-01
-1.146813699382533080e+00
-1.010561071827180024e+00
-2.309615946638952921e-01
3.279988608706267406e-01
1.318334643140676166e-01
-4.194117745749870174e-01
-6.760046636496895855e-01
-4.942229761305861890e-01
-1.480406404168394530e-01
1.141614042154209113e-01
2.358739969235079115e-01
2.626718101677947281e-01
2.438515656238311458e-01
2.010996713073443243e-01
1.393556814927559284e-01
7.675995568905333299e-02
5.302892120230397188e-02
9.290613034175876361e-02
1.726583633287187280e-01
2.417053273873260855e-01
2.698199872283275624e-01
2.603286643638889064e-01
2.286540793091122181e-01
1.826439669747959849e-01
1.157116626152662198e-01
1.047125802015703294e-02
-1.358312461447134245e-01
-2.779326812312398753e-01
-3.339237224734308840e-01
-2.535125915899428262e-01
-7.187122095579012715e-02
1.162191657135238088e-01
2.306397211638401001e-01
2.509701961016181926e-01
2.076047434282088933e-01
1.459120572698528462e-01
9.405572585094033877e-02
6.356993371191518860e-02
8.526962404279808672e-02
2.121146466629834360e-01
4.351373557646521784e-01
6.240947636633971118e-01
6.360395894263013439e-01
4.741475589302973637e-01
2.690485130353261201e-01
1.220733899202094963e-01
3.249884216098890971e-02
-1.716263077275445234e-02
3.464738375196321080e-02
2.380841451441479961e-01
3.978155050823798944e-01
1.047613201337631028e-01
-7.131744048402388625e-01
-1.388389478458084580e+00
-1.180472889707784967e+00
-3.382072654044763205e-01
1.562272560812466848e-01
-9.249724063317696365e-02
-5.281382346166646480e-01
-5.698747584766296059e-01
-2.546655073811807113e-01
6.860368497313268366e-02
2.144978955714175461e-01
2.197895690061217600e-01
1.707120625323651220e-01
1.102013198353624102e-01
5.616011563940491447e-02
3.065456511845124354e-02
5.493251914877821107e-02
1.260983712366858245e-01
2.091818635818903649e-01
2.601868237224580493e-01
2.563382848296159588e-01
2.063654268573404116e-01
1.418605539340321575e-01
9.361088433940607800e-02
6.190996974211839671e-02
1.278255659358910543e-02
-8.588220687219340344e-02
-2.186076087216979325e-01
-3.150010916809881101e-01
-3.041573877610837529e-01
-1.841968457977189721e-01
-2.519385163858113563e-02
9.843193294654892234e-02
1.625033382376291913e-01
1.826214045855580059e-01
1.759058123725031897e-01
1.516242116161683473e-01
1.292397998776348145e-01
1.360573698719632629e-01
1.736764237905363550e-01
2.054814595042344372e-01
1.925234946150009563e-01
1.352355554297244578e-01
7.362894370049398451e-02
4.573693779977217044e-02
4.678597908471498340e-02
3.542745414079102179e-02
-9.077996052001066282e-03
-2.845344593851330262e-02
8.033931724120908779e-02
2.811080139907320974e-01
2.427604553813643429e-01
-4.005067992776815133e-01
-1.417949642395177845e+00
-1.902878130537226431e+00
-1.297924915407043800e+00
-2.361137913981129766e-01
2.250482671180525363e-01
-8.306452325440152884e-02
-4.762560884463241107e-01
-4.532083109928796705e-01
-1.424401441853646588e-01
1.101507876861175239e-01
1.728095229004089073e-01
1.323936646903736691e-01
9.841385802845944997e-02
1.080131361848149646e-01
1.589877130953883388e-01
2.426664197666798806e-01
3.303655847585516558e-01
3.757952649409200818e-01
3.557932955250811546e-01
2.897710329047226696e-01
2.110622077057681956e-01
1.406881528565312456e-01
9.309372311876540351e-02
7.584894785456780530e-02
6.765075684603814865e-02
2.534824697550967440e-02
-6.146934479260864059e-02
-1.428744325207815802e-01
-1.606332879711058481e-01
-1.089649768496777360e-01
-2.374569032192783841e-02
6.225136379636377060e-02
1.305495905705892357e-01
1.687398955164525205e-01
1.797221638398239785e-01
1.888098141251435824e-01
2.205518894195575008e-01
2.704473173820547971e-01
3.085174524438666910e-01
3.098538937727539633e-01
2.795455891403402227e-01
2.429488242822394617e-01
2.103459430759702653e-01
1.714838296402823314e-01
1.309926690485691547e-01
1.115993942030166358e-01
1.177886604400622955e-01
1.517324531006880861e-01
2.581028935589521622e-01
4.397767719073646941e-01
4.734334415566163190e-01
-1.053795985849417458e-02
-9.944826920470647424e-01
-1.742746677171872260e+00
-1.504623669933641494e+00
-5.533137863409340884e-01
8.439420321055618457e-02
-5.187280132830719703e-02
-4.531022878418010102e-01
-5.222946184164590777e-01
-2.445469799378695852e-01
4.832453019808301276e-02
1.508747833624503321e-01
1.080262352047897945e-01
6.035622343100585652e-02
8.787796498667556355e-02
1.720541087882815068e-01
2.489502044129417724e-01
2.840208847632211264e-01
2.953538594880214530e-01
3.061016060396244964e-01
3.000822085162716535e-01
2.465470546054815970e-01
1.533028990633441002e-01
7.031659878443839717e-02
4.058035080623458718e-02
6.092171630700428386e-02
9.233789722713278691e-02
9.691646006984878936e-02
6.025069947696880257e-02
-6.967483900600607988e-03
-7.169322605431012463e-02
-9.272336939331830841e-02
-5.364421853554283276e-02
2.112683513429101240e-02
9.264098003053695962e-02
1.417139456494485306e-01
1.715820029436267713e-01
1.920671058266845976e-01
2.143966126355742186e-01
2.440985437972436334e-01
2.607322225024262807e-01
2.252622884511438772e-01
1.308466145418371307e-01
3.146324071660114297e-02
-1.676875460399934520e-03
4.985422172641417599e-02
1.322455279994726174e-01
1.711119895047617245e-01
1.543197887258237200e-01
1.696182015789319264e-01
3.078040340536513098e-01
4.462036288662781791e-01
1.884015640791661672e-01
-7.054778155517827942e-01
-1.725202060221275424e+00
-1.897475136145403196e+00
-1.008906966648918324e+00
-2.040651761139572473e-02
1.564351061808217092e-01
-2.840716874572953854e-01
-5.830302263323964285e-01
-4.429425776441517359e-01
-1.407935018834322871e-01
1.706903198613031469e-02
1.257265611021195911e-02
-7.201635771560591093e-03
5.333891862159986785e-02
1.766950003247579060e-01
2.894316426056500191e-01
3.351316760968608421e-01
3.116267239177503701e-01
2.559863394857319063e-01
1.966918940434809748e-01
1.213162122479788385e-01
6.410059348188765216e-03
-1.085087822924371420e-01
-1.198677728325137359e-01
1.417091419176114836e-02
1.844580682524564474e-01
2.310780515877454144e-01
1.085597683861768414e-01
-9.044024228810493282e-02
-2.429327174654948018e-01
-2.839021478915192964e-01
-2.133793635592869942e-01
-7.151647892813871310e-02
8.379058951775922304e-02
2.077550742945481754e-01
2.916089931880154196e-01
3.413423091561454403e-01
3.463019894746096061e-01
2.969872590010732560e-01
2.201626668758252525e-01
1.666988810539811738e-01
1.639407113755186329e-01
1.925956124739796049e-01
2.153419220725429073e-01
2.202535121541838725e-01
2.217591781776609428e-01
2.208630584776840322e-01
1.950243075655598013e-01
1.527655568781634554e-01
1.671634173408648449e-01
2.692452141949964184e-01
2.621098962758086071e-01
-2.117211036079855446e-01
-1.150335189609641207e+00
-1.829837370460657420e+00
-1.484957442187097021e+00
-4.027645624401939850e-01
3.164990043943928244e-01
1.560478794233961519e-01
-3.523995162072920406e-01
-5.508301597531964910e-01
-3.758777237514867586e-01
-1.252289697391821832e-01
1.257662669122941793e-02
6.425373440347963150e-02
1.233100359197856766e-01
2.253134187594566795e-01
3.333545331532759004e-01
3.894686625969855376e-01
3.687476989676253258e-01
2.908182641343207697e-01
1.915449215068722733e-01
9.974355333311456240e-02
4.062498016044475968e-02
3.983378102358040018e-02
1.075285031765845639e-01
2.207116453875777040e-01
3.251082362860418518e-01
3.538063144679755023e-01
2.586208172297160823e-01
5.248718582628833507e-02
-1.725989176576854522e-01
-2.979916635530106550e-01
-2.691675383212426831e-01
-1.276446688794861672e-01
4.570452928876352072e-02
1.965539737507064899e-01
3.018989846724033921e-01
3.460173828668877682e-01
3.283703642261522893e-01
2.802252068060655521e-01
2.386553327739059371e-01
2.104233254149111554e-01
1.843884808440445500e-01
1.687086398223290040e-01
1.896500297320117268e-01
2.504558209226936949e-01
3.123132481928215243e-01
3.293345932758310890e-01
2.859067817377048404e-01
1.979142074429517395e-01
1.156454160039662865e-01
1.166733714767035635e-01
1.970868431839879475e-01
1.323410933985455784e-01
-3.576040677372454568e-01
-1.091819041134177937e+00
-1.340291748400325389e+00
-7.051262857225688574e-01
1.788734968482168508e-01
4.007313483731042569e-01
-6.469091954440153724e-02
-5.123556670149240766e-01
-5.085831354766068291e-01
-2.297527526127931541e-01
-3.731275579844359203e-03
8.336398803642411370e-02
1.355223218855716449e-01
2.278442756097572575e-01
3.215657934014992669e-01
3.378045172700483989e-01
2.582654357446450000e-01
1.425332410707815523e-01
6.377010432772699244e-02
4.731545404333217103e-02
7.244846677353174169e-02
1.154099692126705490e-01
1.686830355617989774e-01
2.210080788327584422e-01
2.470897934140365293e-01
2.229005577565875140e-01
1.317288493818138950e-01
-3.407210552564036293e-02
-2.422065675023575837e-01
-3.996376582230620755e-01
-4.109300100041113346e-01
-2.668456449573117784e-01
-4.671883155787396463e-02
1.589059785737975405e-01
2.990490814832573729e-01
3.541252706207788092e-01
3.231004409904789654e-01
2.313602577828511309e-01
1.269144794960602729e-01
5.051988126027108506e-02
1.628070768223215462e-02
2.312338735848211077e-02
6.507130404905973886e-02
1.243810397951270741e-01
1.766061860740689160e-01
2.063639055034835468e-01
1.991944404852807327e-01
1.321577783191452138e-01
1.689451519039545171e-02
-4.724806793973183872e-02
5.549219373192658400e-02
2.360426519461603923e-01
1.055609627700726943e-01
-6.254569790302262344e-01
-1.532451647755407098e+00
-1.695305268278265221e+00
-8.856788919999949439e-01
-9.910340485570490188e-03
7.579194362570870758e-02
-4.049814483417568667e-01
-7.023065523065038507e-01
-5.343933127006513795e-01
-1.670452507692130606e-01
9.808536964843056483e-02
1.978948673260431668e-01
2.143559559954367755e-01
2.162374874613214870e-01
2.134431251440062627e-01
1.914342418511330857e-01
1.505630109075270229e-01
1.154698853175722961e-01
1.145266352648824371e-01
1.567208823676745910e-01
2.243017532402128422e-01
2.792222012313471113e-01
2.907286576040817860e-01
2.629539351882929643e-01
2.137676000513720753e-01
1.315435535031245495e-01
-1.171704428634495060e-02
-1.968801210786199074e-01
-3.352519570166227481e-01
-3.337037836244911571e-01
-1.771216942665828076e-01
6.362382884717993070e-02
2.876682729438005959e-01
4.161380946867223041e-01
4.190368104350059575e-01
3.262358531327442246e-01
2.104576673638846873e-01
1.373594090944192103e-01
1.234251312411721868e-01
1.445607454353647903e-01
1.768737474774320917e-01
2.156641791637083916e-01
2.585055639729386678e-01
2.873612108602175419e-01
2.775498775848906363e-01
2.174489165814849356e-01
1.140752224714403490e-01
4.793448581952870075e-03
-1.772160709238766729e-02
1.431670611842427165e-01
4.110927139313611534e-01
4.290349267430864644e-01
-1.633604567437152433e-01
-1.154395920284636778e+00
-1.692035247658463248e+00
-1.227184888336455115e+00
-3.253443836066443606e-01
2.318616570285869649e-02
-3.347538644299164479e-01
-7.232520359632543805e-01
-6.402040180691400684e-01
-2.157967369622613985e-01
1.691523449585449479e-01
3.212860209817816615e-01
2.906091327540515357e-01
2.041515344079355421e-01
1.372022695190011077e-01
9.904594314024668666e-02
7.826218665710715783e-02
8.205286361962600694e-02
1.310079259092027104e-01
2.175193813630774686e-01
2.905658072547298021e-01
3.028690938269871236e-01
2.605613399132926111e-01
2.070735828562844105e-01
1.685140598805771328e-01
1.252768887098583139e-01
3.215875296240214981e-02
-1.245872973901849395e-01
-2.838945018276305965e-01
-3.427247325509185649e-01
-2.430257121677373566e-01
-2.510827755396613514e-02
1.970946296293421829e-01
3.191374916348834745e-01
3.198226325845779927e-01
2.537776625157959209e-01
1.840160262624855048e-01
1.431952554536765065e-01
1.421130622262842536e-01
1.775562460249126839e-01
2.331429634555580999e-01
2.896555050128072906e-01
3.269396052690482501e-01
3.196949250697957989e-01
2.575428272104402505e-01
1.653274670161265780e-01
7.563210463068897882e-02
-6.082595642207770138e-03
-6.069533852180043071e-02
2.991776692168610433e-03
2.434559589590790940e-01
4.443548921692521692e-01
1.347414411115686883e-01
-8.448312355290409359e-01
-1.819034494292526949e+00
-1.831976207263313894e+00
-8.961785616113081554e-01
-7.214160024957691486e-02
-8.358834395727754440e-02
-5.363886678524991680e-01
-7.043897336903466311e-01
-4.348427261304931291e-01
-5.468169217712262609e-02
1.658793530851828402e-01
2.099348091459644905e-01
1.727624955127253781e-01
1.249889175491738502e-01
9.950103436041560223e-02
1.145347203127995983e-01
1.711547913213533056e-01
2.473511849952883812e-01
3.123541230672658431e-01
3.439840496832590189e-01
3.310831959035461236e-01
2.748807882985784268e-01
1.989253928211630051e-01
1.413719733237654708e-01
1.144102543551151069e-01
7.653257800945262312e-02
-2.628899491692979207e-02
-1.801866833056131323e-01
-2.893950091838544125e-01
-2.678504226439931135e-01
-1.294513170472153807e-01
3.258749349214297431e-02
1.359610257143528400e-01
1.619404941372276918e-01
1.433971590877850810e-01
1.275589508352039103e-01
1.457507182301262250e-01
2.018036010367046107e-01
2.783952845011832267e-01
3.499718698370428704e-01
3.911823302538417479e-01
3.797720273845178740e-01
3.071738582085603020e-01
1.994496279283567430e-01
1.102278944353613788e-01
7.050310010023848328e-02
6.131502830774898660e-02
5.876506582097815179e-02
9.681667112074471282e-02
2.446903369034267028e-01
4.533299206275867577e-01
4.211208005575732272e-01
-1.822952492221665000e-01
-1.145471548775040649e+00
-1.622834502540032364e+00
-1.079248722618752376e+00
-1.082033055008256583e-01
2.777585921686147596e-01
-7.124135321689481493e-02
-4.716074351214418203e-01
-4.417776444046244144e-01
-1.339360176958697413e-01
1.029791472511744910e-01
1.430694448209650915e-01
7.033588431692210097e-02
-3.408778840314451164e-04
-1.184293197711511030e-02
3.847456770966978939e-02
1.236829432768621895e-01
2.075426551456834301e-01
2.620629844925965735e-01
2.788928024543609885e-01
2.633738363037030905e-01
2.194074056015782315e-01
1.508947195325606450e-01
7.933070953928891833e-02
4.348139514967636760e-02
6.360927328005322456e-02
1.050631237541858887e-01
9.853500567172651659e-02
1.631726890842807171e-02
-8.690686760793583931e-02
-1.343995870185380193e-01
-1.087415777449973336e-01
-4.752900850993869997e-02
1.278042591149221308e-02
6.177635291952379010e-02
1.082899477133735244e-01
1.662479876245620825e-01
2.342960655961205951e-01
2.869840688629343162e-01
2.954580516483314434e-01
2.563083130013267263e-01
1.940390340047926099e-01
1.352320972038430769e-01
9.020702326237046986e-02
6.389202691611212126e-02
6.799749221953821365e-02
1.062342337918037172e-01
1.538428979954018783e-01
1.799497197645674451e-01
2.090751856217200888e-01
3.085780916186070533e-01
4.189524912701406700e-01
2.362453584029506060e-01
-4.800579665865991608e-01
-1.354839949230979723e+00
-1.540141983405966197e+00
-7.750540901948667072e-01
1.260191276046622177e-01
2.990995019061075677e-01
-1.320861677236755127e-01
-4.628094020945615061e-01
-3.701503527091976053e-01
-8.318911275604023992e-02
9.270883102957772071e-02
9.872352377777832144e-02
5.561338065982313061e-02
7.085328987772739062e-02
1.538588591770708724e-01
2.498123630346296697e-01
3.082844670745737981e-01
3.222958143030907885e-01
3.099981278929914708e-01
2.735230687418611639e-01
2.011674020632046866e-01
1.078896871417389935e-01
4.426936841804044592e-02
5.266416961136385910e-02
1.198983417900296583e-01
1.764940494232395962e-01
1.487847054430113669e-01
2.015856250686710524e-02
-1.531074835282510982e-01
-2.827319879494158417e-01
-3.115464486708494629e-01
-2.451419401714886315e-01
-1.270862100043820830e-01
1.608269666514852703e-03
1.142722133793100947e-01
1.959327708368845400e-01
2.442575670740946003e-01
2.601825789258303545e-01
2.392937325832613094e-01
1.927547487483708966e-01
1.641572645879450509e-01
1.842294529040635898e-01
2.144944609559356341e-01
1.906250986827134897e-01
1.213190028674909354e-01
8.245830385959028452e-02
1.094019932193591726e-01
1.523259808227087342e-01
1.570139000973027887e-01
1.591806609101324987e-01
2.350788222346187062e-01
2.870239194199959432e-01
-3.511510013232188587e-02
-9.057187211649413427e-01
-1.769144994613715882e+00
-1.723118300265018110e+00
-7.255027295056137859e-01
1.871469976946564251e-01
2.154360996563538522e-01
-3.181111184145252735e-01
-6.547811031182775299e-01
-5.434182680926952225e-01
-2.515345028370514768e-01
-5.408010011320502075e-02
2.539851359473455777e-02
9.494592260120940375e-02
2.042152334405058500e-01
3.091948675111308997e-01
3.494208786987573756e-01
3.071107335169250274e-01
2.145259090333469787e-01
1.391319979899371395e-01
1.466622091183970300e-01
2.393892161742393054e-01
3.393367794811132376e-01
3.720576989367420651e-01
3.421760749551451819e-01
2.859885378282316371e-01
1.985553013625492025e-01
5.648645329429410195e-02
-1.205807463276092895e-01
-2.667108080313784213e-01
-3.217661322973012217e-01
-2.716701399962332952e-01
-1.393010515986263242e-01
3.755351140076390593e-02
2.084442627975346407e-01
3.212831298244513412e-01
3.541964860074850452e-01
3.281495027981916057e-01
2.799676815170678013e-01
2.286214095472984820e-01
1.771687147606003376e-01
1.361310735871703037e-01
1.181415679467491958e-01
1.197701826966985350e-01
1.361444649622395864e-01
1.772655124573460084e-01
2.435692476009259644e-01
2.938585751140098123e-01
2.695262307545467362e-01
1.844374752026814446e-01
1.553376091642491574e-01
2.191935809715101768e-01
1.156801118519467653e-01
-4.849568819220147486e-01
-1.358771785608399618e+00
-1.683279216349590657e+00
-1.035130811237819914e+00
-9.172596029541116303e-02
1.964839586807840266e-01
-2.174179037804480075e-01
-6.441405577681136307e-01
-6.402258101744712215e-01
-3.470976621120968608e-01
-7.638852489626893338e-02
6.191210156438133050e-02
1.365074512143167329e-01
2.124487199699285067e-01
2.788025535519874087e-01
3.009394085462235302e-01
2.738796046167886744e-01
2.185727691924728155e-01
1.604599529904303379e-01
1.229115594411724910e-01
1.212628684474445218e-01
1.532197068598737943e-01
2.046907919053380931e-01
2.635377230295380402e-01
3.121150783188105238e-01
3.085607764749032644e-01
2.033060646999072796e-01
-3.421867875646154855e-03
-2.303582759494325061e-01
-3.644795300015981621e-01
-3.441185246143259602e-01
-1.903069303241141097e-01
2.601669058068897117e-02
2.291833675741262732e-01
3.624510089664509938e-01
3.989717487579023114e-01
3.495463656155725629e-01
2.577402008017792290e-01
1.788036034531074181e-01
1.536946014444829922e-01
1.909412044238492923e-01
2.605306457830144362e-01
3.102787233332646721e-01
3.135015906497620741e-01
2.966753905421457560e-01
2.909171258319442899e-01
2.708732448287449190e-01
1.843971911927655694e-01
5.278047255326025200e-02
6.829779734785136613e-03
1.399352346901008848e-01
2.639734288572637144e-01
-5.550887010460805321e-02
-9.445085115383131669e-01
-1.743435969969122867e+00
-1.589862486040996670e+00
-6.061549195044535487e-01
1.311116731379204647e-01
-1.325509384419429858e-02
-5.591839840555933305e-01
-7.643510874261956189e-01
-4.947825085874068551e-01
-9.245787905065938617e-02
1.608157638109662668e-01
2.414783923604199301e-01
2.468596975006041028e-01
2.406835895519945367e-01
2.253919135950067931e-01
1.891841822848172316e-01
1.421408049937984142e-01
1.114325619507976900e-01
1.129764173715586267e-01
1.327104442726349531e-01
1.456769186991421494e-01
1.543629964327831727e-01
1.884018093834012586e-01
2.547270431717467143e-01
2.933155563641766661e-01
2.042840914100020888e-01
-4.004971468205496821e-02
-3.178902700643155277e-01
-4.577464728625111889e-01
-4.067341474835427517e-01
-2.385597548119206546e-01
-3.710340038523819717e-02
1.514399930551360018e-01
2.877694975426085544e-01
3.360351700766956440e-01
2.930611701043632777e-01
1.945225996556256276e-01
9.612054347181990532e-02
5.015831310236553570e-02
7.838189518450540405e-02
1.570165032002981131e-01
2.363269199515739549e-01
2.791135766706145382e-01
2.812350747144160557e-01
2.595531955631635856e-01
2.225633637385721897e-01
1.567365095689904619e-01
5.926950116894966203e-02
