-8.784994297840842230e-04
7.618659872420592213e-03
1.045943539774814995e-02
4.364346972887532539e-03
2.279381374871773409e-03
1.992860821291680962e-02
5.463154839609467295e-02
8.276883644219028280e-02
8.181145181864932225e-02
5.315059464732723588e-02
1.547735300544031585e-02
-1.420793326589262287e-02
-2.033779994359529580e-02
5.644727672223119608e-03
4.030535903002212261e-02
4.068187654113809837e-02
1.820849710499869260e-03
-3.161537676530925406e-02
-2.634814524843917191e-02
3.202036862982320271e-03
2.845394684541973848e-02
3.849398086890510468e-02
3.391039265350564297e-02
2.094493895986847612e-02
1.260185681805915496e-02
1.654381699105062289e-02
2.538288697481504499e-02
2.456063034980032408e-02
6.032826718344130520e-03
-1.872111356416537517e-02
-2.062171267914605227e-02
1.283854135176479803e-02
5.113092478347593117e-02
5.378833495363515710e-02
2.238127284619217602e-02
-5.027175391905594828e-03
-2.435312588816522690e-03
2.115427275990887715e-02
3.898294847051606699e-02
3.305670527283115223e-02
7.369706061133803054e-03
-1.811667242566200250e-02
-2.469869222388058200e-02
-1.026990013302084281e-02
7.893345247646489649e-03
1.247269007962974359e-02
9.274793923089698355e-03
1.531829965875124502e-02
2.869161168883427662e-02
3.296548053977411269e-02
2.186017121286578865e-02
1.889564783531398661e-04
-2.385145886533320686e-02
-3.570056076087411989e-02
-2.538090377544113124e-02
-8.698948973031247339e-03
-1.325327433404816305e-02
-3.664985961305009671e-02
-4.510141393462071407e-02
-2.191229363481792675e-02
9.970106251752958171e-03
2.303870666478861559e-02
1.945012459656269774e-02
1.899329435229293525e-02
2.533103867669167161e-02
1.956101996838411489e-02
-9.845072896165435114e-03
-4.334027052265940205e-02
-4.817972024012150134e-02
-1.936536258638680424e-02
9.862597458708611750e-03
1.106699457171567320e-02
7.257012851314154772e-04
1.230685803518972478e-02
3.946883343573386743e-02
4.207961656733742034e-02
7.641458189967434422e-03
-2.777818129462459110e-02
-2.735553049925840835e-02
3.373880625816094367e-03
3.274344943369981303e-02
4.445192617218610837e-02
4.416185973325877784e-02
3.601648694013173668e-02
1.752724623391571993e-02
-6.384362941614917311e-03
-2.549260614859680252e-02
-3.743882896125495102e-02
-4.239854396534348258e-02
-3.243798807290647346e-02
-7.357542434616212712e-03
8.713693727173447978e-03
-6.273870579550093647e-03
-3.692457916878612301e-02
-4.744284564998384884e-02
-2.754411351579685169e-02
-3.108477152446061098e-04
9.889160528353041144e-03
3.057418330457889900e-03
-2.230747530038150895e-03
4.412222876740647462e-03
1.333791980311233027e-02
1.376753326297804926e-02
8.134712700867803570e-03
7.944062549878490830e-04
-1.023990108129186824e-02
-2.489726222152829210e-02
-3.341628622211342131e-02
-1.922179708723260536e-02
2.182592271579409521e-02
6.141273498732788272e-02
6.007286939092152528e-02
1.402161345985490637e-02
-3.984933865974921857e-02
-6.593459011039613793e-02
-6.292778939502616242e-02
-5.404190573928282365e-02
-5.121345030733058523e-02
-4.135394749479122389e-02
-1.414944050993632504e-02
1.498316006538955719e-02
2.503055942148529889e-02
1.587325194687694979e-02
9.136616410319389758e-04
-1.084031946822437351e-02
-1.584627337424923677e-02
-1.152353688079066178e-02
3.959238837537580429e-03
2.667149222229091288e-02
3.835586601569770937e-02
1.777471069884320118e-02
-2.507603651883150153e-02
-4.538929280537179478e-02
-1.499024483234408928e-02
3.755034544580838213e-02
5.823249833296573891e-02
2.833749489083508405e-02
-2.145414045060300631e-02
-4.799136353460635440e-02
-3.606722859798015129e-02
-7.985015708371300674e-03
4.071320094845155835e-03
-5.303617944964564117e-03
-1.370981513617255260e-02
-3.348583439415614166e-03
1.967858164561519380e-02
3.566213323498315657e-02
2.968879424374427922e-02
5.103886379022429948e-03
-1.506461573117980589e-02
-9.144610997973465216e-03
1.676777392723183269e-02
3.224653679537334283e-02
1.402852828904269100e-02
-2.986117323689621919e-02
-6.580096045788828840e-02
-6.840155467381978105e-02
-5.038892956223928188e-02
-4.141255355647244923e-02
-3.809304373652100395e-02
-1.062833844426816672e-02
3.915279054726922281e-02
6.931830628791026128e-02
5.330881307150815707e-02
1.155045302965412163e-02
-1.413842703869738412e-02
-9.421586448389702127e-04
3.462443296528256581e-02
5.349722179727288418e-02
3.745417447475918316e-02
4.197387956653740072e-03
-2.131186814812583916e-02
-2.669144240893774056e-02
-1.164524689541359195e-02
6.666543921170537887e-03
6.001296100991496130e-03
-5.806643231365263974e-03
3.062646103142621645e-03
3.655394077857185287e-02
5.855842524137046951e-02
4.299695265339107536e-02
7.984376624139160120e-03
-1.163694865038894348e-02
-7.295350355030328846e-03
9.179241154591731219e-04
-5.205761017613260398e-03
-2.369803002109955453e-02
-4.165179731599871760e-02
-4.883784146703406409e-02
-3.850777000652622073e-02
-7.540330762482019833e-03
3.246735994563114402e-02
5.410372843834976991e-02
3.940003114342820884e-02
2.162792558183890788e-03
-2.403055127828609625e-02
-1.806782815065285583e-02
9.929999194665396767e-03
2.975237923453615679e-02
2.528392956087069030e-02
1.490956069571561064e-02
2.190957068027286556e-02
3.468172854636718261e-02
2.758724900408208308e-02
5.025180677392509024e-03
-1.254124836304895858e-02
-2.256198918872939080e-02
-2.937429312377497909e-02
-2.831051190774408824e-02
-1.739381643602348065e-02
9.957340879693443378e-04
2.681608099484834862e-02
4.832081768470595368e-02
3.892427699376906081e-02
-9.436910280365681802e-03
-6.784175103631517878e-02
-9.955551133189773083e-02
-9.096139816881131102e-02
-5.319523760173350269e-02
-9.966403946062497854e-03
2.378628514548752210e-02
5.595390788054581399e-02
8.978405253019366983e-02
9.109597199547712909e-02
2.534265185086492095e-02
-7.587746977347926969e-02
-1.328781634763442354e-01
-1.062325571121901790e-01
-3.544085651531130032e-02
1.167507740438013947e-02
1.523867224781577483e-02
2.193565497497993247e-02
7.313151393844354031e-02
1.291075887563106206e-01
1.109382456423603780e-01
1.307005404524323386e-02
-8.203305587325115944e-02
-1.096520776703325123e-01
-9.135628755483440888e-02
-7.842690790581667570e-02
-7.231399456971771000e-02
-3.811658509976266485e-02
2.906834991023028031e-02
9.110343946712746999e-02
1.123782168516397062e-01
8.828456685669440474e-02
3.197810357632616118e-02
-3.531662087276235540e-02
-8.013763927415047672e-02
-7.576129616018698054e-02
-2.753057666184858740e-02
3.875879697907696347e-02
9.963001626165941815e-02
1.335157477599751563e-01
1.210758382052159604e-01
6.361128254802587978e-02
-7.839738563862889281e-03
-5.436979180071781215e-02
-6.051523831058309294e-02
-3.932618217418713813e-02
-1.013327849781553783e-02
2.018444597081572867e-02
5.323367071496738767e-02
8.108194220791904716e-02
7.871431766251993367e-02
2.842764908420133269e-02
-4.975804868242854340e-02
-1.144862147373064826e-01
-1.426282544415508058e-01
-1.298992167477245607e-01
-7.596365837382867969e-02
1.803250112729727628e-03
6.303427942249290039e-02
7.953614329965669194e-02
5.937263636861529748e-02
2.152782211947465441e-02
-3.047684236065974564e-02
-9.106827569344531914e-02
-1.290221921548356243e-01
-1.125052699108859966e-01
-5.183352862649347192e-02
1.800909869838687033e-02
9.095417073795483698e-02
1.771267308527477990e-01
2.410690990047449633e-01
2.124314268726995025e-01
7.300545666007647594e-02
-1.043309240354838158e-01
-2.177285505265453003e-01
-2.199322507585320108e-01
-1.376411390308264759e-01
-2.855699439978732351e-02
6.843668152855549025e-02
1.426191697222241317e-01
1.795765104201569318e-01
1.472931091259613856e-01
3.671231131237605999e-02
-1.029712245272957905e-01
-1.955706347771447029e-01
-2.013830668760757392e-01
-1.409883024047486888e-01
-5.908848612647105147e-02
2.396910148120537376e-02
1.126803595896654492e-01
1.933048184954726245e-01
2.155070768001517423e-01
1.394193260816060376e-01
-5.521662545559382490e-03
-1.335629901296214450e-01
-1.797934711517015782e-01
-1.506179860107891844e-01
-9.197829136031665520e-02
-2.163057135838507283e-02
7.792419880848872049e-02
1.937272454361314844e-01
2.513469726950111061e-01
1.821537481509165335e-01
7.188204491971900839e-03
-1.653855931070533081e-01
-2.303213264460664544e-01
-1.762893462112039289e-01
-8.003712470056006945e-02
-4.656418896750388198e-03
6.619770297212496102e-02
1.625522037299744760e-01
2.328837550115564203e-01
1.854406309173223522e-01
1.886096665318208812e-02
-1.598151446592356861e-01
-2.485956918494533763e-01
-2.271122306003928171e-01
-1.331547417156136726e-01
-1.342811013113663979e-02
1.006779808274731458e-01
1.905514143203858590e-01
2.339934804969121263e-01
2.022350306951970211e-01
8.463251758935422253e-02
-8.263934570191831808e-02
-2.224073230829933523e-01
-2.672218564117951334e-01
-2.078547057871208970e-01
-8.348149777197737265e-02
6.107289575940982873e-02
1.880341490113522362e-01
2.565026183343701027e-01
2.328622395380769705e-01
1.190742481566713501e-01
-3.785713098065358884e-02
-1.702803184921343194e-01
-2.253450218224417323e-01
-1.878946259099511518e-01
-8.245994220781763251e-02
5.109727276882224112e-02
1.833269021386917386e-01
2.835107359914418312e-01
3.004105141722748229e-01
1.964672923214257905e-01
5.319277900599515829e-03
-1.773455681842484866e-01
-2.721759070394304536e-01
-2.662697789013594996e-01
-1.858297855228371875e-01
-5.456943538046844788e-02
1.022119408177021432e-01
2.345519734456020244e-01
2.778710654075251529e-01
1.987386505967468076e-01
2.807086414484184084e-02
-1.567321361631447141e-01
-2.775956955923161718e-01
-2.909419427737463537e-01
-2.054417305607649236e-01
-6.803767172735887547e-02
7.781503005403138384e-02
2.006359858005088148e-01
2.533627557729644098e-01
1.913313312148060830e-01
3.360435453608297263e-02
-1.329490937645032289e-01
-2.289562974767119230e-01
-2.406798525223798058e-01
-1.959632607377245483e-01
-1.120280175755308250e-01
8.642245957642203172e-03
1.432274103113677921e-01
2.342547167347732717e-01
2.231820337441281499e-01
1.030213150599380845e-01
-6.541906128452913693e-02
-1.970490618903657509e-01
-2.419017073905020132e-01
-2.020865332017580118e-01
-1.049701026145342247e-01
2.522522707485082630e-02
1.663541950893262789e-01
2.747860023147604136e-01
2.856163270830991419e-01
1.684812419534617300e-01
-2.195258613007695578e-02
-1.845627146121193718e-01
-2.546979663084013579e-01
-2.283961321661512611e-01
-1.324175880624221813e-01
1.018665288291517590e-03
1.446538078873740862e-01
2.718807002235188452e-01
3.345165018475833030e-01
2.662659154555458985e-01
5.288625841591399618e-02
-2.001771898229132707e-01
-3.289050077732763588e-01
-2.720317618693257611e-01
-1.239631778728048361e-01
1.522587520554279095e-03
9.698337966395603749e-02
2.059954673685073234e-01
2.982413370477985937e-01
2.742610602234952233e-01
9.554704280494956403e-02
-1.435128688266655295e-01
-2.977331481096755494e-01
-3.019045065535045369e-01
-2.049791294995123025e-01
-8.890501310096987631e-02
1.814450065748676039e-02
1.286923181249678139e-01
2.219656348805316148e-01
2.337953519486962173e-01
1.288755099517488178e-01
-4.776895627756411883e-02
-2.036408914836821404e-01
-2.689734924147380024e-01
-2.303616701133079647e-01
-1.155145704925005234e-01
3.308416489739872401e-02
1.719277693404167306e-01
2.606571423888752181e-01
2.635706869050897239e-01
1.635095486593171887e-01
-9.426109637883747783e-03
-1.765367149188594997e-01
-2.627713721482480835e-01
-2.481631472612414735e-01
-1.586830821314740569e-01
-2.459295860694323335e-02
1.296847428492707288e-01
2.612581409482916950e-01
3.058332200733605011e-01
2.265000106928985180e-01
5.993731691248403715e-02
-1.070587578793105593e-01
-2.041540208256153455e-01
-2.129947948839056304e-01
-1.505973048486401178e-01
-3.516503219539982017e-02
1.182115769697016094e-01
2.670615442353062030e-01
3.366271178110764595e-01
2.728122332795351324e-01
9.284914098529534199e-02
-1.213178085831588676e-01
-2.698235072055633621e-01
-2.918441939543260921e-01
-2.044353280819165841e-01
-7.809375015773614703e-02
3.905107429565972399e-02
1.493970715935713789e-01
2.439355252301351751e-01
2.588210179748492434e-01
1.445269882895664770e-01
-5.053422947511058971e-02
-2.202292775339641517e-01
-3.013009218875929429e-01
-2.920150282971590294e-01
-2.063843175892383364e-01
-5.677666112444133828e-02
1.224600241724166649e-01
2.550082472968079328e-01
2.579529416189667024e-01
1.209727649924103449e-01
-7.137163093173609640e-02
-2.160842524792701558e-01
-2.708058892249876060e-01
-2.493424783410288503e-01
-1.721271308029355684e-01
-4.888441182507151372e-02
1.024956556211620018e-01
2.388535201708943123e-01
2.948680563419307510e-01
2.184156124638130525e-01
2.492096170666812521e-02
-1.900785899053783201e-01
-3.107724780446595725e-01
-2.843401461299194244e-01
-1.509692264573743170e-01
1.063646278880291465e-02
1.552454407408706827e-01
2.660894276886395793e-01
3.047300456032916993e-01
2.241620947857898283e-01
3.760078619963205804e-02
-1.647376351005043482e-01
-2.844664746002175670e-01
-2.875843425922562369e-01
-2.029144712762989688e-01
-6.868125833461916074e-02
9.626417848433115043e-02
2.675536779597069148e-01
3.824133361982538504e-01
3.633342983897798195e-01
1.933805219779176909e-01
-4.748899202246010393e-02
-2.406278071809593855e-01
-3.150121666917224394e-01
-2.710977029760819890e-01
-1.429871192061491214e-01
3.667968131619771949e-02
2.295983041523531887e-01
3.695621062311562621e-01
3.795742893401218843e-01
2.338282423902843798e-01
-5.482820994240980572e-04
-2.055395489895925631e-01
-3.003518663368789365e-01
-2.769471590010436080e-01
-1.683673300918493432e-01
-1.224275480609315556e-02
1.581519024175719601e-01
2.998225794964766711e-01
3.486110269980883247e-01
2.521288558649824596e-01
3.349491807817786548e-02
-1.960250663399994153e-01
-3.125647235419113379e-01
-2.759253830297373478e-01
-1.447109109577592589e-01
7.715370259945446285e-03
1.636033186494495195e-01
3.193210227077019625e-01
4.106284503515633122e-01
3.433488554971990125e-01
1.074134398119474809e-01
-1.793059278928385292e-01
-3.650836935229311853e-01
-3.854719358397087903e-01
-2.771718394715608769e-01
-1.039096004707267817e-01
9.094353577713812364e-02
2.654179094871667588e-01
3.552564006944560204e-01
3.032877857652234721e-01
1.176327089885418065e-01
-1.162322175984854267e-01
-2.943462841117208684e-01
-3.613157837719285781e-01
-3.184551696010197719e-01
-1.868502716688847654e-01
1.101790718382357134e-02
2.291426384260841220e-01
3.805613551969080910e-01
3.759989040995935228e-01
1.994546146214798699e-01
-6.510117851605415340e-02
-2.938089297956257284e-01
-4.009478335928527981e-01
-3.663001700875392341e-01
-2.189751839052239690e-01
-7.433608082095907732e-03
2.193718486584084193e-01
4.006536948046774405e-01
4.540710404646774445e-01
3.228307612089268419e-01
4.728371612800529727e-02
-2.395892148512260011e-01
-4.071559729684021134e-01
-4.112404658985685524e-01
-2.895991904911857651e-01
-9.960941449782192980e-02
1.195868956695186058e-01
3.237241883435333922e-01
4.306398087865323521e-01
3.560880514720887180e-01
1.022659989523680146e-01
-2.111423242014182911e-01
-4.267878880100390293e-01
-4.593930425603156564e-01
-3.305451281612345471e-01
-1.183132369166712827e-01
1.100808698220737958e-01
3.125821818698755750e-01
4.317712276976632957e-01
3.882179879620177854e-01
1.637027318830547862e-01
-1.346477827050037157e-01
-3.520837797324826712e-01
-4.164652477463883229e-01
-3.538561003930306148e-01
-2.071482744260664255e-01
7.188763787078500389e-03
2.623361167452326059e-01
4.688519363327424139e-01
4.919078539330524746e-01
2.658636094514902903e-01
-1.046451889601468926e-01
-4.088740554478792477e-01
-5.107541382889042580e-01
-4.333866528292089626e-01
-2.731723503651104501e-01
-8.530850944103686440e-02
1.237254328261743336e-01
3.186173071700528214e-01
3.972274372533881603e-01
2.698639417065951673e-01
-2.777690506478243393e-02
-3.396591513445412769e-01
-5.121991266257249764e-01
-4.933324813628919836e-01
-3.299854802486051342e-01
-1.001093854510035630e-01
1.445734679794015154e-01
3.598710328267739067e-01
4.540729443764368045e-01
3.295208003187299894e-01
1.100105013934073173e-02
-3.345691457025453674e-01
-5.457056144236899220e-01
-5.849174235389905663e-01
-4.903357681296015014e-01
-2.700307217631377488e-01
9.012126338837844752e-02
5.012128554385210100e-01
7.300168961485676844e-01
5.915150154176695985e-01
1.648762271519368383e-01
-2.749810027466456641e-01
-5.152961237622162294e-01
-5.330940103198610336e-01
-4.207967884378610579e-01
-2.577426898630952312e-01
-5.128302569447495268e-02
2.064554642214030677e-01
4.315828435253248885e-01
4.612787591252702768e-01
2.227525874372169312e-01
-1.582861822204086333e-01
-4.659301384742034480e-01
-5.727393146679246039e-01
-4.880108115168805827e-01
-2.853467953607513596e-01
-2.708599133636371489e-02
2.430662250451761652e-01
4.511348276327533102e-01
4.858670198806486762e-01
2.901174168162989897e-01
-5.737328676490055512e-02
-3.904289670651268640e-01
-5.775902147524889507e-01
-5.835611458402157892e-01
-4.400762609185756569e-01
-1.912890666686914987e-01
1.177408130134958847e-01
3.998512550218245587e-01
5.148867751849921515e-01
3.673945735440174998e-01
2.674915115350828820e-02
-3.062894347135740603e-01
-4.781524061808155035e-01
-4.908126888476796457e-01
-4.231557398671372816e-01
-2.968978390676503820e-01
-7.257942590072080646e-02
2.226286548964024614e-01
4.269407350989296024e-01
3.713672817678697058e-01
6.806354977361588066e-02
-2.845722758680830911e-01
-4.924342879563765041e-01
-5.131937559417220074e-01
-4.060121272883868704e-01
-2.067393153948157702e-01
8.556088187129010092e-02
4.215859434043012222e-01
6.586141096122813954e-01
6.422726729044483385e-01
3.530139325210851498e-01
-4.355288999115683457e-02
-3.285094133386530224e-01
-4.062641570942938651e-01
-3.277415644356072577e-01
-1.677923183798355200e-01
6.265519010308071013e-02
3.623657029987551459e-01
6.350644524931272628e-01
7.062510607042248312e-01
4.853219269109029232e-01
8.621565624304725062e-02
-2.586969105830200233e-01
-3.956415267583268669e-01
-3.303884269029333520e-01
-1.460983449536887580e-01
9.777041423673392406e-02
3.740034774318851674e-01
6.235693853092504346e-01
7.236144114135376615e-01
5.724890005466560794e-01
2.214830209824106833e-01
-1.317603329467773032e-01
-3.147329311052521339e-01
-3.074494956333800877e-01
-1.837345489610218430e-01
1.477675872693526293e-02
2.908087511071212328e-01
5.923268139218916817e-01
7.682040178969314903e-01
6.832939032400059398e-01
3.722033450361630358e-01
2.667029293326016876e-02
-1.770227217659775532e-01
-2.004815055029700033e-01
-1.004633225278536018e-01
8.819427366116357192e-02
3.961554657746891306e-01
8.215591432413870132e-01
1.191296227508950700e+00
1.223756431643256537e+00
8.288927779918534577e-01
2.626606078381412690e-01
-1.246340981130998060e-01
-2.093445531618541855e-01
-8.952270343518900497e-02
1.230984032641556369e-01
3.960720531188647309e-01
7.030006370154228135e-01
9.430445998106010697e-01
9.773510362378103888e-01
7.544547961303226247e-01
3.812249174501540216e-01
4.527709761001785793e-02
-1.312169714114130303e-01
-1.469648547486621937e-01
-4.838722513207702886e-02
1.544536093275467037e-01
4.648171948423626687e-01
7.954990826051704378e-01
9.504761739883045291e-01
7.871554666235438535e-01
3.864468411720113905e-01
-6.225326332720562683e-03
-2.016351451930433469e-01
-1.739891591944173199e-01
1.719964916001003041e-02
3.179686266677497208e-01
6.739996922910770349e-01
9.887108510478476164e-01
1.130704335574339803e+00
1.006331852883829647e+00
6.445046825997848838e-01
2.038028887525781541e-01
-1.275605173558635730e-01
-2.431085898777786414e-01
-1.402952645918537078e-01
1.270549047767410566e-01
4.909637567985409290e-01
8.631564921951451197e-01
1.105927947359171437e+00
1.071812960217509492e+00
7.313061071494998400e-01
2.447883586138824286e-01
-1.447236348690756624e-01
-2.961237305817704391e-01
-2.258260683937110547e-01
-1.020029801334913777e-02
2.975376820294748925e-01
6.362328055085626488e-01
8.833781708581662784e-01
9.016100176051914383e-01
6.529016493315866754e-01
2.460709441445545487e-01
-1.380524134801365266e-01
-3.660406765541188157e-01
-4.038740698309555288e-01
-2.779061539781005341e-01
-2.263679070423827572e-02
3.135674737512543220e-01
6.218107587079279019e-01
7.331663659442348990e-01
5.314881106451514459e-01
8.670272056077030221e-02
-3.765089420655943764e-01
-6.621428015022743363e-01
-7.168818629210816917e-01
-5.808949962983763760e-01
-3.043244230347079138e-01
5.474397189401354613e-02
3.840200421140905762e-01
5.211820713479837774e-01
3.485048886101740351e-01
-9.011204037631362351e-02
-5.838262035164816233e-01
-9.100376179401479249e-01
-9.919132192100488243e-01
-8.796956663770957308e-01
-6.335882013762307308e-01
-3.017413349533403233e-01
1.702889594200854978e-02
1.792672573897076127e-01
9.438892721380212625e-02
-2.101274481765648405e-01
-6.178432323725705499e-01
-9.846509563831640222e-01
-1.186827773622435300e+00
-1.167926544587863047e+00
-9.619860083650126903e-01
-6.595682817260564157e-01
-3.577337466248345921e-01
-1.512129057689575173e-01
-1.400973739623665726e-01
-3.898093841847779517e-01
-8.503991953842586771e-01
-1.335580786672749598e+00
-1.633707087499880251e+00
-1.659371273163801952e+00
-1.479678834125584430e+00
-1.206233563614311333e+00
-9.110420312677671717e-01
-6.605279402062882443e-01
-5.755786352106351256e-01
-7.778973962409838627e-01
-1.243861849645726547e+00
-1.762919125077867744e+00
-2.100301364515666958e+00
-2.171123276801439683e+00
-2.024325855285158848e+00
-1.732638137051232707e+00
-1.368971010089106155e+00
-1.050364260167716113e+00
-9.314915027150522109e-01
-1.116817864170637886e+00
-1.561022674598023130e+00
-2.064136249360500663e+00
-2.403524357403614253e+00
-2.486906824114429870e+00
-2.364780600448405323e+00
-2.120430169995009884e+00
-1.803282915479140325e+00
-1.475829731559090030e+00
-1.270394075405705037e+00
-1.334863778466469642e+00
-1.695137060241797666e+00
-2.196013282653796139e+00
-2.613534829700976392e+00
-2.815031557393419703e+00
-2.789871521409120980e+00
-2.572475570531818523e+00
-2.207260179422728452e+00
-1.790191333772204185e+00
-1.488305955650923051e+00
-1.466376780101709354e+00
-1.761241912254952302e+00
-2.224914299478486512e+00
-2.622844886695796074e+00
-2.800705191610437961e+00
-2.744821460462941065e+00
-2.515837676564900427e+00
-2.179230347600273454e+00
-1.803783143164719327e+00
-1.495908950184614339e+00
-1.395503671390746048e+00
-1.587432955329775464e+00
-1.995411842383234546e+00
-2.404892236697897978e+00
-2.626963532815235425e+00
-2.614743502300622691e+00
-2.413898887127209125e+00
-2.065710827966662499e+00
-1.609570817896921247e+00
-1.155027958959029766e+00
-8.893643688319310403e-01
-9.599824069088159773e-01
-1.328567119879998870e+00
-1.768827649162779903e+00
-2.037433484032910247e+00
-2.035520763345153750e+00
-1.805859371902642563e+00
-1.426874624811711900e+00
-9.531747598319872949e-01
-4.570871896168648418e-01
-9.061072192173363904e-02
-3.204161872791449345e-02
-3.128252727433925573e-01
-7.292094056948590364e-01
-9.950258665565252514e-01
-9.777786017089723503e-01
-7.401327640592049173e-01
-3.807670045611504239e-01
7.695070797012915076e-02
6.115484298482932735e-01
1.088159291519556815e+00
1.303389967788251669e+00
1.172134734369581821e+00
8.413791583933285523e-01
5.838771306715193621e-01
5.736587737175137258e-01
7.920083776261375164e-01
1.148989198090434982e+00
1.617767697629228785e+00
2.188248409092853120e+00
2.739071081365119564e+00
3.055126798652942455e+00
3.018872186143605862e+00
2.758280791919084596e+00
2.550997575961346353e+00
2.576922800885234288e+00
2.811865179080286214e+00
3.161887760486135512e+00
3.618958189648480150e+00
4.219756072801918556e+00
4.883086513466876610e+00
5.380105397777876775e+00
5.526347264507113444e+00
5.382650397953136157e+00
5.208306212432198379e+00
5.220514867352788357e+00
5.458610542938321153e+00
5.869714640132600358e+00
6.430738207059122580e+00
7.129282397574622898e+00
7.855690202567941149e+00
8.395119399617584577e+00
8.587946939805870983e+00
8.490393114939200458e+00
8.340593990807571245e+00
8.361138074783895036e+00
8.615921973643047238e+00
9.054269032096870617e+00
9.630358187936431946e+00
1.032531027622795605e+01
1.107606205850539993e+01
1.173571736672841048e+01
1.213685082808163429e+01
1.222181645529215999e+01
1.211926304441262126e+01
1.205990965201456255e+01
1.219973608761435457e+01
1.255256799112526345e+01
1.307494011043078252e+01
1.371864225528666914e+01
1.438879378194701353e+01
1.497227361112301125e+01
1.541572918835426087e+01
1.567123598352514513e+01
1.564080778104990976e+01
1.530646168000918372e+01
1.491193493462668584e+01
1.501833431187201207e+01
1.603041985274130354e+01
1.680405104433633667e+01
1.406741416100715547e+01
5.489002499849156003e+00
-6.247410853157857602e+00
-1.512274618267039727e+01
-1.790963451704524800e+01
-1.626086596995651945e+01
-1.340232672107163125e+01
-1.126122572615069650e+01
-1.041224084318084131e+01
-1.090780621680380591e+01
-1.256592677440854366e+01
-1.484961292398271127e+01
-1.688434087953078588e+01
-1.780921725038065517e+01
-1.720067697175564803e+01
-1.523831561388069744e+01
-1.257259905242423770e+01
-1.005125094669832819e+01
-8.436175487749460800e+00
-8.191145434042081064e+00
-9.345216486913853871e+00
-1.141340084891244189e+01
-1.349336615651645666e+01
-1.463525640324719923e+01
-1.428305360507411592e+01
-1.248439733588798894e+01
-9.805386371728520345e+00
-7.086137264806128044e+00
-5.169218241995778840e+00
-4.649099702918261023e+00
-5.650228766912230860e+00
-7.713892945573626925e+00
-9.937302469486235523e+00
-1.135522602786418567e+01
-1.133203446066602993e+01
-9.786968515909293842e+00
-7.262276267441474253e+00
-4.754859539967417170e+00
-3.172067247361386677e+00
-2.774850543997114727e+00
-3.284826638182606562e+00
-4.454014587845876783e+00
-6.126336227956542757e+00
-7.780060064402386288e+00
-8.531197299457367933e+00
-7.757624490606400691e+00
-5.567543727427611167e+00
-2.730788574029157090e+00
-2.827407305232016999e-01
9.265504295288535808e-01
5.491264293153652609e-01
-1.161565522576590181e+00
-3.462492594310385474e+00
-5.419108091405887784e+00
-6.269309325537140154e+00
-5.661888124877005879e+00
-3.727456590908596823e+00
-1.050095368312401467e+00
1.482890239415498801e+00
2.985378965567969445e+00
2.930051618653742196e+00
1.392215932740949347e+00
-9.623484335173706494e-01
-3.179870146762780792e+00
-4.430485585477284438e+00
-4.270501707288773652e+00
-2.710084970520092007e+00
-2.109635214914407086e-01
2.381695605725885123e+00
4.099805407309920824e+00
4.284624116338093813e+00
2.924153456644306814e+00
6.401000831777601263e-01
-1.646964135301607346e+00
-3.106947311695823721e+00
-3.233560288964720364e+00
-1.936468994611530103e+00
4.217534889157459888e-01
3.074816185846344307e+00
5.080716491986394523e+00
5.703211679058824757e+00
4.742108891116745717e+00
2.600110263243397668e+00
8.672562226984192879e-02
-1.880533545177373700e+00
-2.574643806251085465e+00
-1.714614357072729245e+00
4.203903647395489940e-01
3.095251504327014125e+00
5.368022714936369510e+00
6.361689634813132876e+00
5.571185347048826841e+00
3.221854738609594371e+00
3.649578132532551589e-01
-1.687075033370059929e+00
-2.235671727387451124e+00
-1.423117447258884560e+00
3.109874893952394581e-01
2.580062767588091610e+00
4.820765535075555164e+00
6.200710523166470978e+00
6.067093713558803891e+00
4.426119096688015730e+00
1.948416927006601851e+00
-4.041538187306514818e-01
-1.781673096597933048e+00
-1.704406723377237087e+00
-1.872776320073734069e-01
2.248169363265226650e+00
4.721011826966907243e+00
6.316673979373300440e+00
6.457663546991039283e+00
5.110779664577508541e+00
2.758238600065749946e+00
2.220356465805194968e-01
-1.586417014815939552e+00
-1.983995429012652689e+00
-8.113617499242284925e-01
1.472899479158361169e+00
3.984208121919602608e+00
5.784689907953406873e+00
6.230085745535413722e+00
5.151092732269008323e+00
2.879909393342222845e+00
1.774480444500812493e-01
-1.971830370788125286e+00
-2.736498903703002306e+00
-1.833966807247719766e+00
3.402077154511325974e-01
2.938661695689172682e+00
5.034275890657597508e+00
5.917652076633374669e+00
5.281105703652126948e+00
3.318575759609955433e+00
7.098624566044312578e-01
-1.587722982889620660e+00
-2.719098611674335864e+00
-2.281443737868733113e+00
-4.547570909920883864e-01
2.081457876548075792e+00
4.376844735381845375e+00
5.566398773865437910e+00
5.236262714621823910e+00
3.559757806667072089e+00
1.107655172103005681e+00
-1.461442659070442129e+00
-3.492543174807006157e+00
-4.205719492729479647e+00
-2.925902281665367255e+00
1.010958503733084823e-01
3.381026805489409259e+00
5.218662314861401086e+00
5.004940407192119523e+00
3.245943654565505376e+00
7.741517608184498300e-01
-1.652777642355901522e+00
-3.312201002544335804e+00
-3.613422537990924610e+00
-2.392030486298658332e+00
-6.382772464014174751e-02
2.518076723321339028e+00
4.394025825508047767e+00
4.852639246772506354e+00
3.697418358931123805e+00
1.341550694400185151e+00
-1.342587625241899785e+00
-3.388135356911520013e+00
-4.108222512218837608e+00
-3.292045101675951990e+00
-1.237048488164372850e+00
1.320914156677828633e+00
3.428692797624009803e+00
4.283539166382223762e+00
3.558983063395662061e+00
1.508166759934233658e+00
-1.150444460987321893e+00
-3.480886169172385358e+00
-4.658795470871177180e+00
-4.277826601092143299e+00
-2.481114151693860403e+00
1.080017883980429749e-01
2.571350404557784852e+00
3.985431717327772905e+00
3.793753046037794174e+00
2.067660893239576136e+00
-5.226506776914163765e-01
-2.989480116159755951e+00
-4.419232846606206522e+00
-4.317402527223577202e+00
-2.753308405787755042e+00
-2.841097807883167792e-01
2.232266458907973927e+00
3.882526310034105865e+00
4.012126218046726756e+00
2.522814161043033021e+00
-2.683578120543200773e-02
-2.627973183422878112e+00
-4.269221476409176041e+00
-4.416937988218074373e+00
-3.247505037746293066e+00
-1.405196851707356975e+00
5.465016639608386573e-01
2.309489390542609044e+00
3.414040288734797812e+00
3.073162958501573616e+00
9.873252459212880083e-01
-1.964933532919306503e+00
-4.281274844623915499e+00
-4.945377758857666173e+00
-3.869365208801484712e+00
-1.614129525497803641e+00
9.946992094396542861e-01
3.091026890594046339e+00
3.961899023778519435e+00
3.283384014302853871e+00
1.272867529909071260e+00
-1.354376176568287349e+00
-3.626058605069164109e+00
-4.690381957676129865e+00
-4.163139825254704718e+00
-2.252205655154002173e+00
3.497753389121864287e-01
2.701242045676207848e+00
3.935322360994247592e+00
3.595177994047304537e+00
1.810396881324784601e+00
-7.681906179330129092e-01
-3.210345351495775379e+00
-4.631519947948726568e+00
-4.510246920991908048e+00
-2.891126470432359152e+00
-3.879753512509279134e-01
2.045162207553906430e+00
3.502890636799879776e+00
3.477127736266039104e+00
1.997266658490965519e+00
-4.218835981387930589e-01
-2.935409021971894461e+00
-4.617443623664832408e+00
-4.803272510696544373e+00
-3.393988639855638922e+00
-9.196526832664385642e-01
1.700056297731997068e+00
3.535683015864997447e+00
3.962856317236106651e+00
2.840440990781094133e+00
5.601385489555521513e-01
-2.063411373245669367e+00
-4.078729823528831844e+00
-4.752412829244327952e+00
-3.821332003243977482e+00
-1.569790168548747644e+00
1.223051150733886150e+00
3.460927061082396783e+00
4.132132575200291313e+00
2.901770671284660263e+00
4.368763804972863318e-01
-2.060585755181648882e+00
-3.744390800549801668e+00
-4.382313347288701699e+00
-3.897559619993487878e+00
-2.215978049347551604e+00
3.127029364345723650e-01
2.761663539810060186e+00
4.121034476172673600e+00
3.873015435909113791e+00
2.156230675242249539e+00
-3.795186630961107088e-01
-2.801450430417815607e+00
-4.189725072221956559e+00
-3.990667613011231296e+00
-2.270522977363214512e+00
3.008689650587360598e-01
2.755487717121844149e+00
4.235507655091378609e+00
4.271249628199294435e+00
2.864653230044461374e+00
4.573856254545318190e-01
-2.158912715957534534e+00
-4.029346966935311691e+00
-4.381180926451523128e+00
-3.017591366226744398e+00
-4.649982115329876486e-01
2.273581145366740497e+00
4.168469806262992350e+00
4.542170205220175561e+00
3.272958854068111822e+00
8.234805434830694271e-01
-1.911499002544605919e+00
-3.914734413494097787e+00
-4.431724511061336358e+00
-3.290289673771022105e+00
-9.647234313008620221e-01
1.676685576689707968e+00
3.740452147920576120e+00
4.567319665904125081e+00
3.873312882684659453e+00
1.850895732751361766e+00
-8.084725021738304873e-01
-3.099590700271299237e+00
-4.117797931852088311e+00
-3.486676192422448750e+00
-1.507992654622812179e+00
1.036766125553196805e+00
3.245567440943332826e+00
4.402861413703855753e+00
4.149880342855595039e+00
2.525295331153230460e+00
-6.991541499349579469e-02
-2.895853341563536798e+00
-4.897794611596493652e+00
-5.020825132882944075e+00
-2.980031588892536831e+00
2.358592709275187382e-01
3.017970655703417826e+00
4.337399253813384981e+00
4.098660865286010591e+00
2.637972817420917604e+00
3.942048123857750941e-01
-1.986284383560859679e+00
-3.646703322980360262e+00
-3.876237099534558528e+00
-2.523443262343391336e+00
-9.610437700032681274e-02
2.490079874037417262e+00
4.300312124334170427e+00
4.709792905692034459e+00
3.582625543917684841e+00
1.296397070588158007e+00
-1.352398162888659661e+00
-3.378596825087600841e+00
-3.991134523298628611e+00
-2.964653753091030186e+00
-7.363933366414300297e-01
1.828456258405941393e+00
3.808551300393591799e+00
4.529197988317327450e+00
3.733996748523861431e+00
1.659761776699450575e+00
-9.917042793031797254e-01
-3.265330962454454866e+00
-4.333463308310889772e+00
-3.831215810290527823e+00
-1.952833917487144300e+00
6.498790573013686345e-01
3.059314301028017713e+00
4.379812882384914730e+00
4.088086981002644116e+00
2.273211158132127263e+00
-3.785865085069523572e-01
-2.854709191992820916e+00
-4.228053622844139880e+00
-4.017036076597899630e+00
-2.330278244370467711e+00
2.093230891602089194e-01
2.684584625599634844e+00
4.199432064650217455e+00
4.196795132275243922e+00
2.655394028539910245e+00
1.284121848527820520e-01
-2.406256097002999805e+00
-3.956888704128621814e+00
-4.050625508371449968e+00
-2.935091692597375790e+00
-1.180684100753298216e+00
8.323481032748142328e-01
2.781632086036117002e+00
3.902256989903613249e+00
3.272501130023202975e+00
8.598081093710057132e-01
-2.152436682605256113e+00
-4.281111328647503989e+00
-4.731522400186113586e+00
-3.546804915432110850e+00
-1.254539085939922138e+00
1.389393174044351920e+00
3.516809075295809439e+00
4.363422206509619095e+00
3.588681032407838867e+00
1.466815953172251774e+00
-1.204494413158517574e+00
-3.425031180983734824e+00
-4.378173209935394716e+00
-3.721716166012598137e+00
-1.694949413990279208e+00
9.688628027413080934e-01
3.304400259604493684e+00
4.479733975671154056e+00
4.095802612208942151e+00
2.288434277474081124e+00
-3.237859000839232171e-01
-2.798100161288821663e+00
-4.194407600746301590e+00
-3.997514597994651364e+00
-2.347420230210720327e+00
8.061089087713468881e-02
2.394751729593766143e+00
3.793544184999280588e+00
3.792770559204256209e+00
2.370218141530345157e+00
3.001130508915539341e-03
-2.452927726345716763e+00
-4.066983994970684080e+00
-4.216955436594681750e+00
-2.835195738041730973e+00
-4.074763319181730070e-01
2.207836159187535507e+00
4.061591346922684309e+00
4.458199110711301927e+00
3.247360608433998319e+00
8.929197178471295349e-01
-1.728880176755014819e+00
-3.671855071747500254e+00
-4.240653451146497943e+00
-3.208619417110828209e+00
-9.158114123589456979e-01
1.762726377083692286e+00
3.671091823428194179e+00
3.942221338502344796e+00
2.581390178167204841e+00
4.024283654433788993e-01
-1.724538257889786985e+00
-3.357327499285572614e+00
-4.183978540252291545e+00
-3.757157050094245943e+00
-1.906040005029236983e+00
8.030213695376035021e-01
3.276439904727942665e+00
4.525335575828231427e+00
4.109573007654080179e+00
2.219054404363139721e+00
-4.447923236146278936e-01
-2.900992784249294409e+00
-4.241077928723004042e+00
-3.981289437744952586e+00
-2.232265336691042545e+00
3.575723156353376453e-01
2.835923098736727432e+00
4.293524910448868859e+00
4.194799446518580943e+00
2.563328581080603463e+00
-1.303070443512405197e-02
-2.575260506448152409e+00
-4.172390961245050711e+00
-4.246169673712802073e+00
-2.804376047768169844e+00
-3.705710007553579266e-01
2.190116742361603475e+00
3.938793660331093349e+00
4.197219785523405022e+00
2.828935968637377840e+00
3.296699088004673706e-01
-2.339546036335904411e+00
-4.146477743493291790e+00
-4.432300121719319641e+00
-3.153701628922201294e+00
-8.220322532172266161e-01
1.746460112501863726e+00
3.703784599980021408e+00
4.391838204415106084e+00
3.534326514280451637e+00
1.386615710585040517e+00
-1.284142379904911424e+00
-3.475639622598201584e+00
-4.367399116731326636e+00
-3.648303924624296979e+00
-1.610538392689264020e+00
9.861429392517434556e-01
3.208411357282885845e+00
4.294279911853327469e+00
3.883026767778959165e+00
2.041639022786318591e+00
-7.668922651970873083e-01
-3.618796894621571170e+00
-5.239154754981946382e+00
-4.707653658097149751e+00
-2.294988144556036058e+00
6.973215493658093678e-01
3.018549491829574993e+00
4.112963311697585667e+00
3.875582372473744375e+00
2.381143277320314944e+00
2.469103337625916383e-02
-2.386542857706248189e+00
-3.921784178816772215e+00
-3.968938597960835590e+00
-2.495094310048639574e+00
-2.829598037718328296e-02
2.553828325214319683e+00
4.322163243209127259e+00
4.617581818537897398e+00
3.316157768765798597e+00
9.024853601785229884e-01
-1.721465795770636742e+00
-3.595274683380695002e+00
-4.053628231106826796e+00
-2.948818215372374318e+00
-6.849257013516334425e-01
1.923261939909350904e+00
3.915903798027384308e+00
4.534163848723673063e+00
3.540386233310937492e+00
1.319379630443081819e+00
-1.315883950855235573e+00
-3.453492599549031095e+00
-4.362493555929867206e+00
-3.694648882671469625e+00
-1.627904552096201884e+00
1.113069655153845039e+00
3.482970473511961540e+00
4.575819037296650293e+00
4.035625450240241996e+00
2.139667712693516410e+00
-3.963770577784512805e-01
-2.684144185228586110e+00
-3.921686690337041981e+00
-3.647599098138379237e+00
-1.929727450806088651e+00
6.168674033226551057e-01
3.038881657481315113e+00
4.413949807508942058e+00
4.216284085438446461e+00
2.528288519396995060e+00
1.854236539593334676e-02
-2.339230131137771895e+00
-3.736591235274804301e+00
-3.899745151972121793e+00
-2.992065540331656948e+00
-1.204301859640001915e+00
1.236685454645665594e+00
3.551832560737255395e+00
4.467844726013026957e+00
3.279808027074493371e+00
6.028337295910922711e-01
-2.176668401760395000e+00
-3.914389459464101773e+00
-4.121195245906192461e+00
-2.852215075641574060e+00
-5.598327619501466401e-01
1.995168902785999787e+00
3.925519861207614536e+00
4.531335330521505611e+00
3.586943968115098080e+00
1.430498153946867745e+00
-1.157155877574297831e+00
-3.222473137080812844e+00
-3.994784442525249446e+00
-3.192838417696687969e+00
-1.128283497070131869e+00
1.425595063615345159e+00
3.529026636494652092e+00
4.426592260570809678e+00
3.806609370349195665e+00
1.877375672168427601e+00
-7.026921020078094049e-01
-3.013906771795001660e+00
-4.204423106397856102e+00
-3.847741785165540218e+00
-2.111986125828692717e+00
3.386340988336701274e-01
2.617934068201577258e+00
3.931828712924175129e+00
3.820285197256727994e+00
2.290616542941968259e+00
-1.432187545667162332e-01
-2.576152521729548450e+00
-4.053335209197370226e+00
-4.000448555502229553e+00
-2.463809582098519080e+00
-4.126269505335150578e-02
2.380589510303129597e+00
3.935200288590413376e+00
4.059578591795089508e+00
2.689446000287368133e+00
2.938732825024700235e-01
-2.274884835488075741e+00
-4.070148399625344027e+00
-4.391248137299803567e+00
-3.087882761668398590e+00
-7.159799505333103165e-01
1.638891759213835453e+00
2.962503969953138139e+00
2.953835986983627482e+00
1.993281223731271368e+00
4.658878539579117684e-01
-1.499661597804664348e+00
-3.484578687144940901e+00
-4.538733232638515247e+00
-3.902435092107954251e+00
-1.738610141518052821e+00
9.997698224742754824e-01
3.207393361148163091e+00
4.110191985390943437e+00
3.445577832312145539e+00
1.476745066733134104e+00
-1.087428559277527240e+00
-3.308729084254295127e+00
-4.367843537643804730e+00
-3.886241463557180698e+00
-2.051606949503125943e+00
4.733895779615506783e-01
2.786092424073599361e+00
4.052342782892102591e+00
3.801377054969075076e+00
2.102617710577252996e+00
-4.402368521835239856e-01
-2.892631048254379778e+00
-4.343943753515310924e+00
-4.267122636240532785e+00
-2.711193804295859877e+00
-2.647438017589985315e-01
2.163403530159704768e+00
3.666884657065932362e+00
3.671412742672071960e+00
2.163596559222710880e+00
-2.822755440037444385e-01
-2.734458434331877186e+00
-4.300566024096729834e+00
-4.462122287621923533e+00
-3.193563609035923179e+00
-9.166801518221410205e-01
1.608440453809695025e+00
3.477505419369803619e+00
3.968181115562798400e+00
2.871993175917657126e+00
6.048753361325904798e-01
-1.975937364114745964e+00
-3.924117661525164280e+00
-4.557505511683483057e+00
-3.681850372313012265e+00
-1.614859253053111843e+00
9.565767106629341487e-01
3.178748613869831097e+00
4.222101324700402003e+00
3.512700921276899368e+00
1.093154994628247056e+00
-2.087697350157974086e+00
-4.503869723301888506e+00
-5.081707431321132340e+00
-3.919901663352606036e+00
-1.846415883231143029e+00
4.289688780408638658e-01
2.433961883237032886e+00
3.621886755093614685e+00
3.466567977575112813e+00
1.885748352438946007e+00
-5.666934861241256227e-01
-2.926883362450787285e+00
-4.271024695805332172e+00
-4.098505090609905643e+00
-2.483034546692961086e+00
-2.383572041044540457e-02
2.357279782198656637e+00
3.776731260781682309e+00
3.751805850643613827e+00
2.330680807800411092e+00
7.060767748380325504e-03
-2.424120945696835783e+00
-4.081138223105448048e+00
-4.321854134769454348e+00
-3.029517531696543031e+00
-6.746999566871110243e-01
1.865482251935148827e+00
3.648473371794215492e+00
4.033121028079182047e+00
2.897228972198003571e+00
6.399093312468318029e-01
-1.951585500241356907e+00
-3.924645614931867588e+00
-4.496343802169450399e+00
-3.415817939937096703e+00
-1.113978125664456087e+00
1.512656304274679009e+00
3.524363241973321514e+00
4.273469669004024141e+00
3.550506515504593619e+00
1.607387335079215385e+00
-9.001104685675244133e-01
-3.075729264620224779e+00
-4.082297490243355753e+00
-3.497595435882083770e+00
-1.526333816713962399e+00
1.074194403715298174e+00
3.320289394306036979e+00
4.408866351278970086e+00
4.010090542525367674e+00
2.336680166080193910e+00
-1.757089959820040681e-02
-2.362149111260905432e+00
-4.061268485805874739e+00
-4.456082474407689453e+00
-3.006964588782170544e+00
2.558665297466278243e-02
3.231055555325379913e+00
4.975433581870126076e+00
4.678448216804357962e+00
2.894989581267846557e+00
4.949677380840773466e-01
-1.780598935591265475e+00
-3.241727409873024879e+00
-3.312907152063527594e+00
-1.871105684438661543e+00
5.741339947560162305e-01
3.111986996148281115e+00
4.857038513143045577e+00
5.247731391739641538e+00
4.161270167777053608e+00
1.946683965936086835e+00
-6.248734454840597641e-01
-2.578524943921127743e+00
-3.123315850270762528e+00
-2.035382967511352170e+00
2.156141966681680566e-01
2.711770449226005297e+00
4.550096609463433417e+00
5.183225777175437088e+00
4.454307516462989724e+00
2.542458206391227993e+00
2.291779013692321620e-02
-2.186949460207991081e+00
-3.205795883898196141e+00
-2.629984706698170971e+00
-6.818140533096461731e-01
1.949809697807900921e+00
4.365868769345904177e+00
5.709180059837197341e+00
5.450625224034454597e+00
3.647103512181123719e+00
9.789715935637171018e-01
-1.517593396150778595e+00
-2.891110096891999159e+00
-2.649870348465659831e+00
-9.046434055760139703e-01
1.713078067795194892e+00
4.266565775251332404e+00
5.823049014488170805e+00
5.794167003371450519e+00
4.157480004977628596e+00
1.475701585423307094e+00
-1.259681862985807088e+00
-2.977951769183171393e+00
-3.049603413767814075e+00
-1.651677602445204673e+00
4.541783326909228924e-01
2.581684471066755027e+00
4.381164214046177285e+00
5.378033189886900267e+00
4.792258355860687047e+00
2.359682069117325032e+00
-9.537454071543580714e-01
-3.518901058169098928e+00
-4.195426576051020540e+00
-2.833727072133920721e+00
-4.786283301269916857e-02
3.164913646937302705e+00
5.714677205891691258e+00
6.718698344701736325e+00
5.811851841477148284e+00
3.300064737422300887e+00
7.339657059533966077e-02
-2.681425688492210302e+00
-3.909426291228565109e+00
-3.118475738643148976e+00
-5.937013002276307905e-01
2.722249731344671186e+00
5.609266334129020315e+00
7.029137026869034521e+00
6.476752438906067333e+00
4.118470495903899575e+00
7.385197259399346459e-01
-2.467976847629330006e+00
-4.287037359884183552e+00
-3.996848794916893155e+00
-1.716004662207871956e+00
1.646478619427627077e+00
4.792422823963162770e+00
6.569266503702692717e+00
6.391928636379010875e+00
4.370047100187263389e+00
1.182541714565995106e+00
-2.118425264406132769e+00
-4.358175869312693962e+00
-4.644752249762258423e+00
-2.806758947789621761e+00
4.541059982425421082e-01
3.850118765186999248e+00
6.074066699836150107e+00
6.325645001132564005e+00
4.544604850135708141e+00
1.330195771719375086e+00
-2.283702715233844938e+00
-5.096056821503070822e+00
-6.098483493244999387e+00
-4.890065457317137820e+00
-1.924378678522292274e+00
1.585270372752556778e+00
4.108239982448565364e+00
4.508386851376191551e+00
2.706623206041251173e+00
-3.353316742354723323e-01
-3.440141646569402134e+00
-5.883864439616945496e+00
-7.180417711875207942e+00
-6.763311762158268792e+00
-4.423794266327388591e+00
-8.965210856600513978e-01
2.338549895611535590e+00
3.883787981482752727e+00
3.123764146646772932e+00
3.866082861475824695e-01
-3.327372645313671384e+00
-6.754169997217067234e+00
-8.749136574109119380e+00
-8.639973928151013283e+00
-6.501323982727064354e+00
-3.193564451338278154e+00
-5.511763540838726660e-02
1.661177669429509951e+00
1.301836379334820881e+00
-1.020368212203805580e+00
-4.579207907676903666e+00
-8.262454696847292723e+00
-1.083945889100669824e+01
-1.140802752600861858e+01
-9.870783265964519160e+00
-7.016993026927509369e+00
-4.089037824800546339e+00
-2.213756171838648701e+00
-2.072132453976623268e+00
-3.787552369958912202e+00
-6.875665788270348244e+00
-1.031008700299821434e+01
-1.286728056509902451e+01
-1.367508202554311580e+01
-1.258993860164698120e+01
-1.015350266842497895e+01
-7.303591168272181022e+00
-5.085444283360604167e+00
-4.352374701709721627e+00
-5.444517328043761317e+00
-8.028374157471951378e+00
-1.122229203760461402e+01
-1.392104577701617885e+01
-1.518882340830879762e+01
-1.462192001698768706e+01
-1.252813925994170141e+01
-9.788879829691673251e+00
-7.463504361926244002e+00
-6.386522122840226245e+00
-6.989368097822079129e+00
-9.302571286867108213e+00
-1.285380263944942492e+01
-1.647200258375307413e+01
-1.857535379864308567e+01
-1.816499044737215485e+01
-1.558787792566782038e+01
-1.225293634118707864e+01
-9.877961024733080464e+00
-9.736064300311326747e+00
-1.131481897261401492e+01
-1.138268040804579861e+01
-6.384284058526969119e+00
2.902027063508043625e+00
1.099013599821104492e+01
1.351645769898669691e+01
1.163596876896329491e+01
9.432352910677639812e+00
9.049310347706615687e+00
9.755090863255643896e+00
1.021146133200299921e+01
1.006178126246104476e+01
9.674587281542262218e+00
9.359428974019467162e+00
9.114983144673347581e+00
8.839700720804177791e+00
8.524205239822766345e+00
8.227177709965621588e+00
7.984316992172145078e+00
7.815456809082625078e+00
7.791796449879159425e+00
8.045779922780898374e+00
8.700534796319315589e+00
9.742619613508187726e+00
1.087319534974684387e+01
1.152071184528957559e+01
1.121330863028905256e+01
1.006703431040912200e+01
8.786708651797471958e+00
8.057991556136661515e+00
8.030357409626939003e+00
8.473652093378271744e+00
9.228555685655226881e+00
1.026126645395118686e+01
1.136333549940935406e+01
1.205809397541811023e+01
1.191917843683407874e+01
1.096810669223581769e+01
9.733724070604750978e+00
8.866025571596878763e+00
8.652436651706169712e+00
8.948931637795014993e+00
9.542889262852895627e+00
1.040206273221622624e+01
1.148184136646511000e+01
1.242844282713538107e+01
1.269215191358099304e+01
1.204183215898623338e+01
1.089195746578373303e+01
9.982771459764650857e+00
9.737802079808920652e+00
1.004362963760861049e+01
1.062964903318155052e+01
1.145270067088818777e+01
1.256585254615962555e+01
1.370502285757864769e+01
1.425960203353668554e+01
1.383393379517494459e+01
1.275611004863830367e+01
1.182391269817768453e+01
1.155762140681185102e+01
1.187894845427252477e+01
1.249486905076571652e+01
1.334803429500234095e+01
1.453777776510209385e+01
1.588149121191077562e+01
1.678428288347127761e+01
1.671555964891888735e+01
1.575200059204213865e+01
1.452280346765680363e+01
1.377144115300184701e+01
1.413980869538182006e+01
1.582485996140425044e+01
1.744281210845794661e+01
1.559567898976811939e+01
7.731143298119712348e+00
-3.875406323359505301e+00
-1.323263355443330447e+01
-1.651494087487222728e+01
-1.498022823393830194e+01
-1.223419337265454132e+01
-1.076296220478671017e+01
-1.114047459175596444e+01
-1.287415801605507326e+01
-1.519428855061011774e+01
-1.735047910429916485e+01
-1.868253970348335358e+01
-1.871626072073580360e+01
-1.731519801282267679e+01
-1.481486707433789896e+01
-1.201436899902723709e+01
-9.908499707055840489e+00
-9.244418646927330840e+00
-1.016664743117239489e+01
-1.214857844778041418e+01
-1.425282874900780783e+01
-1.559103035922929337e+01
-1.568805157676170303e+01
-1.456812380055920819e+01
-1.265068593625609594e+01
-1.052307736335709265e+01
-8.668956852634146060e+00
-7.462294594278259474e+00
-7.341425564659365577e+00
-8.535309847569690689e+00
-1.052390851248841663e+01
-1.222737689321682275e+01
-1.282124831650804531e+01
-1.208749481126459635e+01
-1.018820755743002771e+01
-7.577658106026361473e+00
-5.072989001576949875e+00
-3.604571959140479009e+00
-3.701932176758911730e+00
-5.177652669680580466e+00
-7.248036360866511707e+00
-8.987840255200485018e+00
-9.770035068184995453e+00
-9.354438308204747088e+00
-7.756957430989313451e+00
-5.288938239917595041e+00
-2.682539027023553846e+00
-9.010841179831985404e-01
-6.512070162188274836e-01
-1.971895163030473963e+00
-4.173388551449624728e+00
-6.217047210979501415e+00
-7.309611731761133768e+00
-7.168325687332978369e+00
-5.833421324046217826e+00
-3.559702927398174843e+00
-9.766568010558831503e-01
9.677816143964474982e-01
1.491602254354117196e+00
4.639362757269767101e-01
-1.538119948672723503e+00
-3.604936365124300934e+00
-4.973620632313287437e+00
-5.238347704647766889e+00
-4.268081645161842630e+00
-2.188931305614247425e+00
4.485677092458093540e-01
2.696812849211501550e+00
3.653205368985319446e+00
2.974195764007034448e+00
1.039351258515695875e+00
-1.293388933785584394e+00
-3.125132538068247090e+00
-3.849305818973102422e+00
-3.221688439282932581e+00
-1.334775567216479164e+00
1.307122260048215967e+00
3.771570268309072382e+00
4.993343456448095630e+00
4.346488824527028783e+00
2.150762945084219169e+00
-4.303559991503715931e-01
-2.246553053057361193e+00
-2.899419458357415103e+00
-2.503662122518756306e+00
-1.095373152956691909e+00
1.237767478104226493e+00
3.839785627735348150e+00
5.606773076287545621e+00
5.730490130025292395e+00
4.224969739948090997e+00
1.812332248669373147e+00
-5.472247008002660840e-01
-2.046839642499434841e+00
-2.196430735792393563e+00
-8.869796397786400277e-01
1.520275127438455165e+00
4.192766530082987941e+00
6.105010678519537493e+00
6.513334672531378544e+00
5.294275272123035059e+00
2.948591271411860504e+00
3.580799399854031062e-01
-1.545474112575108139e+00
-2.095164078535699748e+00
-1.097685037727659241e+00
1.109259425452558512e+00
3.746275199333597872e+00
5.839897788106843457e+00
6.591345215228720633e+00
5.701449246998820719e+00
3.489502221752920796e+00
7.774175397867205684e-01
-1.419497637744463248e+00
-2.299518867808743039e+00
-1.574261189590086207e+00
4.785525739687738755e-01
3.135803105469716634e+00
5.443354983806530711e+00
6.542801329036096902e+00
6.023136549059397993e+00
4.093185120754131212e+00
1.477195602028151589e+00
-8.858081421531694977e-01
-2.175853155485883317e+00
-1.940214250546917985e+00
-2.401831672173007637e-01
2.317352779782681615e+00
4.762121884385541293e+00
6.172636889202702370e+00
6.074873047518025260e+00
4.547301962480799098e+00
2.060319624173521547e+00
-6.892461456445371226e-01
-2.812959449346670304e+00
-3.349089702220990006e+00
-1.800336990946762583e+00
1.215466167110978546e+00
4.169263501348711820e+00
5.752745096867044161e+00
5.637483288957767513e+00
4.180875413563644116e+00
1.904581030730470692e+00
-5.668650803027774909e-01
-2.443003120931662053e+00
-2.999914082549261174e+00
-1.959122724419003259e+00
3.263971927081064095e-01
2.995267574238034136e+00
5.033202385435804338e+00
5.690456456576368005e+00
4.750053321108973492e+00
2.553350144255088772e+00
-1.432345210305203953e-01
-2.402977036977437031e+00
-3.414382041325764838e+00
-2.799346257413528605e+00
-7.909470773224915874e-01
1.832344404435851892e+00
4.063586719617935827e+00
5.079086672375752620e+00
4.521296430772083319e+00
2.570615211124477995e+00
-1.265075871819581477e-01
-2.638011151306987045e+00
-4.056328015618322347e+00
-3.859431823100869519e+00
-2.131314372909629995e+00
4.771070668084563815e-01
3.000906933458519887e+00
4.510946852192213363e+00
4.446562743461584866e+00
2.818563891201526950e+00
2.097050568309350438e-01
-2.424579499262833338e+00
-4.103893670103476943e+00
-4.209969801674725787e+00
-2.735337698939915629e+00
-2.622010102593939074e-01
2.292822715237432085e+00
4.015761365632555702e+00
4.289161548318626060e+00
2.992050992215907979e+00
5.699205315886981538e-01
-2.081233818033553895e+00
-3.959737788542823989e+00
-4.444085005645602493e+00
-3.579169200004642892e+00
-1.834607143396197682e+00
3.624904047993297018e-01
2.584374094204349159e+00
3.989070142818698095e+00
3.601482853351779312e+00
1.312194395880099673e+00
-1.772498111576622737e+00
-4.148349302986467535e+00
-4.881049418925453409e+00
-3.886925252394443753e+00
-1.685118124448419241e+00
9.345647979311242359e-01
3.133355633283498420e+00
4.185955430451582693e+00
3.690416971111217581e+00
1.772704743644778924e+00
-8.898937463708944673e-01
-3.304656440917154381e+00
-4.563835183827388953e+00
-4.212377589800299305e+00
-2.403476871304935703e+00
1.914694208929981212e-01
2.626034470439786439e+00
3.997524186383233591e+00
3.778823070187840028e+00
2.033788767867046321e+00
-6.004233995860420725e-01
-3.156895577579009071e+00
-4.705644926940238726e+00
-4.701320475889835038e+00
-3.176521333556488802e+00
-7.155765921293062437e-01
1.774763913386845582e+00
3.413607541952054181e+00
3.657783279484232430e+00
2.443510714314732546e+00
1.757944351543992978e-01
-2.362969651142441396e+00
-4.230157303790389456e+00
-4.692043846606305024e+00
-3.557473945591910436e+00
-1.249885762717675375e+00
1.385435916481764007e+00
3.397951480836168603e+00
4.062032837362895776e+00
3.128176070963685440e+00
9.164569733849254884e-01
-1.774843757396886490e+00
-3.951206282995287200e+00
-4.815570574195628062e+00
-4.058252426796520318e+00
-1.927506812957711979e+00
8.109484903067861739e-01
3.027461696758891652e+00
3.707361074552273372e+00
2.622026979660029067e+00
4.925871901529358388e-01
-1.693201507865135458e+00
-3.393653670033655256e+00
-4.375478014377041092e+00
-4.256678582934394051e+00
-2.718604786823392239e+00
-1.027665792394291677e-01
2.551623723085326034e+00
4.120919071435232617e+00
4.009011362660782396e+00
2.332894787229902178e+00
-2.345777008646913742e-01
-2.745054478355342553e+00
-4.289097113901870983e+00
-4.304214148941437834e+00
-2.782018356265167913e+00
-2.784643021345962755e-01
2.293082642830002627e+00
4.002839763286957009e+00
4.235088964132502909e+00
2.898626629075176986e+00
4.682991707167680207e-01
-2.171878098902856102e+00
-4.058091482958904095e+00
-4.510172750684952270e+00
-3.363532544021437865e+00
-1.014158608025268249e+00
1.694569901680724078e+00
3.742246158136443679e+00
4.332723271426936584e+00
3.245021792427890794e+00
9.103252135535293554e-01
-1.798580978399831443e+00
-3.901645966627987683e+00
-4.648669702596482267e+00
-3.781686015414130075e+00
-1.619825331921059375e+00
1.068274423726710332e+00
3.337881172366834459e+00
4.392298869545165907e+00
3.854209396555140721e+00
1.897117194871978274e+00
-7.961697940126457596e-01
-3.249542893229251828e+00
-4.543717289647677404e+00
-4.178448471841986311e+00
-2.289707633939410680e+00
3.956840230539185876e-01
2.876855091687770205e+00
4.295512185758653345e+00
4.195471943876867726e+00
2.557041224344586805e+00
-1.978376453386641032e-01
-3.128343166487554949e+00
-4.942287571573609206e+00
-4.710852413462507826e+00
-2.615776581762810249e+00
2.083709611732409983e-01
2.608156835190050149e+00
3.974255229617903229e+00
4.065281126067903372e+00
2.824573834523173232e+00
5.511497370045572719e-01
-1.993263205013225514e+00
-3.837947221438849699e+00
-4.235880308138956885e+00
-2.994527678162441475e+00
-5.658928382519581302e-01
2.133368493210258787e+00
4.103777976097652491e+00
4.658875069606199126e+00
3.637114990654847446e+00
1.402034962939570972e+00
-1.272046483929034189e+00
-3.415335333075309343e+00
-4.214103159541280341e+00
-3.369623988883296395e+00
-1.226255715903824983e+00
1.408855368671537267e+00
3.602109568800416106e+00
4.594498401889974382e+00
4.007720045381737428e+00
1.983863568671549560e+00
-7.861645548189696298e-01
-3.271895968366807406e+00
-4.535157668515833684e+00
-4.120605950568844378e+00
-2.185490355088297143e+00
5.792602561184414522e-01
3.158486605979767603e+00
4.581165473409201105e+00
4.330730406624804907e+00
2.544496288185023491e+00
-8.097263364092877058e-02
-2.574091530149167362e+00
-4.045996268651676608e+00
-3.996688738686889231e+00
-2.454119068496684264e+00
5.121581921845830276e-02
2.635773819665774287e+00
4.347567043515778273e+00
4.526985487034700384e+00
3.091493529992197065e+00
6.098097243532036860e-01
-1.936620294868214076e+00
-3.665871088540203271e+00
-4.206468835694424868e+00
-3.589558492501702780e+00
-1.861752208303462996e+00
8.025668691605700733e-01
3.516121032113389777e+00
4.811917229933694529e+00
3.838201217640709650e+00
1.159120818505438910e+00
-1.814231237137543529e+00
-3.865407278892448062e+00
-4.414058625067981190e+00
-3.415584291112765847e+00
-1.219207690926989329e+00
1.472997391916785581e+00
3.726708683537661049e+00
4.698073458237884026e+00
4.013493814867432619e+00
1.946237823642394726e+00
-7.163517466710030979e-01
-3.006430725224948475e+00
-4.124181590357665073e+00
-3.685064569024911307e+00
-1.839030350162156102e+00
7.606860697819675110e-01
3.170961626050757154e+00
4.501311067694023116e+00
4.243273730456238901e+00
2.467214977561336564e+00
-1.789376849103960221e-01
-2.701427106381977694e+00
-4.160597788936497565e+00
-4.058863494045710674e+00
-2.514268299933245299e+00
-1.352655768203488984e-01
2.265737292653512647e+00
3.903147389137544998e+00
4.184410600874766573e+00
2.925987484853230125e+00
5.285101744192135520e-01
-2.112529409253530943e+00
-3.975367916166717919e+00
-4.343684691867503389e+00
-3.086721263390204584e+00
-6.873990765616354581e-01
1.965076383748761035e+00
3.911049395877820967e+00
4.456785847067001427e+00
3.408349371869936473e+00
1.133159611672715839e+00
-1.564209942839802858e+00
-3.700111315718904059e+00
-4.442613835412023704e+00
-3.472794180120934993e+00
-1.238877271644157396e+00
1.192581598183908742e+00
2.806199373635562822e+00
3.279337043989871248e+00
2.820045190384173228e+00
1.514482171240062458e+00
-6.402353950489503287e-01
-3.053370396370518325e+00
-4.533978236148564100e+00
-4.210473514858458444e+00
-2.196313317977633073e+00
6.161800560470520605e-01
3.127232266652939519e+00
4.454617648764116922e+00
4.174315491832671476e+00
2.427733425281075608e+00
-1.436075435980194714e-01
-2.625509869156355869e+00
-4.133613363344915470e+00
-4.107767334679949478e+00
-2.525534927562467669e+00
5.103341405912281692e-02
2.657671907883857543e+00
4.301433184312513092e+00
4.365555891858390325e+00
2.848091737911071064e+00
3.291984427372154909e-01
-2.280617011396039118e+00
-4.067899446674822173e+00
-4.403627232021434246e+00
-3.143242572221347064e+00
-7.132746203783453254e-01
1.979577570243476581e+00
3.880181547347671511e+00
4.258320556012647806e+00
3.027057153934945344e+00
7.001466744453630486e-01
-1.885798799433122674e+00
-3.847604588675543003e+00
-4.489829082948393335e+00
-3.542523376075495278e+00
-1.308461572037227238e+00
1.417376122270696648e+00
3.644139798542192832e+00
4.560649687028912602e+00
3.834466089696515478e+00
1.718318147356912018e+00
-1.047315357913326972e+00
-3.470111352129585658e+00
-4.644186737897827655e+00
-4.120461531136419886e+00
-2.108345527410911302e+00
6.397972132454932126e-01
3.143762062023105930e+00
4.482435189425361344e+00
4.032681982144111110e+00
1.797895860532943146e+00
-1.327622831092355904e+00
-3.885648080782530212e+00
-4.818557240761695226e+00
-4.098775454658118100e+00
-2.319040092418574783e+00
-1.785449159849056278e-02
2.322019120882819809e+00
3.999376389256395825e+00
4.295429093174448099e+00
2.978954246476457790e+00
5.229668225717942764e-01
-2.122306887407154452e+00
-3.949438622898577833e+00
-4.267851748299571923e+00
-2.948988372077576248e+00
-4.877448845272275291e-01
2.185593688206348695e+00
4.086399301010672502e+00
4.550260179000285454e+00
3.435246100817992865e+00
1.135848628767738511e+00
-1.540504246185464554e+00
-3.623247349793356165e+00
-4.331588878661191799e+00
-3.397014955537833281e+00
-1.180529303090104731e+00
1.480493245240768196e+00
3.611978633434422381e+00
4.456383826106024237e+00
3.702472148983946720e+00
1.581316288758560340e+00
-1.165082392593764116e+00
-3.513378562526479953e+00
-4.570550233180073363e+00
-3.954772943375732819e+00
-1.925170209339057026e+00
7.640543182539716316e-01
3.157036907010180027e+00
4.417038824284575504e+00
4.104153462035830202e+00
2.335640019096851816e+00
-2.405836647222581726e-01
-2.674032254531614861e+00
-4.071821335536180975e+00
-3.935659975572770808e+00
-2.328162464699289114e+00
1.646866369920245154e-01
2.637360334557415253e+00
4.192603238928166220e+00
4.290600241863597120e+00
2.939947604286226479e+00
6.112068146783911082e-01
-2.028112025946444685e+00
-4.261463053582262184e+00
-5.253449401993742995e+00
-4.241192333812022319e+00
-1.316172610892532457e+00
2.134441332255464285e+00
4.349958139937221802e+00
4.551507371734261120e+00
3.121738290308980091e+00
8.396363868485687831e-01
-1.580722638346272024e+00
-3.439437378554075053e+00
-4.077096393808773200e+00
-3.170780852088733059e+00
-9.872978033699189027e-01
1.675195241478591113e+00
3.823038167745570259e+00
4.673327947084247924e+00
3.936095587485878511e+00
1.884695120806230806e+00
-7.537578264017321672e-01
-3.029587181284168818e+00
-4.101460927183813610e+00
-3.574774692072649529e+00
-1.661504088346725139e+00
9.174868397284107191e-01
3.205197422258791562e+00
4.360373237185259931e+00
3.974718813154517250e+00
2.203141403238985774e+00
-3.282813735162961044e-01
-2.745978090581124853e+00
-4.211796180957559699e+00
-4.201275818521907013e+00
-2.689942227784861917e+00
-1.959184400071756760e-01
2.358841159657321995e+00
3.990828581738951719e+00
4.079522554855392613e+00
2.628950683290748547e+00
2.228829292869895506e-01
-2.247790776284715353e+00
-3.904168460696199272e+00
-4.143031375538583028e+00
-2.841662351201233339e+00
-4.566469761555385087e-01
2.110854066454250777e+00
3.894941462583928260e+00
4.263713965617268009e+00
3.108109373139682940e+00
8.366312416767551774e-01
-1.725281145664832705e+00
-3.594217981079904867e+00
-4.100669965073096890e+00
-3.276587307472841992e+00
-1.691686715848685907e+00
1.541441855023808760e-01
2.038086262324416698e+00
3.488327994311117841e+00
3.579902368691917580e+00
1.819591378348683897e+00
-1.036834350896699064e+00
-3.491626075462085144e+00
-4.440734596993059391e+00
-3.665183733373624797e+00
-1.615624506681474504e+00
9.326728841231950451e-01
3.132031010785656822e+00
4.274244488769840089e+00
3.976018792111031708e+00
2.309838544313286057e+00
-1.658560376931605407e-01
-2.550143185209217123e+00
-3.930323409164225623e+00
-3.771850335236297980e+00
-2.157212447497251162e+00
2.678734714307137721e-01
2.598629218987543954e+00
4.023406465901899765e+00
4.055651926921778561e+00
2.654417571422579059e+00
2.804673299122755203e-01
-2.195071473701681875e+00
-3.815898594737317850e+00
-3.974037670262812849e+00
-2.672262216707810722e+00
-4.620566666236893272e-01
1.835230086728274479e+00
3.427202024719725237e+00
3.779077899342588864e+00
2.759960556532051079e+00
6.930137111503021918e-01
-1.707258388360509027e+00
-3.545501925238453200e+00
-4.097042150952805883e+00
-3.137782590033624697e+00
-1.036995377973360499e+00
1.425411670240365858e+00
3.371155282018625687e+00
4.118629993487854080e+00
3.395195598207324750e+00
1.432601141424205693e+00
-1.082347169556782784e+00
-3.223139017149510899e+00
-4.178805718186080043e+00
-3.587922277000976212e+00
-1.661133357785080200e+00
8.919506243758391628e-01
3.036837840422754287e+00
3.800008212401909002e+00
2.872488105875982356e+00
8.766878774958994924e-01
-1.190907099805125435e+00
-2.740820048750911564e+00
-3.607736375417295971e+00
-3.561955026818161230e+00
-2.328364965130433895e+00
-9.155082743990647365e-02
2.348225299696184099e+00
3.990169251758178159e+00
4.167287389353568905e+00
2.827668946565399910e+00
4.995238456006800276e-01
-1.944986239971977282e+00
-3.599570757153963463e+00
-3.850385195960377427e+00
-2.621716004370554742e+00
-3.945213730575667377e-01
2.003611858616581642e+00
3.702229992013573501e+00
4.085591398694359277e+00
3.013071608243206523e+00
8.719418332394941462e-01
-1.564508192356296901e+00
-3.409982641494344158e+00
-3.984639513637650232e+00
-3.073385233380925285e+00
-1.006622204663858877e+00
1.460061631475075172e+00
3.408765355752922499e+00
4.094880874918212399e+00
3.238802505667875309e+00
1.139987427926439034e+00
-1.425525454598512987e+00
-3.490504747965466947e+00
-4.290634062127163695e+00
-3.576269490057839562e+00
-1.650175545818548306e+00
8.138707904370855450e-01
2.990022097185001559e+00
4.124162804592273801e+00
3.786888372860227392e+00
2.068181401767027694e+00
-4.049664340969525433e-01
-2.688529417791439169e+00
-3.922135954232941479e+00
-3.682855558168543375e+00
-2.094382205535139985e+00
2.606783482898610282e-01
2.522919095072240214e+00
3.853059145193063806e+00
3.781830288397807216e+00
2.371980452365841430e+00
6.833944316659823492e-02
-2.511078989749691459e+00
-4.536902716053457851e+00
-5.001553911338068481e+00
-3.390051231842097668e+00
-4.246394198567826073e-01
2.350045098876915262e+00
3.819785904247487984e+00
3.819136482034697799e+00
2.643317410162356218e+00
6.487694760753179857e-01
-1.623014635742871192e+00
-3.365778134532556365e+00
-3.842087776908441832e+00
-2.822064802275836559e+00
-7.035556419251243199e-01
1.718105774284944598e+00
3.592594984040604178e+00
4.285637742287093488e+00
3.542829966880725934e+00
1.581881787278362594e+00
-9.124423649680979409e-01
-3.003844016832111219e+00
-3.907197720639087102e+00
-3.317202865167217851e+00
-1.476995173751967094e+00
9.426897435316564655e-01
3.064484379131216851e+00
4.109595717886190158e+00
3.689681952525709629e+00
1.946294918711338751e+00
-4.996838195152427664e-01
-2.762315043236191148e+00
-4.023737314168929657e+00
-3.848224843748826007e+00
-2.310830344848119111e+00
6.001692704245592536e-02
2.432527317825058599e+00
3.927237577980517091e+00
3.973337414069728624e+00
2.570038363855871033e+00
2.690709787723297719e-01
-2.069048259155370051e+00
-3.584975556577623124e+00
-3.715620084860359107e+00
-2.413033277351711803e+00
-1.702689429982723879e-01
2.186284896460922500e+00
3.809448622816242302e+00
4.103768919689075645e+00
2.924195753059774194e+00
6.802375641525311156e-01
-1.754826172636092307e+00
-3.413616680414175431e+00
-3.755274011809599521e+00
-2.938376313935464612e+00
-1.514409696631487501e+00
1.554446266241590047e-01
1.936974672379428331e+00
3.319936195976080029e+00
3.333467430496250827e+00
1.534453066781948483e+00
-1.245075346364715951e+00
-3.515417945590090021e+00
-4.276368794145691155e+00
-3.431511232159234037e+00
-1.476123280397308557e+00
8.740203191929376558e-01
2.872327763760382791e+00
3.886783938731776189e+00
3.559491573852282098e+00
1.945185464858545377e+00
-4.156437877584160945e-01
-2.617860780644011953e+00
-3.774299846128356339e+00
-3.444182255199799148e+00
-1.804492554255220371e+00
4.957947976172789595e-01
2.632921324688388687e+00
3.878011163142233819e+00
3.784376633663069978e+00
2.338249074072683786e+00
4.140972172392437534e-02
-2.230840995835702945e+00
-3.621376653604170492e+00
-3.673768316041211346e+00
-2.449111118351299687e+00
-4.165625451620205699e-01
1.715317372631566917e+00
3.199687502541667339e+00
3.503627706740890968e+00
2.509186370752202855e+00
5.550926122799528795e-01
-1.670706097390797673e+00
-3.346910547549272419e+00
-3.807085013694098130e+00
-2.808837490509257684e+00
-6.787134389183027139e-01
1.761249259243286902e+00
3.540412954691243286e+00
4.000162812930203593e+00
3.045620818470061941e+00
1.082316336144326652e+00
-1.194048651224284274e+00
-3.023358046403252342e+00
-3.794531515394352628e+00
-3.210338058499102587e+00
-1.404681260324372793e+00
9.763313558179006479e-01
2.888544305517680488e+00
3.410045678922320800e+00
2.413294150045063979e+00
6.227570974649971891e-01
-1.149535278235211733e+00
-2.585845537494235291e+00
-3.516993501433700153e+00
-3.485722535675193967e+00
-2.133339641804686604e+00
1.889077120201706761e-01
2.512124388476080661e+00
3.873535978409763825e+00
3.791307457094528655e+00
2.368875054235295874e+00
1.799369406459923604e-01
-1.958933284167629463e+00
-3.287927357927826311e+00
-3.368836934265428518e+00
-2.195085020817806765e+00
-1.568669330778184046e-01
2.055940587894863558e+00
3.631429582781839471e+00
3.937578581734849870e+00
2.824662373051733510e+00
7.166846811840481557e-01
-1.581188078973431166e+00
-3.230024297587132942e+00
-3.663162951467483275e+00
-2.749738353740850183e+00
-8.152933771614990777e-01
1.457152426056199435e+00
3.228839277269065722e+00
3.796755066021364478e+00
2.900724885218027183e+00
8.727392028644380684e-01
-1.499418991810458568e+00
-3.322637993586408989e+00
-3.956577920816779503e+00
-3.213468080011350203e+00
-1.369739465713447624e+00
9.469834094277432834e-01
2.951944744996988224e+00
3.956264400637786949e+00
3.598912390383409488e+00
1.977720222048094945e+00
-3.423162277649736129e-01
-2.491852414362739410e+00
-3.647407818841695626e+00
-3.392006394078626919e+00
-1.860218418534551832e+00
3.586243628088439106e-01
2.460068719447763286e+00
3.721643170391283562e+00
3.722769280593992924e+00
2.384311342938005840e+00
-2.370898080227812343e-02
-2.736554217085202634e+00
-4.532075022755034155e+00
-4.423322916375313163e+00
-2.528035531698555882e+00
2.961289984648346474e-02
2.133768973207171182e+00
3.293643257320875595e+00
3.403212642153022660e+00
2.454324853258403216e+00
6.529166753247785948e-01
-1.441884230438393200e+00
-3.065489354561705238e+00
-3.562966578809422025e+00
-2.674312064527990973e+00
-6.884040555475635648e-01
1.626942905224374680e+00
3.350066557152614255e+00
3.833177675563372855e+00
2.964620500010139992e+00
1.119736331438666799e+00
-1.062577060087522618e+00
-2.860559491767545648e+00
-3.626134068533950483e+00
-3.027666455500448883e+00
-1.258704318882839734e+00
1.005678272207023660e+00
2.911524597911630874e+00
3.788663440037319585e+00
3.369626681610154328e+00
1.811054995677543911e+00
-3.889790939981726536e-01
-2.501682590943767437e+00
-3.750168136486408343e+00
-3.605953505116073377e+00
-2.073912237008783244e+00
2.581666798360185977e-01
2.482469495982658980e+00
3.778168713029440351e+00
3.710787754098869407e+00
2.326544323998223529e+00
1.188824032191143631e-01
-2.104964374335795529e+00
-3.511137344060317300e+00
-3.583650195883819389e+00
-2.314466047790812997e+00
-1.762815482923576482e-01
2.050071158138562222e+00
3.540892823337279616e+00
3.729356397493213127e+00
2.540355326247822454e+00
4.560921987481802997e-01
-1.681969317924783436e+00
-3.115297075261826087e+00
-3.560719942610838462e+00
-3.145154308572066792e+00
-1.955464054386304218e+00
4.348900860339571794e-02
2.394001110796864396e+00
3.873000878321231522e+00
3.432839088074812750e+00
1.277399055260887595e+00
-1.350520250339685591e+00
-3.222725927712951410e+00
-3.752645268581424887e+00
-2.945094587332081737e+00
-1.157213657944565544e+00
1.042090874872341200e+00
2.955202485547930635e+00
3.906378460907153904e+00
3.492085937804120022e+00
1.809390000996355052e+00
-5.164478933142166994e-01
-2.583122382777149006e+00
-3.623824059414147758e+00
-3.318245646814729000e+00
-1.833548729731824700e+00
3.117057319529371595e-01
2.395787801836894548e+00
3.666064650585433071e+00
3.608339516535262970e+00
2.205941276227238568e+00
-1.384693414774545994e-02
-2.201338973627158691e+00
-3.550576063753103639e+00
-3.614746919646937950e+00
-2.425819509894022730e+00
-4.249866134304113863e-01
1.699775687694917048e+00
3.214900576865369342e+00
3.560967836809299403e+00
2.556870417901195847e+00
5.278438523480327715e-01
-1.753644584896982606e+00
-3.378849106873389907e+00
-3.719740212852632233e+00
-2.683508629607231466e+00
-6.858521088516322806e-01
1.554229688923706609e+00
3.259097737541161610e+00
3.831751384192719989e+00
3.056925944370206150e+00
1.185224547347647039e+00
-1.138528867101642472e+00
-3.073946168004875634e+00
-3.865060725880244075e+00
-3.153987619018551403e+00
-1.238444760809338074e+00
9.503591169139413708e-01
2.376403421413470607e+00
2.639029592782394129e+00
2.072953571063009814e+00
1.031288014594974545e+00
-5.090029886919407165e-01
-2.366592408183249230e+00
-3.705853467091116737e+00
-3.628182345358696548e+00
-2.002941293399212341e+00
4.519541904938091381e-01
2.699516971969308621e+00
3.916106262234421820e+00
3.737997180754659254e+00
2.282597054780076906e+00
8.499869632136725084e-02
-2.053111571841956806e+00
-3.349977556632202980e+00
-3.347631865864028278e+00
-2.060615832706509387e+00
5.279532509090928416e-02
2.238519065065790237e+00
3.695318896900730898e+00
3.872100043214028897e+00
2.685532104038933277e+00
5.629491520270963889e-01
-1.709305728030561022e+00
-3.293774821479010129e+00
-3.629255447254076117e+00
-2.615467334139613520e+00
-6.267578520734917724e-01
1.599218279592813152e+00
3.210231097912975340e+00
3.586061765902528009e+00
2.601909924860864809e+00
6.516745704326964983e-01
-1.551377699587808578e+00
-3.245671150052438225e+00
-3.841542248315793717e+00
-3.094575921290328768e+00
-1.236527236029989485e+00
1.056457628185892617e+00
2.939626934742343156e+00
3.759215538040208582e+00
3.258008814079992543e+00
1.606837543159536086e+00
-6.329580058244871354e-01
-2.648651674646555154e+00
-3.680793503134765832e+00
-3.354617260805631496e+00
-1.817705245675125036e+00
3.685523363240431616e-01
2.455029822992172317e+00
3.692434812429858937e+00
3.484274204285534360e+00
1.678914036254874675e+00
-1.060293713877286326e+00
-3.379431219707182965e+00
-4.163179166963967504e+00
-3.377967136588412078e+00
-1.765375495793135574e+00
5.929918743480466770e-02
1.800943521233688394e+00
3.063034632424923576e+00
3.309609906344340047e+00
2.305031265192034162e+00
3.730002865252578514e-01
-1.755290354415867782e+00
-3.261712141793897679e+00
-3.559632790051288964e+00
-2.530399963379961648e+00
-5.626090563856580573e-01
1.626603423557028583e+00
3.263519124177681086e+00
3.765454091425719518e+00
2.931872382252277198e+00
1.044552376025399187e+00
-1.199528538224390761e+00
-2.950298578044318276e+00
-3.561955027137089669e+00
-2.849156717714414366e+00
-1.108317590143285347e+00
1.038151881119239173e+00
2.845840136769634210e+00
3.665939201777076217e+00
3.164887473933761797e+00
1.470646669365435866e+00
-8.298173406987152667e-01
-2.875604993000921983e+00
-3.870973547948223015e+00
-3.437062419013038994e+00
-1.772643839505173347e+00
4.707039901217223710e-01
2.488150268596649450e+00
3.605846701479407557e+00
3.461588986464911866e+00
2.100143201561939232e+00
-9.234660641810943371e-03
-2.093032541696477900e+00
-3.359584604634854532e+00
-3.331526248712786575e+00
-2.037256220914536176e+00
2.529573189836914482e-02
2.100247621175634460e+00
3.448166607388037708e+00
3.594396337823525300e+00
2.499473393327399151e+00
5.754420848148265044e-01
-1.525189111399033681e+00
-3.210219651954330011e+00
-4.020841071983324078e+00
-3.529430628770893641e+00
-1.584011072096861872e+00
1.153791106292461066e+00
3.329276978649436280e+00
3.894444902950938037e+00
2.815408210597388550e+00
7.846691675502341923e-01
-1.376171261702018311e+00
-2.968918819011703292e+00
-3.490178312168800812e+00
-2.761220743227216889e+00
-1.020498997637978356e+00
1.135634208897310593e+00
2.946956198048243269e+00
3.758518224548670794e+00
3.267819577842955070e+00
1.645051745777198260e+00
-5.139123459273201577e-01
-2.401212168792898893e+00
-3.321931215998001896e+00
-2.964483344886983396e+00
-1.476551878522051053e+00
6.186149303813375244e-01
2.585066285311770073e+00
3.709117348461367314e+00
3.558978082597270554e+00
2.157612795592585453e+00
4.606545331996142467e-03
-2.088106305438639509e+00
-3.338551543204197891e+00
-3.337018175143205312e+00
-2.160077190963918703e+00
-2.516810011811709824e-01
1.755326340870592805e+00
3.189873269887614882e+00
3.516584802283178934e+00
2.553739405112299465e+00
6.212841990321573693e-01
-1.534383561924137496e+00
-3.055171414293893939e+00
-3.352275269224493481e+00
-2.334157932111941669e+00
-4.003880525161171988e-01
1.735780811312395144e+00
3.307997597137315449e+00
3.759907927847823128e+00
2.925338598077165120e+00
1.082208244712494327e+00
-1.114361023082099944e+00
-2.824145741344771032e+00
