5.154893320001753543e-02
1.929716119965475540e-01
3.438823134527932979e-01
4.691787833922916318e-01
4.883625321704549993e-01
3.405816866866939741e-01
7.599461000571978986e-02
-1.424208780616380565e-01
-1.828035732636955346e-01
-7.304147832896942805e-02
7.391994465992339503e-02
2.139158544696077857e-01
3.474529136060017787e-01
3.934931395291639822e-01
2.386743532727433337e-01
-7.659458341404890014e-02
-3.459706782239860279e-01
-4.140369401076746114e-01
-3.185560469023902552e-01
-1.813306247604556387e-01
-4.980664237108482079e-02
9.655077735239747661e-02
2.532536659615192698e-01
3.690793818494174650e-01
3.929756193831917543e-01
3.108376914026734217e-01
1.435133792717150081e-01
-7.431084857120777432e-02
-2.910886369248683048e-01
-4.027269542849244988e-01
-2.671324759982700581e-01
1.428598444329166328e-01
5.292458697272841572e-01
3.326524089091614789e-01
-6.690811061641904756e-01
-1.783374450175960080e+00
-1.949959503800438698e+00
-1.069308968090315615e+00
-1.468089020534666111e-01
6.830956093239194671e-02
-1.461250054301220791e-01
-1.917166281669566430e-01
6.793847364035611458e-02
3.824851979799969159e-01
5.276030484579594670e-01
4.675065758758455425e-01
2.826918030289201633e-01
7.524613236496741075e-02
-7.042013653786456662e-02
-1.000325237495031661e-01
-7.915938542848005230e-03
1.481506093527441836e-01
2.774288148552305766e-01
3.300720481767309145e-01
3.360304402769854204e-01
3.472809906834032345e-01
3.453311560938638891e-01
2.532592623882014005e-01
6.053388112053907644e-02
-1.207269165750219503e-01
-1.639323846273135210e-01
-4.810498806940516348e-02
1.566849943636734743e-01
3.657611380567373227e-01
4.942375691792100234e-01
4.475372596433385142e-01
1.902578806416457546e-01
-1.674692383779009808e-01
-4.248218324804217128e-01
-4.599126122688802498e-01
-3.082885601156999944e-01
-7.601847716223372742e-02
1.639342705879086037e-01
3.731036211353938592e-01
5.039037433436844848e-01
5.037073540029858298e-01
3.650941835208103559e-01
1.535048651140450138e-01
-3.588715086736520704e-02
-1.544373761492089381e-01
-2.145916762730420146e-01
-2.057648240969950915e-01
-3.102614841112341995e-02
3.480801355680426257e-01
6.336267743086361204e-01
2.581973477713461751e-01
-9.231670901266821883e-01
-2.082393925726295336e+00
-2.142897843029394789e+00
-1.139504021584435645e+00
-1.696531174317477131e-01
6.852841438254250739e-02
-7.089748316382117610e-02
-4.056084154674829967e-03
3.207590966404034183e-01
5.920628759095227789e-01
6.125132066046553581e-01
4.353002930951304084e-01
2.160218558290876167e-01
7.526295579455496987e-02
5.465131575527426566e-02
1.255453964554542612e-01
2.421593985845887642e-01
3.844509593190218455e-01
5.267971967135758327e-01
6.065783935575288499e-01
5.702728673340101695e-01
4.246952626232362027e-01
2.245399056071208932e-01
3.412055820126233541e-02
-9.639799901373777291e-02
-1.406533644500738700e-01
-9.382224987625455148e-02
3.306260043870330040e-02
2.062050760117588588e-01
3.565435164716151406e-01
3.892408076833404063e-01
2.344804112074675151e-01
-8.159208966692640952e-02
-4.203540613141631965e-01
-6.104262046668730290e-01
-5.487818307065719381e-01
-2.443916502577050398e-01
1.775477813094909763e-01
5.194002448157947205e-01
6.382481338617186362e-01
5.456422110892716892e-01
3.531730250988517339e-01
1.511631965495017493e-01
-2.856936022679140014e-02
-1.712012252437826176e-01
-2.537470967332443039e-01
-2.595089607666326570e-01
-1.711695394273995696e-01
5.882792930994854702e-02
4.293356424157652729e-01
6.720472820829010985e-01
2.615004349735872702e-01
-9.713136133686237628e-01
-2.233377049134430692e+00
-2.384264586465108415e+00
-1.342108415774574848e+00
-2.020632243014392759e-01
1.977034429210098865e-01
9.014517778704722595e-02
7.346149420134526209e-02
2.890043166174320333e-01
4.726720708185776498e-01
4.131900384300759010e-01
1.618234376702793742e-01
-8.691323924952815139e-02
-1.907300260775677825e-01
-1.348622801320311926e-01
1.629397260667022479e-02
1.953054273770627458e-01
3.619897269248882332e-01
4.814558655350886229e-01
5.056141106960637677e-01
4.036018627310416496e-01
2.026094386529007640e-01
-1.901630871243766702e-02
-1.737836321248819593e-01
-2.044462510298754587e-01
-1.099235993254323585e-01
5.702817917395280184e-02
2.298069118452588655e-01
3.642586295103237282e-01
4.261492368248349094e-01
3.656472103179799760e-01
1.464852720675091646e-01
-1.885983167039365083e-01
-5.003778593046229739e-01
-6.243198860004524064e-01
-4.848953231536332620e-01
-1.522185161308339807e-01
2.149877070100286724e-01
4.737119044483413810e-01
5.533193458567525758e-01
4.575119525227291928e-01
2.450907450485750871e-01
-4.729362538135814531e-04
-2.005443630010597666e-01
-2.968617574658348746e-01
-2.693598417769949571e-01
-1.564078166721492025e-01
-2.114576394207796570e-02
1.379190269035960037e-01
3.810102359902090563e-01
6.173830785387975917e-01
4.422988293669793958e-01
-5.146951541775455219e-01
-1.877735165663386718e+00
-2.545704693654008199e+00
-1.894058558470640863e+00
-5.985283357025361628e-01
2.448717352341460152e-01
3.786719889404893125e-01
2.827973571571645861e-01
2.993005297256562391e-01
3.528661727705451057e-01
2.799102287466157524e-01
8.431912302126930159e-02
-8.592072567258474125e-02
-8.181347964271763751e-02
1.171224488614408532e-01
3.868554586156328634e-01
5.846185830039239972e-01
6.636209509611376012e-01
6.415522886203693931e-01
5.270418968254083625e-01
3.383777855143612623e-01
1.450717541875979621e-01
2.421055971134293550e-02
-8.400252066569054502e-03
1.767981376909309038e-02
8.781982202354750300e-02
2.023453871762803946e-01
3.342720387663734583e-01
4.241113116054443521e-01
4.170418677036127897e-01
2.934302305958857993e-01
6.657503090847544103e-02
-2.192713510447278913e-01
-4.645423417384326736e-01
-5.327391275120438863e-01
-3.576069114054066245e-01
-2.222404622247650674e-02
3.008173410449190843e-01
4.739730969473141542e-01
4.598973256853703395e-01
3.071147388193703476e-01
9.933817356754598427e-02
-9.022344229908843549e-02
-2.132148638844873489e-01
-2.344905155234163208e-01
-1.358169922388420547e-01
4.676438319376510777e-02
2.200703636413479936e-01
3.285192177184565465e-01
4.291682501033416974e-01
5.424960107957094158e-01
3.972731160021947261e-01
-4.059159309045647923e-01
-1.696393866485526702e+00
-2.481771861357891407e+00
-1.953987085515643374e+00
-5.750762482359497163e-01
4.614385965439973258e-01
6.438761541890112294e-01
4.068290893517375606e-01
2.547654688609638507e-01
2.318462836434660723e-01
1.660843913193696952e-01
1.542485223165064243e-02
-1.108962271339235944e-01
-1.110655427684617419e-01
1.897139687463874833e-02
2.113362908241243898e-01
3.852884638216866886e-01
4.808778159467700375e-01
4.657465942561111460e-01
3.375376570294703060e-01
1.321156312919738729e-01
-7.681279992244011146e-02
-1.965400225620008434e-01
-1.531760617001481639e-01
4.979015585732475546e-02
3.053737622305601196e-01
4.812492804767866117e-01
5.274563517002512913e-01
4.768254595194083567e-01
3.705656485420049662e-01
2.220192715326921584e-01
3.248109266644466642e-02
-1.767873652958805164e-01
-3.412125083606201148e-01
-3.712205404885012827e-01
-2.170205451488576021e-01
7.918167386461466561e-02
3.938780550880132125e-01
5.807439385689268097e-01
5.481595137454537969e-01
3.219662960934622786e-01
3.148909156657798275e-02
-1.817962121488492511e-01
-2.405154545924056975e-01
-1.434686700734148779e-01
4.955482352989411254e-02
2.417535245542274114e-01
3.499041430027381994e-01
3.708433369627661125e-01
3.932400540844600001e-01
4.531521969854181431e-01
3.116597320465192555e-01
-4.252121716780097871e-01
-1.657742073940130512e+00
-2.454966413196202346e+00
-1.957847792444409318e+00
-5.575951942999483046e-01
5.073932853490384920e-01
6.407984922731180255e-01
2.907588705223424497e-01
4.465041417656492179e-02
1.259229359410043991e-03
-4.173613662088635282e-03
-3.025482055941580012e-02
-1.630084605711850862e-03
1.341046808249994893e-01
3.334205406040284259e-01
5.072271378091542937e-01
5.884718451833269581e-01
5.526677812134782597e-01
4.111530325648711237e-01
2.029957096429801933e-01
-1.363923889218568442e-02
-1.703584516140227156e-01
-2.069082668035878148e-01
-1.055050687173921947e-01
8.966493520441282117e-02
2.947942072964924720e-01
4.281072942950386873e-01
4.397845130611928721e-01
3.289551890556424163e-01
1.466613784396114117e-01
-3.397162671066901451e-02
-1.719022911463423675e-01
-2.746699042898524956e-01
-3.437499104478287659e-01
-3.284560330985383247e-01
-1.743897459496144831e-01
9.203479722324427181e-02
3.544442090196411321e-01
4.788489201625717451e-01
4.019594139327929971e-01
1.758058320632068239e-01
-6.513414185237394183e-02
-1.904059888578252258e-01
-1.468813738060812391e-01
2.767634484152607308e-02
2.456312875983180377e-01
4.139533757061480412e-01
4.561482423578255840e-01
3.606153302903296054e-01
2.412394983861518571e-01
2.336913431276875230e-01
1.985290296918096886e-01
-3.166968849728220570e-01
-1.449875758795648784e+00
-2.414272018006974108e+00
-2.153545236492122594e+00
-7.598566172462544177e-01
4.987216104983973608e-01
7.393648885087015232e-01
2.924984808107291556e-01
-1.011362103283421493e-01
-1.777814349348560141e-01
-1.035763245782939102e-01
-4.601703220652732240e-02
-6.541193939736383162e-03
8.845876668386061514e-02
2.629556404046291540e-01
4.506445199473818053e-01
5.466466260141921163e-01
4.808933920576023424e-01
2.502095510875237960e-01
-7.106271811340751643e-02
-3.384527427362885033e-01
-4.151784732266145528e-01
-2.780481430222816464e-01
-2.401066216253809615e-02
2.252810497244212007e-01
3.943036798489608086e-01
4.480164493487573951e-01
3.766890455592469822e-01
2.097989205324417572e-01
1.597393406031310387e-02
-1.359499609472596959e-01
-2.190501016697919134e-01
-2.512859442634438611e-01
-2.499869653181629459e-01
-1.912169870734232724e-01
-4.708509564719286916e-02
1.419294628873461472e-01
2.773913114019808113e-01
2.871855864822072668e-01
1.756694255279070693e-01
1.056008348698882562e-02
-1.160805905674654609e-01
-1.338476362766822803e-01
-2.882588984355180517e-02
1.553785667822641658e-01
3.423728358107285263e-01
4.489432512967551081e-01
4.134631500017071914e-01
2.484680530629860828e-01
8.440516120513399945e-02
7.546346594841077393e-02
1.322202814903000734e-01
-1.758530349171896490e-01
-1.113134477662750088e+00
-2.099252561223162505e+00
-2.088921808951155423e+00
-9.302593787809789738e-01
2.898302166369834953e-01
5.980030124890992616e-01
1.640488839894171658e-01
-2.737427579739559191e-01
-3.558211416008704164e-01
-2.019326804185821722e-01
-5.904983730567648845e-03
1.725225202322445694e-01
3.422568959336512173e-01
4.864555424882769930e-01
5.530939405109668305e-01
5.000305472999135858e-01
3.371076925593479712e-01
1.275491121612495893e-01
-4.846807424011179144e-02
-1.324840851580721679e-01
-1.010949874114553670e-01
3.484966903626612184e-02
2.242759375705344338e-01
3.848374753478146504e-01
4.486702705855798445e-01
3.994773604352369611e-01
2.590159369520185217e-01
6.617961525796581257e-02
-1.139113446073479752e-01
-2.036337802800060881e-01
-1.769506857104439779e-01
-9.012230570344048619e-02
-1.920725192237299553e-02
2.143104113719609960e-02
7.260378509732223762e-02
1.480138267052145129e-01
1.948281978432434836e-01
1.515372195850866188e-01
2.519061553298738293e-02
-1.017323621875422107e-01
-1.376568053854287099e-01
-5.080649425403426650e-02
1.215151483501955981e-01
3.099364712645522046e-01
4.452572684268860659e-01
4.674999839137329305e-01
3.404825959786487166e-01
1.025625063061962328e-01
-9.412512194402705701e-02
-8.190412396896834535e-02
6.213512807819460138e-02
-9.228821368819381532e-02
-8.579851434557218548e-01
-1.749425875139870579e+00
-1.788235917915847573e+00
-7.953870925236524725e-01
2.340091246247887613e-01
4.003366623865085572e-01
-1.016047159119489451e-01
-5.263717782034544879e-01
-5.108766537250897244e-01
-2.023808603705693487e-01
1.377003365743610375e-01
3.809352731801751157e-01
5.091387158610983787e-01
5.308422887187033146e-01
4.562915609346166468e-01
3.086183150707948464e-01
1.258425558824500246e-01
-4.754225856719167254e-02
-1.611909242823273414e-01
-1.667002564277040577e-01
-5.002865354625651850e-02
1.446964746577293626e-01
3.374097265181226768e-01
4.566580004159759287e-01
4.623540233240056585e-01
3.502056773176590587e-01
1.568976147087021156e-01
-4.365088763071642286e-02
-1.651777096335956818e-01
-1.555242053359248977e-01
-4.015001995590897904e-02
9.559723789173771302e-02
1.851308439339944545e-01
2.224666609916972071e-01
2.238237052391195414e-01
1.881354204177534684e-01
1.108075268959334975e-01
6.065392218189835302e-03
-9.750320579882718053e-02
-1.603125791098766739e-01
-1.289937029179128447e-01
2.983468378581206892e-02
2.733335237034290599e-01
4.877913257766221533e-01
5.659260226971495333e-01
4.646834744115069249e-01
2.115964595765492673e-01
-8.085893878412972469e-02
-2.158687801493820446e-01
-6.237721346615458795e-02
1.718262119697026025e-01
-4.988070003344536457e-02
-9.536302338604051299e-01
-1.824724530998069971e+00
-1.617111699931709667e+00
-3.915278060956060013e-01
6.009208905054530536e-01
5.314742515195625128e-01
-1.182832638889178417e-01
-4.790602272204940171e-01
-3.185178705487453632e-01
7.434159880254825881e-02
4.457213705165256612e-01
7.189448047315176726e-01
8.422994678887084641e-01
7.663260000396655558e-01
5.366043224745105089e-01
2.767861689876179865e-01
8.419025297960858190e-02
-1.317982804843694650e-02
-2.641434607225767034e-02
3.194792003352708853e-02
1.584770154445423740e-01
3.363709629989287686e-01
5.042733807334257579e-01
5.657311038327935693e-01
4.548798059877807165e-01
2.029845168616105089e-01
-6.987666670350159426e-02
-2.404611088205376168e-01
-2.587602783658677907e-01
-1.525655833140726059e-01
6.205602795416396977e-03
1.332681768565703584e-01
1.728420346400760532e-01
1.310575029303999162e-01
5.397855833146132654e-02
-2.406188978394435685e-02
-9.063817980054975076e-02
-1.310916548011519245e-01
-1.251946747996149356e-01
-6.326558569060120041e-02
4.910568388806781093e-02
1.920342909139585441e-01
3.268712841633880650e-01
4.025138420311713539e-01
3.750759417404568863e-01
2.236128104163100372e-01
-2.883128164591813175e-02
-2.759751078594673279e-01
-3.305462850597186697e-01
-8.565626411541930885e-02
2.100726921080199594e-01
-1.146906538350001004e-02
-9.604603146250658696e-01
-1.893962310489021750e+00
-1.798603381593498529e+00
-7.538334192635360864e-01
1.164044790681132424e-01
1.342613296443793125e-01
-2.713658403269749719e-01
-4.192989783572519391e-01
-1.738358364793665956e-01
1.872490179914788888e-01
4.226937607827554455e-01
4.922721579301703732e-01
4.586014288519321136e-01
3.638913088907849702e-01
2.119331423713965989e-01
2.719483178513988630e-02
-1.171700141947729923e-01
-1.485635986676152875e-01
-5.581820998971731562e-02
1.127162707891856408e-01
2.953285843618160822e-01
4.401549961328944383e-01
4.994457996402539846e-01
4.372110331516022019e-01
2.543361130207201781e-01
4.432692310549692094e-03
-2.143935887198656909e-01
-2.995531453952844370e-01
-2.054756417266623836e-01
1.508445006499018262e-02
2.293758928482680370e-01
3.058987403576239883e-01
2.090499225712139086e-01
1.834396616102466210e-02
-1.549548685998718700e-01
-2.556477264435999541e-01
-2.855093851782830039e-01
-2.558278660108660452e-01
-1.672877038583737153e-01
-2.205185595058552911e-02
1.598112538984792774e-01
3.322956841484588364e-01
4.345359157272903894e-01
4.237500328098064983e-01
2.992941346823551618e-01
8.941290764120629619e-02
-1.625802398754320199e-01
-3.601733487289159319e-01
-3.276991374362178133e-01
3.640770024405023952e-02
4.569015651491629693e-01
3.011263610363624221e-01
-7.055556266114630937e-01
-1.802320385757478327e+00
-1.846048859700742728e+00
-8.021761240778303437e-01
1.558918641068239019e-01
2.180130648549351013e-01
-2.129804470227455726e-01
-3.805101760388512333e-01
-1.076057795815897056e-01
3.014290442246502222e-01
5.645521291197043157e-01
6.114356008678833998e-01
4.940234921315835304e-01
2.906810661381183936e-01
7.878816396313589876e-02
-7.624946859498843432e-02
-1.333863966484988839e-01
-8.011817419648180338e-02
6.563163256206722140e-02
2.543950625315581360e-01
4.141213289519467544e-01
4.766816025343855734e-01
4.146127609764685973e-01
2.573266193133283419e-01
6.782337930318818597e-02
-9.438268938907179439e-02
-1.869067877974404657e-01
-1.752802821701840708e-01
-3.775769965789839422e-02
1.945377261691116355e-01
4.041695703757537395e-01
4.379702761825568502e-01
2.415244146281764481e-01
-6.037299427953494307e-02
-2.626110206165834238e-01
-2.658268544098434383e-01
-1.372453608045566820e-01
-3.486358916890905379e-04
9.562091224962203373e-02
1.876981263952832435e-01
3.082425487004737952e-01
4.176458511329321222e-01
4.376980105373386998e-01
3.332674346154906875e-01
1.449535648337902383e-01
-5.597804266065890128e-02
-2.223722451339898154e-01
-3.101903303819451563e-01
-2.156645696956585312e-01
1.471325282950586011e-01
5.650515180275405003e-01
4.420489602277231089e-01
-5.825374852870424114e-01
-1.854019093601708912e+00
-2.174293716612781147e+00
-1.315337611622029446e+00
-3.207275111790292010e-01
-5.597384830746695433e-02
-2.746881719999317850e-01
-3.168597248095527119e-01
-2.128833307337688399e-03
3.913087169801113818e-01
5.905836142978797554e-01
5.485773254148572642e-01
3.624896622184724526e-01
1.406175771165255606e-01
-4.137445104550817321e-02
-1.286092642669419139e-01
-8.989651830913511499e-02
5.663352174175052822e-02
2.400874622510313916e-01
3.818410446423379234e-01
4.421953571370437208e-01
4.169520346814439282e-01
3.131399196381954297e-01
1.521423010932768105e-01
-1.466187977347090110e-02
-1.180813949557324299e-01
-1.094479792181289324e-01
1.182182880448854473e-02
1.963517407458885422e-01
3.583227747100403704e-01
4.092100574650322509e-01
3.060262004950972670e-01
7.755723468232827988e-02
-1.876139443116863204e-01
-3.813564833104869933e-01
-4.293721630069713413e-01
-3.244291573016038766e-01
-1.185063747181192007e-01
1.082581102249431104e-01
2.854358280364048261e-01
3.848104982392477336e-01
4.139598535801200518e-01
3.746670601482667284e-01
2.567384419355157599e-01
8.102617410151653765e-02
-9.139570881033431959e-02
-2.000071081731991385e-01
-1.902089643332269542e-01
1.362173706999993128e-02
4.190063982630842232e-01
7.394419101114582116e-01
4.174558662167557888e-01
-7.376256622203724023e-01
-1.938815777882216596e+00
-2.060733843005276622e+00
-1.063406552376601866e+00
-6.900696552897508940e-02
1.375794772872639682e-01
-1.015962150516742102e-01
-1.275257544617607597e-01
1.755308837729972482e-01
4.904650781953059924e-01
5.671250243366042776e-01
4.152585892906499598e-01
1.835114718753353136e-01
5.898794513036001441e-04
-8.354644984176545774e-02
-7.402700753282361046e-02
1.284393147236933402e-02
1.618061587183309835e-01
3.386909093830438588e-01
4.838392378757525591e-01
5.340649603832673398e-01
4.510349639566464397e-01
2.501250978384627066e-01
1.439097586732899364e-02
-1.443001160264525129e-01
-1.600279007133024733e-01
-4.659159661202655345e-02
1.365725863207629676e-01
3.288867708132714451e-01
4.743971898955988697e-01
5.060084568251906889e-01
3.607691669364143650e-01
4.855509978730270654e-02
-2.970791678792171209e-01
-4.896631617878797194e-01
-4.405181254252137912e-01
-2.149473654772116604e-01
6.073529258824660743e-02
3.001657655434607497e-01
4.618205566496630943e-01
5.184581865510260457e-01
4.591403681494469202e-01
3.044022346606641283e-01
1.083730405376494288e-01
-6.318792038460828431e-02
-1.732614098569248695e-01
-2.146576463709994331e-01
-1.503506413339065206e-01
1.004157867491407563e-01
5.138340106391580120e-01
7.525490442568033567e-01
2.833305013365771119e-01
-9.650723089371583407e-01
-2.119856416298458779e+00
-2.120234569579908523e+00
-1.056823017268793796e+00
-7.060410893810462052e-02
1.454793160573079058e-01
-2.485418400113842408e-02
1.211518605729244163e-02
3.043879928614391384e-01
5.475571568661875554e-01
5.498583131684633418e-01
3.530264061019142141e-01
9.673690537704976444e-02
-9.487274016408164812e-02
-1.353140181279539889e-01
9.287896185958684561e-03
2.780263562637955155e-01
5.292104532472829970e-01
6.486173619155042314e-01
6.197267635306142886e-01
4.765541492992725336e-01
2.592750672795263167e-01
3.022247634654212992e-02
-1.352809365040923417e-01
-1.902709710657284337e-01
-1.325230661572101287e-01
3.608258128590745295e-03
1.686800927737338862e-01
3.214382974920234615e-01
4.160438291963883817e-01
3.723213021122506738e-01
1.231704332250496137e-01
-2.607341431494700212e-01
-5.491766846265712099e-01
-5.455807111480217575e-01
-2.818080031135930530e-01
4.993618218468216102e-02
3.044714228757268160e-01
4.430616672119688237e-01
4.623571534243607895e-01
3.647357783778487073e-01
1.787420776188937133e-01
-3.651670795389568708e-02
-2.104319255764084406e-01
-2.892207191730465365e-01
-2.662232049391359823e-01
-1.867661128357293032e-01
-8.402596519818977816e-02
9.957729533967929481e-02
4.113554227726925472e-01
5.994193468636669353e-01
1.178387867989032778e-01
-1.186706738392532490e+00
-2.455428958947572404e+00
-2.519511314773269284e+00
-1.356040186334294795e+00
-1.360860031251004687e-01
2.865850572012554887e-01
1.633539699106864584e-01
9.604614644646522481e-02
2.400257524079730254e-01
3.787552924255244702e-01
3.353196610782765430e-01
1.465111008887456934e-01
-2.811615449800317773e-02
-6.800857091594905701e-02
3.394024342919624293e-02
2.089731381375558583e-01
3.820945098918624439e-01
5.030757214441219372e-01
5.404876853098397049e-01
4.813316474279463186e-01
3.448199074036215062e-01
1.786070037360271423e-01
3.563656184021134210e-02
-3.989839013584733224e-02
-2.019164802747032764e-02
9.062321989652956378e-02
2.528897011284150786e-01
4.112154689060318891e-01
5.098787399496227390e-01
4.940054644117690130e-01
3.261091964642870433e-01
2.853658527950704224e-02
-2.908743813863977068e-01
-4.838036062956080907e-01
-4.601717448508184094e-01
-2.436744377950834928e-01
6.871612767096259289e-02
3.733911293194940306e-01
5.771948632048909955e-01
6.035642344204905640e-01
4.433109572576138802e-01
1.868927223941146687e-01
-3.734753774624379602e-02
-1.516467323482062202e-01
-1.474035247536938098e-01
-5.934502736172933557e-02
5.770957971863788227e-02
1.767912954045395557e-01
3.448343391085808562e-01
5.831758113533248578e-01
6.496886294513559701e-01
6.386097027991848030e-02
-1.272053256114980435e+00
-2.502718555920363741e+00
-2.481434091124822494e+00
-1.201538818934004826e+00
1.155750204270628856e-01
5.468645582666605831e-01
3.416446840831924847e-01
1.698539098599070041e-01
2.264735514939410499e-01
2.793969456900193271e-01
1.580177835372098549e-01
-5.168305854694204421e-02
-1.665878373018763459e-01
-1.047049579516942663e-01
7.805514313693245887e-02
2.767920728261373253e-01
4.228676794853319931e-01
4.924702342398330490e-01
4.675342502336619632e-01
3.233625192002283488e-01
7.005455383209049924e-02
-2.025228885525841571e-01
-3.491419992122947180e-01
-2.753688848099544173e-01
-2.908204816651148439e-02
2.406592178324367115e-01
4.173822215186424045e-01
4.802816927338415809e-01
4.542482581442374157e-01
3.493892698999696012e-01
1.519816955252210611e-01
-1.391217919834048244e-01
-4.524726565785032739e-01
-6.349702994233139552e-01
-5.555601857653874598e-01
-2.300113674716582346e-01
1.812290419667272889e-01
4.927045172215588353e-01
5.990480742855499585e-01
4.965084889958838454e-01
2.547035673153460467e-01
-1.797047536739240087e-02
-2.116340949433800356e-01
-2.573938563326477191e-01
-1.588388937862181549e-01
9.615585465499763146e-03
1.538854734083122955e-01
2.435077591967461930e-01
3.473875672821422067e-01
5.223115812622042275e-01
5.819779653473252656e-01
7.537962975202433524e-02
-1.164623971892954968e+00
-2.395055643144844204e+00
-2.465910162949318973e+00
-1.240519209018406288e+00
1.308284008246957675e-01
6.423543684973881396e-01
4.348584850540926361e-01
1.717282795930682449e-01
1.214164261910070930e-01
1.253221657123052002e-01
3.708274094288725731e-02
-8.806157507984031796e-02
-1.173628651655366228e-01
6.217274575846724535e-03
2.334066954635215518e-01
4.613778442995868367e-01
5.966662086667373632e-01
5.952337412949509909e-01
4.657539529675761569e-01
2.502602928297014140e-01
1.550831822598874171e-02
-1.550495410348465275e-01
-1.962767371250133952e-01
-9.824418280783497881e-02
9.016245325892052742e-02
2.841007746954269941e-01
4.007827815807722405e-01
4.058292884299958270e-01
3.268665332078038999e-01
2.036077979979267205e-01
3.423494322732278938e-02
-1.957050750225219071e-01
-4.293329509118240517e-01
-5.280989232914913289e-01
-3.894136921870923751e-01
-6.592112365258109841e-02
2.658559205707389239e-01
4.477704676638118442e-01
4.317072530834134558e-01
2.641722597717187093e-01
3.505209856899758891e-02
-1.562664127804046788e-01
-2.331665263180060510e-01
-1.742155176147779649e-01
-1.410265184706147382e-02
1.765379583381364026e-01
3.086588061736331712e-01
3.273158023656672633e-01
2.914682343797660447e-01
3.174492001692232335e-01
3.093811960787670179e-01
-1.471931282477795533e-01
-1.248888939061629566e+00
-2.302513279116731759e+00
-2.218428246304183560e+00
-9.346787964597946807e-01
3.668829207684272675e-01
7.410571291140150008e-01
4.193340892699933820e-01
9.521950032777240502e-02
1.637397711330974143e-02
1.824385003168670777e-02
-2.650099025971225375e-02
-6.340479015261740736e-02
-2.537007586506344337e-03
1.639803641188483374e-01
3.834822055265887930e-01
5.949485280940164378e-01
7.244512660657633774e-01
6.846750680537162514e-01
4.531593532392084178e-01
1.382720757405933310e-01
-9.364539391267671931e-02
-1.550144654213765349e-01
-7.201574114845785135e-02
8.541297077891042699e-02
2.604745112522197648e-01
4.069654002330320708e-01
4.744671956251950151e-01
4.256418332323613218e-01
2.734186047789395335e-01
8.237519834313478118e-02
-8.602957170896204098e-02
-2.170215481155094717e-01
-3.078232495055505669e-01
-3.084956629734540434e-01
-1.534079684484378481e-01
1.335302258021457689e-01
4.120754118933671606e-01
5.320757517407839199e-01
4.469068281628174044e-01
2.220577693801468744e-01
-2.648063932112196955e-02
-1.901039377516224316e-01
-2.077191883234264236e-01
-8.485732084614869275e-02
1.179125660074434312e-01
3.060293431744339765e-01
3.818119531439526648e-01
3.246409900568158480e-01
2.565328492685997053e-01
3.143125879097216635e-01
3.548652744778568180e-01
-7.328017719407203812e-02
-1.144782437453076618e+00
-2.151610338074263495e+00
-2.042274385247906832e+00
-7.896228500950475127e-01
4.373523266526339048e-01
7.233098475328545440e-01
3.182413820734080190e-01
-6.472594644775783723e-02
-1.539832392012404350e-01
-1.103467527230503065e-01
-8.468490771252841498e-02
-4.475750606762701062e-02
9.730107541531628212e-02
3.390771570694440795e-01
5.726355240228933052e-01
6.711943712151748898e-01
5.828816939704180022e-01
3.541859735016888999e-01
8.461188221053640712e-02
-1.261697620052874003e-01
-2.095761781000026192e-01
-1.510513824215097278e-01
3.315837643936187656e-03
1.776396133241081587e-01
3.114617441808967824e-01
3.731090037071967958e-01
3.458504891220933186e-01
2.286202657248417036e-01
5.506857896973404998e-02
-1.054698272263296793e-01
-1.903370413895539570e-01
-1.977108532771270355e-01
-1.726241370843359935e-01
-1.264479941129421636e-01
-2.232009714259777788e-02
1.345467805918597881e-01
2.576257290689782931e-01
2.650656736237560485e-01
1.580594170381773855e-01
1.376675217954091354e-03
-1.290370279264553832e-01
-1.716999125604702359e-01
-9.430731656304133792e-02
8.689571767705046856e-02
3.023142031198051138e-01
4.560565195010128914e-01
4.704074868900146034e-01
3.329798867865870760e-01
1.408388873205835834e-01
5.689177392590744065e-02
8.172035445481817817e-02
-1.297470453893529996e-01
-9.183262227806874289e-01
-1.916010448303809177e+00
-2.136414004476673956e+00
-1.185410547673914294e+00
7.862128570361701096e-02
5.795761001466571694e-01
2.415515396944348803e-01
-2.504709937887483195e-01
-4.176831095872799993e-01
-3.000878851126311253e-01
-1.143554225068012520e-01
4.168716620388279726e-02
1.903451403370553241e-01
3.505234870048254403e-01
4.687693035333186931e-01
4.633159974245784629e-01
3.179825120694379503e-01
1.101416308403838223e-01
-5.636019572952351286e-02
-1.244752141544243629e-01
-9.139406425223645103e-02
2.143633809657604847e-02
1.835396109291789479e-01
3.498542780349374048e-01
4.592097197909569273e-01
4.594430132158242586e-01
3.446609623852094906e-01
1.628702905952438829e-01
-1.218439854079529996e-02
-1.147756993250743374e-01
-1.152453268951311588e-01
-4.094520112915543686e-02
4.083536391529712234e-02
8.677898295010758045e-02
1.123049415464567324e-01
1.412495634723363314e-01
1.520001681698568696e-01
1.065670391547924450e-01
6.729515973457890834e-03
-1.019578231268950530e-01
-1.595228725363100064e-01
-1.176256760592878647e-01
3.164170326455172794e-02
2.348318090875616271e-01
4.021365567792629103e-01
4.627214249105133237e-01
3.875799253396955968e-01
1.883297415972854938e-01
-4.766220877274298523e-02
-1.457836993522006186e-01
-1.016677262080731281e-02
1.113783995710584673e-01
-2.814469071363069896e-01
-1.265685664247979902e+00
-2.038359967737388700e+00
-1.708187122956785542e+00
-5.393451444397833194e-01
2.952355491632637774e-01
2.051956440663992853e-01
-2.952040739189141227e-01
-5.046968539725285030e-01
-3.026128040776684958e-01
2.782572333534669151e-02
2.714035430416566474e-01
4.200295649590101155e-01
5.238380228149415174e-01
5.616908291081252891e-01
4.735628686167405177e-01
2.636037831128784648e-01
2.620366843343639035e-02
-1.241353867384078352e-01
-1.276460995887941374e-01
3.569349046441969500e-04
1.930783583132803793e-01
3.716404673017868476e-01
4.768556069342007042e-01
4.814642123441453259e-01
3.866041133748676639e-01
2.137924007913232782e-01
7.651361781394264150e-03
-1.551052264468639197e-01
-1.931001994739047489e-01
-9.203777087908113219e-02
6.300578196299277955e-02
1.576645939740416724e-01
1.507109388017251750e-01
9.036296510606332821e-02
3.438663956239478708e-02
-1.116485275578048622e-02
-6.028394843249684776e-02
-9.917142723231159307e-02
-1.000165268826819914e-01
-4.752893257706924945e-02
6.526432820382259414e-02
2.301702679549811892e-01
3.983584439061816918e-01
4.905488265211191967e-01
4.496969538687917156e-01
2.785654201054208468e-01
3.334217595433292686e-02
-1.843005615328454916e-01
-2.248400628595717266e-01
5.329542416988665432e-03
2.984789166365610646e-01
1.220356092799694120e-01
-7.883892051074570251e-01
-1.782121673152747166e+00
-1.816637720806494327e+00
-8.312158006869132532e-01
9.600605141871537684e-02
1.798319598344214620e-01
-2.412930752279857927e-01
-4.576542979612114315e-01
-2.613008052954048921e-01
1.043535671652316144e-01
3.891171081533424392e-01
5.225116673058731731e-01
5.440513414208578702e-01
4.952657677394125546e-01
3.687376092938574601e-01
1.419191701081636559e-01
-1.282868991229428601e-01
-2.840828204953320113e-01
-2.058359281463509882e-01
4.993465802315186219e-02
3.118962727583864392e-01
4.609376962439867831e-01
4.854383840448201481e-01
4.186301605047280661e-01
2.878474866355441586e-01
1.164553731080989613e-01
-5.593125620652136809e-02
-1.652793845164776954e-01
-1.507322155154244558e-01
-5.904014356665716889e-03
1.943625872122360931e-01
3.216514473995218948e-01
2.788309986803605978e-01
9.187624708770095183e-02
-1.062020643103687156e-01
-2.120037900705750156e-01
-2.337356831565558513e-01
-2.162451942750107936e-01
-1.512032469616100827e-01
-8.934186065995625842e-03
1.867634702057490159e-01
3.605604854346531329e-01
4.410067833061510623e-01
3.990630960670257799e-01
2.580620447984449672e-01
7.200451891717130071e-02
-1.137587199905099461e-01
-2.467330652321152451e-01
-2.109409706627856373e-01
8.301789916725006713e-02
4.224299044458408869e-01
2.574596785129369958e-01
-6.809195207659705096e-01
-1.719754431796655547e+00
-1.790425934284720633e+00
-8.293240986015004701e-01
7.440509245787307879e-02
1.437572528021037188e-01
-2.526109731637735112e-01
-3.958476881163871530e-01
-1.189477189882014174e-01
2.774293624961196580e-01
5.221915701056287773e-01
5.619539278554427364e-01
4.597846321276374271e-01
2.911415647425298348e-01
1.185464921981551623e-01
-1.011656842063100858e-02
-6.186967744231280236e-02
-1.845765023978428870e-02
1.141538313908157659e-01
2.945191584687756325e-01
4.523206147972513858e-01
5.179374150168256641e-01
4.599727846511943441e-01
3.027066417580116520e-01
1.072770378226209492e-01
-6.532138964663009029e-02
-1.717441624648650966e-01
-1.777975823268075350e-01
-6.523594878808047781e-02
1.327543895176092059e-01
3.202792106316862952e-01
3.820702720184261936e-01
2.515672138970139748e-01
-3.122535897699026466e-02
-3.177547805965351135e-01
-4.408407254398997166e-01
-3.308946477922686813e-01
-4.993657909104516623e-02
2.676801157719945756e-01
4.995632792740030692e-01
5.897023146515443237e-01
5.574893755824620323e-01
4.609514624792926396e-01
3.404157559285708179e-01
2.012946915252660784e-01
3.950637178064420746e-02
-1.338210461034751442e-01
-2.593918773849960835e-01
-2.083764402795159065e-01
1.055445312340590192e-01
4.766575250359386673e-01
3.687625944625891328e-01
-5.352044406112933528e-01
-1.661517250866799689e+00
-1.936333719947085141e+00
-1.126703999864890893e+00
-1.852064411850934678e-01
4.545526686980889963e-02
-2.205218148272938272e-01
-3.234415654280533015e-01
-6.125673800157653559e-02
2.965294376431327761e-01
4.821176901946229720e-01
4.550305075004353328e-01
3.074019204284673124e-01
1.308500619482934058e-01
-1.835371502552330183e-02
-1.040380773701041622e-01
-1.023380017582755791e-01
-8.260932419274624045e-03
1.555442658703581338e-01
3.363859059260841944e-01
4.583416666270910822e-01
4.500200893730302298e-01
2.949833752474240178e-01
5.884476902085290090e-02
-1.523542222892386722e-01
-2.645293825298640211e-01
-2.572329655684377769e-01
-1.336748746572549718e-01
8.655821052431483809e-02
3.406704250655384625e-01
5.220742485282037215e-01
5.247142979269079355e-01
3.111425393513864712e-01
-3.116954444026433929e-02
-3.263635922774536513e-01
-4.476598079284186960e-01
-3.917728688148302552e-01
-1.996756542196810869e-01
1.067625610367535088e-01
4.525631835807559233e-01
6.764585547845551883e-01
6.651475512645264043e-01
4.661204877113039324e-01
2.134939116558449423e-01
-2.001728191331625384e-05
-1.454253264478708452e-01
-2.174164498595911876e-01
-2.119599845451499431e-01
-1.058735645663413105e-01
1.392323376285071190e-01
4.421150913133444771e-01
4.347512913296006642e-01
-3.006011373184281354e-01
-1.542079450243743377e+00
-2.287631821206628668e+00
-1.826275006173817994e+00
-6.707064004298295412e-01
1.232937114980575538e-01
2.202979301139189883e-01
8.195336884623655171e-02
1.362532893732623096e-01
3.536379482752619596e-01
4.980406352702329009e-01
4.530906237932478819e-01
2.673718735462113916e-01
4.567482604502688670e-02
-1.205189467451043550e-01
-1.654238467978513261e-01
-6.423943998802536526e-02
1.416217741545669762e-01
3.541257698493895933e-01
4.773205656739068492e-01
4.742811920725250596e-01
3.692030375859912672e-01
2.075795687800569833e-01
3.323535385938251180e-02
-9.941038877030493326e-02
-1.283524345620532525e-01
-3.091596106465593560e-02
1.425897501745323204e-01
3.079611272549467316e-01
4.165320404761651552e-01
4.565329096955613175e-01
3.937107876966206566e-01
1.773948499911143784e-01
-1.603557122146197778e-01
-4.631875109484568376e-01
-5.611397561355040420e-01
-4.091018038762076481e-01
-9.474664238230760815e-02
2.537299606269659002e-01
5.328839582757066706e-01
6.715400922328579325e-01
6.324351857703712776e-01
4.339537615838888751e-01
1.631338551976688200e-01
-5.871808809413796987e-02
-1.479644691386825806e-01
-1.097277492167769708e-01
-1.448790898429826862e-02
9.882814300401426832e-02
2.929431742204626210e-01
6.125446987558196277e-01
8.024533717554021006e-01
3.083263108734404234e-01
-1.053394511224579277e+00
-2.434512137394831299e+00
-2.601381811684091883e+00
-1.448657756786166040e+00
-1.580584436342012400e-01
3.315672825171510629e-01
2.269824348585212648e-01
1.481208965129384159e-01
2.650857585471900757e-01
3.642192695659541846e-01
2.911549724202319167e-01
9.916869606245140578e-02
-7.005824973871166428e-02
-1.118655118840330975e-01
-8.414104520511667129e-03
1.755380062090869664e-01
3.462769243183856371e-01
4.447746211542147332e-01
4.583573980119957092e-01
3.911822653911711800e-01
2.499231220384131313e-01
6.018798933839764748e-02
-1.190585797502559523e-01
-2.138170332691013698e-01
-1.775046614306395876e-01
-2.356146110807178298e-02
1.789380106572024398e-01
3.441734005338374924e-01
4.117759129256310935e-01
3.637196585755516076e-01
2.081328806865009873e-01
-4.201832061722020339e-02
-3.439298640313533384e-01
-5.807537601933225879e-01
-6.093656901326668374e-01
-3.917921324394600391e-01
-4.082395724038160451e-02
2.795666583616701617e-01
4.585026751619543095e-01
4.595001119340223483e-01
3.129796146733881956e-01
1.021328538523836593e-01
-8.396896936245361320e-02
-1.926116090127480696e-01
-2.028296787199458939e-01
-1.137211946395574463e-01
3.958413016884575197e-02
1.932391965889530827e-01
3.214059014163112571e-01
4.591145037322186262e-01
5.493982836760640254e-01
2.722171607103435753e-01
-6.950491566121688169e-01
-2.016167872459543986e+00
-2.647303731325671539e+00
-1.954797414355161411e+00
-5.865524063599476534e-01
3.164986311312487643e-01
4.237564890566937192e-01
2.236261154411172125e-01
1.374912036718987096e-01
1.451879850101682745e-01
8.957451262168324158e-02
-3.444870345649601179e-02
-1.128868979383387122e-01
-6.679102996689934013e-02
8.922070636830416179e-02
2.892540729599485938e-01
4.623492960470048097e-01
5.465919710102079554e-01
5.062370140672012298e-01
3.549152961433761910e-01
1.487872395990395002e-01
-4.310452881837360806e-02
-1.588416263257199368e-01
-1.573142401001182966e-01
-3.565906694484750894e-02
1.622146622350409684e-01
3.583352737281266243e-01
4.754374138121188476e-01
4.778988731531173539e-01
3.835219746886519010e-01
2.306991256899917908e-01
4.038134763496106783e-02
-1.741447847081935840e-01
-3.587502013769470199e-01
-4.072791780063560463e-01
-2.389128749012546793e-01
9.834706369271586923e-02
4.263071216498873772e-01
5.667539524843385745e-01
4.740284392249475842e-01
2.402570096189268478e-01
2.845654022976921993e-04
-1.479868606811165777e-01
-1.623174028268239422e-01
-4.701735928758034311e-02
1.513795751038596871e-01
3.426475846522553104e-01
4.267932209767188456e-01
3.873771045664731738e-01
3.381537365971414300e-01
3.658805569612965103e-01
2.642500139857245633e-01
-3.828727312321518195e-01
-1.546522752882750540e+00
-2.342653835642679372e+00
-1.879205703500065772e+00
-4.925039987089492866e-01
5.766290893505098270e-01
7.045633511636011370e-01
3.474334187302763333e-01
1.095999325734523244e-01
7.728998241169685035e-02
6.462375808920743647e-02
6.174603941766746915e-03
-1.756664858265388415e-02
6.804485798370624172e-02
2.528715670655968251e-01
4.546775806828971533e-01
5.740914832692707304e-01
5.571842537147270180e-01
4.207380882712143944e-01
2.281756046058632803e-01
5.029671210030690898e-02
-6.237821325897748015e-02
-8.727254675512265136e-02
-2.050226440410836404e-02
1.253154366532963360e-01
3.017519447239870312e-01
4.201875700089240939e-01
4.037970647931437007e-01
2.552891939132246879e-01
5.488080511116018301e-02
-1.165035321970538384e-01
-2.403158752253404251e-01
-3.358805269317139963e-01
-3.835337761145505286e-01
-3.134745016894457947e-01
-9.781688378278821649e-02
1.761165354467055244e-01
3.608636602601669741e-01
3.689641294554135698e-01
2.246831411864095296e-01
2.199377233952868466e-02
-1.388804471125744677e-01
-1.896843648912878433e-01
-1.095160566594031021e-01
7.779182835380625549e-02
3.122448143104720186e-01
4.980845965046304946e-01
5.316199757067491261e-01
3.962959297358792377e-01
2.317387840679004385e-01
1.980572085276297856e-01
1.809088944638312102e-01
-2.330664071755882694e-01
-1.187477526733409672e+00
-2.004297917559117348e+00
-1.753112109021648379e+00
-5.214763924845369214e-01
5.527034031445096085e-01
6.953915064580952210e-01
2.372532983309481036e-01
-1.431436974176680255e-01
-2.222338566565588147e-01
-1.514681898269634730e-01
-6.099982798803744999e-02
5.227709497645709885e-02
2.141276207275853161e-01
3.910418293574749460e-01
5.108697887273500049e-01
5.223429058601155583e-01
4.234741142527134738e-01
2.500410069671983870e-01
5.684489224503534027e-02
-9.539297432308910252e-02
-1.575076014324434948e-01
-1.097644882600193328e-01
3.091651870812097552e-02
2.153458088752304711e-01
3.750122489829676997e-01
4.414530499266294261e-01
3.735767028099686859e-01
1.856199402324975045e-01
-4.907421797370559169e-02
-2.324035502574392786e-01
-2.994539064582475985e-01
-2.602957966709833482e-01
-1.762303394911177712e-01
-8.612070432995712344e-02
1.844259824799257194e-02
1.367197933721160941e-01
2.213467471587670377e-01
2.204220752641840586e-01
1.276206225863468768e-01
-1.604491100221606958e-02
-1.369246818720589454e-01
-1.528231488180592790e-01
-3.004720797519220415e-02
1.798979937905366144e-01
3.797600797897089930e-01
4.822507382987564761e-01
4.295530007618270085e-01
2.302041593526527874e-01
1.421257452829848000e-02
-3.534908172631451295e-02
6.134761354879338102e-02
-8.090365219579739864e-02
-8.332270733565696474e-01
-1.838728904548018628e+00
-2.089694678823831531e+00
-1.154598091387386338e+00
1.103060989589928209e-01
6.003512763401719354e-01
2.399130925955257898e-01
-2.508437014039974766e-01
-3.776409820975688558e-01
-2.088435949633981603e-01
4.433340314008119010e-03
1.626852066266608055e-01
3.026246478448067490e-01
4.397935121783441148e-01
5.169980040291930479e-01
4.769770686145788918e-01
3.229379685925118371e-01
1.116310464845527983e-01
-7.312125655355718179e-02
-1.552434390062923386e-01
-1.096444280245630482e-01
3.163940900452158478e-02
2.135689380825215866e-01
3.798445092997640438e-01
4.724424250400126035e-01
4.437602227881564110e-01
2.889200694059341767e-01
6.664689112808769300e-02
-1.223384924388550565e-01
-1.944636998251022819e-01
-1.401784289459963306e-01
-3.336439886546732625e-02
3.120872907167095839e-02
3.154120234952530188e-02
3.173444486593852976e-02
8.038727552192026504e-02
1.308984897098408318e-01
1.010770375629853474e-01
-1.341505816039839302e-02
-1.249734314168805677e-01
-1.421527860685939393e-01
-4.324629178495940224e-02
1.248807357008483165e-01
2.908767478461508071e-01
4.008877426954149392e-01
4.273697846184487115e-01
3.440291078178411843e-01
1.312868992408600388e-01
-1.402881183225546391e-01
-2.663158454642815531e-01
-9.632682661675842639e-02
1.405516291373279658e-01
-1.214289735366572004e-01
-1.079214298666716809e+00
-1.978694343820932788e+00
-1.819248540598612296e+00
-7.099114882168127139e-01
1.938180374416079155e-01
1.946172049272855975e-01
-2.663008030470343512e-01
-4.688483062740786411e-01
-2.512852726992665375e-01
1.044895950082608271e-01
3.481092857379521344e-01
4.401803668868800035e-01
4.446838504697357974e-01
4.032184590465499596e-01
3.134047441259869560e-01
1.730715643413732185e-01
1.734906469152217717e-02
-8.586835981900334258e-02
-7.535768246058258124e-02
5.663611041200410784e-02
2.483054422342682865e-01
4.021073291490830370e-01
4.480727544024470377e-01
3.930224031139027407e-01
3.011525694256326768e-01
2.064181302333783219e-01
8.326124245704386029e-02
-5.439303041832768693e-02
-1.018890801926961021e-01
1.174198226876859048e-02
2.073456044381091767e-01
3.206951291011010396e-01
2.586366706063887300e-01
7.857540261134177140e-02
-8.013421811924312244e-02
-1.422533029974591967e-01
-1.531074444281562419e-01
-1.800143263045464737e-01
-1.995464419230068287e-01
-1.283160207901060668e-01
5.577517168548434823e-02
2.766661690280102781e-01
4.347562429228135628e-01
4.733784715012542832e-01
3.849653694145239169e-01
1.954809522496825658e-01
-4.534323088844330329e-02
-2.527236566128332473e-01
-2.910703276953776064e-01
-5.806185226419615514e-02
2.875598873152710455e-01
2.463584943703952812e-01
-5.349150789574569353e-01
-1.568648259565115888e+00
-1.820109403089487099e+00
-1.025750324382085577e+00
-1.199217061853741495e-01
3.019934828953416139e-02
-3.464451667130624690e-01
-5.007222528941079887e-01
-1.729889653199096489e-01
3.089399741175963832e-01
5.879544024125664681e-01
6.153375569271992696e-01
5.241458268230354545e-01
4.061997690710522635e-01
2.712538596699317628e-01
1.174243736273170025e-01
-2.211768178462495196e-02
-8.842062556806361273e-02
-4.109822856083970161e-02
1.064758151450400647e-01
2.898789612213881761e-01
4.245094518812279616e-01
4.462204459803419954e-01
3.422803110421784867e-01
1.571252108190310803e-01
-3.041405271080297248e-02
-1.513821861747898789e-01
-1.747840851507731774e-01
-8.927258359429077195e-02
1.065012436979537874e-01
3.497737566535980558e-01
4.878146346525784605e-01
3.951708343577852722e-01
1.211106332908453848e-01
-1.494781400312585884e-01
-2.817236972399948525e-01
-2.783118149072830727e-01
-1.979664267679549228e-01
-6.552513601774383190e-02
1.123695213822711453e-01
2.940398069528703529e-01
4.123428904497181691e-01
4.297232423897087150e-01
3.606283758244454574e-01
2.396488395145883465e-01
8.224207369886354924e-02
-1.055726389010462618e-01
-2.677821730601376293e-01
-2.691810523780997499e-01
2.003304985548140515e-03
4.109184064563179972e-01
4.858204516316521060e-01
-1.881036398259106068e-01
-1.297906837312899020e+00
-1.864091507301620210e+00
-1.371065108859167880e+00
-4.683557572129620761e-01
-7.801957091076627826e-02
-2.497287403048063792e-01
-3.801419925518501053e-01
-1.364772635363168396e-01
2.865333288594379968e-01
5.705046453886047919e-01
6.010662199226328717e-01
4.598255491375919379e-01
2.703150083965859540e-01
9.786349394341770092e-02
-3.257908728151229227e-02
-7.961173641954558122e-02
-6.849028724228030038e-03
1.535353074480299562e-01
3.220697777701703735e-01
4.453434123532731270e-01
4.981902902123112598e-01
4.486501446024830919e-01
2.852167896228264277e-01
6.478934720309173501e-02
-1.108037579957772967e-01
-1.706857470796133425e-01
-1.127103180915452196e-01
2.996659162121301234e-02
2.268204428222554137e-01
4.252817167905423301e-01
5.163736158740521720e-01
3.962184621431080189e-01
8.911839539046995107e-02
-2.344459818411471219e-01
-3.963751363869301714e-01
-3.456902844158493693e-01
-1.513610730447656760e-01
8.586149834954132087e-02
2.902671976755289429e-01
4.241372110409590279e-01
4.797545646174481981e-01
4.550330883165756846e-01
3.370367486247639599e-01
1.279862254022935686e-01
-1.058895100882915746e-01
-2.519850727825164727e-01
-2.482272920744332256e-01
-1.055979470913031293e-01
1.726201276458919354e-01
5.280200345083189140e-01
6.321544514776273882e-01
3.317069910282687689e-02
-1.159870371280789847e+00
-2.011674125829006954e+00
-1.731808705656961989e+00
-7.171614348236432512e-01
-1.131051605234922874e-02
2.556190393359660321e-02
-1.210317803448466289e-01
-1.135717760274360284e-02
2.820878634399600626e-01
4.770010411738394018e-01
4.502239224638037163e-01
2.738142163474380220e-01
7.205872110638751604e-02
-7.253540620944913531e-02
-1.212925241848414326e-01
-5.882193848382718387e-02
1.003218185226109477e-01
2.977161090770381047e-01
4.522340816723868229e-01
5.031729384894925161e-01
4.350238914775435006e-01
2.800160692769053106e-01
9.869831280841800947e-02
-5.810855944565820885e-02
-1.605608092039836898e-01
-1.766786684820704223e-01
-7.956798215712673761e-02
1.115636485804448186e-01
3.254650187322964405e-01
4.680686891712606545e-01
4.468754060426189390e-01
2.175535107830895987e-01
-1.477608381891186429e-01
-4.704745949672427541e-01
-5.884296338861513265e-01
-4.687675770040024004e-01
-1.976139023239167902e-01
1.083068588983044228e-01
3.564004155521690032e-01
4.832554505008060386e-01
4.629334195050148759e-01
3.187486185003534089e-01
1.099584466396576754e-01
-9.074348521944433643e-02
-2.168018362734341897e-01
-2.425289277784039577e-01
-1.973539850923847205e-01
-9.656668182678439238e-02
1.291522599088604784e-01
5.077984411961916633e-01
7.476848795016850513e-01
2.809045552528226519e-01
-1.045907032447181306e+00
-2.366951659647379191e+00
-2.489898112116582851e+00
-1.356874008185711133e+00
-1.311077878135560315e-01
3.127508334594516493e-01
2.168921784186687574e-01
1.839865417640838829e-01
3.496499450050671864e-01
4.812717842831864545e-01
4.245217673953048942e-01
2.352049608585230489e-01
4.346210806151590278e-02
-5.774977526770820602e-02
-2.686295504332302658e-02
1.254329276506918056e-01
3.316574017938090924e-01
4.993024604555036383e-01
5.629670129170074588e-01
5.102164602845515873e-01
3.701970453491678636e-01
1.873222013075848402e-01
9.040187945882648124e-03
-1.106481786286677566e-01
-1.214260240469227231e-01
-9.320965357679771718e-03
1.816558852589037487e-01
3.696599550370341936e-01
4.843070796856900895e-01
4.952659253662147210e-01
3.920347257002740338e-01
1.645941363938641377e-01
-1.545034722485846002e-01
-4.421871950427874731e-01
-5.431218578749635872e-01
-4.029398290130867255e-01
-1.141472211675217535e-01
1.779803830319958147e-01
3.777534356127990045e-01
4.469460435080540583e-01
3.774880419026346301e-01
1.979203390592070011e-01
-2.168496190322029976e-02
-1.963055269284670057e-01
-2.577143623456275012e-01
-1.858809270931714719e-01
-3.392456402421878403e-02
1.103215346911212980e-01
2.278980478523152109e-01
3.900303125594333231e-01
5.643980850874199540e-01
4.031224647025805630e-01
-4.983285435967916843e-01
-1.878248224350123508e+00
-2.666513085713643427e+00
-2.098854454557550042e+00
-7.310401606215481962e-01
2.431917383183912484e-01
3.899195863638472703e-01
1.827504847951012534e-01
9.852229567988739223e-02
1.400104658408657943e-01
1.151430015599439194e-01
-1.633903785594481572e-02
-1.340504825949281886e-01
-1.292217923473161223e-01
1.327983696104608445e-03
1.870824577339095796e-01
3.474811680019491145e-01
4.281684185551318800e-01
4.094334335936841707e-01
2.965703880385458513e-01
1.124968778063283326e-01
-9.067408194542064814e-02
-2.319485432286292892e-01
-2.480144869463292157e-01
-1.411711489910727479e-01
3.420617506119876666e-02
2.165102242991520931e-01
3.516829408225884412e-01
3.951214296977489382e-01
3.342736461406995430e-01
1.944271491756854320e-01
5.526104780812314543e-03
-2.025374201273218433e-01
-3.571215974312402230e-01
-3.570165493673366219e-01
-1.712942350973070960e-01
1.123111110990848149e-01
3.609544556363568080e-01
4.892873622436731962e-01
4.763058957880123012e-01
3.410739803346825028e-01
1.365315703474446474e-01
-4.720860143284255628e-02
-1.109706750906666317e-01
-1.719293529959320041e-02
1.630467241955072533e-01
3.069618595742245604e-01
3.517363941562360874e-01
3.424291150018219376e-01
3.839468695139752752e-01
4.960630157360226278e-01
4.259209055083753581e-01
-2.443475192980763822e-01
-1.464905068791038323e+00
-2.328147306582890597e+00
-1.929234023720974633e+00
-5.933430632279355077e-01
4.613555176008163894e-01
6.152488349024277658e-01
2.902365443427873948e-01
6.423546280836134326e-02
3.565690646692767224e-02
3.223173290197983709e-02
-2.351348215397838781e-02
-6.348928840490354608e-02
-5.897543135108243920e-03
1.568177419189444310e-01
3.641402200764006780e-01
5.311947633946171310e-01
5.879743593759401143e-01
5.104538018151556500e-01
3.315920381118305227e-01
1.173888544852182275e-01
-6.604097950972299957e-02
-1.596632048727446296e-01
-1.161136379102266358e-01
6.120446239306612246e-02
2.899103964546264067e-01
4.560844474153532002e-01
4.951482025964324407e-01
4.200300295446177667e-01
2.860953721324357435e-01
1.371215495731555045e-01
-1.940229340972471350e-02
-1.793860247349983728e-01
-2.911977898560507705e-01
-2.711898743206700990e-01
-8.914468699955058195e-02
1.804392924625630446e-01
4.038474181087191583e-01
4.743486193184542898e-01
3.682586265299193640e-01
1.524353206952518969e-01
-5.906274184302698349e-02
-1.769403145981314207e-01
-1.736784936207971530e-01
-6.015970930785940335e-02
1.353956453319274111e-01
3.405820944903363290e-01
4.379853294193167823e-01
3.724220636311347254e-01
2.565605509799717687e-01
2.457696589639258300e-01
2.168903334344954859e-01
-2.657542660350420971e-01
-1.333392192701207568e+00
-2.227132462719266570e+00
-1.944923758959933968e+00
-6.065690982834898159e-01
5.652332843569123355e-01
7.660947456519009435e-01
3.410749605697155351e-01
-3.243451167396724233e-02
-1.418003474660875785e-01
-1.286235843838782478e-01
-9.436871726397944027e-02
-1.014671365536095292e-02
1.573043683973939511e-01
3.670507890942454887e-01
5.341661711959551084e-01
5.910729251884814239e-01
5.209950345215965672e-01
3.557326370930369297e-01
1.524254722405101736e-01
-2.851072290170626050e-02
-1.326889969783709988e-01
-1.225865666183789948e-01
1.642962814931571425e-03
1.944318238345059957e-01
3.818884135906362998e-01
4.862956645036101144e-01
4.541662936063489697e-01
2.917994435157843514e-01
7.617300656868909725e-02
-9.556057827171805796e-02
-1.818544691760129173e-01
-2.125738854579624915e-01
-2.269726864707195535e-01
-2.125481821599886079e-01
-1.230795871305161021e-01
4.143819551479521746e-02
1.975984530592665989e-01
2.450936824701674399e-01
1.582586339262019859e-01
-3.962459977959000013e-03
-1.529372693082399481e-01
-2.141730397352337167e-01
-1.531486514051235426e-01
5.606115134297793429e-03
1.940000579449971119e-01
3.352781187006035335e-01
3.593385368079271558e-01
2.416309002698464048e-01
7.707366930765244262e-02
3.058444272700044930e-02
7.487059843605428644e-02
-1.677185757078345496e-01
-1.012894825609105265e+00
-2.020614275387563552e+00
-2.178636043653546572e+00
-1.158839592178454003e+00
1.061536402134059531e-01
5.535114095985067539e-01
1.791010633144887731e-01
-2.863201713880320076e-01
-3.671183748119841161e-01
-1.434605089737012451e-01
1.064928137641224237e-01
2.510120180260921874e-01
3.403589943650909277e-01
4.450915586186646178e-01
5.387905864699389369e-01
5.364029641456559139e-01
3.953719501701116745e-01
1.642310876214346238e-01
-4.667215352711705234e-02
-1.446422420753142313e-01
-1.143561101223249110e-01
2.809254591413060630e-03
1.640108510519016349e-01
3.329750163821571518e-01
4.590165934905801604e-01
4.868171127591602310e-01
3.908811857578619042e-01
1.983533972370875309e-01
-1.156131672496776494e-02
-1.382914125989372356e-01
-1.283696418390581906e-01
-3.564326632852812815e-02
2.113319800404779916e-02
-5.230110499034199868e-03
-3.649309573721228744e-02
5.476362829673670288e-03
7.663146464360799659e-02
7.630222966330824086e-02
-1.502884312193554159e-02
-1.199279476038462577e-01
-1.525774314714727353e-01
-8.622965514255379049e-02
4.769945391414540797e-02
1.985286272697348031e-01
3.272692640873153813e-01
4.021917161635862881e-01
3.793137308383259798e-01
2.260033757696833789e-01
-2.378626898668911860e-03
-1.344166883866754203e-01
-3.525888780824298213e-02
1.173905039331893246e-01
-1.702055274318924616e-01
-1.109443793713152049e+00
-2.028370186732553204e+00
-1.928790603647677626e+00
-8.175778044116263077e-01
1.948330366658574120e-01
3.173299389711015106e-01
-1.169851110030969837e-01
-3.863676683752323426e-01
-2.500012902914581781e-01
7.329891278102834695e-02
3.451506624155629144e-01
5.017686811979096273e-01
5.692401220085038238e-01
5.600058477683433900e-01
4.623664590630337523e-01
2.814326118491394801e-01
7.451684994312696153e-02
-6.507265887996402376e-02
-7.523025254953968899e-02
3.379109838284091033e-02
2.080608033504925125e-01
3.885787736171371631e-01
5.149495847622351796e-01
5.332335639106662306e-01
4.269402579086968297e-01
2.290705867220991232e-01
3.682692924008801327e-03
-1.717675756308957857e-01
-2.251309486293304185e-01
-1.292808475356638231e-01
6.206483059789880824e-02
2.309971935975446700e-01
2.750365003071224002e-01
1.864898940567962515e-01
4.035551036135617137e-02
-9.102235942338064711e-02
-1.763641117609031639e-01
-1.989493306861947475e-01
-1.512418894626057497e-01
-4.739248018075414848e-02
9.229517367898797120e-02
2.491698628770605550e-01
3.901311192421902940e-01
4.707944367245956441e-01
4.579832323747383138e-01
3.423404019961328593e-01
1.399596872508176715e-01
-1.007374877261516810e-01
-2.754520572800799871e-01
-2.391633879036735300e-01
2.937038307449522934e-02
2.080029466887518275e-01
-2.054550925720049215e-01
-1.199570105012541354e+00
-1.925093919358568995e+00
-1.609049750697370662e+00
-6.271420017491778909e-01
-1.876327736079014263e-02
-1.399736133797700177e-01
-4.459694981453382612e-01
-3.893599675914827807e-01
2.670282059461967852e-02
4.702639307792916834e-01
6.816963566209109926e-01
6.396695175292187452e-01
4.748362188159124253e-01
2.950442306458883057e-01
1.259757904181655896e-01
-1.659526081806415518e-02
-8.064918372615619002e-02
-2.132129336914331125e-02
1.431157537522617929e-01
3.324654835859413571e-01
4.591205889224023173e-01
4.815114636802532155e-01
4.118010065439127732e-01
2.852851682434260905e-01
1.317558118768785702e-01
-1.941934627258299489e-02
-1.163690991244332451e-01
-9.911320233276721403e-02
4.454421528443065770e-02
2.496532076092560781e-01
4.043237148010518367e-01
4.072268768574255349e-01
2.267803907419854437e-01
-6.357061568064277524e-02
-3.219703403065208303e-01
-4.328125339775908964e-01
-3.666382093955432020e-01
-1.686012686665585847e-01
7.443147450145987110e-02
2.727141133736782352e-01
3.846616696244740119e-01
4.223349905354139011e-01
3.964439161120322797e-01
2.950678100998613829e-01
1.268087690928920153e-01
-6.073868920120359394e-02
-2.149307420177017647e-01
-2.802926478099028174e-01
-1.630125645960826541e-01
1.877436664496312524e-01
5.383478238012859851e-01
3.383761280713867836e-01
-6.902359532472553960e-01
-1.877931473866778944e+00
-2.105076972753770370e+00
-1.215531261790855355e+00
-2.445163596354291702e-01
-3.389947276546914634e-03
-2.148916279684247033e-01
-2.413938515563151532e-01
5.335127518059072649e-02
3.851615770258425275e-01
5.258984746388805087e-01
4.741054980532554697e-01
3.287199496359715090e-01
1.617498732922017513e-01
1.387338290050235678e-02
-6.615924467527406483e-02
-3.761057002322273912e-02
8.455599835718682900e-02
2.365768915231568070e-01
3.607882038068053188e-01
4.260762400262228522e-01
4.064163038948694906e-01
2.876058732236236315e-01
1.033699070923957547e-01
-7.031390098601353333e-02
-1.655136285914555749e-01
-1.558253135917571919e-01
-5.336584109578398905e-02
1.102732657588818554e-01
2.940347281677894165e-01
4.326130699131765511e-01
4.319805551889696060e-01
2.326609129773937745e-01
-9.878669731287796629e-02
-3.797698409127148733e-01
-4.529174174878076720e-01
-3.112635696053317469e-01
-7.048763149479672641e-02
1.585322284980430763e-01
3.361701177675783803e-01
4.502855029423218358e-01
4.690211328594816043e-01
3.711813073094812343e-01
1.923014003156817697e-01
4.680654413772238065e-03
-1.367443434417744685e-01
-2.092131680656628689e-01
-1.900280525742502336e-01
-2.518063620459569732e-02
3.166001051236729813e-01
6.563420390265204407e-01
5.180630633076873659e-01
-4.292000238238106724e-01
-1.674301504597201840e+00
-2.105767005033133188e+00
-1.341298307935127720e+00
-2.675915216264869723e-01
1.533092243182052061e-01
-1.293923322300245815e-02
-1.269702106836636535e-01
7.680504260554978091e-02
3.693623535135661107e-01
4.854525425341345013e-01
3.897179054540003129e-01
1.971195054105420730e-01
2.455238820991649529e-02
-5.941061221269721554e-02
-2.926677115259295608e-02
1.010706700398887603e-01
2.856637176721256166e-01
4.631212917057199174e-01
5.736098487493969111e-01
5.735007750626228695e-01
4.488298395912239114e-01
2.312073586131979663e-01
5.242613146464025070e-03
-1.249531269907424441e-01
-1.068334375748108689e-01
2.364425617427661289e-02
1.874542031591765190e-01
3.295882395909808249e-01
4.272944748391662717e-01
4.538838056814923916e-01
3.612083459512194228e-01
1.178102895246981724e-01
-2.160591013667472193e-01
-4.773246265346394734e-01
-5.185356776787098942e-01
-3.314895148448677720e-01
-2.358834027212460688e-02
2.841431469191508796e-01
4.938307858077493617e-01
5.344944838669863918e-01
4.047506843451718073e-01
1.831458309067774959e-01
-3.735401772579438617e-02
-1.956479243261138867e-01
-2.583642982020967205e-01
-2.304854569994533586e-01
-1.483649764166680429e-01
-3.412818002389864103e-03
2.670738931352175105e-01
5.822409154800067821e-01
5.399754387370614417e-01
-2.740212875495243727e-01
-1.581093555549314189e+00
-2.341001853670662936e+00
-1.864837987777894002e+00
-7.105789360167343860e-01
7.049280708204586077e-02
2.067228721010785641e-01
1.674393056686875048e-01
2.688690780840178318e-01
3.884919513419783366e-01
3.457282857513599428e-01
1.578052473269028200e-01
-4.447303475773090042e-02
-1.564047352493797283e-01
-1.390286344285231734e-01
-9.160666852307543587e-03
1.753106838235156673e-01
3.438353798016832719e-01
4.467083024932773094e-01
4.650638711029931316e-01
3.965924519689420502e-01
2.462479548637329096e-01
4.219787343966818760e-02
-1.458236034117923186e-01
-2.278223983552801479e-01
-1.514928242396408054e-01
5.265199927309412165e-02
2.825972363343641214e-01
4.363129974229698615e-01
4.856222174284821058e-01
4.651367366166668238e-01
3.807131912942127716e-01
1.800053547182300095e-01
-1.340538176608613019e-01
-4.126307645739361596e-01
-4.706515530443911577e-01
-2.685848453816767067e-01
6.909985849359877308e-02
3.793683126282216267e-01
5.513908157886449057e-01
5.350111483716430971e-01
3.421741296162508217e-01
6.225786377004714767e-02
-1.616641524711575351e-01
-2.143084116120288762e-01
-9.344988532616235744e-02
8.498986226272645106e-02
1.979783701110736649e-01
2.468070622994978092e-01
3.521773737920360636e-01
5.702202202385147078e-01
6.652502685201007182e-01
1.559349095245444461e-01
-1.115893874175016176e+00
-2.405221365246628551e+00
-2.573230515845529975e+00
-1.452473146571451768e+00
-1.182904403841028018e-01
4.601251071829700612e-01
3.759100202084415532e-01
2.166755676693679633e-01
2.142224328523551491e-01
2.144214489371716603e-01
9.071567944154326768e-02
-7.853870181711025689e-02
-1.423735730959697632e-01
-3.905895844029129427e-02
1.773290756265452905e-01
4.029165797048674391e-01
5.495862163467760686e-01
5.727081709664776366e-01
4.697160079788994524e-01
2.728545537859954351e-01
4.611214782108727372e-02
-1.306563181702358467e-01
-1.981350369221805963e-01
-1.441150965032454712e-01
4.114317622565560884e-03
1.990709436704306001e-01
3.788803898852607377e-01
4.748942355602512322e-01
4.391173703030964992e-01
2.753098498112447334e-01
4.346575918179301778e-02
-1.721302461161212660e-01
-3.050803596850987787e-01
-3.263725496267664283e-01
-2.396694994701024095e-01
-7.119772625207261563e-02
1.323869339833951553e-01
3.063790699158198128e-01
3.899424022790171640e-01
3.548448940552895725e-01
2.147291328373884256e-01
2.178129377239978320e-02
-1.429637441474259640e-01
-1.964139825059669220e-01
-9.129480979225682025e-02
1.435171981156843635e-01
3.828727401911343753e-01
4.729954081159520318e-01
3.854680725017800569e-01
2.802672594131369599e-01
3.018626196019395524e-01
2.553102210298779373e-01
-3.356317320486209566e-01
-1.538542431897026441e+00
-2.490502105600783889e+00
-2.174505746304456366e+00
-7.855168648160236744e-01
4.063702544880056222e-01
6.190986986011309812e-01
2.251918115073034687e-01
-1.057866554462839614e-01
-1.811956586133370850e-01
-1.479132448951402112e-01
-1.071808381876616784e-01
-4.581634889050804210e-02
5.998117101213074759e-02
2.069355879178863822e-01
3.642401041329825784e-01
4.650722367440733862e-01
4.444440562843061659e-01
2.979208928230369091e-01
8.634709188927380819e-02
-1.007211326523670680e-01
-1.855789673974660714e-01
-1.421673184058857009e-01
-8.312549018105661741e-03
1.573699792692382360e-01
3.278930802868851857e-01
4.917595192030528306e-01
5.877238371984957466e-01
5.187171765343022711e-01
2.773646024040650193e-01
-1.108472250255079783e-03
-1.780752705610833819e-01
-2.487143494425236301e-01
-2.743850177092702625e-01
-2.453718920701498385e-01
-1.044569930893792242e-01
1.257581246159356347e-01
3.242771828050204919e-01
3.776958722157002790e-01
2.605326593878405927e-01
3.387155658643192790e-02
-1.872991597236957906e-01
-2.863185170126806289e-01
-2.153353641722287326e-01
-1.905553123936385568e-02
2.120695374534996014e-01
3.826250022205376911e-01
4.049285440402111136e-01
2.637100162307428608e-01
9.874037600716890906e-02
9.692457049144428960e-02
1.687049791536911203e-01
-1.477863783863124225e-01
-1.116634455313674890e+00
-2.113470750968869272e+00
-2.074709444474278186e+00
-8.896552814366838202e-01
3.210780546163040094e-01
6.136890049485941301e-01
1.986008469309867019e-01
-2.029814589542433545e-01
-2.809633369632789646e-01
-1.718271821869846727e-01
-4.265460216708846092e-02
8.342037647193079053e-02
2.346953685347637764e-01
3.958284687703677029e-01
5.117377502844883130e-01
5.327149386603207137e-01
4.435809923608168837e-01
2.700050986704076728e-01
7.162649889689895466e-02
-7.560647579892408598e-02
-1.100991470511631237e-01
-1.815418648500460516e-02
1.561746391105226228e-01
3.366165812465094498e-01
4.533378236450222865e-01
4.651493285677830158e-01
3.630637928593409280e-01
1.759185075208947735e-01
-2.510613719582762554e-02
-1.550393264875029875e-01
-1.723951343999555186e-01
-1.086388482820024870e-01
-3.134779456893030392e-02
2.616239277007536071e-02
8.711837628365547148e-02
1.707070502196313677e-01
2.343580837481470669e-01
2.132651108863310996e-01
1.033813317149322730e-01
-2.491474881496833285e-02
-8.574485174516634223e-02
-3.608790320436278121e-02
1.089028128664631806e-01
2.961821939671907544e-01
4.599719765686882678e-01
5.315975461316503337e-01
4.521036454115476277e-01
2.259626879791070686e-01
-1.116521887993813730e-02
-5.307280768052072967e-02
1.089428146702952765e-01
9.014149431012537239e-02
-5.351934601991533702e-01
-1.501513147116785074e+00
-1.846212701105820031e+00
-1.068386996607054718e+00
9.003299850351242917e-02
5.575564960005151560e-01
2.109296710374308215e-01
-2.734885614702299295e-01
-4.086418175901740391e-01
-2.438538509419513056e-01
-2.799273420407703133e-03
2.151058268979305077e-01
4.054015039070245630e-01
5.453939948581223440e-01
5.823337098751432128e-01
4.879265316741294156e-01
2.907181175754208757e-01
6.646631449376941281e-02
-9.541837523461028925e-02
-1.345174106277051973e-01
-4.520306577136928849e-02
1.305647825983142218e-01
3.235201002782173152e-01
4.582663064855954094e-01
4.843331328591481411e-01
3.993711771549282030e-01
2.391593210053639673e-01
5.514393017094348926e-02
-9.057235599449849073e-02
-1.333785468364563631e-01
-4.994119693528034643e-02
9.975000553784722779e-02
2.079358494832419246e-01
2.151445919506753957e-01
1.498172637183806388e-01
6.678414088556561268e-02
-1.477378299404848855e-02
-9.509528005691397778e-02
-1.562763680373779884e-01
-1.681870852529163407e-01
-1.132176628226947007e-01
4.254351426741406067e-03
1.575671332548304604e-01
3.017468040213439617e-01
3.863119080006693906e-01
3.684210944678657507e-01
2.228773819452278815e-01
-2.945364691877984040e-02
-2.737482070714924998e-01
-3.144064183490069553e-01
-6.123376565591881482e-02
2.015528605095751047e-01
-9.389632281075036002e-02
-1.090398100173926466e+00
-1.977242711101877770e+00
-1.767181646718855914e+00
-6.367554620782867048e-01
2.373327831872883986e-01
2.059327570969260168e-01
-2.584308992105299740e-01
-4.570054314696293529e-01
-2.424425647421143415e-01
1.267414524922982622e-01
4.199976074419606853e-01
5.769541920911234190e-01
6.108041280808984563e-01
5.259804108268841816e-01
3.366938852643115432e-01
1.069085380239410688e-01
-6.634207616641303595e-02
-1.142255437929974859e-01
-4.336432985059009149e-02
7.321771833076931579e-02
1.646710034381108911e-01
2.248113837746564536e-01
2.825282107670011866e-01
3.211501998074271502e-01
2.749941570343610309e-01
1.145373171551407054e-01
-9.158747762342554777e-02
-2.162369903818170680e-01
-1.769147985628296560e-01
1.543505387817393354e-03
2.090227646089911628e-01
3.187399324034776438e-01
2.640219280207549701e-01
8.487208398336938686e-02
-1.084036616765649830e-01
-2.309584739932348807e-01
-2.692366100374041782e-01
-2.382291100341005219e-01
-1.377290528167011974e-01
2.840692840734254654e-02
2.186906132116460399e-01
3.685946805695565764e-01
4.361426148832386884e-01
4.196970806527691722e-01
3.332619078329402407e-01
1.837858452041475354e-01
-1.642907891105903004e-02
-2.170970233919091719e-01
-3.034943633074774771e-01
-1.342783013799555558e-01
2.670173367651599294e-01
4.961067523322061357e-01
-4.952082270487566384e-03
-1.184698652771111860e+00
-2.081855134060687007e+00
-1.835718006883070963e+00
-8.139374198888305045e-01
-1.025701187954795313e-01
-1.066823215787929269e-01
-3.131172515881788798e-01
-2.090902246169998036e-01
1.637837314923271670e-01
4.823584219574550414e-01
5.608498672777560978e-01
4.428270079544898152e-01
2.592889486683053191e-01
9.436187315460860259e-02
-3.173162134962403957e-02
-1.031302601262704954e-01
-7.230955490300547406e-02
9.989066747188905804e-02
3.674473247202046378e-01
5.911078189994322107e-01
6.471434238925127813e-01
5.285619049273542203e-01
3.148158817395512732e-01
8.825429049045345475e-02
-9.246898717067268680e-02
-1.880754126398600234e-01
-1.845142732358098780e-01
-8.786734054044537112e-02
8.823565286345141923e-02
2.965865761768317621e-01
4.219913906274518900e-01
3.437216220854421023e-01
6.607037930408318771e-02
-2.608076842071929691e-01
-4.712906635471628691e-01
-4.970406565274467781e-01
-3.584561344191099508e-01
-1.157804250883323338e-01
1.492790933066323600e-01
3.514081377080139346e-01
4.361634372310196905e-01
4.053780239618098302e-01
3.145561178214377751e-01
2.289732372996916843e-01
1.580508498025973152e-01
5.152762415193192641e-02
-1.080322473043797693e-01
-2.277196772559477445e-01
-1.484006261984069097e-01
2.013253426089750553e-01
5.992480068466921050e-01
5.011993104578760239e-01
-4.479539052579019076e-01
-1.706932170506002544e+00
-2.136354211565949512e+00
-1.367329478068254556e+00
-3.048693552208854296e-01
1.045240547498248740e-01
-5.108066667424258911e-02
-1.343414428015536344e-01
1.072688333016112022e-01
4.331906123072091219e-01
5.606211805126004588e-01
4.407095541077744039e-01
2.074642277344798391e-01
2.512215607924793426e-02
-1.053955498497708733e-02
9.454551024661765612e-02
2.545572890550175105e-01
3.810654241913853379e-01
4.512318261091863847e-01
4.841724541234990187e-01
4.727518332891303965e-01
3.830290147174994497e-01
2.116561832445714719e-01
8.370957035716431599e-03
-1.518592009206676530e-01
-2.012056053134088363e-01
-1.101573989680099536e-01
8.316878179502604218e-02
2.868026003393640000e-01
4.134587717516657324e-01
4.200636296456983776e-01
2.983368726406474547e-01
6.318583647236231116e-02
-2.219620209865811600e-01
-4.323236188936325775e-01
-4.513469759977576934e-01
-2.692050244233387679e-01
1.603104192176357801e-02
2.878126279472485449e-01
4.704153458309054403e-01
5.258216676607305740e-01
4.456015459596284756e-01
2.581428860831088135e-01
3.205054343076852580e-02
-1.433631667750734640e-01
-2.035121754117324155e-01
-1.487280998460776826e-01
-3.151932698450890524e-02
1.223389243331724219e-01
3.597186251953624625e-01
6.519626528944323374e-01
6.649407750800053751e-01
-5.927604655504278841e-02
-1.389530692061115458e+00
-2.323970284857214796e+00
-1.989990025827936160e+00
-7.801018728918079903e-01
1.501129687210246144e-01
3.128951982409581833e-01
1.552207550970806649e-01
1.544461675509761212e-01
2.945580036222752995e-01
3.476792101213799224e-01
2.368897556573199559e-01
5.990509165392490093e-02
-5.778617223847576367e-02
-5.417838255808825332e-02
6.521694194518000420e-02
2.536319490928287679e-01
4.445655800993373874e-01
5.708631889850502850e-01
5.906324667572017129e-01
5.054094764785901361e-01
3.512486987482038026e-01
1.721889697721882551e-01
9.703261407604225897e-03
-8.247798130377458070e-02
-4.778136583336993481e-02
1.144206244591351729e-01
3.157786458812835151e-01
4.388661702805893294e-01
4.360520848770815805e-01
3.488772408244280587e-01
2.191566283236080492e-01
2.767952337634316251e-02
-2.279114677746847673e-01
-4.402417166079521382e-01
-4.583843824333296846e-01
-2.423468185549973453e-01
9.454655958217206280e-02
3.853467382367520289e-01
5.185380067941929294e-01
4.727882340058778277e-01
2.948639036397506241e-01
6.308706525045475189e-02
-1.385206821743688588e-01
-2.403717861882397888e-01
-2.143533473839477066e-01
-9.123553688548902141e-02
6.095607174511004367e-02
1.989241157499778978e-01
3.511652569735056462e-01
5.353391002197686044e-01
5.385855183195948914e-01
-7.929354300911214959e-02
-1.394593331980945816e+00
-2.556793089271262698e+00
-2.457229549859373918e+00
-1.149864363973826853e+00
1.080513092525768881e-01
4.160787888116504463e-01
8.940865215260521137e-02
-1.404594867481756548e-01
-6.838434305881505026e-02
3.741815174387898985e-02
-2.249475016456263521e-02
-1.659218921032945548e-01
-2.185159634106802473e-01
-1.171322675689077386e-01
8.011124996598918691e-02
2.852502620754582274e-01
4.359429233321795438e-01
4.925655953152190403e-01
4.308617338116226270e-01
2.588942430372107584e-01
3.401479798402418098e-02
-1.509999529717994948e-01
-2.136909901191402505e-01
-1.304108953454123365e-01
5.366676654265544605e-02
2.618638532520213280e-01
4.277179603201335389e-01
5.081717059987251872e-01
4.842805193730085334e-01
3.621132070593004459e-01
1.625395367530769741e-01
-8.713665308861372194e-02
-3.325455572035080354e-01
-4.710262339227010431e-01
-3.973830633078336838e-01
-1.115428731395092521e-01
2.229298109333091027e-01
3.750729842766551969e-01
2.561761850697026333e-01
1.560044150478871045e-02
-1.377067202517149591e-01
-1.625801567819850635e-01
-1.486583503302978393e-01
-1.311461624489156930e-01
-5.560298771903229159e-02
1.074041222365836323e-01
2.876831971959548651e-01
3.780653367079468974e-01
3.723610278932501516e-01
3.876331897626500433e-01
4.377627856854595656e-01
2.011792993919444827e-01
-6.953142082646343036e-01
-1.947575770945145113e+00
-2.504058606258432906e+00
-1.720296593000419261e+00
-2.688929372341659629e-01
6.534259606036777468e-01
6.814119265795016700e-01
3.403990605449448426e-01
1.422318542510867534e-01
1.291701246815874504e-01
1.263039032603104905e-01
7.323193669619548762e-02
5.568387166418019285e-02
1.459700391555486532e-01
3.129162952619829463e-01
4.717045917313836823e-01
5.532997904093321928e-01
5.234925942968402524e-01
3.854048093779690043e-01
1.846259065874191196e-01
-3.708921909297530073e-03
-1.086213328826976798e-01
-9.418268649733542441e-02
2.677764048584262840e-02
1.997140098704425770e-01
3.584992419703483257e-01
4.608939805032842285e-01
4.929245999276406498e-01
4.393265224235651245e-01
2.850392946377187098e-01
7.248534830844440002e-02
-9.802152778744739614e-02
-1.677765333915877677e-01
-1.576300435012984169e-01
-8.901693168381881460e-02
4.530526175335564121e-02
2.161354656320401968e-01
3.388520320794611296e-01
3.412882740850037289e-01
2.229715322051096793e-01
4.729105339966481469e-02
-1.013501936394483466e-01
-1.481873114648735168e-01
-5.296084194017658398e-02
1.564641041564043544e-01
3.820821271119183016e-01
5.102842490954275778e-01
4.767643383970729398e-01
3.126034820385844570e-01
1.613841676401792102e-01
1.672625342947312022e-01
2.074636601800073366e-01
-1.733561712416171463e-01
-1.209464589053174333e+00
-2.242423060839725757e+00
-2.184809364955040856e+00
-9.342430615303720653e-01
3.470353371989230995e-01
6.722626376293081574e-01
2.405316100148757186e-01
-2.015586792059651799e-01
-3.092005238565090353e-01
-2.061780279029546969e-01
-6.956953916456656839e-02
6.493630248856438469e-02
2.190025998673056085e-01
3.710453609752596416e-01
4.611793237164680259e-01
4.451326176131882861e-01
3.244419125506246004e-01
1.437944841208800006e-01
-3.056596427596731252e-02
-1.425971809726635509e-01
-1.659742143032341688e-01
-9.651202964492967828e-02
5.529417500896298410e-02
2.488266345180764616e-01
4.070971986527219810e-01
4.499145187713525784e-01
3.413775904325171417e-01
1.187560626233997302e-01
-1.135134518228639727e-01
-2.447882541791615574e-01
-2.471334853902114048e-01
-1.934769690756090177e-01
-1.635663762542731159e-01
-1.476678717843968036e-01
-7.565035218258595040e-02
6.762607145755238081e-02
1.982962512242117392e-01
2.153166134474986948e-01
9.837840867186364857e-02
-7.959632210421410670e-02
-2.111270174272349143e-01
-2.220942925997824446e-01
-1.053315211951847408e-01
8.886695256755262895e-02
2.784974549112750886e-01
3.726004810768213660e-01
3.057222740647181913e-01
9.678435124782047705e-02
-1.082370289688153742e-01
-1.231373905296681281e-01
1.977695851193828416e-02
-7.698830781231501275e-02
-7.726506141750254519e-01
-1.689690859707855264e+00
-1.858303989872387207e+00
-9.398862977951920605e-01
1.885885756600166052e-01
5.261608842776258621e-01
9.693125068476776685e-02
-3.823244126647105112e-01
-4.673763982990397636e-01
-2.497309860100619394e-01
1.838706382756587904e-02
2.255837731220739217e-01
3.804362312938252000e-01
4.804384714953075508e-01
4.836008434129459022e-01
3.740150061751109645e-01
1.979132595440090958e-01
2.789292472501938430e-02
-8.132629483384844205e-02
-1.033951562429049897e-01
-3.661030402796179584e-02
1.023192419948029536e-01
2.839949792934092776e-01
4.553881338870203188e-01
5.375807765887298251e-01
4.699967685945570239e-01
2.621297389836059200e-01
-1.651222551870692307e-03
-2.010636403511988357e-01
-2.438026635228292827e-01
-1.258854943107592939e-01
5.974063219278913373e-02
1.848404220383814134e-01
1.808681673983181248e-01
9.478560722373785552e-02
4.555221385242651244e-02
1.046505835425632358e-01
2.188375111206887214e-01
2.730024666990054083e-01
