-4.302279569603868481e+00
-1.411214757678428189e+00
2.011015038485167494e+00
4.762052827741758421e+00
5.841089974707572630e+00
4.812058485231133886e+00
1.999903603886002301e+00
-1.568883333824127480e+00
-4.524728742147365423e+00
-5.724761718707684466e+00
-4.733470751668098941e+00
-1.952646552437109717e+00
1.587062910796739557e+00
4.619521000568560076e+00
6.073934576667026519e+00
5.408904468669386567e+00
2.802069089589019679e+00
-8.230497449188066694e-01
-4.077938000659571571e+00
-5.717551967965827764e+00
-5.191658705413533248e+00
-2.771871500679507605e+00
6.553282162301199421e-01
3.901806593102996601e+00
5.854073602768409046e+00
5.840887808610218279e+00
3.807679865299930633e+00
2.731019651048708918e-01
-3.738578289015094036e+00
-6.755382774128558587e+00
-7.294549640165894466e+00
-4.854068155349200886e+00
-5.649324998200431214e-01
3.512414988829949181e+00
5.800721354489215997e+00
5.824271257706471694e+00
3.877894764976357322e+00
6.682308251171698021e-01
-2.757076102878650126e+00
-5.185278562579116901e+00
-5.693973762781329384e+00
-4.078819074428844615e+00
-9.312361580978254505e-01
2.619469836207031221e+00
5.316031707248894733e+00
6.201904993343139161e+00
4.950364456370830446e+00
1.988173246105751746e+00
-1.626321684387904032e+00
-4.565659250431147953e+00
-5.741574487888004619e+00
-4.731995681774991525e+00
-1.926022852191137558e+00
1.635752731890670386e+00
4.639127280196650105e+00
5.973187967287369560e+00
5.137950698074270406e+00
2.421764636334269305e+00
-1.206681543073063079e+00
-4.438017512608447568e+00
-6.088265618546601310e+00
-5.546550759162920841e+00
-3.021307280179259092e+00
5.449329144004000369e-01
3.858923554413714818e+00
5.761250589397241662e+00
5.594217356824235488e+00
3.389422697549886454e+00
-9.770127439520848167e-02
-3.588211455397789518e+00
-5.770838147314408140e+00
-5.848218292744808089e+00
-3.818542355451291392e+00
-4.318359711163244907e-01
3.085544132185882304e+00
5.459455812243025896e+00
5.819638436179520369e+00
4.014420790898780567e+00
6.879325775424088851e-01
-2.922815479543484418e+00
-5.435424885843476162e+00
-5.867938725692682489e+00
-4.071157191518686602e+00
-8.585778559025076806e-01
2.316933392997192698e+00
4.163550186541296938e+00
4.313269001889325160e+00
3.180389385506508848e+00
1.124111448540239921e+00
-1.686263279399563553e+00
-4.527107405223246950e+00
-6.036318578979794403e+00
-5.240048881993634389e+00
-2.355305274609134081e+00
1.417825158731985669e+00
4.601509010237735176e+00
6.044937820467849221e+00
5.270574073629288314e+00
2.588797995960460785e+00
-9.886109513605636501e-01
-4.084745796378910221e+00
-5.522489474533067266e+00
-4.816058862333576052e+00
-2.283664280427659232e+00
1.159317306005482218e+00
4.311103873240400119e+00
6.035153881654793828e+00
5.638709563230709598e+00
3.180158695156509285e+00
-4.507192322832037634e-01
-3.843568856651002008e+00
-5.709903438646935392e+00
-5.440228367644096785e+00
-3.237168229738690783e+00
7.265265563997591602e-02
3.327507302078844376e+00
5.383979312664004091e+00
5.499999432361682317e+00
3.609389568933107029e+00
3.813635357640745016e-01
-2.991514866102221948e+00
-5.255808385165597230e+00
-5.590042241861067573e+00
-3.871946322751647074e+00
-6.906688996370126121e-01
2.829862371946586297e+00
5.403332921193872984e+00
6.064352945513483029e+00
4.541154024995375238e+00
1.377572386003977467e+00
-2.236776828517176074e+00
-4.934191147294070490e+00
-5.743098095209362874e+00
-4.433276146928186279e+00
-1.512789178173081339e+00
1.986868919057624749e+00
4.827181509103756873e+00
5.968107684134505320e+00
4.977792579417839036e+00
2.221703964735452175e+00
-1.355462906859309813e+00
-4.690524404930327407e+00
-6.813234135004887726e+00
-6.786936538268828478e+00
-4.129119713035002803e+00
3.041456691814083402e-01
4.402180536821811430e+00
6.270326424716144764e+00
5.418106692217125264e+00
2.585742880365657470e+00
-9.919582304765791614e-01
-4.065050473550870791e+00
-5.653223606237441246e+00
-5.274247255887419605e+00
-3.052816163235361202e+00
3.012929299313249487e-01
3.653365914714117313e+00
5.789195811864846775e+00
5.876303378929512711e+00
3.841246481215732533e+00
4.541497466255750015e-01
-2.982461079915056601e+00
-5.196859281368221950e+00
-5.432094885225477121e+00
-3.647663601153089186e+00
-4.802163809077917289e-01
2.953691406349576720e+00
5.400502191555138332e+00
5.911974602345390295e+00
4.238664020841181213e+00
9.760776461778444268e-01
-2.658877028201938053e+00
-5.325950824951435791e+00
-6.073852104169865207e+00
-4.655944030049294469e+00
-1.584111476776177918e+00
2.047828134046295823e+00
4.922312939124579678e+00
5.975916246741734383e+00
4.832167147178110689e+00
1.955227659128992990e+00
-1.563097276418271786e+00
-4.440353866123969873e+00
-5.656677196779833494e+00
-4.786638668070816394e+00
-2.136506848160903971e+00
1.345721069254414592e+00
4.390262303895951845e+00
5.878019845762192830e+00
5.267114376793784913e+00
2.787094184869101543e+00
-6.540463225956861804e-01
-3.808320718632971058e+00
-5.541809763200437722e+00
-5.210391482624730841e+00
-2.864539805192618971e+00
6.714713137293528700e-01
3.926883735291598398e+00
5.376323919912658233e+00
4.390077106624636905e+00
1.703257478227894417e+00
-1.286202882799093228e+00
-3.637908738068172276e+00
-5.031650614286665935e+00
-5.156162308595195753e+00
-3.640129465986509327e+00
-6.639947317513407166e-01
2.754553709040323817e+00
5.229926403457659134e+00
5.748867358942776562e+00
4.114925805989313012e+00
9.586016480388328542e-01
-2.522234718866382508e+00
-4.992675632344191428e+00
-5.520309211919380843e+00
-3.947362968771005232e+00
-8.769895922443025071e-01
2.594890709176148835e+00
5.239845533412960776e+00
6.116039210696598616e+00
4.909560866476295082e+00
2.037043868390048473e+00
-1.484036042829217195e+00
-4.362062158086213337e+00
-5.524049203523900609e+00
-4.567234179010718265e+00
-1.905314868015770990e+00
1.434288178507647116e+00
4.216471261845564200e+00
5.438704649906454414e+00
4.662724262723273227e+00
2.150964310153615777e+00
-1.217942315887102778e+00
-4.251259437558391419e+00
-5.865892236610598331e+00
-5.451497895857078113e+00
-3.089638788156328530e+00
3.965829738858030473e-01
3.699670613315273027e+00
5.585974075115036186e+00
5.400873153596577936e+00
3.244855479234773021e+00
-9.741094173514791565e-02
-3.390446666666365072e+00
-5.392828878091500577e+00
-5.370128931117895021e+00
-3.363636177851012654e+00
-1.133001370971812305e-01
3.224876902154541813e+00
5.449024298218670737e+00
5.731173392474432582e+00
3.974603606914278053e+00
8.768889847533476445e-01
-2.437741220771920680e+00
-4.973511663620207024e+00
-6.101286993859034169e+00
-5.391743898667271218e+00
-2.681265495469165927e+00
1.324871536778631009e+00
4.872976884207382398e+00
6.197182570760565667e+00
4.775995384431799273e+00
1.470801033999822538e+00
-2.231993108132939163e+00
-4.947470201362506259e+00
-5.797018138776652840e+00
-4.585523887555293499e+00
-1.777622378135006675e+00
1.671920940327382921e+00
4.574110910232909610e+00
5.874617876250605164e+00
5.073876604577425731e+00
2.464235616415057617e+00
-9.778734670076951740e-01
-3.979352493060148266e+00
-5.451365793826466799e+00
-4.865772062382319518e+00
-2.415848345392577201e+00
1.029713314223108966e+00
4.196597351556546229e+00
5.898320072375607737e+00
5.518023453876301332e+00
3.203260499777812687e+00
-2.282656745810980325e-01
-3.563907936087622019e+00
-5.609373553120552636e+00
-5.623811740356099875e+00
-3.594522495719036037e+00
-2.558681699423338562e-01
3.163220622632718193e+00
5.398232606867882311e+00
5.622154897010177343e+00
3.740643596847464281e+00
4.437892551851365663e-01
-3.015385294817245043e+00
-5.317708335435116673e+00
-5.638519416116728245e+00
-3.933872906378847567e+00
-8.573954313755070000e-01
2.508181043213525641e+00
4.974573729879458561e+00
5.637184079009614379e+00
4.241221520879252083e+00
1.306915000112989222e+00
-2.077810610889305298e+00
-4.681278048304502448e+00
-5.575194665629978452e+00
-4.426341606492570691e+00
-1.576410091120673096e+00
1.998448311901131369e+00
4.864430393030746202e+00
5.660947440371721484e+00
3.938052578508820289e+00
6.080433773503273187e-01
-2.682471698678326355e+00
-4.754864702433108548e+00
-5.326958673387963472e+00
-4.475109207652766763e+00
-2.295085481183707810e+00
7.782000042347704261e-01
3.752108105454208253e+00
5.453236062374871906e+00
5.141146041637911779e+00
2.877015795160575262e+00
-4.829745371692472089e-01
-3.630454574965298775e+00
-5.365698141067391624e+00
-5.078488007948945615e+00
-2.906521333133992968e+00
3.698505994510162820e-01
3.578231828802887815e+00
5.550005258428800659e+00
5.562710883736038170e+00
3.610599375503339203e+00
3.998913485489360431e-01
-2.901461239017332439e+00
-5.083997501838546818e+00
-5.345166364090188083e+00
-3.590373970916327373e+00
-4.776703027989941952e-01
2.819679449252451509e+00
5.072459859134140103e+00
5.476627818139048642e+00
3.918939926540553564e+00
9.655621035165415922e-01
-2.337427862444304338e+00
-4.795274782670437830e+00
-5.492074574557874733e+00
-4.161723496097767594e+00
-1.295210490167595818e+00
2.064336625427715344e+00
4.711564837947123330e+00
5.698042593405578060e+00
4.658139081575642493e+00
1.951283428027438260e+00
-1.436156091771172871e+00
-4.245279265991878326e+00
-5.447845030009641043e+00
-4.640775846404983973e+00
-2.143513737452173107e+00
1.156513867864029654e+00
4.094404489029849437e+00
5.600968665705371663e+00
5.088993570263701471e+00
2.726414973754771598e+00
-5.798290862353236985e-01
-3.614359273541595474e+00
-5.456231834167677874e+00
-5.691351455902617928e+00
-4.165080725909645842e+00
-1.008255920577650677e+00
2.821827144916128738e+00
5.547787636328793681e+00
5.731920021861377279e+00
3.366723671978476773e+00
-2.987472448872459108e-01
-3.686417104494072117e+00
-5.587048672917630299e+00
-5.449917693014347364e+00
-3.440855136394162628e+00
-3.054732399164148404e-01
2.906461888791445070e+00
5.136043595941668372e+00
5.599990700153191447e+00
4.073032865996812468e+00
1.057747200798594855e+00
-2.330561568326654953e+00
-4.792897102728000291e+00
-5.389998341666069059e+00
-3.917527261988470233e+00
-9.576503666051227048e-01
2.371469800832796793e+00
4.846182727291775905e+00
5.582446877303998356e+00
4.333688425755037876e+00
1.550679190570589228e+00
-1.786264560225850673e+00
-4.495857575022875530e+00
-5.602305217041300800e+00
-4.696912235027681959e+00
-2.104052163867698777e+00
1.233641320069736924e+00
4.109542412838195879e+00
5.494540535113763724e+00
4.886028484384446813e+00
2.480453279266921385e+00
-8.487581204147449654e-01
-3.838997006148324509e+00
-5.362184866948827455e+00
-4.892208555637966860e+00
-2.645026629401175722e+00
5.729656214412526261e-01
3.638735470863895483e+00
5.447471045783370158e+00
5.291891102373756262e+00
3.172900661036165193e+00
-1.313163483913907248e-01
-3.347001756631778679e+00
-5.258768556216635304e+00
-5.223992413883772556e+00
-3.335956728301057161e+00
-2.559781952097288094e-01
3.005071158570436385e+00
5.243096480390937231e+00
5.372929201523207965e+00
3.057660494597961964e+00
-7.529260720340605895e-01
-4.188073729101311038e+00
-5.770293961877895228e+00
-5.338088293844664989e+00
-3.564957319512703560e+00
-1.035338047443629783e+00
1.805259229058696624e+00
4.208896927902084251e+00
5.216057386809302976e+00
4.255772864973238256e+00
1.592416127704312734e+00
-1.723360946807464655e+00
-4.339563453208828747e+00
-5.242686193973280950e+00
-4.160554742523157934e+00
-1.536965272379137826e+00
1.723799698152483906e+00
4.507270675271603189e+00
5.783122359955607195e+00
5.007173936841279094e+00
2.427097332506632732e+00
-9.666939915351997481e-01
-3.869168827610257377e+00
-5.228309982804579370e+00
-4.620958434593740449e+00
-2.310505635316382200e+00
8.739089133487598637e-01
3.767217645205099164e+00
5.280504277620890363e+00
4.856561030621512565e+00
2.669504399198058486e+00
-4.825105480227355748e-01
-3.458404070417798071e+00
-5.172785476586043707e+00
-5.008206447674504957e+00
-3.029730537048560102e+00
7.162860192579745267e-02
3.214186627306083732e+00
5.273436798308151374e+00
5.480986902490845303e+00
3.728989684065081356e+00
6.448400914820560104e-01
-2.615193261766632471e+00
-4.816494216454408672e+00
-5.156174870344571559e+00
-3.561991019531458580e+00
-6.528423174276694052e-01
2.537346985625625440e+00
4.901673654319250062e+00
5.586469606467400872e+00
4.284362684202913663e+00
1.427563636329840513e+00
-1.880422710470254222e+00
-4.332701270325483023e+00
-5.115162423599890928e+00
-4.280025370929568140e+00
-2.404773666693438727e+00
3.128373697644981632e-02
2.647130141826340211e+00
4.593631146294775647e+00
4.664371325573607230e+00
2.411638753502631793e+00
-1.172226964516763115e+00
-4.335576453163681343e+00
-5.726495135434108263e+00
-4.935758804889478490e+00
-2.388827081535186192e+00
9.556670764766039827e-01
3.925041446335219675e+00
5.500935616498411562e+00
5.148612564975409533e+00
2.988129222827562437e+00
-2.105687036799632206e-01
-3.254276489995031607e+00
-4.992141793500535663e+00
-4.797471355321723863e+00
-2.774195273802574579e+00
3.422166193083945873e-01
3.447932221949807197e+00
5.425046597750806221e+00
5.528258716099961667e+00
3.675465511349528480e+00
5.222684915610154022e-01
-2.752238871089992767e+00
-4.924886608604998273e+00
-5.244442652091620083e+00
-3.675429799761326777e+00
-8.077990124829199647e-01
2.371551486365785610e+00
4.739142257892297927e+00
5.392566274813748173e+00
4.040404784468339727e+00
1.173092710065195332e+00
-2.121790385877172724e+00
-4.598587827813572559e+00
-5.339273383437403986e+00
-4.087023180344147910e+00
-1.319511387608190311e+00
1.936613548787063710e+00
4.491237040967455130e+00
5.439009907472451388e+00
4.465235938037745100e+00
1.913818935633697649e+00
-1.320403743255613049e+00
-4.057104077837518474e+00
-5.273152043835388270e+00
-4.536515580526059743e+00
-2.151189626454935500e+00
1.030272885446924969e+00
3.943134580968243874e+00
5.587820537897526307e+00
5.196808112321703810e+00
2.518028432954260154e+00
-1.670719127981317165e+00
-5.467978803836499146e+00
-6.942555055646293383e+00
-5.624208008736290232e+00
-2.619876593576121238e+00
6.464136459365226184e-01
3.300184915466378932e+00
4.822954332327071825e+00
4.766535011855830284e+00
2.989982452791120515e+00
1.473977341169668831e-02
-3.034249574397696492e+00
-4.946045611920792950e+00
-5.005460019022385687e+00
-3.238584557587222523e+00
-2.944772609558385379e-01
2.822096682945544721e+00
5.041093664759726423e+00
5.540489433800583008e+00
4.062938337694045110e+00
1.107791529176428647e+00
-2.191333295340581522e+00
-4.544849019797242207e+00
-5.087446528584568028e+00
-3.701046784762892283e+00
-9.538418098601376682e-01
2.179245881503793836e+00
4.615093389659821632e+00
5.449429543301390844e+00
4.275633512446189499e+00
1.447632176356673073e+00
-1.953189609800883186e+00
-4.586157493878369351e+00
-5.497474444378717351e+00
-4.475076876786808100e+00
-1.973914797426652434e+00
1.138576297622290623e+00
3.826947460062111617e+00
5.152742006057456692e+00
4.588191465122003265e+00
2.277275308272003862e+00
-9.354764026957622658e-01
-3.822804896827668220e+00
-5.297392719132389516e+00
-4.829609447069748818e+00
-2.606820824847490670e+00
5.521118611047781677e-01
3.508713498868104796e+00
5.225611855238159187e+00
5.090617848551918456e+00
3.101179261065252213e+00
-5.347838414479461067e-02
-3.151586838862120654e+00
-4.949719046039857240e+00
-4.816260944133285982e+00
-3.054255530405832975e+00
-6.098665462458876529e-01
1.654438128079355641e+00
3.351575931092895200e+00
4.168940546920503643e+00
3.508758632456208115e+00
1.096516195659048343e+00
-2.229302031916932325e+00
-4.860910992417164067e+00
-5.554335068030765932e+00
-4.090611621788083241e+00
-1.137337771567212164e+00
2.179669220030577392e+00
4.663172697488877638e+00
5.419465674932489208e+00
4.203923570004336696e+00
1.529256014757651938e+00
-1.580424893287417198e+00
-4.016776342899068375e+00
-4.949024565621733096e+00
-4.045168773808211604e+00
-1.579848200288415327e+00
1.595987572228207307e+00
4.309464528197239019e+00
5.525668973992525324e+00
4.781797113990672088e+00
2.362107279555946349e+00
-8.268197765408877853e-01
-3.611908919139842133e+00
-5.011013216397597780e+00
-4.583760780753273423e+00
-2.528162390085575861e+00
4.408184722393696520e-01
3.313472362617972955e+00
5.064228742401097882e+00
4.990488391441637361e+00
3.031867099784795183e+00
-1.092679420830980908e-01
-3.199521232583887986e+00
-5.017605978058510274e+00
-4.902882825686043944e+00
-2.969885417480898848e+00
4.156936049707238290e-02
3.062794935139136143e+00
5.016710566558991502e+00
5.177495192966869553e+00
3.480697721817714196e+00
5.744781366470792516e-01
-2.453999880741172923e+00
-4.508829806273256580e+00
-4.868948368422836737e+00
-3.419780561006896313e+00
-6.799190680868036907e-01
2.396673128313421941e+00
4.758609626261351089e+00
5.557948991084111334e+00
4.335283750754727272e+00
1.227924273936237265e+00
-2.738147211843017459e+00
-5.751031885736844096e+00
-6.265454518251604377e+00
-4.261457192560937024e+00
-1.113333671100469546e+00
1.783583701766961349e+00
3.771542255366662211e+00
4.547926283800694414e+00
3.833617760570843025e+00
1.663972389140125685e+00
-1.284388567281051774e+00
-3.869844898444304793e+00
-5.058193990073299062e+00
-4.407401803679608321e+00
-2.168648790803780368e+00
8.792810088663031154e-01
3.686049531184699024e+00
5.257671862949353958e+00
5.001779821759655853e+00
2.960611671019194091e+00
-1.449304162775214566e-01
-3.128590887226244899e+00
-4.829276654534567115e+00
-4.635555630470918231e+00
-2.692873029544063712e+00
2.505152078735642385e-01
3.146154948067504620e+00
4.968271571666469377e+00
5.033928832808845399e+00
3.259148314730570206e+00
2.497770881898420114e-01
-2.867155532122922068e+00
-4.885188108565895249e+00
-5.048980401714414867e+00
-3.357948781400030835e+00
-4.888345231881920383e-01
2.526977737737033269e+00
4.657914282644917137e+00
5.168641298146362750e+00
3.848769810668061897e+00
1.131590518998669914e+00
-1.996618509510643680e+00
-4.360195021422146766e+00
-5.092666407788636107e+00
-3.970594777455424662e+00
-1.433665382134415411e+00
1.604637448943565081e+00
4.049896676601863810e+00
5.001443237393112362e+00
4.099577146612767287e+00
1.668486936491405670e+00
-1.402538808655730662e+00
-3.968466131060670143e+00
-5.042388601541868631e+00
-4.229436521312236685e+00
-2.000325063872948839e+00
5.136468342236213402e-01
2.293948241307172342e+00
3.079074397530511931e+00
3.024311579657728011e+00
1.965678650684944184e+00
-3.060189064856453922e-01
-3.128459119397763999e+00
-5.072466728158461891e+00
-5.076780991716446145e+00
-3.155306437899048966e+00
-1.679732353349149276e-01
2.734696808257526257e+00
4.539729769476652521e+00
4.641124024087387667e+00
3.004669681094499722e+00
2.242280803473987727e-01
-2.634013745987151101e+00
-4.459555641319068009e+00
-4.587749664710301545e+00
-3.027195073653442758e+00
-3.647104065728830613e-01
2.466608049185076368e+00
4.457659664370877906e+00
4.858460366009998310e+00
3.495664474545478573e+00
8.763857331737248124e-01
-2.010609819211059524e+00
-4.100889558484466235e+00
-4.671143080264543279e+00
-3.576289444452403377e+00
-1.246034554796673577e+00
1.486684084453870458e+00
3.660790380503069930e+00
4.510823897217742129e+00
3.720983226484617656e+00
1.539367458977772829e+00
-1.252019182568634426e+00
-3.588092326587914105e+00
-4.576391357454477671e+00
-3.871771803777574128e+00
-1.748188955220495444e+00
1.041950622996944853e+00
3.508287149641604152e+00
4.758403311261956148e+00
4.322254176047416685e+00
2.326672429374747164e+00
-5.054190891001038022e-01
-3.085699111960497731e+00
-4.424984172152242934e+00
-4.060969016156836808e+00
-2.179684057973718225e+00
5.199174952057556975e-01
3.081165091909457754e+00
4.626365724343695085e+00
4.651514818932411366e+00
3.114890857845977301e+00
3.756895385565640066e-01
-2.819439507691384961e+00
-5.309071746700920968e+00
-5.835607590223692576e+00
-3.924130638976354390e+00
-5.108832470049431418e-01
2.686144506339821270e+00
4.444771749777492786e+00
4.491281407161965333e+00
3.073540475301421715e+00
6.728415466989852156e-01
-1.927952297023012518e+00
-3.761836226372450298e+00
-4.105904124999560700e+00
-2.825597628482772183e+00
-3.911946735384858598e-01
2.336526102994952225e+00
4.409975724816013631e+00
5.103761910555431491e+00
4.146585451401985090e+00
1.842074927870241741e+00
-9.670782027208528753e-01
-3.196399827168961316e+00
-4.004903415737389949e+00
-3.147826494733573455e+00
-9.999742403746028074e-01
1.645972723084003775e+00
3.858898667183976894e+00
4.858975735094658077e+00
4.249369351084419044e+00
2.160409138116856642e+00
-7.119448485900421453e-01
-3.288969479323210265e+00
-4.556936059451227372e+00
-4.040480870202212138e+00
-1.990295852368491270e+00
7.805670373407624929e-01
3.261425810344876552e+00
4.608397793238677487e+00
4.369947536518911768e+00
2.600562107605195905e+00
-8.213900755423686473e-02
-2.645142144292401021e+00
-4.098560133124307114e+00
-3.962960275072774152e+00
-2.376575367990189314e+00
8.080372172364724825e-02
2.585179451850674770e+00
4.271809623968429115e+00
4.503928640719576215e+00
3.121014383048032137e+00
5.585209643553128434e-01
-2.241685256566209983e+00
-4.185158531198847953e+00
-4.507204815861759251e+00
-3.100549357649813320e+00
-5.718011138811039951e-01
1.943472235813528792e+00
3.285076336792621010e+00
2.989749813310646598e+00
1.545817064728596923e+00
-2.630612389046681487e-01
-2.060039710536641699e+00
-3.638865170007812289e+00
-4.441966526265442639e+00
-3.833591573086098769e+00
-1.787506246101038476e+00
9.545641594344914660e-01
3.305615300189645556e+00
4.356181008290369583e+00
3.717272661743133089e+00
1.637258993092975068e+00
-1.082692180420514294e+00
-3.377772412486487852e+00
-4.369055128634358631e+00
-3.730896851616300580e+00
-1.743868584414306033e+00
8.959317798922340481e-01
3.309586259752237414e+00
4.658452004903089083e+00
4.397017928938948828e+00
2.526715106940676137e+00
-2.887037315925882197e-01
-2.931379334219754274e+00
-4.355361226587492141e+00
-4.086684033445068920e+00
-2.346259307550250028e+00
1.678680468156801830e-01
2.572123814018099974e+00
4.040484900704992555e+00
4.032136574931945994e+00
2.501336924085860058e+00
-1.271204892758537319e-02
-2.549292520360614933e+00
-4.140775778973321053e+00
-4.241351746726351735e+00
-2.887249593906192402e+00
-5.628961292893541746e-01
1.996945124751690948e+00
3.941221970363644189e+00
4.511185161170429225e+00
3.387131767025077345e+00
9.397667611456612669e-01
-1.862375781833537580e+00
-3.879698225812887813e+00
-4.319598863798129962e+00
-3.050135676199778434e+00
-5.924664953210270202e-01
2.112349295936978955e+00
4.058402843609147936e+00
4.559363010286809903e+00
3.479970663468741954e+00
1.213574265570871669e+00
-1.525071867511534451e+00
-3.982514872767995318e+00
-5.509308307073001565e+00
-5.481731788114273307e+00
-3.504557387008708780e+00
-1.010167363734734702e-01
3.141547237309552099e+00
4.627431074760708363e+00
3.856317494111428879e+00
1.443113001080465141e+00
-1.504802081702064864e+00
-3.892225274249670353e+00
-4.947310714196463621e+00
-4.402201460200329208e+00
-2.487920272869296845e+00
1.784369709167299423e-01
2.735250656849165463e+00
4.306553601686489152e+00
4.298497019633008343e+00
2.639852635447016205e+00
-1.019890945897755086e-01
-2.852362927167075402e+00
-4.509265258151915923e+00
-4.495960876878305257e+00
-2.937536361453548128e+00
-4.426108061488367440e-01
2.163450051225900506e+00
4.007627319099115404e+00
4.373358668957613382e+00
2.998085797104666828e+00
3.140468653942687927e-01
-2.614259304846071164e+00
-4.574948505861037518e+00
-4.836618039222336130e+00
-3.420342907606130023e+00
-9.072857078768278294e-01
1.869520192516988866e+00
4.021059130051918729e+00
4.783511937267967085e+00
3.783957051227210933e+00
1.300514244603683256e+00
-1.714844881182487457e+00
-4.036076804867096079e+00
-4.794603407280604301e+00
-3.833522946355047978e+00
-1.586448297580560274e+00
1.197367234532932034e+00
3.628767706225408229e+00
4.856002099208422962e+00
4.335896718504695713e+00
2.126463531187920086e+00
-9.651663520309207156e-01
-3.643719550294840293e+00
-4.804897913574008861e+00
-4.081592559270563747e+00
-1.807741598056568977e+00
1.270389671291544120e+00
4.076672319449227366e+00
5.357169210508338608e+00
4.362671296290031364e+00
1.591574048531031460e+00
-1.472591214938106852e+00
-3.559641249234392735e+00
-4.301308412637203205e+00
-3.808300404771018499e+00
-2.190400179256952740e+00
2.824033002136925874e-01
2.922021937908449107e+00
4.775415633248094593e+00
5.034337974208302313e+00
3.428051340863709218e+00
4.725268098648007231e-01
-2.621170657136964621e+00
-4.524369440926474084e+00
-4.510046404781516749e+00
-2.709883658874796986e+00
1.671863378141210110e-01
3.193038121015681075e+00
5.418148105530134373e+00
6.054881767874912057e+00
4.733652158229379125e+00
1.774514268588658794e+00
-1.710470136533850605e+00
-4.220361503970363692e+00
-4.714393979056891837e+00
-3.158992224329341347e+00
-3.084740379110602615e-01
2.807671195396920893e+00
5.177496551347509524e+00
5.981508135344470567e+00
4.824293563262410878e+00
1.968662866375269216e+00
-1.558906583768584486e+00
-4.278055679611914464e+00
-5.054986264456593936e+00
-3.741793525847529445e+00
-1.035072968117257686e+00
2.087440369156591480e+00
4.685669875350190416e+00
5.926101721238618225e+00
5.239891837979150147e+00
2.646743633508202187e+00
-9.860998180076192554e-01
-4.149136277265384365e+00
-5.495091947727810400e+00
-4.629406022875260263e+00
-2.131658263853274615e+00
1.012140139551539697e+00
3.824601384395932779e+00
5.432993194689984762e+00
5.188672865457665040e+00
2.968716623577453362e+00
-5.063062357996930274e-01
-3.785124656660556308e+00
-5.536787488550511505e+00
-5.445696591564053612e+00
-4.014207458388546534e+00
-1.633506587586303516e+00
1.467045657152440397e+00
4.344191089716035847e+00
5.368125518816363240e+00
3.609886151444583469e+00
-1.678192856732175775e-01
-4.029325094914919525e+00
-6.193553441678250948e+00
-6.016648130725279486e+00
-3.999759313208522737e+00
-1.078022071157694661e+00
1.929013958337550738e+00
4.299393795207778091e+00
5.265361008946997323e+00
4.230176158131982334e+00
1.305122960557880241e+00
-2.356961526835602339e+00
-5.041348405229470586e+00
-5.591517052591812309e+00
-4.070031936811037809e+00
-1.362031541841729476e+00
1.564392371948847948e+00
3.932485057773984494e+00
5.074575885960876498e+00
4.461580415921048370e+00
2.028465984113763554e+00
-1.431516015759869420e+00
-4.407358736625753615e+00
-5.577597067821056243e+00
-4.652488759056856438e+00
-2.270173445936342294e+00
6.814636628434510568e-01
3.402321649609298504e+00
5.092696753361782847e+00
5.007648791206931627e+00
2.899837779498389612e+00
-5.276830372484969667e-01
-3.779076481410329702e+00
-5.442497221962131704e+00
-5.015294355345988109e+00
-2.913369814634484634e+00
5.980684671108887906e-02
3.029242520320770904e+00
5.073940236876564036e+00
5.385115623305900989e+00
3.657339517533592765e+00
4.362472338033019370e-01
-2.934478709965455234e+00
-4.966186013650659703e+00
-4.902111290897108731e+00
-3.013553092124399591e+00
-1.295677912956988975e-01
2.878764591017714647e+00
5.152174290449203831e+00
5.756731701408654089e+00
3.982851005061379901e+00
1.094787131422571003e-01
-4.122458062608192364e+00
-6.451158901488385666e+00
-5.959355510477523765e+00
-3.598776843592526031e+00
-7.736617094009163864e-01
1.841171931622193281e+00
3.950496263181892509e+00
4.981949354821105125e+00
4.278978918441247892e+00
1.770768564402782186e+00
-1.660589551679926945e+00
-4.494615069422801312e+00
-5.464675535420064456e+00
-4.305335851988000506e+00
-1.671394081024787148e+00
1.452158986289072695e+00
4.106421441144203044e+00
5.447020697311437232e+00
4.931011491014812620e+00
2.607890363232139741e+00
-7.258276795538475268e-01
-3.729348382644485316e+00
-5.156211039009434671e+00
-4.538983755373703133e+00
-2.302677381023098935e+00
6.718714809099877172e-01
3.436500825706224838e+00
5.104149863359766393e+00
5.002316932379061498e+00
2.968364599974917528e+00
-3.897130873158083930e-01
-3.743477834664044490e+00
-5.641232571707407217e+00
-5.365784210382680719e+00
-3.254927701522421835e+00
-2.494922481602587228e-01
2.665747938370379710e+00
4.656241863489173127e+00
5.079283295603755910e+00
3.633291675418047539e+00
6.293627711896629950e-01
-2.826736597412683683e+00
-5.205566349459593845e+00
-5.498741385747460519e+00
-3.829752431922101685e+00
-1.083271982483758222e+00
1.815073896590726710e+00
4.127564585843066958e+00
5.169448902008270785e+00
4.375148115335115939e+00
1.727801488305222843e+00
-1.813009337827263368e+00
-4.561700323229678666e+00
-5.220879006141879941e+00
-3.862963713013561673e+00
-1.638746145172996105e+00
4.575103286150072890e-01
2.274413241795133267e+00
3.844117556757442156e+00
4.431000874390409017e+00
2.973232561216842651e+00
-3.838735640938253368e-01
-3.856721962641007639e+00
-5.478636329931187987e+00
-4.656755110472110104e+00
-2.177680604379820473e+00
8.232003983468154651e-01
3.498641181643811660e+00
5.191438152604650469e+00
5.283737388717013594e+00
3.462889010120004940e+00
2.071896278895215548e-01
-3.114448761954283107e+00
-4.957114715520996917e+00
-4.629286684682707431e+00
-2.571510598462537711e+00
2.686776155555348766e-01
3.030676476033331568e+00
4.981860708922077663e+00
5.435968814005985195e+00
3.975697700686236402e+00
8.837267719276884481e-01
-2.650918189759436494e+00
-5.028742084588666117e+00
-5.262490343253384495e+00
-3.530601871390730562e+00
-7.553483908981484252e-01
2.082649157721822242e+00
4.190074238330350198e+00
4.938416858363384954e+00
3.941041918970577207e+00
1.308698866681141659e+00
-2.073909544304179953e+00
-4.729082270671098875e+00
-5.443816884817077373e+00
-4.044138525169019616e+00
-1.287177748090536200e+00
1.767962560686103357e+00
4.164658711915922851e+00
5.180241387009164811e+00
4.425968479812697254e+00
1.993461947606091078e+00
-1.345633708649914606e+00
-4.210493600571229678e+00
-5.326188340983591729e+00
-4.355122198355134699e+00
-1.921022843979254269e+00
1.025475657229609983e+00
3.622971889903574549e+00
5.127905914853493563e+00
4.957723001492222892e+00
2.852062066366144233e+00
-8.376857636534538187e-01
-4.783958139525807063e+00
-6.970979752758298176e+00
-6.105983056256900632e+00
-2.815358270399509255e+00
1.004795208158451025e+00
3.855383521547544046e+00
5.261286339843716853e+00
5.186525651405699655e+00
3.583193725802978236e+00
6.986301366799345658e-01
-2.469170465941569415e+00
-4.471060131905403523e+00
-4.405048497179841149e+00
-2.488346890495725994e+00
3.616755023766971555e-01
3.187945344554494298e+00
5.211764451491701422e+00
5.810540919789293213e+00
4.612666858884800547e+00
1.792435387059830187e+00
-1.646824889377586976e+00
-4.165396709791646224e+00
-4.665523865780670576e+00
-3.191747140677624550e+00
-6.020094244655294080e-01
2.169858506697706968e+00
4.380498452821525390e+00
5.372000451096331730e+00
4.623840531038754698e+00
2.110228453232529056e+00
-1.333833021837364186e+00
-4.195129586835252056e+00
-5.180671010376609154e+00
-4.056141016792513376e+00
-1.570908906556254925e+00
1.265369550752753369e+00
3.660746515345882468e+00
5.012824128150195513e+00
4.807479106293382820e+00
2.834831171931698091e+00
-3.712638472991754979e-01
-3.461457575939828502e+00
-4.997093742077099776e+00
-4.419728511488497880e+00
-2.250634215144690753e+00
5.391842529727570721e-01
3.106423828624437888e+00
4.793918079642856434e+00
5.020886391763317746e+00
3.433833265008287672e+00
3.433845970827284488e-01
-3.024027427733058104e+00
-5.056053689497615800e+00
-4.840574078942860403e+00
-2.758006751463648598e+00
-7.115165785165789014e-02
1.971990882341084772e+00
2.856440036198514054e+00
2.836257488413405525e+00
2.151112960921784723e+00
4.888411425196070859e-01
-2.207431527497516921e+00
-4.794477438876142195e+00
-5.668385316085358561e+00
-4.294261185804582936e+00
-1.478543389317197754e+00
1.535787837482582407e+00
3.776116911998304460e+00
4.626454583868514270e+00
3.751079251010760451e+00
1.246927579251963625e+00
-2.054411385893524677e+00
-4.709606223638854949e+00
-5.504903562429071862e+00
-4.263852472579538144e+00
-1.748935807773012829e+00
1.042084290835323834e+00
3.311447340440792697e+00
4.453032419704920031e+00
4.016034556819011669e+00
1.908011165410893994e+00
-1.264905313065535220e+00
-4.175327589701812059e+00
-5.460920622097269472e+00
-4.645659046197368802e+00
-2.315198586422942295e+00
5.176351400560383897e-01
2.983268413718418444e+00
4.435512765037939786e+00
4.395267439038698321e+00
2.686496100910732210e+00
-2.698553008695868116e-01
-3.328234502198204492e+00
-5.084627914707952279e+00
-4.774278270079375552e+00
-2.712639697988584064e+00
1.279159018207953746e-01
2.766386160395770677e+00
4.480676539681256898e+00
4.783093103332592300e+00
3.408327543220648348e+00
5.409866804134968454e-01
-2.826022104952891301e+00
-5.109763652066662942e+00
-5.200599581750833700e+00
-3.278956030127564869e+00
-4.314165543109379497e-01
2.275112049602374675e+00
4.199722158601390198e+00
4.966356757294037472e+00
4.243276935567753760e+00
1.841447537733098327e+00
-1.794795197107892593e+00
-5.230520475997788132e+00
-6.622316111243558900e+00
-5.120405104691704068e+00
-1.669305542498283224e+00
1.851777661664428365e+00
4.141851461247380684e+00
4.886680841782649942e+00
4.112127274231244911e+00
1.888288560243053249e+00
-1.212693230087769969e+00
-3.901228220946639791e+00
-4.900057450775899603e+00
-3.900145692211431481e+00
-1.608709235905925183e+00
1.020749345545213682e+00
3.325802315146288546e+00
4.809582823090786441e+00
4.911237374077479068e+00
3.242499241513206343e+00
1.640836563514127544e-01
-3.008759658074727561e+00
-4.711072226467439172e+00
-4.246956325528456588e+00
-2.142603140674745443e+00
5.553429159548726179e-01
3.029011100333803164e+00
4.728212463212138061e+00
5.104181677206293344e+00
3.710277092636225849e+00
7.200161617681586357e-01
-2.708831067911990687e+00
-4.915642533417059035e+00
-4.909966004857494681e+00
-3.015413779163238051e+00
-2.956366452530019839e-01
2.333500119801260819e+00
4.282531027566236936e+00
5.015909660868228315e+00
4.064224112917330878e+00
1.463770768703082759e+00
-1.841954394674265139e+00
-4.298686427367615082e+00
-4.771650435212912988e+00
-3.301416912119265135e+00
-7.788061242627183356e-01
1.868419772074875418e+00
3.990222789021985239e+00
5.039817250164711382e+00
4.507885462782900809e+00
2.242419603611347956e+00
-1.078427327948436432e+00
-3.962669325276735321e+00
-4.979537879428526992e+00
-3.766749383872001644e+00
-1.132818848230281894e+00
1.632251684377181267e+00
3.432422354253469532e+00
3.786449194141459085e+00
2.928422641663873449e+00
1.325328086037172781e+00
-8.071409801611353352e-01
-3.116178248885718371e+00
-4.630933714858344707e+00
-4.394239799213892184e+00
-2.402271398469223218e+00
4.680984846013097611e-01
3.158019677373800072e+00
4.832037302730151751e+00
4.958756674600180325e+00
3.378137981586106786e+00
4.822067183138816771e-01
-2.638172480554274113e+00
-4.561415886079444704e+00
-4.442568369817806229e+00
-2.534473138881524257e+00
2.302673674264743564e-01
2.905811058157166116e+00
4.757894994499622499e+00
5.226400474349296665e+00
3.987875044284940440e+00
1.209545235434189348e+00
-2.173811068495879351e+00
-4.677560461450492646e+00
-5.181217530308850350e+00
-3.694091930362741749e+00
-1.120169650856089882e+00
1.523004930598013118e+00
3.493949027322301948e+00
4.259112205166806220e+00
3.455948436759001208e+00
1.116713248051151242e+00
-2.018563927577338823e+00
-4.593511045920111613e+00
-5.406050338837673053e+00
-4.216283017820508405e+00
-1.723588430900399260e+00
1.091282261147955568e+00
3.412374547714352335e+00
4.610780109544045935e+00
4.232472603106273823e+00
2.194066263113453541e+00
-9.090124550799214553e-01
-3.782565417234414085e+00
-5.085073225124845386e+00
-4.347352681100019822e+00
-2.173215264863783247e+00
4.405324158112540189e-01
2.739331086968385343e+00
4.222841663556087255e+00
4.443250386597439316e+00
3.093551431921829131e+00
3.417142040963286331e-01
-2.968861968165908749e+00
-5.550214203066268226e+00
-6.243615925909925757e+00
-4.616726893991846659e+00
-1.318252140602411027e+00
2.163252363343361129e+00
4.399923822353676073e+00
4.758738619435685102e+00
3.309072883763212403e+00
5.190393943214415273e-01
-2.638717968429649563e+00
-4.780809769325503389e+00
-4.933181773328229269e+00
-3.231323722494325867e+00
-6.005983715232026121e-01
2.038002533155567786e+00
4.058459402263015825e+00
4.940891529940010685e+00
4.213881691031885701e+00
1.813126823699777290e+00
-1.453850680504377824e+00
-4.067520184332754418e+00
-4.793282983667617181e+00
-3.538889108962977925e+00
-1.134026787156958038e+00
1.479818949055019539e+00
3.627432354148035554e+00
4.771157189009440636e+00
4.428325143811699505e+00
2.404864701850013553e+00
-7.836378758705847547e-01
-3.806272126404427691e+00
-5.214566445223653979e+00
-4.461811363271729114e+00
-2.127824652768381952e+00
7.605067324645979898e-01
3.329943941486426251e+00
4.895661135483372561e+00
4.885219489781253976e+00
3.070379683622586509e+00
-3.746785175982220162e-02
-3.131840156439680722e+00
-4.777507324360167118e+00
-4.363743600102125697e+00
-2.340629398274404860e+00
3.889548045196443149e-01
3.003181560909130798e+00
4.800456335805628250e+00
5.181537492470997819e+00
3.833132517803204742e+00
1.014789031916780937e+00
-2.244609521933129237e+00
-4.480174807828159800e+00
-4.711229104243127352e+00
-3.037822915283570069e+00
-3.022777186805788441e-01
2.487033571819333488e+00
4.303468949076328265e+00
4.272848586387450354e+00
2.268632838760971104e+00
-7.435818307513268888e-01
-3.331343952881676174e+00
-4.620046366744863242e+00
-4.558574309623228515e+00
-3.408426861554833653e+00
-1.400530917002025033e+00
1.106131777929987958e+00
3.436727740920053176e+00
4.740365569410345259e+00
4.363711743209460536e+00
2.233313046220468223e+00
-9.080219105653033473e-01
-3.673053207605084136e+00
-4.789373119548555380e+00
-3.918095406512478895e+00
-1.688998481877293845e+00
9.705279769425121383e-01
3.320342648419941867e+00
4.760663684697155063e+00
4.741038247248892112e+00
3.012265054954360366e+00
3.409803500047187130e-02
-2.968171345193627353e+00
-4.621523627315550442e+00
-4.302453115245674198e+00
-2.431948298340224746e+00
6.791508473832208459e-02
2.404578245602960962e+00
4.016282902682015710e+00
4.396682879353175366e+00
3.172262866094031963e+00
5.209558309479698224e-01
-2.537625069587723381e+00
-4.562115641505378960e+00
-4.664876686954716689e+00
-3.049621937747958089e+00
-5.773938308450796697e-01
1.932749670608507220e+00
3.875714402421043925e+00
4.690385422719936415e+00
3.905869772527108097e+00
1.526736788534287292e+00
-1.604601445716802965e+00
-4.042353637850601977e+00
-4.657143631595896061e+00
-3.383949113404662867e+00
-1.006754888020823469e+00
1.579900997986902533e+00
3.702253856170863777e+00
4.770032403328309911e+00
4.274217162720653107e+00
2.166313152843276857e+00
-7.967006406412060482e-01
-3.339016117130273020e+00
-4.542264144971110085e+00
-4.358780021538264826e+00
-3.115232678275446254e+00
-9.173626119510993604e-01
1.928077298054586386e+00
4.287132376228931285e+00
4.767612004566565531e+00
2.915466603616911900e+00
-3.988815281471995156e-01
-3.554192873225172189e+00
-5.099665854374557661e+00
-4.526020059457539269e+00
-2.368264536670058540e+00
3.925383395669583275e-01
2.899369615653997201e+00
4.513599695258078803e+00
4.746493355634063604e+00
3.360234105544520400e+00
6.376354585509296236e-01
-2.420843477313428416e+00
-4.430139480448946010e+00
-4.498575935153380279e+00
-2.787559558580433361e+00
-1.728120485523201855e-01
2.407247381232709316e+00
4.221438040574547301e+00
4.738346478570639952e+00
3.673547376522756203e+00
1.177183266451291566e+00
-1.944140201584496852e+00
-4.373998584080811547e+00
-5.039747773949221354e+00
-3.813753163725495554e+00
-1.390450244218812692e+00
1.321933947409233312e+00
3.526050077983564623e+00
4.560608238381473001e+00
3.989626135720469868e+00
1.827086530420455102e+00
-1.231755797810718311e+00
-3.884184314140121774e+00
-4.889607186334714584e+00
-3.889513610165600710e+00
-1.510311108863022778e+00
1.249844885890428303e+00
3.542428568071337214e+00
4.750300688151991579e+00
4.454608793373734166e+00
2.567901857790400477e+00
-3.952499522193076986e-01
-3.249498570621201399e+00
-4.688509415261567170e+00
-4.162539294393851286e+00
-2.134891293836362447e+00
5.031079194636415286e-01
2.984922155239809527e+00
4.627910101919125552e+00
4.672735074388574716e+00
2.638084982347188134e+00
-9.346015293825609138e-01
-4.314053785572515842e+00
-5.720812930610591707e+00
-4.786685861086519722e+00
-2.544126985413185160e+00
-1.116818454622063861e-01
2.059490523889565328e+00
3.757806161405198075e+00
4.491484304924741267e+00
3.664377241699341869e+00
1.207361594933168858e+00
-1.970075848594186718e+00
-4.311831213079265979e+00
-4.689219602011165833e+00
-3.174429050180662681e+00
-6.932759843584717085e-01
1.839363663780097635e+00
3.846572246489680325e+00
4.841492442172803834e+00
4.306275446510013261e+00
2.071330155133850770e+00
-1.161119214364444874e+00
-3.910567564530530671e+00
-4.868530733124109666e+00
-3.818672822763165886e+00
-1.537821604963383715e+00
1.011708467796397226e+00
3.145685278849400301e+00
4.326000799363232119e+00
4.037057189984915695e+00
2.078271324229870043e+00
-9.848329147134315953e-01
-3.824776110427279718e+00
-5.095377971599347688e+00
-4.332603887288109412e+00
-2.105505689861328023e+00
6.080344510587957219e-01
2.990094431439665357e+00
4.460484796333201274e+00
4.572104119677402601e+00
3.078857343619979758e+00
2.553145504680625066e-01
-2.830720075648486045e+00
-4.706924640801172011e+00
-4.513265224264389808e+00
-2.563284055513480375e+00
1.505640815362214724e-01
2.703314308109109110e+00
4.442262706627847280e+00
4.867655967983707477e+00
3.653007849423108411e+00
9.508162103038122481e-01
-2.259676501678773430e+00
-4.466558385225175343e+00
-4.729720143107270403e+00
-3.415358234880086385e+00
-1.531784601799691892e+00
4.134780064558121193e-01
2.401158672851404496e+00
3.943686833423602156e+00
3.926099471440916311e+00
1.744969204296024756e+00
-1.735622484892037409e+00
-4.656776851421209784e+00
-5.555589035520790198e+00
-4.267085466597023036e+00
-1.650603395410941587e+00
1.236132086877894221e+00
3.581599147005391170e+00
4.787666049047964556e+00
4.421214296313936920e+00
2.398484517626171542e+00
-6.976404639708659872e-01
-3.582225368683256139e+00
-4.906112537227890869e+00
-4.155145856478149824e+00
-1.865976117841363191e+00
9.542335789550695502e-01
3.396306435548841041e+00
4.788897191421381372e+00
4.687577592770887591e+00
2.960312181474381354e+00
6.596321813752692442e-03
-3.089922794262017547e+00
-4.956484954787687691e+00
-4.818875907784453183e+00
-2.953686950746008844e+00
-2.556383406478326403e-01
2.374237184036132486e+00
4.215582919875050294e+00
4.702243219696665477e+00
3.512616526884022150e+00
8.424044846384368679e-01
-2.338586148502685091e+00
-4.567839896137652289e+00
-4.823938989577674974e+00
-3.208041676966092215e+00
-6.255884301449000651e-01
1.979645802658140052e+00
3.953539484326358266e+00
4.797437328278812529e+00
4.083309050438551857e+00
1.745278664183643080e+00
-1.467264148580984973e+00
-4.083625560967409918e+00
-4.840679450368922332e+00
-3.587530559690358611e+00
-1.170610127111617826e+00
1.429421966666954757e+00
3.605903563819567559e+00
4.861527831731145888e+00
4.469055569841729358e+00
1.913164427460928074e+00
-2.089553657393400599e+00
-5.433874992262318848e+00
-6.207772489605308586e+00
-4.417271690340371926e+00
-1.614899896638792409e+00
9.030606777904562898e-01
2.828667119964584753e+00
4.087783735305282384e+00
4.223891922160306400e+00
2.756383013479568600e+00
-7.880391879281856138e-02
-3.090237432307118670e+00
-4.783995801046359908e+00
-4.412615991011614724e+00
-2.378069918187852849e+00
3.272481942273945399e-01
2.824088039279473161e+00
4.501435675976748207e+00
4.866065464936164098e+00
3.588939514638608941e+00
8.488422610786590106e-01
-2.368620262918946562e+00
-4.582030549427592803e+00
-4.767907875548367258e+00
-3.040754379405236740e+00
-3.466897029222851256e-01
2.298055191327251112e+00
4.166871137979140549e+00
4.751962856202869290e+00
3.722633127054074009e+00
1.170283113064068292e+00
-2.044626849029640869e+00
-4.460005341159011927e+00
-4.933530220756400908e+00
-3.439084814471890184e+00
-8.418729582612368700e-01
1.885123616689720727e+00
4.018688849813567998e+00
4.981005836898199313e+00
4.343488836220366522e+00
2.105203088496080621e+00
-1.021957631708863001e+00
-3.715844926079144184e+00
-4.744980892331337685e+00
-3.773680489599701815e+00
-1.431010960642773888e+00
1.321983426416134089e+00
3.679434016833747378e+00
5.008997230999740147e+00
4.814647357068065681e+00
2.928061450155511114e+00
-1.547717331091952309e-01
-3.155619877979877419e+00
-4.616994702928372440e+00
-3.996068165740812805e+00
-2.055598242343602777e+00
1.708772841981665014e-02
1.693958618000100280e+00
3.072985947688716912e+00
3.921663663338841310e+00
3.323993149689055571e+00
7.514839773832666658e-01
-2.764469750974181572e+00
-5.161856244405104377e+00
-5.135733604081828219e+00
-3.046069202308820056e+00
-1.525059923939999229e-01
2.486968556842210631e+00
4.268908760117884782e+00
4.770934213838736504e+00
3.677675386373500555e+00
1.087308874746404364e+00
-2.110845008708828630e+00
-4.434983277095420284e+00
-4.784414124166798565e+00
-3.230779479621159744e+00
-7.092466111530310036e-01
1.845229367462784209e+00
3.843586349401975966e+00
4.813617789517358858e+00
4.260553761434433540e+00
2.001607748307518087e+00
-1.284127433761061532e+00
-4.072954173997564098e+00
-4.982418699170433563e+00
-3.819178072396169021e+00
-1.476698263289978996e+00
1.036460687110265955e+00
3.140532859576142144e+00
4.423741565192226055e+00
4.350178102875189801e+00
2.546097270349939379e+00
-5.764847301242619348e-01
-3.644128040982291594e+00
-5.108726550511829778e+00
-4.392533797068209900e+00
-2.145183959337227275e+00
5.599760692489914593e-01
2.949907279550466388e+00
4.508344662528453561e+00
4.704594380039599066e+00
3.153500652658878689e+00
1.393705337626490737e-01
-3.117646503699295746e+00
-5.036159338853972933e+00
-4.787848539452550511e+00
-2.792719071264288200e+00
-1.179478141864462315e-01
2.337813003061299799e+00
4.048572852799927624e+00
4.610842561054423250e+00
3.553392481964043004e+00
6.312242363001558942e-01
-3.393943755169295251e+00
-6.515976617008635507e+00
-6.811062298478284482e+00
-4.219805316688016283e+00
-5.126060272536777651e-01
2.496276356014777598e+00
4.133565394932690928e+00
4.450679695030608229e+00
3.455289003650503954e+00
1.140134863622881412e+00
-1.917773054200948568e+00
-4.402717466998908868e+00
-5.071231071615467378e+00
-3.707224014297789250e+00
-1.103511425860663087e+00
1.705282761578089668e+00
3.924962386814604187e+00
4.965100183989498817e+00
4.393922880126494235e+00
2.163305477168267821e+00
-1.058226810213143132e+00
-3.903937690414278183e+00
-5.038506082165105759e+00
-4.080788034856441371e+00
-1.703039046725977279e+00
1.087316613470948434e+00
3.486860164489806735e+00
4.878523822768683793e+00
4.753294738070430014e+00
2.891498161542388257e+00
-2.837918816584062975e-01
-3.519057025601404209e+00
-5.253168787229852477e+00
-4.709876993975917969e+00
-2.394220111958278885e+00
5.413351425564465469e-01
3.116714494520097745e+00
4.709510244237795185e+00
4.891945189270446193e+00
3.425383580761203195e+00
5.468683182706022272e-01
-2.712929458248605208e+00
-4.830774050262478525e+00
-4.819965715005845475e+00
-2.912017035808496690e+00
-1.233792601631890640e-01
2.553296309726603930e+00
4.425604115989359322e+00
4.990259465229653912e+00
3.925217668672875249e+00
1.332750969383863726e+00
-1.944301964903382141e+00
-4.449487436383164685e+00
-4.967941843066728147e+00
-3.402898858775900148e+00
-7.487896919829182263e-01
1.693876066123384927e+00
3.082096264248404438e+00
3.315312845127987185e+00
2.659919252809045620e+00
1.125220273538791727e+00
-1.337320395019504726e+00
-3.954938588061336358e+00
-5.261674912210031252e+00
-4.451109722195048413e+00
-2.060270392569043096e+00
7.817344078238464000e-01
3.216918043771397340e+00
4.689157410642752488e+00
4.672112276604580394e+00
2.838989727442086330e+00
-3.705379429236836941e-01
-3.541310449419083906e+00
-5.065258755621560027e+00
-4.346066968270521080e+00
-2.064625223859158254e+00
6.869046918637845556e-01
3.139017690318348208e+00
4.756128705210441510e+00
4.972160983105464283e+00
3.388217600418628628e+00
2.969717047835735424e-01
-3.054419182084942896e+00
-5.038092134567209612e+00
-4.797211796194075895e+00
-2.773852327557611019e+00
-7.486596191864386407e-02
2.386127550198810177e+00
4.077449631623700554e+00
4.593709373738890100e+00
3.558235840672241412e+00
9.685223712836157350e-01
-2.301248342937469271e+00
-4.679520088978041947e+00
-4.988768115028045180e+00
-3.302905920572622556e+00
-6.048579415246373436e-01
2.101575695763282070e+00
4.138180558069143977e+00
4.971807234892252403e+00
4.155864532715942694e+00
1.659923110591125184e+00
-1.712368958577391576e+00
-4.450722647361661899e+00
-5.259793968582000545e+00
-3.957542305726921228e+00
-1.369691916921057295e+00
1.466479480175649552e+00
3.755981253874464354e+00
4.899405068321654788e+00
4.484387035793052867e+00
2.453796986167557037e+00
-7.339180279842153487e-01
-4.059685102499852150e+00
-6.183408498427789723e+00
-6.048382056155688247e+00
-3.557647854177525382e+00
1.970328763308169528e-01
3.510284347642381952e+00
5.097514783987620035e+00
4.648129831451447203e+00
2.549877812635989560e+00
-4.991060051784851348e-01
-3.468217622116270604e+00
-5.115531923400609138e+00
-4.702132796793036640e+00
-2.537997772084537917e+00
3.744417206584265689e-01
3.043424469385413111e+00
4.764613245247789841e+00
5.063282188534126149e+00
3.699550698444427077e+00
8.965492512309669593e-01
-2.383294890742298389e+00
-4.675742291754455771e+00
-4.934452001275990263e+00
-3.238783920736189259e+00
-5.033121980596104716e-01
2.275677910301433293e+00
4.342344908813151605e+00
5.097600308057457674e+00
4.127925405907856060e+00
1.514087120892652294e+00
-1.860428366485244567e+00
-4.505797020867981395e+00
-5.197052080621975101e+00
-3.805423885482888124e+00
-1.196609140724679277e+00
1.579489968893658114e+00
3.802164572221946148e+00
4.975173269205705573e+00
4.646883214145822727e+00
2.617327243478268173e+00
-5.884496879344203180e-01
-3.600711145488440401e+00
-4.943601786841057333e+00
-4.111122658285774278e+00
-1.791365468854920984e+00
9.309909186751674781e-01
3.280706707784687648e+00
4.754288642800146292e+00
4.861946088092158114e+00
3.251468053555313542e+00
1.956209371526748675e-01
-3.101437005369980238e+00
-5.038037039572879294e+00
-4.745551519477910318e+00
-2.593499301805285651e+00
3.520511222926739903e-01
2.958528777287964928e+00
4.243553995590400696e+00
3.713157392259148537e+00
1.738935084638908446e+00
-7.778685681946635455e-01
-3.090144550675457680e+00
-4.651570898509467256e+00
-4.889884008492108691e+00
-3.529508658401656618e+00
-9.860206727858435993e-01
1.844306780689199954e+00
4.049463555811048998e+00
4.933054313564841920e+00
4.077904925883477638e+00
1.535512066778481621e+00
-1.843366820100750925e+00
-4.504473689777070078e+00
-5.116525074770482462e+00
-3.540226133132807096e+00
-7.338096523058972309e-01
2.146937559042193300e+00
4.310074872045301930e+00
5.247625698928653826e+00
4.596960945538912213e+00
2.314195178295663347e+00
-9.743942730743618830e-01
-3.923042374282182276e+00
-5.157745301467857146e+00
-4.236596764826176198e+00
-1.807614544992973027e+00
1.078907325889739255e+00
3.523142931972063518e+00
4.843726643519731923e+00
4.592612364950605652e+00
2.688524690059804989e+00
-3.947240921071594744e-01
-3.504848613903597254e+00
-5.210690209721478006e+00
-4.748695016493523546e+00
-2.518596121507064023e+00
4.305732177660998583e-01
3.122162228775987813e+00
4.850818627833152874e+00
5.108399655784634952e+00
3.631913388126303488e+00
6.643104921173879074e-01
-2.747663414954577110e+00
-5.023218776355301785e+00
-5.085335867678552724e+00
-3.125270473346522859e+00
-2.117363056497220120e-01
2.578513340593330483e+00
4.509227051438895906e+00
5.073139748714090125e+00
3.962657706373916788e+00
1.331973494134728986e+00
-1.921987246089159829e+00
-4.462909654372641199e+00
-5.416171243536441970e+00
-4.781744990798108219e+00
-2.853092627911926193e+00
1.156898603361536937e-01
3.308528510297735092e+00
5.213816333560504113e+00
4.704971242281763111e+00
1.957264093602601118e+00
-1.728275689253436997e+00
-4.664128742461072896e+00
-5.612851611249641159e+00
-4.419356035953860840e+00
-1.889251840194140719e+00
9.711914440777478230e-01
3.453247324144863573e+00
5.015618417486879643e+00
5.074682109559738308e+00
3.246147445361002859e+00
-7.036485333207087578e-02
-3.455010664357251127e+00
-5.213297137178897422e+00
-4.624704359538797327e+00
-2.326457449429177426e+00
5.199791183451205612e-01
3.072176380839443333e+00
4.806187872826401808e+00
5.193434439174638761e+00
3.779642895682983728e+00
7.037951639828057271e-01
-2.887729974504894770e+00
-5.276985897438309259e+00
-5.382907163665875849e+00
-3.468355755614237257e+00
-5.988899063252521859e-01
2.237698400034106250e+00
4.351164691074964175e+00
5.143325927777466333e+00
4.128148227916748070e+00
1.347554820137795595e+00
-2.202306818474711214e+00
-4.853831329617433354e+00
-5.369541705806941678e+00
-3.774864481478601430e+00
-1.027554555051208407e+00
1.844103814324106638e+00
4.096700612166736200e+00
5.147132490191756560e+00
4.532981455655632708e+00
2.167163959717736788e+00
-1.264597881533363832e+00
-4.289292305815184392e+00
-5.466994439958929419e+00
-4.402888177214639320e+00
-1.800061705384278232e+00
1.306406801549855112e+00
3.996845472567803981e+00
5.361070201658782786e+00
4.594012517283651675e+00
1.623013155662572649e+00
-2.359021341655958892e+00
-5.384959749085389547e+00
-6.138090706897085802e+00
-4.793632383217821591e+00
-2.359982417066029736e+00
3.467283367737438726e-01
2.821658708373704805e+00
4.490933565749026357e+00
4.715303092194676360e+00
3.150383643927790800e+00
1.068676251892546891e-01
-3.276380126201678067e+00
-5.431545457987286163e+00
-5.364892607014317250e+00
-3.292527948539778482e+00
-2.216927169876508064e-01
2.796125521672031766e+00
4.903195900927199702e+00
5.414829300193074957e+00
4.000792204905737393e+00
9.738571411950175394e-01
-2.578277993749390262e+00
-5.100474039539987459e+00
-5.443109129781660727e+00
-3.635679011251442994e+00
-6.905405740939618564e-01
2.248817601514714770e+00
4.387755381398559251e+00
5.187688255477076460e+00
4.271954161266432237e+00
1.670040027489049228e+00
-1.811316760201448162e+00
-4.671816222535718488e+00
-5.572756936308166154e+00
-4.263075564211798785e+00
-1.561149158757604294e+00
1.432684415359165353e+00
3.870249392249389242e+00
5.135910220327944309e+00
4.767946392933055222e+00
2.637488696626720586e+00
-7.058812878376200528e-01
-3.921548063633875980e+00
-5.495549216587264141e+00
-4.796949643459117674e+00
-2.427512274642269929e+00
5.018244824903705936e-01
3.135750385767594128e+00
4.890631955185189561e+00
5.179989184499985022e+00
3.569716318874649019e+00
3.652637179861247807e-01
-3.074344961400751419e+00
-5.046888442364091176e+00
-4.864520342397324448e+00
-3.269435623283578174e+00
-1.281000301355069926e+00
8.719503863246550468e-01
3.188266164234190292e+00
4.803660111706288482e+00
4.352395672215719102e+00
1.488619839888033258e+00
-2.390967247962196840e+00
-5.099596516362209009e+00
-5.316332631169349732e+00
-3.355555699559705563e+00
-4.661213341333398374e-01
2.299558341281447760e+00
4.387099170871969100e+00
5.325074579566432931e+00
4.565012824294962357e+00
1.985042646874263239e+00
-1.522152034841023127e+00
-4.286127203406938868e+00
-4.987628229048970852e+00
-3.559699412214249570e+00
-9.324718156160691773e-01
1.862750106562422125e+00
4.133740405468910417e+00
5.354380218744634767e+00
5.017982800284321421e+00
2.899197802461206841e+00
-4.682953500926977375e-01
-3.683081743396262375e+00
-5.211765650423242136e+00
-4.472819779588057543e+00
-2.094589838407952875e+00
8.281868433584149702e-01
3.406561186901126526e+00
4.986669737831933347e+00
5.035227613057932317e+00
3.300579591890895337e+00
1.706172953208886511e-01
-3.122659378668317665e+00
-5.002194010135894153e+00
-4.641595903368985532e+00
-2.485633856781897855e+00
3.723562152871447983e-01
2.986612730372914637e+00
4.700486723733593664e+00
4.993456972422714024e+00
3.554018175388493184e+00
6.123940879442819618e-01
-2.769911579349874753e+00
-5.028518418012818181e+00
-5.128437857719570836e+00
-3.272664784534468296e+00
-4.727642631817164376e-01
2.320062415061270311e+00
4.472620673436200178e+00
5.383803587157127701e+00
4.372056233300970263e+00
1.169042477530995772e+00
-3.228290094336378591e+00
-6.533587508282787226e+00
-6.839800713450804537e+00
-4.391670154955281014e+00
-1.060106424937083069e+00
1.691030411556819324e+00
3.541324681022767429e+00
4.446593825262988631e+00
4.038647039108815839e+00
2.031676853137375005e+00
-1.096083371697450515e+00
-3.994345663825018544e+00
-5.227910573839937847e+00
-4.313246344146627109e+00
-1.892449864475327592e+00
9.907227030823425595e-01
3.482324907067864128e+00
4.941646592117419523e+00
4.866305295366697869e+00
3.048812412072835265e+00
-9.174593214598875113e-02
-3.321071839726187136e+00
-5.103374877879059746e+00
-4.686121175593865651e+00
-2.564700371996305961e+00
1.988260118361342421e-01
2.765293429738201247e+00
4.557453949102444390e+00
5.001214851558564156e+00
3.644684703582285579e+00
6.572932009579588453e-01
-2.811284497449606068e+00
-5.070707408276419415e+00
-5.061979216922530611e+00
-3.084998973529777366e+00
-2.821522631991672525e-01
2.337250580452596704e+00
4.220332842125795736e+00
4.966660759431667849e+00
4.137114130538051882e+00
1.621254256278783279e+00
-1.779631850136951687e+00
-4.464361523530907760e+00
-5.116051138713857860e+00
-3.672559826564552488e+00
-1.092301508649947017e+00
1.601379267675590246e+00
3.769556662597041363e+00
4.912377202664757192e+00
4.495656466997459688e+00
2.299236650734784337e+00
-1.038370456975888256e+00
-4.002009066405030957e+00
-5.099223309078853461e+00
-4.017231626542791645e+00
-1.782784881312408087e+00
3.312373316680622404e-01
1.891691313530747376e+00
3.116277124996086112e+00
3.790537476501176339e+00
2.980867573467950393e+00
2.419388799773411480e-01
-3.260491617000855769e+00
-5.446671147762463860e+00
-5.124949069120565248e+00
-2.762175602857266377e+00
3.368460903887654512e-01
3.066789680024704978e+00
4.772783086786755113e+00
5.048402314185641337e+00
3.655273750271016198e+00
7.792222185174964011e-01
-2.578483725717364727e+00
-4.823150590975232355e+00
-4.859657060872540235e+00
-2.908413650434764186e+00
-6.643698664346381344e-02
2.630051640124870360e+00
4.514023060543119747e+00
5.086892170434833993e+00
3.979180972653600712e+00
1.263566811624736941e+00
-2.176292572122317637e+00
-4.816786810001262076e+00
-5.441110427049812515e+00
-3.993519341305043380e+00
-1.363302310701489661e+00
1.453961549570715661e+00
3.722222883099024937e+00
4.817809122534296051e+00
4.238084722539809057e+00
1.923771839878056333e+00
-1.414207696383573465e+00
-4.353040541645190942e+00
-5.497091631953361812e+00
-4.435447843342219088e+00
-1.882335794750700009e+00
1.069127962810575205e+00
3.558636639702523752e+00
4.972588008004967364e+00
4.832021243071298322e+00
2.935855751095076016e+00
-2.767866962717557833e-01
-3.528514912296996986e+00
-5.263735855068246039e+00
-4.755528497339510885e+00
-2.532103248816504504e+00
3.115192884855085276e-01
2.877009544838724509e+00
4.567554249746788919e+00
4.911077150426072180e+00
3.533675757416753882e+00
4.226443410104598342e-01
-3.545230052327019266e+00
-6.514590850515351583e+00
-6.780429316678236340e+00
-4.286365637653438476e+00
-6.385819095306350945e-01
2.426840372336464657e+00
4.178994358176276513e+00
4.587047514126940229e+00
3.589145735758142219e+00
1.152549899044463144e+00
-2.057963901674616736e+00
-4.586825382198600032e+00
-5.160296217848928002e+00
-3.672351840866997730e+00
-1.035829664613750367e+00
1.714817747816901772e+00
3.909389848114398269e+00
5.056453640495355728e+00
4.653814769792765205e+00
2.493711081761149195e+00
-8.017940991157355146e-01
-3.777139447155832386e+00
-5.013395926292118610e+00
-4.117647685405377622e+00
-1.778174145591654431e+00
1.010091389842176390e+00
3.486205327432270185e+00
5.025944767741073349e+00
5.015262436990435724e+00
3.140512055367785660e+00
-1.396481030828068404e-01
-3.475747661924791121e+00
-5.284880832269495343e+00
-4.835681740121319905e+00
-2.646368815475161895e+00
1.894501134828549538e-01
2.780891500548499096e+00
4.539259754111519385e+00
4.957287689542935638e+00
3.665201546971978530e+00
8.321335255535784459e-01
-2.501500021852409716e+00
-4.772834491623245690e+00
-4.929143680719842102e+00
-3.127344603703436032e+00
-3.639522436888372181e-01
2.332966390765243592e+00
4.245777044038525183e+00
4.872693353686043949e+00
3.882463003337540020e+00
1.343550865552491480e+00
-1.939607879801984680e+00
-4.521319996050166878e+00
-5.140797305282920782e+00
-3.618194140524818359e+00
-9.024271491370642329e-01
1.670880996220694525e+00
3.185144854817353988e+00
3.494793411048755960e+00
2.873743599991432252e+00
1.365275212377751179e+00
-1.078269607659198437e+00
-3.746092713534959984e+00
-5.209551737747829314e+00
-4.557250595372919655e+00
-2.154471755696734991e+00
8.751368883909851348e-01
3.458870892704910105e+00
4.870202097116530737e+00
4.703415187976347944e+00
2.886872831265189010e+00
-1.349987458743253654e-01
-3.238659513677541124e+00
-5.003261313117811859e+00
-4.637266372687032678e+00
-2.486068321805916970e+00
4.250514336266119630e-01
3.089574096283560944e+00
4.765340078041980121e+00
4.957189132839340928e+00
3.465878956436172942e+00
5.852285999841284614e-01
-2.671458682285969388e+00
-4.835075392613459755e+00
-4.923109528645969846e+00
-3.121164655526563081e+00
-4.108580149292488382e-01
2.218019415030311414e+00
4.074653074687045518e+00
4.676355845183445048e+00
3.713795282737647696e+00
1.255533392924277347e+00
-1.922476501710800090e+00
-4.413921601970096198e+00
-5.019301601849394778e+00
-3.612088947841399111e+00
-1.038040468298394137e+00
1.688343698494415346e+00
3.858358124897312003e+00
4.957007220615812670e+00
4.522006817456736272e+00
2.386599260778359710e+00
-8.579670553011570222e-01
-3.806106937981482474e+00
-5.024343561122664781e+00
-4.082670849917072964e+00
-1.705808774430131347e+00
1.019931444706746460e+00
3.326434469789827375e+00
4.744611653357083902e+00
4.833828455537457103e+00
3.218145936986509970e+00
4.354326500101979303e-03
-3.781641695394114322e+00
-6.377506884882470750e+00
-6.350321004574886352e+00
-3.736334008488152669e+00
-1.197524801706073561e-02
3.134369308008345012e+00
4.819834158859588769e+00
4.856565099049841017e+00
3.253131472362882803e+00
3.183005358457272060e-01
-2.917857731407386357e+00
-4.961462193397080611e+00
-4.877600766252547793e+00
-2.937066185949855246e+00
-1.564660313317693952e-01
2.520011488845937286e+00
4.461516329615818677e+00
5.156768317608102947e+00
4.185687676410495328e+00
1.566620729833218650e+00
-1.821945262759678830e+00
-4.419010134937829903e+00
-4.979471309893751751e+00
-3.450496784299496245e+00
-7.642005358215866462e-01
2.011437925077976807e+00
4.130440917134288625e+00
5.075724850164877289e+00
4.433703392262747123e+00
2.098415466227989690e+00
-1.291177877695151022e+00
-4.287381213971158900e+00
-5.439779889138347535e+00
-4.341751358633635149e+00
-1.746379233943347931e+00
1.222311838573036713e+00
3.678271653162903831e+00
4.986037216822466256e+00
4.680207640231884625e+00
2.643637305630034184e+00
-5.775172287103214064e-01
-3.705862140116299663e+00
-5.309550553568207931e+00
-4.742154734568527097e+00
-2.474738603841974971e+00
4.696596477072890741e-01
3.145939281983354707e+00
4.829079865452123421e+00
4.988112749988396821e+00
3.397827808927507132e+00
3.839802044450848495e-01
-2.967905247471204877e+00
-5.121309709561894685e+00
-5.040719493478783342e+00
-2.911364757190191721e+00
1.019871093927727235e-01
2.639037316676827505e+00
3.835400597401683154e+00
3.652419092659027200e+00
2.513285637148625185e+00
5.916454392837765530e-01
-2.025359521679265029e+00
-4.489556126756808929e+00
-5.408359241094096603e+00
-4.143486580468540126e+00
-1.336103530980144338e+00
1.795839712337994776e+00
4.191830149263960692e+00
5.141840679629305910e+00
4.294433951621651424e+00
1.781115281804169781e+00
-1.577153349655318726e+00
-4.363963666485290993e+00
-5.303749677070524804e+00
-4.114627486373135135e+00
-1.536252831028178667e+00
1.378346640192175787e+00
3.785625459070947940e+00
5.077119433830432627e+00
4.806744360960121476e+00
2.823494092731381855e+00
-3.911285892871825265e-01
-3.557658491209569895e+00
-5.170595383609634332e+00
-4.564163496230484895e+00
-2.310809610430917260e+00
4.707946745825133950e-01
2.911168354011945514e+00
4.477108417890375947e+00
4.704454135427799777e+00
3.228867795631960025e+00
2.437104229238384323e-01
-3.112600651251651751e+00
-5.195095868391701011e+00
-5.030210005604115686e+00
-2.976981560531217319e+00
-1.511106029825095565e-01
2.485623362537604297e+00
4.343378106875067424e+00
4.932722788896043653e+00
3.819723880484940270e+00
1.039317222755232972e+00
-2.451409921584699614e+00
-5.023129953423267402e+00
-5.451551412973854482e+00
-3.774538664660391785e+00
-9.951766897374759724e-01
1.820450315142751352e+00
3.967166575253031624e+00
4.954111765238397247e+00
4.376845390121954615e+00
2.111156480798406232e+00
-1.336241129757083979e+00
-4.742252488187572723e+00
-6.613451333078716132e+00
-5.961456572074685489e+00
-2.966880526750002911e+00
9.742093655056980328e-01
4.104980307784530602e+00
5.380577359922136260e+00
4.681754368721076531e+00
2.345911146340258213e+00
-9.582910513866098601e-01
-4.018771247853337947e+00
-5.453882493080151050e+00
-4.660326313728232250e+00
-2.188202969654762686e+00
8.642977920768608602e-01
3.535855497904564437e+00
5.137116808308361371e+00
5.169993613805784705e+00
3.433602440506359432e+00
3.210299881125114885e-01
-2.997850874966303536e+00
-5.005215475759742461e+00
-4.816810010686266352e+00
-2.733494606453944265e+00
2.139560806069736865e-01
3.003220890113055042e+00
4.876402141709365701e+00
5.293136618447110919e+00
3.980754768643147923e+00
1.152111932753794088e+00
-2.269715644876475036e+00
-4.856327740916115410e+00
-5.480160647886261671e+00
-4.002323079347391399e+00
-1.160223812910324170e+00
1.980769761038936316e+00
4.405993632548737438e+00
5.351070090715290384e+00
4.455341650429463840e+00
1.888611620166383176e+00
-1.502203107899292345e+00
-4.294031546121965803e+00
-5.209013909862775904e+00
-3.971775499817466581e+00
-1.342181295984675060e+00
1.607793351699873696e+00
4.017641788688606219e+00
5.237614863460488657e+00
4.783795088402413853e+00
2.562711685207874623e+00
-7.895042308844169021e-01
-3.895577956739226799e+00
-5.327165550053249987e+00
-4.566915421318207713e+00
-2.215147997322198581e+00
6.810217939248951469e-01
3.172332581971871512e+00
4.421907447400633018e+00
3.866514285527519856e+00
1.678077621405124509e+00
-1.223864422659602047e+00
-3.738860294954372776e+00
-5.046155647081579154e+00
-4.768099607653479843e+00
-3.063155337673046041e+00
-5.178198823356825464e-01
2.151607381320631784e+00
4.231040255951560525e+00
4.996953390298873643e+00
3.906328724198598223e+00
1.063237892345392677e+00
-2.433313205986782357e+00
-4.897477034922626871e+00
-5.194581485296223988e+00
-3.482224397617324829e+00
-7.631852450345717465e-01
2.000485391914620603e+00
4.160868667498982099e+00
5.144851872801415205e+00
4.413476545799682071e+00
1.888552851716499115e+00
-1.567857153015196792e+00
-4.359938700901415665e+00
-5.185697108713645420e+00
-3.910335266369552087e+00
-1.377295140999517775e+00
1.402244075714952354e+00
3.679525682017348309e+00
4.876432717214387758e+00
4.502871164253746450e+00
2.397587943906889230e+00
-8.565972622442900031e-01
-3.882442867379853890e+00
-5.248302182058949050e+00
-4.458881841196396856e+00
-2.119292193628564913e+00
7.649282366190728322e-01
3.349934231131560747e+00
4.960894286011398258e+00
5.026910333300152800e+00
3.286388720160247079e+00
1.524941232140037961e-01
-3.139178673661835894e+00
-5.065599457587628862e+00
-4.820284207470188598e+00
-2.755516327095474782e+00
1.387276284747797073e-01
2.895448774409894455e+00
4.745134091794104947e+00
5.102522655443383570e+00
3.706478679678031352e+00
8.687209152588899475e-01
-2.409754852674347525e+00
-4.831300358615409962e+00
-5.574749117971551371e+00
-4.569967121519763253e+00
-2.115719973213412430e+00
1.194744496166769032e+00
4.186499298998890950e+00
5.485652893700692090e+00
4.438404014413554144e+00
1.490100945200150573e+00
-2.090205095225480925e+00
-4.740888266671229090e+00
-5.359554366990385788e+00
-3.889860579419263331e+00
-1.140280655634744900e+00
1.875739280061860192e+00
4.307232727164638675e+00
5.467670534707045782e+00
4.885479974068259956e+00
2.545154485202880679e+00
-8.296651847677007918e-01
-3.824049569954479200e+00
-5.059266970110531503e+00
-4.117883521182109874e+00
-1.661511179890011292e+00
1.261282390205017645e+00
3.761685975122097680e+00
5.158143169174996601e+00
4.957766462820897502e+00
3.020556588102429441e+00
-1.800476056544425552e-01
-3.453697890734315212e+00
-5.354084464132606414e+00
-5.089582282239780042e+00
-2.978232926915519663e+00
-4.268599218703206244e-03
2.829025159914917431e+00
4.720407444483962323e+00
5.069682641371540122e+00
3.590880296889306322e+00
5.847062675378733587e-01
-2.837075824916261091e+00
-5.101359214959602539e+00
-5.192748349432738664e+00
-3.336556368694515218e+00
-5.570437522735187663e-01
2.178051064985691010e+00
4.223836996995712134e+00
5.042193625890555531e+00
4.145338694315647388e+00
1.478370402702797293e+00
-2.070054855778664216e+00
-4.831538674902756902e+00
-5.472154733349025690e+00
-3.949350492590763206e+00
-1.212080191083521941e+00
1.728709458621692896e+00
4.076794759264475765e+00
4.979129154926228651e+00
3.768844068797748470e+00
7.582112172315469412e-01
-2.635876866262114149e+00
-4.905601456460296106e+00
-5.417627667646056189e+00
-4.362422535554508762e+00
-2.229758140556911350e+00
4.260689756622419999e-01
2.955749689327995977e+00
4.609658179561769487e+00
4.686028960076457750e+00
2.865269815342026405e+00
-3.626613157031233214e-01
-3.606419492853512487e+00
-5.287008178395470992e+00
-4.725887016516402639e+00
-2.455136821720295348e+00
4.754872685355587825e-01
3.181005100429269206e+00
4.986257030680540936e+00
5.264087692752114300e+00
3.602112121827968583e+00
2.999142075947178188e-01
-3.331775132822060392e+00
-5.549029954914344920e+00
-5.390765341429783142e+00
-3.246640453964054540e+00
-2.392835246121406967e-01
2.598842617359332419e+00
4.523116829252005644e+00
4.965924419262319311e+00
3.622653708408962725e+00
7.481595425532208132e-01
-2.630254878524053819e+00
-5.022567639043166388e+00
-5.363269461698909168e+00
-3.682501368017005117e+00
-8.572349570470370050e-01
2.099220111659483745e+00
4.373848965967590097e+00
5.312258332686099926e+00
4.470656985724461130e+00
1.906880547884250099e+00
-1.528895604553033083e+00
-4.360222297278665060e+00
-5.307774424476835229e+00
-4.112328310896333328e+00
-1.493841324872941634e+00
1.535485003591222419e+00
4.093794612219402218e+00
5.418536324093275347e+00
4.944791433892033794e+00
2.639130512070003043e+00
-7.235490482195197082e-01
-3.736325180322974671e+00
-5.168156512585561302e+00
-4.787054456838724548e+00
-3.159814906554941238e+00
-7.418045065519720538e-01
2.188402387144013694e+00
4.730780278700231101e+00
5.454378908791310820e+00
3.642513796963362971e+00
4.545080605758833325e-02
-3.590823780470716819e+00
-5.574411399605666340e+00
-5.198829392700058172e+00
-2.961627635095132050e+00
5.952134205380121834e-02
2.896763543375383332e+00
4.838975478001765751e+00
5.331740710321538401e+00
4.048120950013571751e+00
1.183240323980456976e+00
-2.257647858098237759e+00
-4.714796815099228766e+00
-5.038596290418818846e+00
-3.279131640624409538e+00
-4.363019463557384903e-01
2.386854630382683862e+00
4.446008848441024064e+00
5.255846341726300608e+00
4.442594567827219620e+00
1.963617178772491201e+00
-1.449234292392167500e+00
-4.316288352031816267e+00
-5.293927360146676087e+00
-4.133201519315980121e+00
-1.631228200423222363e+00
1.200906096953084257e+00
3.622272777774883323e+00
5.005699259092896369e+00
4.743183273791312438e+00
2.622950688242186690e+00
-7.076661350076018930e-01
-3.808427420151812459e+00
-5.229256700588340578e+00
-4.448092262533392294e+00
-2.067543611850241270e+00
8.488974988870153782e-01
3.426286830093707270e+00
5.032625044761963373e+00
5.127969820571919968e+00
3.415150027108404540e+00
2.560350180743320436e-01
-3.115574469320451012e+00
-5.123661370127469361e+00
-4.923264604650258391e+00
-2.900871422346960049e+00
-7.697721252855893592e-02
2.671645891286711816e+00
4.687539960021466001e+00
5.241878794890165949e+00
3.662722293896659931e+00
9.046182036590399989e-02
-3.920767472875449133e+00
-6.178858220516991295e+00
-5.676454797684069575e+00
-3.267220157115204859e+00
-4.113961678164962388e-01
2.075093398880764717e+00
3.890375507216069728e+00
4.637338664349904604e+00
3.813081229103798986e+00
1.330201691923284191e+00
-2.005038544042394566e+00
-4.666047227483316462e+00
-5.366142440579798389e+00
-3.937164068938647787e+00
-1.207596527901722894e+00
1.761716805695481725e+00
4.126225001649542534e+00
5.251673040758443989e+00
4.708992444603580907e+00
2.459838209540035514e+00
-8.629623463684119589e-01
-3.917766010576877012e+00
-5.290454569521056527e+00
-4.455011107413646698e+00
-2.009727729602379220e+00
9.795753873821808622e-01
3.575736079868400363e+00
5.038315107809554938e+00
4.816301200332871346e+00
2.769539946866033997e+00
-5.402810068308441238e-01
-3.804975875336354285e+00
-5.536770471157680618e+00
-5.037834998408876608e+00
-2.780146883602188090e+00
1.823136948491944631e-01
2.902661938350052484e+00
4.686078873467161010e+00
5.005939139553027495e+00
3.577188502190273844e+00
6.367897617936996157e-01
-2.777712498768065696e+00
-5.111511978094787523e+00
-5.284218712015939623e+00
-3.425407939256932544e+00
-5.354743558115435675e-01
2.335662911468224134e+00
4.440344868243039755e+00
5.226913457939168950e+00
4.298878130325919145e+00
1.680006741403141213e+00
-1.793872969167883857e+00
-4.556813751853679761e+00
-5.272846638148505072e+00
-3.907540755500328089e+00
-1.623561461001513440e+00
4.578096089182127626e-01
2.112003908475876379e+00
3.460627192465153712e+00
3.951787701009090270e+00
2.599682496739378124e+00
-5.905567387410450841e-01
-4.010043834316720179e+00
-5.669836020195418769e+00
-4.846378194008115869e+00
-2.327474169510250324e+00
6.403199337585887552e-01
3.197350369161966910e+00
4.808562806566081704e+00
4.958496559158288797e+00
3.300024220255649787e+00
1.697793887572154881e-01
-3.158225838144162800e+00
-5.068608912635652608e+00
-4.739653286217726524e+00
-2.621675797053363510e+00
2.100899829876000657e-01
2.858375849224850551e+00
4.721041863978458153e+00
5.257350056739722000e+00
4.034294635880667279e+00
1.162694767619621095e+00
-2.310684219040593845e+00
-4.749740171962987922e+00
-5.041267250012367640e+00
-3.350726351106666723e+00
-6.912331594759317799e-01
1.971811816400514061e+00
4.011458269212818450e+00
4.905413213614596479e+00
4.176169727953740640e+00
1.758829961238651318e+00
-1.558010890198468390e+00
-4.272106148070681897e+00
-5.089838791302049970e+00
-3.800486708683141757e+00
-1.188055570331880251e+00
1.707879368742515780e+00
4.047522552043474775e+00
5.188913825645263600e+00
4.675189863811517910e+00
2.442698024455836947e+00
-8.680670626498903086e-01
-3.903230034784377356e+00
-5.265070569604612061e+00
-4.441620457361485919e+00
-2.030244856728960823e+00
8.867877971248167013e-01
3.391902532303478601e+00
4.886344963538657993e+00
4.928905647679491686e+00
3.151189713089988409e+00
-3.586894597797954387e-01
-4.391505557979313856e+00
-6.838898721622595822e+00
-6.298284689660493818e+00
-3.355823116093255454e+00
1.501563330037056221e-01
2.811343615090694303e+00
4.209056960257790969e+00
4.312306288101445340e+00
3.009771883448442154e+00
3.772097182803704762e-01
-2.783070820710403570e+00
-5.040637853828366488e+00
-5.292730520562127339e+00
-3.555368988801441255e+00
-7.264419333828604497e-01
2.150461009153596059e+00
4.251116256238710811e+00
4.967978620172868176e+00
3.959381554372573664e+00
1.384253393238815910e+00
-1.877337936631888748e+00
-4.430981155036418428e+00
-5.140645923174847809e+00
-3.837342825061189622e+00
-1.250571957276248813e+00
1.609674481609743690e+00
3.889198392757605927e+00
4.956087230261609911e+00
4.397118298752817012e+00
2.178227198238028794e+00
-1.052648290908347439e+00
-3.937766064692941992e+00
-5.103044561898625098e+00
-4.116283900410335761e+00
-1.663784230789060015e+00
1.165366218286207234e+00
3.545603504773454429e+00
4.965503179850671245e+00
5.008942411020282925e+00
3.401869390820642547e+00
4.277429627188157335e-01
-2.774846274172385829e+00
-4.692989529238927204e+00
-4.505739178515630883e+00
-2.589096394421969372e+00
5.997100284639705903e-02
2.591369207788157603e+00
4.417027800523042558e+00
4.985368065187120834e+00
3.856438140492793210e+00
1.140170601523664118e+00
-2.160073484516805031e+00
-4.483454496914141885e+00
-4.737554400393048759e+00
-3.091189233441593576e+00
-7.045730006626840236e-01
1.277407877196415020e+00
2.470117733612442912e+00
3.056983350730331228e+00
2.939182438500761219e+00
1.517055096222792887e+00
-1.260816308751639303e+00
-4.089953579055786825e+00
-5.243672583640869078e+00
-4.141150986876998452e+00
-1.587856168800716228e+00
1.227234712933235272e+00
3.495588890603885002e+00
4.725652286236128319e+00
4.485356643907098650e+00
2.579544646644571060e+00
-4.724831033569449334e-01
-3.358028458734130250e+00
-4.703198548017153868e+00
-4.014165580911908116e+00
