-3.256567722250811037e-01
-1.911062336331527389e-01
-1.637276270445774673e-01
-2.107628080424944206e-01
-2.393932900128895869e-01
-2.307108258331631023e-01
-2.018325282577593527e-01
-1.349498659195303707e-01
-7.686326510701513293e-02
-2.295222460284366828e-01
-7.274340190392662997e-01
-1.293993208035033815e+00
-1.406680490388512395e+00
-9.618841729586052880e-01
-4.525534323653457869e-01
-3.076516269495800926e-01
-4.169695313838024386e-01
-4.610129986847562589e-01
-3.595354462167967835e-01
-2.326439589219649051e-01
-1.483902123703095266e-01
-6.571157463767329787e-02
5.287620224280430853e-02
1.730131059746620181e-01
2.312687873596405153e-01
2.065131256311024677e-01
1.399977959782184034e-01
9.875758578136739629e-02
1.285512361527408054e-01
2.407466115700247211e-01
4.259155321062101374e-01
6.576292954687957826e-01
8.915132897277481261e-01
1.084131768930367334e+00
1.217641653867756357e+00
1.311647888340043533e+00
1.415079395296033438e+00
1.556523755221077110e+00
1.683960646772155068e+00
1.694044231296727876e+00
1.552696883951587337e+00
1.353355950006431829e+00
1.226410609301353816e+00
1.220296497804125746e+00
1.290485254618873423e+00
1.363716718985496179e+00
1.382758871270099110e+00
1.315479417324920686e+00
1.154668411816782703e+00
9.227497001517583897e-01
6.779719202133189793e-01
4.963023455101097658e-01
4.196709799758993609e-01
4.158894737959408783e-01
4.018290306474723850e-01
3.262007798839111627e-01
2.431269965891449392e-01
2.695627234909475645e-01
3.907313753106411713e-01
3.167988687282785043e-01
-2.592551985757048372e-01
-1.119264029941303251e+00
-1.536011672602344058e+00
-1.146684374600314360e+00
-4.697581423950936697e-01
-1.911091086852816923e-01
-3.372350410920822439e-01
-4.979386064905893527e-01
-4.724420101685904427e-01
-3.728151666625744154e-01
-3.328488095974528882e-01
-3.598086822245402105e-01
-3.949763183394565669e-01
-3.904399731668142248e-01
-3.281936736300103408e-01
-2.160053270811495563e-01
-8.704615614241299759e-02
8.146364840434711097e-03
3.214975899745085852e-02
-9.138977714621288745e-03
-7.067273415741261167e-02
-1.032029518759302045e-01
-8.520831504845238769e-02
-2.435248278740840405e-02
6.591080437125776403e-02
1.776148255952636756e-01
2.939963526668953331e-01
3.864481767104764875e-01
4.339387696807755490e-01
4.242639450188037120e-01
3.406979940926724848e-01
1.880427027988385291e-01
3.731050901757732713e-02
-5.808087522449458667e-03
9.336029617443764028e-02
2.553932248543921979e-01
3.725750397230223609e-01
4.065321413470479039e-01
3.806761641443842104e-01
3.162980355634093521e-01
2.162376320015664821e-01
9.700421337948482436e-02
-7.765570595783498342e-04
-5.088511194771336982e-02
-7.766891991528805661e-02
-1.228877422882718451e-01
-1.631179455307986415e-01
-9.982292247441526545e-02
9.178871739297776722e-02
1.847773657837552541e-01
-1.744129253573247218e-01
-9.646872697376133177e-01
-1.569173816887765360e+00
-1.428781440951959469e+00
-7.836667275325991389e-01
-3.293346330434318014e-01
-3.205441667947958040e-01
-4.515354354387687841e-01
-4.253112425017879228e-01
-2.582817571425312098e-01
-1.160853575510509272e-01
-9.095552786811335333e-02
-1.471468465497239031e-01
-1.925972186595271141e-01
-1.740066567564948485e-01
-1.061711695943485384e-01
-2.479157290586999490e-02
5.477035308336698771e-02
1.241057544521270012e-01
1.606309733687530938e-01
1.413308116546272697e-01
6.814702003046735346e-02
-2.867082821531791864e-02
-1.084857226825329674e-01
-1.439559745664335533e-01
-1.321777080760863365e-01
-8.062737841899181301e-02
6.984596891509611827e-03
1.139157040138156496e-01
1.893518504092220889e-01
1.712867444844762277e-01
4.375818174218213535e-02
-1.365778987839312286e-01
-2.811112776678768022e-01
-3.313413643553873023e-01
-2.804207460198313018e-01
-1.554242346587603463e-01
4.103343480065245116e-03
1.549847522746341522e-01
2.516458756746827730e-01
2.534344195583223547e-01
1.481449381328543424e-01
-2.286901786969656319e-02
-1.773559501117118742e-01
-2.529980775892813338e-01
-2.570780342857343359e-01
-2.389389434293732739e-01
-2.085618178854282689e-01
-1.068648079334776624e-01
9.189906660951199791e-02
2.246556666873780472e-01
-1.972007229404579981e-03
-6.236181685526162033e-01
-1.178989036021163672e+00
-1.167104482332003368e+00
-6.875475924595503274e-01
-2.655004717468636977e-01
-1.377754657770216828e-01
-9.979736690542638511e-02
4.239487855974768959e-02
2.208265496756113277e-01
2.806064570416952897e-01
1.866465249589190911e-01
2.834977287158091386e-02
-8.306234672086612592e-02
-9.130721927204310528e-02
-9.467213733067487286e-03
1.128827703557341716e-01
2.317043460989136328e-01
3.217946312495568173e-01
3.645383692315712909e-01
3.427935662015141882e-01
2.543722778818451880e-01
1.214356223088151610e-01
-1.561828732550368110e-02
-1.066981667145594781e-01
-1.080145877009598132e-01
-1.114536756977320409e-02
1.446954835080659918e-01
2.929337265549895597e-01
3.658223436438049481e-01
3.124229162834557538e-01
1.257241431781635499e-01
-1.288754792387154791e-01
-3.328163119688459792e-01
-3.910761660479807333e-01
-2.941959754946396055e-01
-1.034170122757079313e-01
1.081752343893177537e-01
2.886083134694735763e-01
4.049072565376020671e-01
4.380448146751860228e-01
3.816684260376121962e-01
2.434392795135714715e-01
5.922036692894837306e-02
-1.007028808267960429e-01
-1.679128337331425580e-01
-1.236542540168262677e-01
1.153614392710541545e-02
2.235195849996167161e-01
4.698276979003242482e-01
5.712061060176294447e-01
2.772059366640442502e-01
-3.794454660365189080e-01
-9.173902141562859658e-01
-8.966218616077710202e-01
-4.746567812846037016e-01
-1.496951458695878201e-01
-9.368425398872413934e-02
-7.147898310925526744e-02
1.099065785428393616e-01
3.637819503624618589e-01
4.949534522571686357e-01
4.256172069488157739e-01
2.280839066067646692e-01
2.799202234567238837e-02
-7.972278197812758538e-02
-6.090825600177422749e-02
6.358780975561773019e-02
2.423337708260325796e-01
4.126640609618963951e-01
5.066385210349751977e-01
4.719728029429872684e-01
3.138756383979039999e-01
1.039251899662975709e-01
-7.443277635976434936e-02
-1.830493854906449780e-01
-2.198003041658599666e-01
-1.758684200502613759e-01
-4.067670702013304052e-02
1.524674236936188199e-01
3.142570871202619021e-01
3.434035683500558656e-01
1.935348033087345987e-01
-8.066347971346843337e-02
-3.447581586291704192e-01
-4.712097904923210900e-01
-4.160342041398576440e-01
-2.253780110742444609e-01
1.497216355764819512e-02
2.337482776844890531e-01
3.870953694994230254e-01
4.411842102435903912e-01
3.770524687587645807e-01
2.204880511469053950e-01
4.155015885224512540e-02
-9.227592998957484527e-02
-1.558176502676220099e-01
-1.514530662016237983e-01
-6.593762415289641798e-02
1.237147926355209315e-01
3.602319973406303832e-01
4.252102958920894182e-01
7.123586735715270457e-02
-6.210169373478329202e-01
-1.150799485231794650e+00
-1.126476331468027503e+00
-7.433372539353829689e-01
-4.504445077827406996e-01
-3.566837952109775944e-01
-2.542272004639949401e-01
-2.922547520685116543e-02
2.022931588351958021e-01
2.828421788391575764e-01
1.905453292490326966e-01
3.026389799227473254e-02
-8.676652682046182008e-02
-1.230975108924750872e-01
-9.525275245081799014e-02
-1.888155183303891205e-02
9.773692973365444292e-02
2.217422832747923400e-01
2.990739058963491348e-01
2.983349585801302606e-01
2.282736858902413846e-01
1.163602498542357644e-01
-1.126278421871623747e-02
-1.400416170537487903e-01
-2.603520908747590235e-01
-3.287707742073209816e-01
-2.613741868760215969e-01
-2.945156809172224874e-02
2.492039674744316868e-01
3.862371295373019930e-01
2.959358953951312654e-01
5.475075224594141282e-02
-1.917153294694256549e-01
-3.354099978898569256e-01
-3.324955740651619474e-01
-1.861845456235393381e-01
5.860370618145202548e-02
3.236886653087679422e-01
5.310730209062535234e-01
6.305320882446838748e-01
6.010239949550411076e-01
4.552432589170172794e-01
2.528488950268658053e-01
7.624523303313519851e-02
-2.632610533200501965e-02
-4.828962944835359095e-02
3.163921184289587851e-02
2.565428832230433609e-01
5.687284947080554209e-01
6.952186304828497088e-01
3.300190341420073947e-01
-4.227841757017952173e-01
-9.837968465467235024e-01
-9.447595053775219576e-01
-5.668636152118384786e-01
-3.410773991129054661e-01
-3.286767868391650138e-01
-2.460522689827275844e-01
3.846757033395182407e-02
3.695725148378800617e-01
5.472166794765421782e-01
5.180015628857677079e-01
3.530173561346164335e-01
1.521851123100740888e-01
-9.423716574421814318e-04
-4.927364642317071108e-02
2.396749505226575261e-02
1.923854937862717329e-01
4.010664708157801739e-01
5.764114384605445451e-01
6.412215428000571649e-01
5.551353236763408860e-01
3.486704405259575812e-01
1.086996884827488991e-01
-7.359828053725621377e-02
-1.443994823061013899e-01
-9.212323613314996051e-02
6.344141363143566970e-02
2.722102646448192886e-01
4.555048436328799077e-01
5.262994872660832213e-01
4.276182283694004438e-01
1.775275830964805068e-01
-1.147078727512463314e-01
-3.051622919559924263e-01
-3.168033517557265477e-01
-1.819127045912741214e-01
1.758666816711981773e-02
2.237265220206524352e-01
4.042207770233589570e-01
5.160712887257951076e-01
5.061284306687009460e-01
3.550109298379534595e-01
1.125173384933035037e-01
-1.257812362213437396e-01
-2.891418772132961501e-01
-3.570755059505853479e-01
-2.963476697892412082e-01
-4.070894081005574372e-02
3.572406751647959067e-01
5.775447289268569317e-01
2.481160984292629379e-01
-5.484272555414603234e-01
-1.191268260317270844e+00
-1.208242945965888770e+00
-8.408597899510953377e-01
-6.184609056789197590e-01
-6.302722845899495496e-01
-5.695920194616984622e-01
-2.751635071589359494e-01
9.379093274864129526e-02
3.100082667901482569e-01
2.891060236939788641e-01
8.308809484104054399e-02
-1.981740523066001236e-01
-4.352794882798903253e-01
-5.388663109466694801e-01
-4.832103237665434925e-01
-3.009551154337822831e-01
-5.792936919367860232e-02
1.598202050769454707e-01
2.667733229341872625e-01
2.156690924153863709e-01
2.305569075102169296e-02
-2.357792457121887786e-01
-4.649025319319653460e-01
-5.945357868488539976e-01
-5.923597559482441932e-01
-4.504191480277185411e-01
-1.994086105458245939e-01
6.255125447355611157e-02
1.946356841563161300e-01
1.037803498106843053e-01
-1.755674932127680443e-01
-4.972605079195123179e-01
-7.118830138750894543e-01
-7.644630356937889282e-01
-6.869209529030788630e-01
-5.181348713088259617e-01
-2.685740048178306139e-01
2.976871269399514533e-02
2.755924255173601845e-01
3.411876179440544998e-01
1.745001228187251230e-01
-1.487498474336257925e-01
-4.800544740018697909e-01
-7.030610207034206915e-01
-7.744723412227013659e-01
-6.672433324907587338e-01
-3.472481655254263111e-01
8.918064996588601079e-02
3.030455696821249822e-01
-8.798495742553216759e-03
-6.182050533191399966e-01
-8.762105166200300221e-01
-5.431199346926074423e-01
-1.194646790116768720e-01
-9.929296163334037917e-02
-3.279469823659383887e-01
-3.357157510830857672e-01
4.408310559797452843e-02
5.696746857769192651e-01
9.057824652363032358e-01
9.153906124536953515e-01
6.926300778477237907e-01
4.057129453238523253e-01
1.658944445199673490e-01
2.571905487830188769e-02
2.260105623372690026e-02
1.715235240571054698e-01
4.332380172070121604e-01
7.212489591178156134e-01
9.346452084125780324e-01
9.839648168583453591e-01
8.268559300928398637e-01
5.099208362314073817e-01
1.605178226766627858e-01
-8.201503153310220340e-02
-1.336187706674831499e-01
7.839575357503562880e-03
2.659084045110226557e-01
5.231044384228872302e-01
6.920832222751964746e-01
7.463644094434896958e-01
6.683457035455943052e-01
4.316202309092083689e-01
8.925872621646582794e-02
-1.967594179786730513e-01
-2.843736269978888176e-01
-1.614322052870303115e-01
8.687874368436868111e-02
3.542046822696334196e-01
5.536412747331636020e-01
6.394179474157225540e-01
6.042299680852141197e-01
4.512748502176861520e-01
1.915171122812915905e-01
-1.179151319605419301e-01
-3.458488092690897853e-01
-3.264831065243393726e-01
3.632947605930372803e-03
4.396630508889526334e-01
5.621296465427371158e-01
1.709948906556692794e-01
-3.538232679478951481e-01
-4.659028731328382356e-01
-2.180126809729546755e-01
-1.442183166294788710e-01
-4.200794899175878672e-01
-6.679847849587025044e-01
-5.480957638658394693e-01
-1.193407857395917815e-01
3.475837594490939764e-01
6.415212897613866705e-01
6.856088631558237001e-01
4.998636885994462986e-01
1.704926832695676242e-01
-1.710446588409022528e-01
-3.952804577377741491e-01
-4.335787691396215116e-01
-2.942624989558492721e-01
-2.892025787573848650e-02
2.900419048728953841e-01
5.585896297777829256e-01
6.573971915850093106e-01
5.201778261265560532e-01
1.878774296947200995e-01
-2.072927846230739612e-01
-5.109321655289346120e-01
-6.150693022589537318e-01
-4.903855651008681704e-01
-1.924207941532874999e-01
1.482557291509812303e-01
3.800823390648143674e-01
4.163519396713598053e-01
2.715078205902539121e-01
1.851481723966585946e-02
-2.641600916937434373e-01
-5.022385266848425900e-01
-6.171759024492166068e-01
-5.455765812848213381e-01
-2.870389571757819835e-01
7.259228240801812726e-02
4.031083513531244500e-01
5.966371646616872582e-01
5.965540198279457584e-01
3.983490924457963600e-01
5.614957886488344818e-02
-3.180348675368981914e-01
-5.747773036598776697e-01
-5.672996630788357253e-01
-2.459222985048815091e-01
2.108115480633223626e-01
4.246278246976379900e-01
1.730667086133189647e-01
-2.677410706966092402e-01
-4.155916499647648310e-01
-2.522074631959753122e-01
-2.118025602268679419e-01
-4.787524766274645072e-01
-7.388121893115533467e-01
-6.535587229500758877e-01
-2.325705395298571787e-01
2.732020374160403775e-01
6.213798106556773782e-01
7.062965659386138961e-01
5.661018208227844850e-01
3.078681075445079962e-01
1.640597727190889338e-02
-2.504381223427134540e-01
-4.098413686105719100e-01
-3.749615780776373031e-01
-1.389853899319485886e-01
1.966639628513870419e-01
4.819291750045880951e-01
5.989108572374277628e-01
5.009301926574807329e-01
2.135787056821504826e-01
-1.685083912287856367e-01
-5.040013798628112385e-01
-6.687297270666962001e-01
-6.130812477562640472e-01
-3.677247188331140282e-01
-2.681207278787509085e-02
2.738477770175738457e-01
4.129055372219739284e-01
3.499164612511828087e-01
1.344958338042923640e-01
-1.381336604387148892e-01
-3.704919066377507231e-01
-4.852271609529249519e-01
-4.348565149062437185e-01
-2.119916953983078667e-01
1.309482208583134799e-01
4.772845198699295910e-01
6.949949079622398385e-01
7.125249765912665678e-01
5.424215416443392002e-01
2.420507877930705432e-01
-1.127669517626993939e-01
-4.086684294357408320e-01
-4.972723779114811005e-01
-2.907853192137453968e-01
8.974388818419312686e-02
3.047590141867652092e-01
9.896305965195721643e-02
-3.353832403708041920e-01
-5.348580510070261029e-01
-3.949327245768979311e-01
-2.895795510386215410e-01
-4.692771829116451632e-01
-7.221141215733319907e-01
-7.153470479981963726e-01
-3.658295550133505714e-01
1.653370064129384698e-01
6.298285283115464539e-01
8.222462328472220916e-01
6.922568659175355466e-01
3.577985379296492741e-01
-1.901308219832269913e-02
-3.271610253232756782e-01
-4.903766670452826548e-01
-4.569035250815102756e-01
-2.414474392318583240e-01
6.482963581607081860e-02
3.461844402560097511e-01
5.152789536909907486e-01
5.255555143359056380e-01
3.666368665343970323e-01
7.113607779687038113e-02
-2.729838478849144767e-01
-5.284305955287319501e-01
-5.647817421247899317e-01
-3.537117059947147979e-01
-9.758015409383043182e-03
2.881683472310226368e-01
4.196942341079294425e-01
3.711377587636213726e-01
1.950322897819473378e-01
-4.531010382512222490e-02
-2.936970927262102515e-01
-4.856953356557198731e-01
-5.391668008901330245e-01
-3.907351164849927616e-01
-6.024656027149170173e-02
3.313722603479031248e-01
6.249733017007289559e-01
7.157180100795698108e-01
5.951421537239101056e-01
3.149121898029793032e-01
-5.713116632064625666e-02
-4.110554126905658912e-01
-5.634178924545780731e-01
-3.684984637949798580e-01
5.220780525199689853e-02
2.822519783588983144e-01
3.252972529595665740e-02
-4.215702369163228935e-01
-5.469367692341607912e-01
-3.088228411783073835e-01
-1.902945162391182221e-01
-4.389338471252332563e-01
-7.565746333434661963e-01
-7.688344009563359283e-01
-4.379738568387766540e-01
2.273401625282767125e-02
4.054438875333957748e-01
6.110471101647615422e-01
6.111221179739821929e-01
4.117095270238556592e-01
7.590275230667151152e-02
-2.649726307571144135e-01
-4.745779545733440075e-01
-4.884797174338358916e-01
-3.202243113745852354e-01
-2.633685453949625305e-02
3.022263423056802401e-01
5.440326767663399288e-01
5.949019008284771592e-01
4.306034148104873616e-01
1.221448177759099779e-01
-2.082097584332141815e-01
-4.466098893371445722e-01
-5.180360390498883749e-01
-3.942624385258754471e-01
-1.149647316915984874e-01
1.970007535910708041e-01
3.889358354723019828e-01
3.833302049199096562e-01
2.221029293828896689e-01
1.385970113928144953e-04
-2.155675239236367058e-01
-3.824178584275317871e-01
-4.402387684455422168e-01
-3.271420414948005839e-01
-4.046802135574962406e-02
3.375048929273262721e-01
6.730068369102352177e-01
8.382183260482934939e-01
7.629186860302445972e-01
4.689015726752333579e-01
6.774079344058900332e-02
-2.824920970403653198e-01
-4.258384948638507805e-01
-2.767677185470764911e-01
4.851994997329726889e-02
2.156971171196835901e-01
1.211991268425854050e-02
-2.998898711684765961e-01
-2.850723691237292967e-01
5.339790102939348526e-03
8.617802799193660657e-02
-2.382287464726142445e-01
-6.232025345162317542e-01
-6.712088767480065554e-01
-3.413540573018847279e-01
1.415693646075871504e-01
5.537074509984120096e-01
7.825007754817190353e-01
7.959741838176120909e-01
6.113129832862873592e-01
2.951236846470249864e-01
-4.661479791174846787e-02
-2.983246487607109088e-01
-3.746057526585489517e-01
-2.593983721919852492e-01
-9.910367256213400977e-03
2.825884026665619886e-01
5.257535859609806517e-01
6.334311966160420804e-01
5.455990779403337987e-01
2.712312079110314467e-01
-9.009931263370925258e-02
-3.853853231907538035e-01
-4.890814901180128849e-01
-3.701505001934760064e-01
-9.918245108397902299e-02
2.000903059927872096e-01
4.178091397817322861e-01
5.022239161189426815e-01
4.536861061436024967e-01
2.900151909264689909e-01
4.456563164499207502e-02
-2.006455783443206187e-01
-3.281116996151611787e-01
-2.677124997764572245e-01
-4.749713207805551785e-02
2.501125568166241986e-01
5.412380104590732710e-01
7.359945967706842396e-01
7.421603218425896209e-01
5.182329157217747673e-01
1.189466109419268225e-01
-2.993234071209305291e-01
-5.238971219918651112e-01
-4.375855522676254106e-01
-2.092395086626032408e-01
-2.059068068823045050e-01
-5.168796625802674072e-01
-7.121316017875930493e-01
-4.124666413144968957e-01
7.662829581614977181e-02
1.500455790326700733e-01
-2.651631007712248467e-01
-6.970933474877205605e-01
-7.640388981918108113e-01
-4.764750590706884892e-01
-3.935261545061377597e-02
3.734049649949107708e-01
6.544083718763495927e-01
7.348478237848927730e-01
5.984143344825467725e-01
3.042550179197490712e-01
-2.981320447519444222e-02
-2.778901366949832474e-01
-3.586005819168862074e-01
-2.608869555864713474e-01
-2.890273992017449584e-02
2.688861929291693764e-01
5.480653001496662569e-01
7.095709024827497879e-01
6.744405066131192727e-01
4.388293785129452895e-01
9.581979481644425922e-02
-2.065212974100208154e-01
-3.500850703031119227e-01
-3.119739015127196979e-01
-1.550526996174082239e-01
3.997208319715556818e-02
2.231659139365281541e-01
3.608668383007616609e-01
4.008862603433936411e-01
2.848331830520033359e-01
1.296060200496568920e-02
-3.126151734285988470e-01
-5.372836399303122512e-01
-5.561853730714136912e-01
-3.642224100562093114e-01
-3.467850337537120575e-02
3.151060162948015608e-01
5.582914594023158372e-01
6.048522969784811965e-01
4.308602333740053081e-01
8.978784593416271054e-02
-2.690756338139565496e-01
-4.431047884292075301e-01
-3.604069611452974109e-01
-2.402461293102904905e-01
-3.830582234760324667e-01
-6.852187171679009481e-01
-6.519277266335654630e-01
-1.346580644249771030e-01
3.261122906696684587e-01
2.065330709045251345e-01
-3.410045009277100636e-01
-7.855036368412295911e-01
-8.304566586958221919e-01
-5.456619096682610026e-01
-1.346342466618166145e-01
2.452533907325853968e-01
5.066605089879625545e-01
6.038232975394538515e-01
5.194118248873911270e-01
2.698714189799374386e-01
-8.371400222324586193e-02
-4.371778272210677940e-01
-6.664962469603971096e-01
-6.716451354811010521e-01
-4.341718827490308463e-01
-4.843672388375036553e-02
3.216747291918362617e-01
5.345975504446718318e-01
5.281971582504587648e-01
3.169109895689112277e-01
-2.229806416036290984e-02
-3.602056070246230646e-01
-5.609847991035907810e-01
-5.576160983451671216e-01
-3.855105494559669110e-01
-1.349846988324920061e-01
1.209555629675030802e-01
3.386711710630843641e-01
4.625432016943132330e-01
4.215266628612773236e-01
1.957435740537047386e-01
-1.261919313602962167e-01
-3.788142243401388387e-01
-4.262355821138603673e-01
-2.497486068699655559e-01
6.211210164278818668e-02
3.906384728220680391e-01
6.360762356357092528e-01
7.159449473083427939e-01
5.745135000229663058e-01
2.364781575835880334e-01
-1.491298384297488622e-01
-3.665905857951773927e-01
-3.213700791196677509e-01
-2.012921894098454179e-01
-3.076646882200825273e-01
-5.944816200552780483e-01
-6.033315754947907728e-01
-1.182278173078934458e-01
4.108306354120341286e-01
4.321920522495728001e-01
-1.833578602385833867e-02
-4.745814501211645942e-01
-6.119064767490677292e-01
-4.347642968113000217e-01
-8.736389798444288424e-02
3.027031159039500485e-01
6.289132205346588123e-01
7.944389393318586068e-01
7.502931379839544723e-01
5.231965195186910611e-01
1.927490983518121426e-01
-1.429670865272646418e-01
-3.779764078623820689e-01
-4.183628072866312775e-01
-2.361242319267175538e-01
9.781011743469927855e-02
4.487654527864710641e-01
6.845216219326267781e-01
7.208375695426945118e-01
5.422917950257248876e-01
2.098593043412334547e-01
-1.506093229300600744e-01
-3.944756869203517868e-01
-4.328283351423953818e-01
-2.861823827077650817e-01
-5.752838755689820838e-02
1.612777736818017948e-01
3.381901119754878726e-01
4.469040657077661960e-01
4.201990779977397006e-01
2.136644534604349444e-01
-1.067880463549463060e-01
-3.907419501998950495e-01
-5.142212966841116506e-01
-4.424210315316652875e-01
-2.084901794836116484e-01
1.190643346863748259e-01
4.397537355539369863e-01
6.249571545237085912e-01
5.610923853336745593e-01
2.371746096553020711e-01
-1.880753303400769239e-01
-4.587507822401361013e-01
-4.515120598770129834e-01
-3.444905321511224638e-01
-4.370470348069680488e-01
-7.148933756678814699e-01
-7.731234893585513523e-01
-3.803046935834700215e-01
1.000048209396799809e-01
1.523854021252434021e-01
-2.385873748760984903e-01
-6.618636807040014780e-01
-7.985089362772292976e-01
-6.269028607753936999e-01
-2.711744824026231515e-01
1.344043266491969923e-01
4.685137407689091149e-01
6.416120409706281835e-01
6.223582256733527496e-01
4.347813620510471155e-01
1.447936523010164012e-01
-1.547244771695384102e-01
-3.726476327719278614e-01
-4.412075425059784894e-01
-3.216311419862872834e-01
-2.740402623397068457e-02
3.439877808560151684e-01
6.373995235566188855e-01
7.308926250751307530e-01
6.021769108145071936e-01
3.153355874624801936e-01
-2.579167409392681132e-02
-3.104105981206218279e-01
-4.501649966431024441e-01
-4.098038054943330954e-01
-2.155571746319368542e-01
6.227034323196706245e-02
3.314591200506049606e-01
5.003060765123724662e-01
5.065921776750323957e-01
3.444674165066905491e-01
7.671754806792062398e-02
-1.830218245461050774e-01
-3.235175500946523841e-01
-2.867079848374426421e-01
-8.024557875962196052e-02
2.314503798281375424e-01
5.408537037611549358e-01
7.260825778865793723e-01
6.963804382218491407e-01
4.465924085349474160e-01
9.233857646661905449e-02
-1.822773282485772028e-01
-2.862792216269807177e-01
-3.450098146826459100e-01
-5.478592332686283983e-01
-7.977841889173746814e-01
-7.172538962187247069e-01
-1.988728946681229126e-01
3.113196383741278495e-01
3.417540654077589335e-01
-5.689647352457299218e-02
-4.940209208633474791e-01
-6.995765174833310507e-01
-6.433532491166726874e-01
-4.009970449013609550e-01
-5.871301206559714075e-02
2.971509579388411648e-01
5.714957282213252165e-01
6.750416516947684853e-01
5.647476838501506169e-01
2.717620523477896621e-01
-1.056691350776146066e-01
-4.308461260525246472e-01
-5.785418059190823303e-01
-4.955998146296418105e-01
-2.226874956223412472e-01
1.366824775114884871e-01
4.559654221934413276e-01
6.170635315070879257e-01
5.528595908045031981e-01
2.860671455214757186e-01
-7.581220506177346885e-02
-3.944776056667777531e-01
-5.673959127184510232e-01
-5.619371662662240308e-01
-4.020990145187532949e-01
-1.377129342228522457e-01
1.650317559525016631e-01
4.118446155102690742e-01
4.928966675771365713e-01
3.487134219909991950e-01
3.317916702633062070e-02
-3.071619797403640217e-01
-5.217615298157796122e-01
-5.297243424398786482e-01
-3.390438430121083813e-01
-2.516283637287931169e-02
3.040374242288250706e-01
5.350072005517617635e-01
5.713223072282390680e-01
3.788416147894732577e-01
4.376921286535179895e-02
-2.497560279718966381e-01
-3.909703106642000159e-01
-4.946784201437255390e-01
-7.354884183176584322e-01
-9.753342598850165412e-01
-8.146065648483478139e-01
-1.940036716898014546e-01
3.743382572413165299e-01
4.199856414530897530e-01
4.219941485960934657e-02
-3.530681308583387690e-01
-5.293374284070296865e-01
-4.848057797768959842e-01
-2.774599490567926097e-01
4.469898267918404056e-02
4.037309173743292567e-01
6.915051888748970921e-01
8.290678705587164465e-01
7.946137165540990699e-01
6.019750339289008378e-01
2.992473724607616625e-01
-9.780793134599549687e-03
-1.923221687998508678e-01
-1.619071676006450522e-01
7.341521739480273701e-02
4.250098385283612168e-01
7.675750541763461943e-01
9.786545891807866271e-01
9.755823624463280108e-01
7.572766886799350283e-01
4.197260349065021212e-01
1.076762593498682280e-01
-6.893274392703788167e-02
-8.199102716500361598e-02
3.421356066950003577e-02
2.380933748422613960e-01
5.062450170034779040e-01
7.925307224908260118e-01
9.869771093341734858e-01
9.609754489844368752e-01
6.611256253939983285e-01
1.535969809645673367e-01
-3.926669442012481470e-01
-7.571878094914572532e-01
-7.797362705257595561e-01
-4.850118172755236157e-01
-6.757537560483184436e-02
2.602284675019484461e-01
3.802248209990778949e-01
2.753296881928289364e-01
1.376195032346561910e-02
-2.623624317098958159e-01
-4.313343368969143055e-01
-5.567621902082962038e-01
-8.235792579319451967e-01
-1.141246967073021423e+00
-1.060319255201222610e+00
-4.085067313125804733e-01
2.985322501373298687e-01
4.610422840233938668e-01
9.528856613806052644e-02
-3.576986503817674579e-01
-5.984973703770345432e-01
-6.071871446245299397e-01
-4.505954581936989500e-01
-1.795026878000156867e-01
1.368949290995808421e-01
4.064887221341306756e-01
5.646141179229700047e-01
5.837299681470113910e-01
4.445243201783275477e-01
1.558527490809786253e-01
-1.949690415517056907e-01
-4.621410701228839679e-01
-5.309569946238382743e-01
-3.839020138411382010e-01
-9.506318404879507411e-02
2.175025416197789718e-01
4.326127216293946809e-01
4.558652846942946590e-01
2.652492595858035318e-01
-5.864790650980043069e-02
-3.803357314626055197e-01
-5.964467193810726320e-01
-6.648324528006597234e-01
-5.761841361410375839e-01
-3.415904182759488816e-01
-1.295282183913118793e-02
3.120573183373939186e-01
5.198172679479794445e-01
5.196013614869231523e-01
2.936877516375379638e-01
-5.646464228753892561e-02
-3.520739178068438280e-01
-4.600252150839667653e-01
-3.560103543767029755e-01
-8.668515172629687182e-02
2.665316666788736799e-01
5.859172237174337106e-01
7.377343793594716148e-01
6.428513718189091675e-01
3.606792099027676946e-01
8.342420581266049573e-02
-5.076666849339429161e-02
-1.715679484423200118e-01
-5.314792293550403279e-01
-1.009285939795162346e+00
-1.036084479260763525e+00
-3.437469059442905261e-01
5.198377206230186953e-01
8.210057391772955793e-01
4.713448338122277481e-01
-8.494642262008719746e-02
-4.721832714934885988e-01
-6.005114083538601877e-01
-5.188328510426087892e-01
-2.913273627324721171e-01
9.359786664418077995e-03
2.890103737155088059e-01
4.496594408554932532e-01
4.255983562715646151e-01
2.187016935678876561e-01
-8.658856887077281961e-02
-3.559216602411878205e-01
-4.790252083352818935e-01
-4.244533098494346901e-01
-2.291617514858430849e-01
4.801925576901290571e-02
3.497021680215483541e-01
6.061918580118421662e-01
7.280323905407871665e-01
6.464898787224397925e-01
3.751718197941485422e-01
2.261758953663293992e-02
-2.635139178308547603e-01
-3.742263708794308918e-01
-2.901859027067931751e-01
-7.832041673056844289e-02
1.652649272785749746e-01
3.734405780409531528e-01
5.068148894064310461e-01
5.157972684445069067e-01
3.536467170742639832e-01
4.906414950280851145e-02
-2.701002468854184491e-01
-4.576135513384272935e-01
-4.417281579663283608e-01
-2.374660066865647567e-01
8.972826319150220553e-02
4.388027178315133670e-01
6.683397317556730721e-01
6.329529482985168931e-01
2.962124246957957840e-01
-1.730190475934008099e-01
-5.014554518509557468e-01
-5.982893507821246404e-01
-6.817638133302499348e-01
-9.478574804769425155e-01
-1.145083947954087300e+00
-8.247639200475200827e-01
-7.993460295414957228e-02
4.309038170954514468e-01
3.157741249006538187e-01
-1.478691220979279075e-01
-4.984443773995885785e-01
-5.759777843382329898e-01
-4.688398113157921099e-01
-2.658758546895063635e-01
1.076028502808389249e-02
3.215292591312745030e-01
5.649023272651420013e-01
6.368707885687973080e-01
5.046977895822244431e-01
2.181843955596233231e-01
-1.138536102073123835e-01
-3.556537082606606726e-01
-4.069611903113040108e-01
-2.647677809016650285e-01
-1.308171146636543172e-02
2.457709183961080401e-01
4.371306087019627418e-01
5.119106236679161759e-01
4.413208611194935904e-01
2.374149370712885787e-01
-2.922924834523813603e-02
-2.552995734721768550e-01
-3.620362189116799745e-01
-3.311476987089294055e-01
-1.961670456776063998e-01
-1.297826907739947980e-02
1.626365287505802115e-01
2.808360466859936566e-01
2.949510684463823584e-01
1.780519988859275149e-01
-3.435733489699047127e-02
-2.366103599048861861e-01
-3.234880290955334803e-01
-2.630732503368915509e-01
-8.693795603081111434e-02
1.586784868176366603e-01
4.212171047414766112e-01
6.160221014547045959e-01
6.240709821061050100e-01
3.688472810924561807e-01
-4.732047302752422774e-02
-3.407947408889984708e-01
-3.265793468977874481e-01
-1.957860522714092444e-01
-3.225630649357665858e-01
-7.161159383142510215e-01
-8.894940097049824912e-01
-4.924439137932592470e-01
1.417491223614690266e-01
3.963000072325001955e-01
1.260742573122928811e-01
-2.943329789616769276e-01
-5.024323803839605418e-01
-4.478304348358080333e-01
-2.518969950278788783e-01
-2.435449862322764530e-03
2.658415880511660889e-01
4.969204563094001270e-01
6.039218356928143239e-01
5.339309500895548233e-01
3.208251423332844632e-01
6.490972804347058811e-02
-1.394618735917323438e-01
-2.455027544000819850e-01
-2.332843865276176543e-01
-9.386518148242711801e-02
1.425937810887216994e-01
3.890463516559188872e-01
5.369679540797878126e-01
5.192572107465146525e-01
3.499386705082484506e-01
1.095611544791407210e-01
-1.057095060854646856e-01
-2.277527575138288962e-01
-2.363243824971177909e-01
-1.554068431142502926e-01
-2.497701222920553979e-02
1.275213082384283048e-01
2.802755417964841733e-01
3.855066151100756122e-01
3.699636257185785482e-01
1.978575983672722638e-01
-6.260908318042124332e-02
-2.633733534985100988e-01
-2.830351024019702733e-01
-1.086144757699157859e-01
1.698207906567859860e-01
4.282193366906194010e-01
5.807872246865610766e-01
5.969618382176291593e-01
4.731411206899338584e-01
2.361719156049751911e-01
-1.306314473779617187e-02
-1.351471223834544433e-01
-1.221179788246153641e-01
-1.767210139713055184e-01
-4.407908799262933996e-01
-6.672493906908048000e-01
-4.648492733399574028e-01
9.086984115848335819e-02
4.632975718367423057e-01
3.391012570198717047e-01
-4.695325558297266250e-02
-3.049838604476969306e-01
-2.962029589795823203e-01
-1.063420180891169187e-01
1.495030319212617698e-01
3.970445504254042635e-01
5.799596095305589172e-01
6.530139467417144239e-01
5.951762386588714815e-01
4.177969744583421297e-01
1.664699826418939432e-01
-8.373452155912577966e-02
-2.424562283139514440e-01
-2.386345782685721506e-01
-7.224766812466670851e-02
1.732574783908140958e-01
3.910899891524923233e-01
5.142628981698419421e-01
5.157443921248202612e-01
3.852921013786675397e-01
1.421765684864480517e-01
-1.386635078117758324e-01
-3.496195733558897789e-01
-4.204154486475889518e-01
-3.594901427219056034e-01
-2.247626254671913348e-01
-7.016862317209010547e-02
7.092817089538183684e-02
1.638685046986115834e-01
1.590974709873985427e-01
2.415296916584155212e-02
-2.028817424575516670e-01
-4.119583856476604633e-01
-4.944381916743861294e-01
-4.138793706608542844e-01
-2.067357133551190329e-01
5.509184516380326302e-02
2.847241853577200388e-01
3.884290881804692841e-01
2.964179659409494905e-01
2.324749394424246995e-02
-2.925053251007407873e-01
-4.607275399231892665e-01
-4.358660433513619759e-01
-4.260465637442863995e-01
-6.487465552097634314e-01
-9.325871617950247661e-01
-8.353138838006969324e-01
-3.062409896318114000e-01
1.299937942395054113e-01
5.670071811808281154e-02
-3.426127307509730380e-01
-6.406992750042271867e-01
-6.668845671844150225e-01
-5.081636470225026070e-01
-2.660322934173405263e-01
2.378653791242133636e-02
3.182450024405953370e-01
5.234574639221111214e-01
5.397856863770527092e-01
3.445157845107573169e-01
3.001963912075900076e-02
-2.559714790029798404e-01
-4.108328497670535873e-01
-4.109403689666235593e-01
-2.772879533266601193e-01
-4.721356438064029659e-02
2.232369394192316725e-01
4.503845110128265605e-01
5.343451551126289223e-01
4.074485602074211510e-01
9.722592803050821020e-02
-2.615233566356376382e-01
-4.998890320096006645e-01
-5.208378708195020579e-01
-3.541040081291381147e-01
-1.171985894370796283e-01
8.754849784170282145e-02
2.376514727483791667e-01
3.475732018838231241e-01
3.890430523009838493e-01
2.961526520011955599e-01
5.827897111567188065e-02
-2.214498453188201987e-01
-3.860454101133803384e-01
-3.385564432251109146e-01
-9.422801213204436144e-02
2.511163200802940532e-01
5.732037239604412804e-01
7.499173104588682248e-01
6.914688424344305195e-01
3.940138466132321327e-01
-1.708902203873203379e-02
-3.237081176727316656e-01
-3.635035116637077568e-01
-2.083976491634102202e-01
-1.500724523092171470e-01
-3.563783725995141594e-01
-5.628485034189645297e-01
-3.788744307356178842e-01
9.471396777809823475e-02
3.355302616500293045e-01
9.899788254270971977e-02
-3.360203970816533769e-01
-5.885399593415515662e-01
-5.226861904519974900e-01
-2.231971784158907623e-01
1.365145524265700128e-01
3.981136314790692521e-01
5.178004152600086396e-01
5.619233991401632045e-01
5.525380972125082391e-01
4.091114531193579817e-01
1.113361014945989103e-01
-2.007069571018081366e-01
-3.503640448482425174e-01
-2.647415613372156029e-01
8.438537948006530343e-03
3.453232825326137956e-01
6.066332505232223671e-01
6.993923310839009755e-01
5.976578090522309816e-01
3.293024718391148187e-01
-2.367749078852311381e-02
-3.315408678078807236e-01
-4.744908220251566888e-01
-4.130821663630175888e-01
-2.045689109606378953e-01
4.153615582111769289e-02
2.320158974601884139e-01
3.286291168613446056e-01
3.250163637238099867e-01
2.127648333588585960e-01
2.720646783581586944e-03
-2.347202343915098799e-01
-3.889002331028934556e-01
-3.804696840089357712e-01
-2.088910328318661080e-01
6.299449188326425308e-02
3.478329408385238408e-01
5.509602456552372685e-01
5.839723734814875611e-01
4.038393449255058276e-01
5.725228765481948229e-02
-3.055985482642198936e-01
-4.824995518949033446e-01
-3.757308057275681734e-01
-1.617817945711896299e-01
-1.707972718054295291e-01
-4.258112426878301604e-01
-4.953512065938290854e-01
-1.070207101619706780e-01
3.483694869610902134e-01
3.205478650871821378e-01
-1.698730175326737535e-01
-6.622205919932355744e-01
-8.313713830267828175e-01
-6.572853849414109773e-01
-2.615122517414891767e-01
1.994910643143417706e-01
5.713736279394036055e-01
7.479663691424704997e-01
6.930955504685236690e-01
4.366783645494684007e-01
7.401388299759492639e-02
-2.514279865728504260e-01
-4.070310996832899875e-01
-3.384239195465988947e-01
-8.750996812226580213e-02
2.409045147104013629e-01
5.256601382209473705e-01
6.706515968370639902e-01
6.316541467938175947e-01
4.202689077635288206e-01
9.787367594039851626e-02
-2.294991952611127872e-01
-4.337904873353126134e-01
-4.260817444911341734e-01
-2.246758808273142671e-01
4.884135075861490566e-02
2.632849669192366959e-01
3.634638486008970326e-01
3.609535196176094640e-01
2.721485842472546324e-01
9.995760688896443424e-02
-1.254477995565421444e-01
-3.167866036281126729e-01
-3.638926223564151741e-01
-2.103722780198364062e-01
9.682228630893843779e-02
4.363592921794719470e-01
6.860480573375132840e-01
7.601816870049419306e-01
6.102418116511117985e-01
2.542517432695803326e-01
-1.731498106025787520e-01
-4.453010504638572065e-01
-4.078518472322502086e-01
-1.873613368968647386e-01
-1.452258615642998962e-01
-4.261134084969540048e-01
-6.435654907947730985e-01
-3.684832612646609107e-01
1.703965562787044252e-01
3.467801920979099450e-01
-1.061278288611506443e-02
-4.859346949102215096e-01
-6.705406299954826954e-01
-5.129124189376372822e-01
-1.685519222427720454e-01
2.132339165408485282e-01
5.320309328041868957e-01
7.064000932470340111e-01
6.791770755602872800e-01
4.568266449996879475e-01
1.283262950212377407e-01
-1.734752728858845183e-01
-3.395681704945250901e-01
-3.194193140611774062e-01
-1.161222618860866390e-01
2.129026625193931599e-01
5.492881214971766513e-01
7.485162916653985699e-01
7.166311330838992522e-01
4.647162618223972252e-01
9.396642816061059889e-02
-2.642775585674469463e-01
-4.974948251074896577e-01
-5.355518024778797015e-01
-3.739627890261020271e-01
-9.145395068916006842e-02
1.815531622109182452e-01
3.414850389252485630e-01
3.607650603187727567e-01
2.595789554435387614e-01
6.045075472640454306e-02
-1.993922595275312293e-01
-4.322209276837301606e-01
-5.248026573227824176e-01
-4.164834961147385606e-01
-1.440845650352493013e-01
1.856977018082958952e-01
4.562515506524696396e-01
5.812775658409373714e-01
5.130062597626888765e-01
2.481987280833493070e-01
-1.406356920925953269e-01
-4.818097576208890120e-01
-5.699430595841732394e-01
-3.477906714543041455e-01
-5.667664397782103125e-02
-6.627643543894577716e-02
-3.978460956367756429e-01
-5.994904789827428804e-01
-3.644874985036184456e-01
-1.774708272675852572e-02
-4.468248477127571144e-02
-4.242942633077645409e-01
-7.425966843046752919e-01
-7.161135688874976646e-01
-3.845493339311578107e-01
4.445983118451769106e-02
3.835609264586215539e-01
5.453662865772231916e-01
5.284207093131770838e-01
3.713195853496217280e-01
1.267300576643741461e-01
-1.355151602755029216e-01
-3.235436575211331212e-01
-3.499664436444118176e-01
-1.879347506600723972e-01
9.602776583964843515e-02
3.792755380500081874e-01
5.583633189863688173e-01
5.857396352641826009e-01
4.545932679616513372e-01
1.881403386545477119e-01
-1.432868049167704549e-01
-4.211889836267832532e-01
-5.273105551314792860e-01
-4.124002358445631455e-01
-1.318491404267818634e-01
1.821420862097319349e-01
3.964585214872951013e-01
4.388105710406470239e-01
3.052224282653034915e-01
4.675460843702485686e-02
-2.397051099794612339e-01
-4.475991278997475953e-01
-5.142877663469401783e-01
-4.319394741685110839e-01
-2.219102949585717854e-01
6.825874211430180138e-02
3.506104803780893953e-01
5.171990802353143568e-01
4.944486686219754512e-01
2.842362719197650267e-01
-3.618630974931676125e-02
-3.488221169936762123e-01
-5.334530090590758888e-01
-4.888563940372583350e-01
-1.900034723059647324e-01
1.877332379671279028e-01
2.907954874216855390e-01
-4.500483854634398928e-02
-4.953541083085098995e-01
-6.099390549054082289e-01
-4.221034833399049391e-01
-3.446696178926237364e-01
-5.284757514773742448e-01
-6.958882459370328011e-01
-5.721490496402930059e-01
-1.886825655098937626e-01
2.378817607822735214e-01
5.320075858995657603e-01
6.267570031011943099e-01
5.204997477269376338e-01
2.489784918930476043e-01
-1.069545704022079879e-01
-4.220640126902612810e-01
-5.630612124174677602e-01
-4.536135486538673822e-01
-1.318100612683857364e-01
2.562945036936301602e-01
5.434561471670513733e-01
6.323804786242397391e-01
5.150630904372507368e-01
2.439857834063158259e-01
-9.306146311804583404e-02
-3.907988546036374466e-01
-5.472638062431136596e-01
-4.913657808425503370e-01
-2.210581130028124452e-01
1.648774292331488256e-01
4.866419252133855622e-01
5.813185712873480959e-01
4.179577540409107894e-01
1.131459844920714441e-01
-1.738036652650538638e-01
-3.495778384426539431e-01
-3.967537516641050921e-01
-3.147708393847640784e-01
-9.803221104374147676e-02
2.189073082533523618e-01
5.344389172831867096e-01
7.272345393229158184e-01
7.247521207450134950e-01
5.320865432096424374e-01
2.198104924101570434e-01
-1.082667824097352099e-01
-3.449168948833134518e-01
-3.905083699074374248e-01
-1.758828754472815115e-01
2.453282896596973850e-01
5.997050503652336939e-01
5.316064335684843600e-01
1.429486065086810892e-02
-4.983640424048310646e-01
-5.922699616786860632e-01
-4.147578951433602001e-01
-3.732080379756370636e-01
-5.155494686852157837e-01
-5.335200351580302591e-01
-2.277446235847865041e-01
2.754613125607857094e-01
6.933693945035490636e-01
8.310046078349195842e-01
6.842433489433306093e-01
3.851183677165315733e-01
7.462339047001170789e-02
-1.691920765676562521e-01
-2.969007256497579461e-01
-2.518733607229383109e-01
-2.007384441008563947e-02
3.182107744270064043e-01
6.276875409872785250e-01
7.937367540301171198e-01
7.554501638517360229e-01
5.148121480479482814e-01
1.501841601736960130e-01
-2.002532799791175155e-01
-4.007852801934757014e-01
-3.783993905243734912e-01
-1.451154905924151306e-01
2.047991114645361099e-01
5.171624432802657267e-01
6.386006607808055735e-01
5.024254209463268062e-01
1.745739876226587717e-01
-1.900645711823260031e-01
-4.461489202301391344e-01
-5.251727785810075266e-01
-4.305582100513175026e-01
-1.975857681616448591e-01
1.248479727167285946e-01
4.624231229574572999e-01
7.121931788952892139e-01
7.773429076032556395e-01
6.238213570745263503e-01
3.080704154452725829e-01
-5.401475994111303025e-02
-3.438078218114324902e-01
-4.685244671745178446e-01
-3.586846417616261773e-01
-2.666158171445665026e-03
4.396676958200468333e-01
6.085235338373563563e-01
2.449489489733868708e-01
-4.110675495834496540e-01
-7.998658709780325227e-01
-7.396090487825286441e-01
-5.951393360421187717e-01
-6.491903532960977552e-01
-7.246115086729995047e-01
-5.429021605357163827e-01
-1.166807522891498416e-01
3.150263824031541704e-01
5.439581784655387331e-01
5.095656844074242242e-01
2.668516157084008245e-01
-7.219894159681169987e-02
-3.806570242394379799e-01
-5.557483972847473419e-01
-5.443799034753424859e-01
-3.462605985022819688e-01
-1.802592708234042329e-02
3.230189004055986079e-01
5.343582116072032040e-01
5.204901795416303489e-01
2.839976441755020509e-01
-8.132840085361611737e-02
-4.368720343852491861e-01
-6.535065228528801340e-01
-6.575884263296150056e-01
-4.542095584395426933e-01
-1.190444555649041725e-01
2.286236133774188772e-01
4.573176206775098063e-01
4.651003522361117914e-01
2.338146390514855011e-01
-1.387319709445191673e-01
-4.771131411230679631e-01
-6.348573803816891514e-01
-5.806403361980100319e-01
-3.727251634650562417e-01
-7.583188528134898743e-02
2.507040884904910283e-01
5.152350604421113145e-01
6.176767287399054229e-01
5.166934157343807676e-01
2.512201369359770564e-01
-8.817800101450942729e-02
-3.958853533771347077e-01
-5.750819913320446286e-01
-5.431360313928029759e-01
-2.494502946065793036e-01
2.379693957325499098e-01
6.330654033819022031e-01
5.509905404430041065e-01
-7.455656554897428789e-02
-7.669572099356249950e-01
-9.930405703727286371e-01
-8.034901129398088759e-01
-6.380244797495567832e-01
-6.284387557901260912e-01
-5.090415770723801803e-01
-1.158725854503184632e-01
3.784942466146693496e-01
6.968599606080168041e-01
7.137150206815018327e-01
4.862175846341196817e-01
1.557744049717766088e-01
-1.437417502186026097e-01
-3.244335079846030756e-01
-3.425994806601608267e-01
-1.916579528502428686e-01
9.087133214415872573e-02
4.131901990196104046e-01
6.451860548301229237e-01
6.766198062055770457e-01
4.845609171394790748e-01
1.492080845506537634e-01
-1.974625927341198961e-01
-4.394727992575572784e-01
-5.097064261131254437e-01
-3.881786061799332166e-01
-1.002569461782968352e-01
2.692701147326240219e-01
5.798943049606685163e-01
6.863458800815320782e-01
5.117218485130401451e-01
1.064553643817937600e-01
-3.453294023595505080e-01
-6.217592379004873715e-01
-6.158443066262287990e-01
-3.868600390309436809e-01
-5.902967742997299039e-02
2.824561032117256509e-01
5.786255196662192235e-01
7.447412689510618522e-01
6.979651745200701196e-01
4.408020854059199745e-01
8.608701106104296730e-02
-2.195258222425275352e-01
-3.894715388523003474e-01
-4.006052912206251593e-01
-2.292105162757567260e-01
1.398051425720773511e-01
5.860809437797246391e-01
7.906762247093324092e-01
4.764963912297952020e-01
-1.820434413396519457e-01
-6.052164158245790793e-01
-4.884532227794503023e-01
-1.756996514777532381e-01
-9.996527058821966238e-02
-1.926883653701101373e-01
-1.226786433626554929e-01
1.829575528506648119e-01
4.983089763470056610e-01
6.009344741177032878e-01
4.522104736431964978e-01
1.521503524777110816e-01
-1.695130950668648495e-01
-4.050446541628638375e-01
-4.752696261827182855e-01
-3.482054706189220417e-01
-6.666949926921005021e-02
2.593013439579307522e-01
5.003834411403965676e-01
5.650641806044308657e-01
4.389839109735660938e-01
1.838344381021306817e-01
-1.068590483228628596e-01
-3.490390732044557631e-01
-4.722739041861031550e-01
-4.272679762862132136e-01
-2.213017313009569276e-01
7.212840751566515496e-02
3.462408246484474650e-01
4.898831867257443795e-01
4.161270566045616182e-01
1.174992017301585145e-01
-2.964733780383252970e-01
-6.390143906154429621e-01
-7.483010424790071946e-01
-5.792879320419765943e-01
-2.227337661323757767e-01
1.603180880942836339e-01
4.387834477035265635e-01
5.547024081932284689e-01
4.889795747727546660e-01
2.499711812253674892e-01
-8.214408806783794759e-02
-3.651893322824571464e-01
-4.937796107324110562e-01
-4.673687059236124042e-01
-3.364137379358517199e-01
-9.850988387995744666e-02
2.795280773073202663e-01
6.697998673718886797e-01
6.970300926106900441e-01
8.680461501137198832e-02
-8.259463428076800895e-01
-1.278509930486841029e+00
-9.813768673506697571e-01
-4.397244559557972332e-01
-1.764912846646902178e-01
-1.227461826266276479e-01
3.048459149180838407e-02
3.163001545161228112e-01
5.215187246941647148e-01
4.863882822509311143e-01
2.372519620774428128e-01
-8.111468226292975481e-02
-3.171544395255775917e-01
-3.807126145778103044e-01
-2.610720480182299186e-01
-1.182065002321438379e-02
2.802823343580240767e-01
5.266840791594541438e-01
6.534504855560969716e-01
6.095249252235689363e-01
3.926485352351535285e-01
8.030875200707437989e-02
-1.909058305865575234e-01
-3.079861118383752649e-01
-2.501176326198245592e-01
-7.669907838043364678e-02
1.425203636368229665e-01
3.869423175235581214e-01
6.631170710885890829e-01
8.896237579367027859e-01
8.606395319472359695e-01
4.467684066226739747e-01
-1.912912380706219828e-01
-6.977411815852975208e-01
-8.195286097962641847e-01
-5.797223089261283047e-01
-2.028144324200144288e-01
9.583710026666120152e-02
2.418319699096422581e-01
2.536982947072118910e-01
1.451072070618250887e-01
-7.371177667198246242e-02
-3.368908778585241182e-01
-5.293734031292002262e-01
-5.654610646525911610e-01
-4.418637394361973336e-01
-2.068710401628115758e-01
1.045864286102695245e-01
4.551386708919232804e-01
6.812314644973563871e-01
4.776604837786205815e-01
-2.627857374789020484e-01
-1.083740269486867192e+00
-1.311412160023919915e+00
-8.707931283247293264e-01
-3.309493602712051397e-01
-8.958357056458465806e-02
3.464823683505955515e-03
1.953304586927376296e-01
4.413157554431761942e-01
5.375184161191191023e-01
3.978599390202051111e-01
1.191387092907310874e-01
-1.339140863465614339e-01
-2.467225975966764184e-01
-1.909785303644271071e-01
7.683054519836904350e-04
2.724220350471067698e-01
5.551293321723299590e-01
7.557279751455697747e-01
7.766226196182099972e-01
5.836595640402926222e-01
2.507794430316732659e-01
-7.797185671705339494e-02
-2.734270049554552995e-01
-2.774224846800005251e-01
-1.060656019820067214e-01
1.685380034528359827e-01
4.415140882731174443e-01
6.113291308450943262e-01
6.142078895582032683e-01
4.382896381586550150e-01
1.293922211219686869e-01
-2.096078654087719928e-01
-4.543434690958436661e-01
-5.231085737231362387e-01
-4.089374095006103604e-01
-1.596763731731460356e-01
1.428089917768111394e-01
3.883503167115505694e-01
4.728362015141716612e-01
3.602205621566676452e-01
1.098385102171114680e-01
-1.621450203879030438e-01
-3.502334807203203448e-01
-4.027039101222329442e-01
-3.221622455877501956e-01
-1.425123428157938910e-01
9.410514154104575313e-02
3.505268260449047601e-01
5.677266919220790298e-01
5.853761683162272966e-01
1.735341636356992068e-01
-6.537253841401022836e-01
-1.397027183644945936e+00
-1.481600866195968313e+00
-9.391220221795137935e-01
-3.289415891271739723e-01
-1.227850530643019578e-02
1.172433784045148891e-01
2.468673419173678107e-01
3.493383974859649577e-01
2.943963370399154122e-01
5.526966894341412556e-02
-2.519901450617582084e-01
-4.673989840707638566e-01
-4.893518221605192564e-01
-3.132994114161410382e-01
-1.907675218163925462e-02
2.700936578251893483e-01
4.432304680544247311e-01
4.462069162093204033e-01
2.926867524752195804e-01
4.832826950675598449e-02
-1.952915592261122435e-01
-3.508124727885398308e-01
-3.610914787037380336e-01
-2.158683092788583335e-01
4.106672274071401091e-02
3.248467212132722381e-01
5.429742790589925372e-01
6.239305379939238394e-01
5.296399081773641715e-01
2.694139095566552844e-01
-8.226510701395362002e-02
-3.928997923933129632e-01
-5.223530204507061958e-01
-3.967280846200548772e-01
-6.085405578115882924e-02
3.376308917252796582e-01
6.371509468434293222e-01
7.498308429837893252e-01
6.709652942178060409e-01
4.395946703430032021e-01
1.272617603082298876e-01
-1.535771638114229176e-01
-2.864214969629428342e-01
-2.257169836552894993e-01
-2.515370141500495454e-02
2.217396393067584681e-01
4.611832331053984380e-01
6.801600194834178659e-01
8.096398242713882532e-01
6.494909779428977847e-01
2.769388395013055310e-02
-8.426601636625445924e-01
-1.353792277336278493e+00
-1.126922286974394227e+00
-4.755597987910252789e-01
2.531313886623405562e-02
1.975822912378987495e-01
2.364728064342091485e-01
2.816065376741457849e-01
2.699628407912317840e-01
1.091846383971528806e-01
-1.578371681627517009e-01
-3.585698005803602539e-01
-3.337309185798728595e-01
-8.304838603050677948e-02
2.449889134245763767e-01
5.080986051052426289e-01
6.585747007341429260e-01
6.729689742288390564e-01
4.964928694679478505e-01
1.267369965274113830e-01
-2.989276312199597441e-01
-5.759493029006758080e-01
-5.953864717816241825e-01
-4.018467219825946901e-01
-1.112632094448243875e-01
1.779573973888757821e-01
4.006312332090208872e-01
5.043866780069101718e-01
4.458743933155455696e-01
2.162308049508663566e-01
-1.301955499147412487e-01
-4.795193703199775448e-01
-6.970640846551232617e-01
-6.782557879093105146e-01
-4.021240393481778086e-01
3.020851633020003868e-02
4.261590191182570986e-01
6.137101152973740703e-01
5.433653232408559575e-01
2.891607546246633409e-01
-2.766941891913198698e-02
-3.055946383557253676e-01
-4.813168855334605811e-01
-5.221485889524040136e-01
-4.208253170232646445e-01
-1.969947382359117927e-01
1.034292146058278378e-01
4.036944961841626989e-01
5.795011632264217560e-01
4.596862559113755742e-01
-9.292354081968676183e-02
-9.719675128602186520e-01
-1.694289182857159348e+00
-1.746303049509968508e+00
-1.162809380697684691e+00
-4.707557544938512084e-01
-3.878613016039101496e-02
1.805428893736102935e-01
3.158563557580065795e-01
3.434844823281659187e-01
2.091315706041682598e-01
-3.003410208411385479e-02
-2.384000547226592381e-01
-3.062646259031664431e-01
-1.998946908720170001e-01
4.818505903281546099e-02
3.537279737404988023e-01
5.975927853711421323e-01
6.804275622064023255e-01
5.809857714994968170e-01
3.517043509601519014e-01
6.842176829004394112e-02
-2.005956144812304498e-01
-3.858538219468471420e-01
-4.049307146087658404e-01
-2.048875562210443479e-01
1.561397434595555578e-01
5.068126843636597822e-01
6.816420696258517209e-01
6.286581948123006747e-01
4.008496667554695692e-01
8.279366824094069877e-02
-2.535779139960943618e-01
-5.349636343393527893e-01
-6.598355800588310283e-01
-5.310243862931041114e-01
-1.529365972804025420e-01
3.168315700582600702e-01
6.572757504366211201e-01
7.354537295839471689e-01
5.649815242052328434e-01
2.498124306310485487e-01
-8.817532562937607787e-02
-3.340779740234751660e-01
-3.936942419943516569e-01
-2.440605555765429091e-01
2.889018283194604020e-02
2.898137190343907377e-01
4.688204074083331396e-01
5.817833176405996509e-01
6.046241636745556258e-01
3.659736627171882306e-01
-3.005662081468002955e-01
-1.190914930015684492e+00
-1.686493758357701767e+00
-1.365356021100031070e+00
-5.429320538810840091e-01
1.111675454749873337e-01
3.328542558052584033e-01
3.293707560205846319e-01
2.938558863916578834e-01
1.968901162465077070e-01
-1.495325435387633017e-02
-2.597238735271537591e-01
-3.930852177256971003e-01
-3.368526681716518256e-01
-1.102433421556124893e-01
2.051636124228325142e-01
4.990515316146060809e-01
6.621100527766273780e-01
6.247383378884349137e-01
3.878665419354776489e-01
2.963180478038331123e-02
-3.125267164634251693e-01
-4.927607769425625950e-01
-4.347940014539155018e-01
-1.790510082300555972e-01
1.520434916559434690e-01
4.347657627921377999e-01
5.918263560355795372e-01
5.874642563572027854e-01
4.177121004562510120e-01
1.226212351162161845e-01
-2.120524622907598578e-01
-4.848325766505468537e-01
-6.084722445724222162e-01
-5.218314322256285553e-01
-2.194188826981068319e-01
2.016423142492593246e-01
5.625277709182102681e-01
7.151814025274376707e-01
6.255472537742992056e-01
3.524726730535240327e-01
2.125040172857677739e-03
-2.902417839890030771e-01
-4.017357385778160817e-01
-2.865532857624467633e-01
-3.927445302920350156e-03
3.075341588497944034e-01
5.080420048687568357e-01
5.615254448587619907e-01
5.445590602516551249e-01
4.786853778757254041e-01
1.775947278236023608e-01
-5.511563456600012678e-01
-1.434915927806863500e+00
-1.748559173845020132e+00
-1.131623422729680861e+00
-1.249890358453257522e-01
4.747360045223042446e-01
4.911402728029807818e-01
2.926270191889081551e-01
1.722094304096871975e-01
1.014398027411672620e-01
-5.077388749009146413e-02
-2.586879168172643295e-01
-3.390018772433450733e-01
-1.649264078570411296e-01
1.910479226166022226e-01
5.380814101028020824e-01
7.279697909765050490e-01
7.173512126748485818e-01
5.315691788447006738e-01
2.296153979969377534e-01
-9.667886215430139540e-02
-3.341216523407697925e-01
-3.905326921588990752e-01
-2.388526690264417829e-01
6.428837205088536177e-02
3.958667129314321631e-01
6.200571502607664653e-01
6.533891054112126451e-01
4.976741297952899101e-01
2.199049772340823661e-01
-9.632314914833862984e-02
-3.795309444350394856e-01
-5.603437070603979331e-01
-5.617942970306224471e-01
-3.394448616572228739e-01
4.751549410258602835e-02
4.286239457125793906e-01
6.240504360923727623e-01
5.629719016512862995e-01
3.088569002081161807e-01
-4.989214633055280568e-03
-2.586202830209943238e-01
-3.822631767587155727e-01
-3.416188635660498130e-01
-1.357215944766820837e-01
1.717789184082288700e-01
4.551799314569865973e-01
5.999935175655465303e-01
5.870387639644629729e-01
4.828688802815247483e-01
2.955084705950843382e-01
-1.220776218513897615e-01
-8.237880498335677926e-01
-1.398738514143035294e+00
-1.244087496546345317e+00
-3.833253235958697935e-01
4.473361617542462310e-01
6.940645755998415822e-01
4.946193057796844927e-01
2.317069531587408471e-01
4.567365947367570123e-02
-1.150995443431532123e-01
-2.618067386123373308e-01
-3.165059213388099479e-01
-2.058401058862684985e-01
6.163928714191778402e-02
3.911844576693008779e-01
6.496885007550714519e-01
7.291718445010177962e-01
5.969392335190157883e-01
3.106686133596431865e-01
-1.442293513000363070e-02
-2.657183658360682821e-01
-3.727198652705799309e-01
-3.095166589749359098e-01
-9.466437019660160768e-02
1.951568440594329545e-01
4.371145657634351034e-01
5.196806865518586172e-01
4.006006126774566689e-01
1.228625785541470339e-01
-2.085046993800279691e-01
-4.762065303389048654e-01
-6.107561925541939996e-01
-6.119257825627842928e-01
-5.041389321206680707e-01
-2.946190607439934661e-01
-9.228427874419999066e-03
2.501296980358194144e-01
3.410108573158466827e-01
1.987433576505177046e-01
-9.799573988762816379e-02
-3.906634316596431789e-01
-5.550979301862553061e-01
-5.490906450568457942e-01
-3.819334305564126009e-01
-8.906428405312968866e-02
2.457450758268903690e-01
4.833565330083908207e-01
5.072449227297447516e-01
3.368149520439097100e-01
1.193370744509338055e-01
-6.389252652164034707e-02
-3.448749329831606869e-01
-8.401537029772311316e-01
-1.256686833735112252e+00
-1.077634457096951159e+00
-3.013775912362123277e-01
4.222768610259222122e-01
5.759166977315890446e-01
2.786364199363697280e-01
-8.344701160317516409e-02
-3.226803096986575192e-01
-4.458298749014938944e-01
-4.617125203172843806e-01
-3.377941988496661052e-01
-7.523732685083560356e-02
2.503203429437251826e-01
5.212295997717812934e-01
6.334613357884170126e-01
5.402823624784910406e-01
2.782050258458957370e-01
-4.266405091188732457e-02
-2.959519145792701145e-01
-4.008533699704214248e-01
-3.357032636979350171e-01
-1.213897190092484007e-01
1.806606973817577177e-01
4.686122948986145009e-01
6.304089817050757549e-01
5.920050423838801867e-01
3.573709783578330468e-01
2.048478451073127565e-02
-2.797937734515086872e-01
-4.474424776578557195e-01
-4.708593228313211476e-01
-3.767535330093706447e-01
-1.824992456893288484e-01
8.044903722832592863e-02
3.298502244442529374e-01
4.558049532646358815e-01
3.863535293361226031e-01
1.424503905069147702e-01
-1.610656621620766837e-01
-3.838020308853816176e-01
-4.390612238915209686e-01
-3.108338277605208755e-01
-3.217030361135228556e-02
3.130894301763652576e-01
5.873815408144551498e-01
6.536315198689200967e-01
4.683582830690610210e-01
1.341620219077699350e-01
-1.594186263929005531e-01
-3.120588388388653156e-01
-4.413126671958625402e-01
-7.072339996140591944e-01
-9.550400605636260032e-01
-7.841960630542580413e-01
-1.457267695737877178e-01
4.426800251410579201e-01
5.054523541244058116e-01
1.293455084883703143e-01
-2.857065097389969721e-01
-4.996720500963306999e-01
-5.135603353437117047e-01
-3.852254227431635702e-01
-1.325861488205317684e-01
2.119190264124550527e-01
5.450298671949952434e-01
7.338853159443136098e-01
7.052262352450149319e-01
4.830889339885928724e-01
1.550289363649657859e-01
-1.733166454129516920e-01
-3.960432262740576359e-01
-4.266911128878357329e-01
-2.477795323322685428e-01
5.822934970910159658e-02
3.563771615530433867e-01
5.415295358204043064e-01
5.646332784866641141e-01
4.140390585661259948e-01
1.236023726024373381e-01
-2.088179799247393831e-01
-4.546627143199697407e-01
-5.243711847231281586e-01
-4.119036225075863866e-01
-1.843793634858310326e-01
6.952828409427833090e-02
2.830251668015518751e-01
4.072753253693350284e-01
3.918829599306102862e-01
2.118966949300320757e-01
-7.462040093211370906e-02
-3.295936334501163856e-01
-4.215585425289308796e-01
-3.041351803081608351e-01
-2.131555568180775601e-02
3.286202272352305442e-01
6.279440801368266767e-01
7.687919981964439486e-01
6.855415135426345952e-01
3.943319007902472695e-01
2.440116240890644050e-02
-2.260570971314152244e-01
-2.651372991649934008e-01
-2.556310496670904930e-01
-4.265251935408378436e-01
-6.630501868542140187e-01
-5.563477143902537669e-01
-3.385705754921179700e-02
4.093578491295943311e-01
3.353688892159064072e-01
-1.235013137869027389e-01
-5.434741498424449091e-01
-6.848613766142759296e-01
-5.588193915696120229e-01
-2.609045211914636231e-01
1.056934262910467354e-01
4.286535653785766842e-01
6.163717219101976230e-01
6.317671362340394614e-01
4.781993860796987517e-01
1.816592702476695909e-01
-1.839287446409346161e-01
-4.813523547084078702e-01
-5.740267713866124000e-01
-4.240189634017484943e-01
-1.151069754112754584e-01
2.165732876059978662e-01
4.561752410383515532e-01
5.302475581624526146e-01
4.096006323233598034e-01
1.304180526439355781e-01
-2.011777076944296916e-01
-4.531296311125601606e-01
-5.314924364371613752e-01
-4.236475376255922631e-01
-1.978536894357647014e-01
4.749192909148260144e-02
2.430699368698185370e-01
3.543492400467801451e-01
3.488854810479614099e-01
2.000063690983431286e-01
-6.290246702367993659e-02
-3.319645339319934885e-01
-4.718017432799194166e-01
-4.003975533974761802e-01
-1.332776502321177114e-01
2.307723921708227377e-01
5.592255624678853509e-01
7.357951592934067753e-01
6.976302816955266550e-01
4.605897970371524708e-01
1.212935025689730606e-01
-1.733550928414666348e-01
-2.942693844064728226e-01
-2.451152132295360830e-01
-2.192969390883152403e-01
-3.855780162173998993e-01
-5.614313384309131960e-01
-3.796341959438616631e-01
1.069266122030279043e-01
3.739705516996677526e-01
1.215995246627038923e-01
-3.668555053108659147e-01
-6.474985247162901025e-01
-5.631212912775336310e-01
-2.266602253168967240e-01
1.842816997647127031e-01
5.339844839856671133e-01
7.432445192465362283e-01
7.773228686475199822e-01
6.316517719770675665e-01
3.392757870821382915e-01
-1.023738832271754023e-02
-2.900021592353811406e-01
-3.966942517724947326e-01
-2.988540913719616721e-01
-4.361255395411563207e-02
2.659117848003274553e-01
5.114755798018417732e-01
6.059684886584960628e-01
5.211084241997789857e-01
2.870932970733133804e-01
-1.964418452378246735e-02
-2.914679646077908415e-01
-4.212911193168301649e-01
-3.493474375608054960e-01
-9.978796998029980381e-02
2.160359609888448384e-01
4.522869327646913962e-01
5.174562048907440648e-01
4.142813086149903512e-01
2.005063361745405559e-01
-5.881308883064408771e-02
-3.048445911538811837e-01
-4.803802270469362257e-01
-5.194670424592169322e-01
-3.679369536930737206e-01
-5.312928442215275604e-02
2.906236696319962620e-01
5.062482621047103004e-01
5.118654100351862635e-01
3.186393555640636421e-01
-1.613221208616816282e-03
-3.458989863080241256e-01
-5.915115831200904450e-01
-6.102181614228310291e-01
-3.560461443596008579e-01
-1.426627280994009761e-02
5.559712649014068864e-02
-2.600073353761077066e-01
-5.782904753898836514e-01
-5.066427028593923909e-01
-2.286547741378340826e-01
-2.109957030029440683e-01
-5.040062568881078509e-01
-7.249984295925918643e-01
-5.859000953986793769e-01
-1.448542523505738089e-01
3.574098554974123321e-01
7.103788582354827463e-01
8.177232492433932354e-01
6.923531100797015725e-01
4.186719407626353640e-01
1.103542353240472285e-01
-1.275901717722078277e-01
-2.271377094008767694e-01
-1.657181626717705025e-01
3.767464199905454225e-02
3.238758437185369488e-01
6.007083623970931319e-01
7.649503382435396404e-01
7.347202562428405415e-01
4.947333073249841062e-01
1.323173820105562060e-01
-1.943763955745754501e-01
-3.525823717908703747e-01
-3.008675532703536382e-01
-7.647664047911478802e-02
2.376234323435713891e-01
5.226923946079957695e-01
6.483280621873767080e-01
5.409475760434434566e-01
2.486829552951047018e-01
-7.735001641506505932e-02
-2.917153417746288224e-01
-3.505025832375194272e-01
-2.933233146254167756e-01
-1.508720378390905059e-01
8.183728698213832420e-02
3.707589249236789564e-01
5.984726329342203721e-01
6.389905998617396721e-01
4.582049192731685316e-01
1.275498354645895061e-01
-2.308879212794452407e-01
-5.031450563671915344e-01
-6.100775339221590210e-01
-4.957635372113268768e-01
-1.579661389979090669e-01
2.220545926201573372e-01
2.765375660292726523e-01
-1.717968637537181098e-01
-7.566535862691846637e-01
-9.453699280207442657e-01
-7.602673204116265904e-01
-6.829091283153899683e-01
-8.809189843565509159e-01
-1.015086719318469388e+00
-7.874905140157937300e-01
-2.941793734113741787e-01
1.677142112511990912e-01
4.024200384812298137e-01
3.899294007027845343e-01
1.983021759743806289e-01
-8.372643806386079190e-02
-3.523809484964913197e-01
-5.016852057938472331e-01
-4.669839991119262290e-01
-2.559320393769474178e-01
5.806200825674855126e-02
3.647329861999011325e-01
5.509196843566764867e-01
5.386980072026105182e-01
3.247448660966371636e-01
-6.396908606781714912e-03
-3.221395447416810498e-01
-5.107310181118346337e-01
-5.226874525078478717e-01
-3.690114779239658804e-01
-1.033174354787990412e-01
1.930793822428507056e-01
4.178344474403481446e-01
4.623367597418507335e-01
2.727263566180256893e-01
-7.415347360264086529e-02
-3.937251439966878985e-01
-5.331802828011880102e-01
-4.761970836059695733e-01
-2.949603270503294294e-01
-3.583116177334573493e-02
2.933708709051985331e-01
6.261963077122078003e-01
8.043403890774457610e-01
7.051295197383042890e-01
3.748432048844845821e-01
-1.186001710632477585e-02
-3.009368546907469910e-01
-4.316213383723666031e-01
-3.864548301091688676e-01
-1.353954459493723617e-01
2.987452656782892402e-01
6.929270557453700574e-01
6.599856178955212371e-01
5.390815422062539275e-02
-6.822964097612376211e-01
-9.197006011828641192e-01
-6.259132561876235012e-01
-3.250116710434615142e-01
-2.978276417279598909e-01
-3.046114186443643068e-01
-7.832054221711383379e-02
3.153842555247969304e-01
6.230651066893801993e-01
6.694421477436471868e-01
4.534968177480187546e-01
1.024933421702026448e-01
-2.205540601569498937e-01
-4.012652991398355518e-01
-4.040006941519578287e-01
-2.421452892536625212e-01
4.288014268069856305e-02
3.602676009520524580e-01
5.774220199835092826e-01
5.992042391061517259e-01
4.345526480636455746e-01
1.691356720759403798e-01
-1.028630894274673441e-01
-3.033790389675815602e-01
-3.693194333966559606e-01
-2.699051049159483795e-01
-2.711454358049682212e-02
2.815853246029886847e-01
5.415679308179154328e-01
6.437695257318868380e-01
5.300952807437072645e-01
2.196428449880014622e-01
-1.780476735438039082e-01
-4.868985866627996706e-01
-5.602384700698890274e-01
-3.816335907384491022e-01
-5.523328828665084733e-02
2.937301146211381275e-01
5.766415330455343380e-01
7.228484606343772434e-01
6.736998294989969827e-01
4.328936662538664937e-01
1.024788294354876117e-01
-1.692001733789173235e-01
-2.885144929953726289e-01
-2.559117276769898863e-01
-1.064655342863490700e-01
1.559970567894277960e-01
5.146370149758285883e-01
8.051372522782420660e-01
7.061868618995739144e-01
5.679000081153107171e-02
-7.739458689897087407e-01
-1.131549575018397924e+00
-8.389505532041964253e-01
-3.676933757556844484e-01
-1.344626843959913498e-01
-5.201101950208648211e-02
1.230397270549286604e-01
3.870986015660224933e-01
5.572843037903888463e-01
5.176693441919117955e-01
2.985832569983242202e-01
1.348725313624912769e-02
-2.086017017548766894e-01
-2.697493663289620702e-01
-1.484871663353676818e-01
8.209581684145184077e-02
3.040339621797270020e-01
4.441236757410174651e-01
4.959357515186286758e-01
4.486472976802794443e-01
2.627842965921207696e-01
-4.275003210730315972e-02
-3.421633819804523191e-01
-4.886377307387660407e-01
-4.204986967252958285e-01
-1.811911543013635384e-01
1.202806787139159006e-01
3.627620217147536352e-01
4.605199725315114456e-01
3.789690750855053136e-01
1.258115866266954763e-01
-2.393545874924092598e-01
-5.873899069322128241e-01
-7.577433418595557191e-01
-6.547666532293839881e-01
-3.180630763364334923e-01
1.015795066422290061e-01
4.396717560678582992e-01
6.010640360976496899e-01
5.664109288300425149e-01
3.603009160477400052e-01
5.258927031006819380e-02
-2.300895829741870513e-01
-3.597883439887202273e-01
-3.019747701774154747e-01
-1.287202495756230580e-01
7.718421914800541184e-02
3.054324092671453217e-01
5.689304515137871832e-01
7.526111111791099484e-01
5.736347130328739441e-01
-1.315366300827669477e-01
-1.022386172766554857e+00
-1.431886589966831824e+00
-1.112083112231225801e+00
-5.023928802080759315e-01
-9.799983609280864261e-02
6.883003004242940759e-02
1.835101443669223120e-01
2.721534212501438565e-01
2.379718668729526310e-01
5.351790719954236525e-02
-2.022049925316541374e-01
-4.130232951235501271e-01
-4.853653742048634201e-01
-3.831260834581872166e-01
-1.411836662532527376e-01
1.531613079714042869e-01
4.042276127161154031e-01
5.425998063367416524e-01
5.283809635546483641e-01
3.537213200636108446e-01
6.702945465571111261e-02
-2.237657687604607260e-01
-3.995464306780477926e-01
-3.928758016910131601e-01
-2.191099358083993531e-01
3.973062246438861800e-02
2.840968336422569629e-01
4.375149223774004725e-01
4.527764309471467574e-01
3.070307769279989607e-01
1.530382213511759931e-02
-3.439438589817287451e-01
-6.283778377409483529e-01
-6.940573049484053403e-01
-4.920715459237905987e-01
-1.011916952741251791e-01
3.326781582606423426e-01
6.598653062849335615e-01
7.573738003470673608e-01
5.868675152220799163e-01
2.421314029318973049e-01
-1.103317207163171249e-01
-3.375096109050985116e-01
-3.826977186860122671e-01
-2.610740172484435906e-01
-4.246119083699627372e-02
1.957548226849276929e-01
4.169782880873962316e-01
6.015244195149440642e-01
6.443860743266509594e-01
3.309772447550752283e-01
-4.084064129932226672e-01
-1.182239126830748832e+00
-1.379655729666724229e+00
-8.848444031971434143e-01
-2.179756151159743527e-01
1.550976887406791405e-01
2.671694633006418962e-01
3.329980363648816222e-01
3.765472035578455445e-01
2.967087665504658522e-01
8.237227390326384846e-02
-1.507479367736044573e-01
-2.662362950887698365e-01
-2.035929784893409644e-01
-6.342975472169096185e-04
2.502166608890929456e-01
4.639362283265281439e-01
5.870667667572239123e-01
5.804314989233453348e-01
4.173740465697328705e-01
1.274614656519311162e-01
-1.783930128143249583e-01
-3.687598136471714194e-01
-3.823319410219085945e-01
-2.419719756536690969e-01
-5.284094886483989978e-03
2.547969983026061036e-01
4.411440988682968634e-01
4.671993092448781248e-01
3.124325093633062989e-01
2.113013399485298011e-02
-3.298592839043652525e-01
-6.322143384046061687e-01
-7.580767044650265074e-01
-6.330606508309518654e-01
-3.041472594754944248e-01
8.199545410943052948e-02
3.713047656830178456e-01
4.796964526605926316e-01
4.027677857469139089e-01
1.844141505844196505e-01
-9.995954305344030566e-02
-3.477073750596541002e-01
-4.609490268089772580e-01
-3.969045782153069468e-01
-1.894531857026435506e-01
7.317918200951215035e-02
2.976861051172173811e-01
4.352821598713433882e-01
4.770744567122514601e-01
3.602186056492931443e-01
-7.078041205598967212e-02
-8.248441972835433011e-01
-1.481568258388560544e+00
-1.485733138084232463e+00
-8.437726000001761761e-01
-1.577032231985183719e-01
1.231790767539911874e-01
9.326434136585845525e-02
1.555762501876122722e-02
-5.137833125610791196e-02
-1.785014882748110487e-01
-3.618155677038641382e-01
-4.986106539188463471e-01
-4.934737783159596214e-01
-3.317414843415124603e-01
-7.054974980757994230e-02
2.036041993271486272e-01
4.003401002430932443e-01
4.357207432343951914e-01
2.664078029070764964e-01
-5.181013346502826716e-02
-3.560969631940818503e-01
-4.740984560181803475e-01
-3.507643044410142519e-01
-6.910947887773538634e-02
2.445212919132973006e-01
5.061209675950172349e-01
6.769030071079998878e-01
7.328814267269739835e-01
6.581744925693698844e-01
4.572182989993983093e-01
1.695055062222672326e-01
-1.213037199640564778e-01
-3.064138044881566381e-01
-3.031857976820965805e-01
-1.012843259066567581e-01
2.268933626387586444e-01
5.517771963216094866e-01
7.393342691896794827e-01
7.113649364312228940e-01
4.834425262170572446e-01
1.601269759906358003e-01
-1.163702147033002232e-01
-2.400599333420924408e-01
-1.852933962242827581e-01
6.270348830021775510e-03
2.589434403933163487e-01
4.770834179680549791e-01
5.733279212554429627e-01
5.388720078829248861e-01
4.500604779517717313e-01
3.109442448568833783e-01
-5.514463341217016451e-02
-7.247998930539889528e-01
-1.290830505342728030e+00
-1.168525107591317669e+00
-3.969712308956190316e-01
3.315854723917699975e-01
5.360655309318452799e-01
3.670464452379150755e-01
1.555450399151644403e-01
6.157782769595424380e-03
-1.081310699827014721e-01
-1.719266216868081121e-01
-1.530712519746338929e-01
-5.019544740760192164e-02
1.389194602169896153e-01
4.012668626945469219e-01
6.455979550559504121e-01
7.357375437292000830e-01
6.094246884793090846e-01
3.307071938818716417e-01
2.687296501150125347e-02
-1.938949826857266912e-01
-2.724118217305921408e-01
-1.997193076750922724e-01
-1.560960224217552983e-02
2.056746672895513606e-01
3.819607034999690232e-01
4.486187929653844275e-01
3.794674995340435730e-01
1.990159314061857032e-01
-2.828663439246662664e-02
-2.350828500093590789e-01
-3.798168568738320983e-01
-4.298339432928563464e-01
-3.361378365372882371e-01
-7.543675704687757833e-02
2.717375870164799867e-01
5.359313847737429137e-01
5.857981925052304639e-01
4.231479194980877212e-01
1.526538208296595589e-01
-1.037373282852971645e-01
-2.580759952181434502e-01
-2.715777767931932818e-01
-1.542791085963053088e-01
4.891532219477690707e-02
2.702537800096384557e-01
4.254625426400158728e-01
4.468359903910116837e-01
3.435245984964215848e-01
1.980585222452961036e-01
2.476613362834572188e-02
-3.277309088375528479e-01
-9.204397679584890302e-01
-1.364177893224213900e+00
-1.115675482205011004e+00
-2.656506338390073330e-01
4.422402395793897378e-01
5.179806695602804378e-01
1.773491168839799459e-01
-1.524206330083849315e-01
-3.161052604607677008e-01
-3.676626595859589508e-01
-3.531784558267344609e-01
-2.606669630801776716e-01
-7.100225417846463272e-02
1.872596495789060622e-01
4.174056574671480835e-01
5.053296633728654452e-01
4.023728719846392243e-01
1.525285166364206968e-01
-1.435371159042406752e-01
-3.779307490194035446e-01
-4.778751711438812277e-01
-4.310096302910874644e-01
-2.735983578637828928e-01
-5.571673983750929926e-02
1.712855283577259524e-01
3.383078600010323567e-01
3.646936644694036556e-01
2.171053377140301222e-01
-3.948924633233391601e-02
-2.765582559639095939e-01
-3.965600763496787695e-01
-3.864604694584067857e-01
-2.876914704335535311e-01
-1.397630473513181704e-01
3.444183168264330908e-02
2.029695932071172437e-01
3.058962851889227563e-01
2.787291885854165652e-01
1.101778444094980158e-01
-1.248014508296366454e-01
-3.072415111729979720e-01
-3.549463017632553119e-01
-2.609951826342378212e-01
-7.443313835006194756e-02
1.296829252208990257e-01
2.651739213560820319e-01
2.543981811343608568e-01
7.543684244123365079e-02
-1.874152835776088377e-01
-3.703769422207405237e-01
-3.852727544521291625e-01
-3.749664729582917744e-01
-5.881919697659525603e-01
-9.748703157594715840e-01
-1.088449006827865828e+00
-6.541550854629940570e-01
-2.973383656245452700e-02
2.260482969696561706e-01
2.542999849135777618e-02
-2.930845828310216783e-01
-4.509622211351402843e-01
-4.204230781190194111e-01
-2.744278492420101911e-01
-5.541217395136961016e-02
2.055772178007432838e-01
4.388500175402026970e-01
5.556240509940378880e-01
5.070642493929985450e-01
3.159016936858753399e-01
6.344769235052177825e-02
-1.500383056201257115e-01
-2.501530773611541081e-01
-2.164255599064851543e-01
-7.631223637994941078e-02
1.204478363729681728e-01
3.120196998596688198e-01
4.258166932514748093e-01
4.109148651761804216e-01
2.913258710353743841e-01
1.674917078931790759e-01
1.329921985574625820e-01
1.912807055495173714e-01
2.759453174381456542e-01
3.456740144241470802e-01
4.328934491005569374e-01
5.857703670901696080e-01
7.723407470348357950e-01
8.785719464495171938e-01
8.209460001322235190e-01
6.288355630330020318e-01
3.991624868385610370e-01
2.088140021572754135e-01
9.258033447842747843e-02
7.088418523445784436e-02
1.558500663655726926e-01
3.208305885418912262e-01
4.825619362381780020e-01
5.343580646615635477e-01
4.085393080630681517e-01
1.229074276721921627e-01
-2.076250186903551287e-01
-4.104701625797976261e-01
-3.755307218233647770e-01
-2.033610843568501303e-01
-1.821638733702459767e-01
-4.667366445909829076e-01
-7.886746399780574235e-01
-7.380475751607983304e-01
-3.579405759027928235e-01
-1.122854402193849549e-01
-2.358538252531607871e-01
-4.849533802639695024e-01
-5.423266992718239754e-01
-3.614967283603109927e-01
-8.882326920443268936e-02
1.514199335329968199e-01
3.230271166503932978e-01
4.157636873415923029e-01
4.076091646646275990e-01
2.955215755432499813e-01
1.209332046046691922e-01
-5.023103268371967300e-02
-1.576247034248330625e-01
-1.617793323121319848e-01
-5.678610535398678771e-02
1.188142656244224882e-01
2.943036062246442985e-01
4.043914030700200835e-01
4.162349303788034360e-01
3.261029485507700443e-01
1.547689999070351596e-01
-4.613070215842662164e-02
-2.064383571741364720e-01
-2.723398997163487545e-01
-2.316260584468265993e-01
-1.136415123937663946e-01
2.911665250399517874e-02
1.450615510622456639e-01
1.971780763436389305e-01
1.670854799819190828e-01
6.518270991956623406e-02
-6.679747270766554779e-02
-1.775491987715250575e-01
-2.232391663691917771e-01
-1.688705863383784811e-01
-7.828928753145836250e-03
2.099139236960894661e-01
3.926118414565447079e-01
4.626523367930359121e-01
3.972608732294894973e-01
2.251347827487046038e-01
2.586089351325877861e-03
-1.979616222594042241e-01
-2.893334141162542950e-01
-2.113135892554857675e-01
-3.979664961951492885e-02
-2.113797661198318217e-02
-3.203322591123731189e-01
-6.984113790316236470e-01
-7.192645211007471229e-01
