-2.056611813269069722e-01
-2.699900279983148965e-01
-3.446906483777976149e-01
-2.923342015553134221e-01
-1.017449942763997695e-01
1.118610251654900412e-01
2.164426261115181827e-01
1.558458207375302274e-01
-2.581532385576455063e-02
-2.180467416177872264e-01
-3.205358874472599151e-01
-2.992947076762346725e-01
-1.813048513110143978e-01
-2.779727047302960052e-02
1.034504610476723319e-01
1.995392180161278950e-01
2.724466788225571312e-01
3.005064942865595667e-01
2.387626784293067350e-01
8.988788252159252146e-02
-7.161953164734005672e-02
-1.552332103045213629e-01
-1.270203678456980900e-01
-2.937332485314774616e-02
7.004928681235898791e-02
1.472832879963498764e-01
2.239381796549361203e-01
2.937535543811086169e-01
2.739078571345218149e-01
7.656656666971690950e-02
-2.103439878719597922e-01
-2.274148595373164383e-01
3.382377805549321437e-01
1.151657165238223701e+00
1.308545273947293364e+00
4.512822149253900572e-01
-6.043404174109675564e-01
-8.796856626671005763e-01
-3.989976808898824667e-01
1.209789345248406811e-01
2.490904015002021465e-01
9.008646394630089038e-02
-9.559873830753413959e-02
-1.706250586369337519e-01
-1.241816684956581207e-01
-6.874051170748012030e-03
1.057978159418706404e-01
1.497038375321012027e-01
1.057348547333133854e-01
4.827223686616125345e-03
-9.802160290443141799e-02
-1.687250948411269380e-01
-2.123392908324227557e-01
-2.300395088863962656e-01
-1.873981337505698508e-01
-6.861276215388095734e-02
6.530828058107633616e-02
1.274534024143024746e-01
1.032176457771594724e-01
4.839995038506822445e-02
-4.942647500452553196e-03
-8.074226819613047890e-02
-1.772787028888888061e-01
-2.119299859332289260e-01
-1.037931817509709920e-01
1.109214555534118740e-01
2.974151021670254358e-01
3.529328401607623178e-01
2.847951334741859464e-01
1.618499176520057370e-01
2.881097993951965003e-02
-1.066776022858117179e-01
-2.248068890726386271e-01
-2.725019557759697508e-01
-2.067848440436291790e-01
-5.298740643183505461e-02
9.791207680927872803e-02
1.711379604720233427e-01
1.769344293997957285e-01
1.682078921988754416e-01
1.287503215300439541e-01
-5.827654982648638321e-02
-4.403048609361052135e-01
-7.354468327643206571e-01
-4.482209685368956364e-01
4.378522476134798502e-01
1.103632398524082125e+00
8.034405024650035365e-01
-6.998878269159250487e-02
-5.169546961353232994e-01
-2.724189455135234694e-01
8.243613403455600508e-02
8.971568329736565039e-02
-1.227486093461621075e-01
-2.310577910306018390e-01
-1.417339927972690039e-01
1.616541682788985926e-02
1.167884773137520538e-01
1.448921842456613041e-01
1.320044416634875151e-01
7.842105508488454724e-02
-3.061134002349735067e-02
-1.669824863213497934e-01
-2.629942187994762648e-01
-2.681903181662476099e-01
-1.742837326465348780e-01
1.047121405699714958e-03
2.159065884272573232e-01
3.846519416847871131e-01
3.810056500837918914e-01
1.125336784426748116e-01
-3.436099147965692158e-01
-7.146251494802939863e-01
-7.629200937310670616e-01
-5.273822006721746725e-01
-2.230887435542278918e-01
3.128898626622603901e-02
2.483249613460757621e-01
4.076540249602006449e-01
4.167064862569067052e-01
2.438479916981197426e-01
-3.523420025502987940e-04
-1.636516437198562712e-01
-2.051021882237956395e-01
-1.933237047687509091e-01
-1.761576427342889939e-01
-1.303324892060910289e-01
-3.326908937391393623e-02
8.016006755972582276e-02
1.446225111675065178e-01
1.289430024820044096e-01
6.222018304124726784e-02
-1.796747469170760850e-02
-1.341205312305370212e-01
-3.189613069997404571e-01
-4.366755327904804362e-01
-1.635009964522406711e-01
5.883214562250823620e-01
1.242710006487663943e+00
1.048946765047736651e+00
1.449739914546737674e-01
-4.987620200262058989e-01
-3.687560197157228603e-01
6.228539026713346416e-02
1.987446178485842707e-01
3.580829365437819545e-02
-1.034721563452993542e-01
-6.335389415502108712e-02
6.810309968996383634e-02
1.513162962490317009e-01
1.273459220869912201e-01
1.894641444926991117e-02
-1.220678065422385467e-01
-2.566970571717008265e-01
-3.588609224821194266e-01
-3.902000371715150240e-01
-3.112401637689113931e-01
-1.405653647884503588e-01
2.962182056618096679e-02
1.158074350159749438e-01
1.184247414679222843e-01
8.549527295314102160e-02
3.516008581621474921e-02
-4.645501480077404710e-02
-1.509820770935735856e-01
-2.314310373191022507e-01
-2.384530146881929102e-01
-1.475473778506067868e-01
3.073986096721761929e-02
2.229439790234339913e-01
3.083114584023481930e-01
2.383679192061003149e-01
1.070905197343117454e-01
2.300671841245023955e-02
-2.620244063769221199e-02
-9.616952245348320272e-02
-1.535339383198522645e-01
-1.151914077483478793e-01
2.498535081032590699e-02
1.723395676224479256e-01
2.247928851878030487e-01
1.625505556816328745e-01
4.586962775834503570e-02
-5.252871306224746184e-02
-1.058435108847928102e-01
-1.527685631443152225e-01
-2.541410644145682962e-01
-3.559848810302662092e-01
-1.955783425828728772e-01
4.464170975182067402e-01
1.243250114525690231e+00
1.389501599432731549e+00
5.691079434225686517e-01
-4.726391093360656215e-01
-8.136416411315949837e-01
-4.399914399118382002e-01
3.583791917178794084e-03
1.349900716062032435e-01
8.063532443203913491e-02
6.797227868158996211e-02
1.235515589145324417e-01
1.442789907423460694e-01
7.532643267142148658e-02
-5.660046041432311575e-02
-2.050340972519017479e-01
-3.221351764844896381e-01
-3.548530681458822444e-01
-2.831565758227096996e-01
-1.512742201253453045e-01
-3.023604035367619472e-02
4.330680990289191568e-02
7.160413364586105944e-02
5.734995914626579011e-02
-3.088432421682925019e-03
-9.580400408465834794e-02
-1.892824849608207571e-01
-2.531579966034013252e-01
-2.646921218787553487e-01
-2.093758458160952241e-01
-8.341144697708686995e-02
9.871267578541438603e-02
2.801239545832562294e-01
3.601005815745650929e-01
2.686121816106779581e-01
4.920705640994862962e-02
-1.699616944180519229e-01
-2.902655200538091784e-01
-2.991057128773251250e-01
-2.246988154477827238e-01
-9.152910608339463738e-02
5.989867701044016002e-02
1.563697009660864889e-01
1.361205025176173700e-01
5.898942858043380172e-03
-1.591316653868657394e-01
-2.713748967799408107e-01
-2.894725238116430122e-01
-2.471167394182333110e-01
-2.304840308645589309e-01
-2.609004373184812264e-01
-1.531912137222088965e-01
3.563725586246075938e-01
1.117182153672921396e+00
1.392131548502726801e+00
6.728038709704604603e-01
-4.708801833836259720e-01
-9.842562381189463583e-01
-6.178335024775243323e-01
-1.405815472723472015e-02
2.686418195576182333e-01
2.561886603799558015e-01
2.165632124233108913e-01
2.409634324650674619e-01
2.273063810773265636e-01
9.452696973585192342e-02
-1.074158946509405355e-01
-2.713888128120867105e-01
-3.371524055721922264e-01
-3.089212560895006621e-01
-2.158577625521608812e-01
-8.668702780997712687e-02
4.439526300197725595e-02
1.319979043866238988e-01
1.401376909801165527e-01
6.949139633500600599e-02
-4.672216726673626697e-02
-1.668710995672293140e-01
-2.469909668842978911e-01
-2.447192624873523736e-01
-1.518752623882575481e-01
-1.707360714924208156e-02
9.612921878332916781e-02
1.753616998831651064e-01
2.461656499495873118e-01
2.884922466006911157e-01
2.316936092356852994e-01
6.403412378965597784e-02
-1.145277215198211296e-01
-1.900961637836386386e-01
-1.441520504972758909e-01
-4.006974742221312835e-02
5.812202826793919086e-02
1.213895975360084062e-01
1.353709198290038995e-01
8.854181373384553688e-02
-4.860471568935565215e-03
-9.564169064273611576e-02
-1.437493634161621792e-01
-1.708570344057007973e-01
-2.498830784888508572e-01
-4.279324267124734460e-01
-6.353207285921523839e-01
-6.332021894660778694e-01
-1.223765070264882238e-01
8.458372329318004645e-01
1.543699705947063183e+00
1.157494981042352711e+00
-7.877703029239033206e-02
-9.597183886614835124e-01
-7.643759368142889477e-01
1.600350059897315269e-02
5.440634626907825400e-01
5.780881632120494773e-01
3.876208628746842799e-01
2.004545058412183500e-01
-3.319565571792712153e-03
-2.833047697320389968e-01
-5.388344097878990935e-01
-5.948307869709231754e-01
-4.165981653169673060e-01
-1.491331489823558287e-01
4.590790630361760855e-02
1.296092983790646247e-01
1.598559105353956900e-01
1.793897286676919278e-01
1.660061741097164922e-01
8.180255373855813139e-02
-6.179719776890651994e-02
-1.986816668087881543e-01
-2.519118544825629802e-01
-1.834052228015576047e-01
-2.665862929186119806e-02
1.274449682952633334e-01
2.080210749040990736e-01
2.293392098615803232e-01
2.462138682156297109e-01
2.520867559218832876e-01
1.807265969507942938e-01
2.344883283159247475e-02
-1.210495821463168364e-01
-1.464312506695159555e-01
-4.015744654181530732e-02
1.264441319830999222e-01
2.570732850679607329e-01
2.792272430014878792e-01
1.862879944354010331e-01
4.087551928349221486e-02
-8.103819789232198645e-02
-1.429449606411258566e-01
-1.425351102385494784e-01
-8.278915566289392347e-02
1.868255190575408148e-02
9.489220787123460454e-02
6.950814175161253161e-02
1.702119898204831894e-02
2.177638222769943122e-01
7.874612958115909667e-01
1.228593063299920241e+00
8.501506377982344098e-01
-1.794035220645285866e-01
-8.423737465697654914e-01
-5.737403721281698621e-01
1.234702534471994739e-01
5.179171586371555946e-01
4.619306270148442750e-01
2.338335553983746096e-01
4.749458696534747393e-02
-8.857785453833350031e-02
-2.195315129249224284e-01
-3.215744726952617372e-01
-3.338807929731552049e-01
-2.405648066965884180e-01
-8.735141178091954117e-02
5.360227285856015988e-02
1.187846058808982586e-01
8.232629247308573261e-02
-2.473401714824342151e-02
-1.321828929075045955e-01
-1.942939473273714301e-01
-2.499472700377714240e-01
-3.848061473834304413e-01
-5.843235936111977891e-01
-6.769368428315430952e-01
-5.269015236586500617e-01
-2.336265019466408355e-01
-2.618161009405139961e-02
-4.410276551361856645e-03
-6.615911378044911362e-02
-6.092171855127105629e-02
3.553596627883267439e-02
1.144683794906639906e-01
8.935398162053551085e-02
7.287415296758390643e-03
-2.712267051868599496e-02
6.883412561699668759e-03
3.506999323645802052e-02
-6.410433979060594853e-03
-1.056526838097676668e-01
-2.092867514266676110e-01
-2.829032182259119121e-01
-3.213743081741225471e-01
-3.143976267251131773e-01
-2.307653649280987651e-01
-6.010052883549689418e-02
1.250916946767470783e-01
1.829342184766895030e-01
6.617261261929296978e-02
2.215938480278088762e-03
3.086802246009120454e-01
8.342262573457520647e-01
8.902350596726144039e-01
1.679723171400764048e-01
-6.342262437201786618e-01
-6.654227828154052338e-01
-2.324676700695059439e-02
5.300482226998787239e-01
5.664635608081787232e-01
2.625743001852222092e-01
-4.817429272622237441e-02
-2.281105667232273815e-01
-3.068273229858786144e-01
-3.259027363654414811e-01
-2.896097364234241356e-01
-2.047732813381142325e-01
-9.916851006154413228e-02
2.738894908032186298e-04
7.723175895229347776e-02
1.100383410005707635e-01
6.951511251516755141e-02
-4.585141748144849067e-02
-1.814765386867253638e-01
-2.589170710556767396e-01
-2.379958220670130020e-01
-1.382321320383447238e-01
-1.133282079008092816e-02
9.139129947018310995e-02
1.303617105505044116e-01
8.535069792623878326e-02
-2.068086242206956457e-02
-1.122730647796212899e-01
-1.125974870980179371e-01
-1.936832105041619290e-02
9.290289749337864167e-02
1.561750687758516054e-01
1.735745278359980270e-01
1.929124460798929408e-01
2.313021249443616423e-01
2.431852049448128550e-01
1.718607098172129644e-01
2.394911898169217387e-02
-1.263782055558730633e-01
-2.048542651264823045e-01
-1.925517123179757983e-01
-1.206002016613711703e-01
-2.283240615838863855e-02
9.930285331344113064e-02
2.365732957032563588e-01
2.985585465112348680e-01
1.796748028923382534e-01
-1.504572346202366281e-02
6.628820178242082750e-02
5.687014168936284086e-01
9.992596166636223964e-01
7.255933629201123392e-01
-5.858999895625476018e-02
-4.900358665024527882e-01
-2.082840510307505943e-01
2.852896338997870651e-01
4.458095515312240353e-01
2.681964286432019229e-01
5.320028532285334816e-03
-2.610239743197542150e-01
-5.830355952774798345e-01
-8.700990191013158181e-01
-8.897331003068631450e-01
-5.660073567165269104e-01
-1.224565620544537520e-01
1.416961659805476004e-01
1.364766186520852687e-01
-7.197689591004603066e-03
-1.364635783080674902e-01
-2.048937937786322605e-01
-2.304593959185811114e-01
-2.167693163543678025e-01
-1.479419288253394360e-01
-2.114728163214730366e-02
1.378001023393201074e-01
2.703088763982198772e-01
2.999171127455105834e-01
1.901678040538263559e-01
-1.408802700456547596e-03
-1.562901444173291632e-01
-1.988866248421724547e-01
-1.509580565311948452e-01
-6.985275162530887871e-02
2.976982360763110597e-02
1.445709461608521151e-01
2.185199717262545360e-01
1.904811668565987437e-01
7.587989077106038760e-02
-5.628783364289796642e-02
-1.525734093350908926e-01
-1.904523803603982157e-01
-1.642816083469530730e-01
-8.452003170150881872e-02
2.334935205808207417e-02
1.356115686876291915e-01
2.420788039889665844e-01
3.199925539066463265e-01
2.937798695250690706e-01
8.058849488052241550e-02
-2.355594161992872748e-01
-3.017026713847839603e-01
1.947381462732737656e-01
9.598879256165936402e-01
1.179950557581015191e+00
5.428453998064580732e-01
-2.280422780564185237e-01
-3.255708728734461044e-01
1.209675756425323684e-01
4.278995647696687277e-01
2.957518243898751287e-01
-3.403491411193099170e-02
-2.422231436679123939e-01
-2.384307783084095855e-01
-1.194462150334266448e-01
-6.194476941703504214e-03
5.497009710779366537e-02
7.623406924532803719e-02
6.152286886164123891e-02
-9.420199069839842870e-03
-1.383122796314251168e-01
-2.820321615110845115e-01
-3.750121187916533039e-01
-3.677765906291357578e-01
-2.522049399614829657e-01
-6.797087968443205064e-02
1.117132251435220547e-01
2.172521714872095722e-01
2.233186916140260658e-01
1.513988885402412221e-01
3.305262867009433475e-02
-1.087607438832754181e-01
-2.330697988664816034e-01
-2.598645922530880004e-01
-1.181288369676217753e-01
1.590622552570894743e-01
4.045693792170382275e-01
4.141842518452909516e-01
1.063275435275224945e-01
-3.719094693844881006e-01
-7.202075808702492754e-01
-7.473854739892467069e-01
-5.442853037631214530e-01
-3.369352671869997873e-01
-2.310843904654194536e-01
-1.712936311642763998e-01
-8.393191114370152084e-02
2.581407342146242040e-02
1.091774065956311601e-01
1.416401183152189713e-01
1.060423329330353742e-01
-5.534782437096272267e-02
-3.406183883135847634e-01
-4.898991063225922593e-01
-1.015237432245320176e-01
7.781203219987856690e-01
1.369212756163698863e+00
9.862175259414003303e-01
3.351394724614006893e-02
-4.756660667430500089e-01
-2.404828199683614331e-01
1.595577138879444301e-01
2.102861680619344809e-01
-2.945716273146924136e-02
-2.431690991395940304e-01
-2.577145677737004426e-01
-1.173614745495001471e-01
3.963960601027732844e-02
1.063191138932868124e-01
5.944832693302385535e-02
-5.052662578343766059e-02
-1.448259367179638712e-01
-1.821807825241636147e-01
-1.908188356579718636e-01
-2.106342414891008152e-01
-2.174363943096101481e-01
-1.467696688122337445e-01
1.054224663210991814e-02
1.623022175656684829e-01
1.729012638645169853e-01
-1.228154596138074373e-02
-2.876396216435073150e-01
-4.674072038078782576e-01
-4.622789359812393140e-01
-3.338306737530429280e-01
-1.706107629615707666e-01
7.782184460820712468e-03
1.894882882068684160e-01
3.054345215892733667e-01
2.996767278401968881e-01
2.069098998331133088e-01
9.639130013583428747e-02
-1.232166539755222973e-02
-1.261057717125558808e-01
-2.157894406143183175e-01
-2.232963161399225127e-01
-1.184322869151333280e-01
5.918933623968077040e-02
2.119707775409549744e-01
2.565612851064793531e-01
1.980157725017326620e-01
1.201570582174500690e-01
7.684797240667029516e-02
-3.404276499695474585e-03
-2.167884613009022909e-01
-4.035259000506242755e-01
-1.229587008369333601e-01
7.595319977117397370e-01
1.538390921855245619e+00
1.316651528011387295e+00
2.678388726989605617e-01
-4.924464074869780994e-01
-4.165290957245161296e-01
-9.747249036018347523e-02
-2.102736156104064447e-01
-6.264847995051827656e-01
-7.944158128701660493e-01
-5.163867882312959123e-01
-8.083625335406297019e-02
1.718560986642483912e-01
1.699235586909233764e-01
3.942618790104283899e-02
-9.360356355536253448e-02
-1.772674368317391225e-01
-2.096918964842518496e-01
-2.046375677487312084e-01
-1.632948359169343333e-01
-7.337796950920397188e-02
5.448271909672952606e-02
1.713192106973778772e-01
2.265181004594569725e-01
2.046267619966256612e-01
1.266719592557051799e-01
3.259539024554949233e-02
-4.052339221216297999e-02
-7.302232689616042216e-02
-5.470166304222558173e-02
3.027468833762466532e-02
1.859674760390783721e-01
3.632363271235151680e-01
4.657880907731308251e-01
4.258444312526437070e-01
2.637328390728545524e-01
6.213400680765325534e-02
-1.012690378950776432e-01
-1.893798227147053259e-01
-1.973891075440193654e-01
-1.308239327437913102e-01
-1.993650021070221545e-03
1.478864085770151826e-01
2.416328718292327093e-01
2.177504952918043191e-01
9.999765504112737013e-02
-1.414228492353814676e-02
-6.896421668961476292e-02
-1.496923986179442001e-01
-3.910512148129821064e-01
-6.962408874664322012e-01
-6.265513623734199067e-01
1.235292825739448541e-01
1.056564142952663099e+00
1.186102790158099607e+00
3.217676194629321418e-01
-5.789610798201625386e-01
-6.886498522080267692e-01
-2.415736285521450089e-01
1.002131586729033547e-01
1.362650977642242134e-01
8.785353519525498922e-02
1.165077406190445086e-01
1.761101778034704912e-01
1.804792571598347051e-01
1.103239646083933323e-01
-1.964293775258473679e-02
-1.779228129876703757e-01
-2.984917921667554208e-01
-3.136233796174952015e-01
-2.170199118588281850e-01
-7.489817023152639530e-02
3.375195634210814699e-02
8.317318682966202970e-02
9.835037831647479301e-02
1.008891487854849112e-01
8.357725070472810103e-02
3.168874921287531676e-02
-5.502589484230276801e-02
-1.601993398387284995e-01
-2.548087220300720435e-01
-2.933225776852678157e-01
-2.155993660432754255e-01
4.121353792801870503e-03
2.877505539922793898e-01
4.736977800326985233e-01
4.463547382654384221e-01
2.397869442065099777e-01
4.472041591505653002e-03
-1.154384480771241256e-01
-8.105230561172434289e-02
1.667987274475012105e-02
2.790909409025247104e-02
-9.607861001598828887e-02
-2.198756182174629037e-01
-1.879949132585362614e-01
-4.026646394417604524e-02
4.875862104213253556e-02
4.450379252390895476e-03
-8.841059545403148756e-02
-1.413608716097846663e-01
-1.688722751550506829e-01
-1.679903530947695900e-01
4.665714095464857519e-02
6.481298332213879521e-01
1.302346983499997446e+00
1.231225164323585641e+00
1.986998778099163809e-01
-9.284582788201907189e-01
-1.167118649598115399e+00
-5.855681999886163114e-01
2.741746672241346383e-02
2.251966509041808950e-01
1.642100355378116883e-01
1.196194709056988270e-01
1.418542134720893466e-01
1.302255364404151239e-01
2.351086025536577861e-02
-1.435222204002488400e-01
-2.949732583393405161e-01
-3.662507009413868975e-01
-3.283316342353844175e-01
-2.001373112758021988e-01
-4.159304871519405034e-02
6.672073246370477384e-02
5.517292648318256054e-02
-7.675812824240994814e-02
-2.379492183818848194e-01
-3.332411835186945837e-01
-3.516392792390037325e-01
-3.237260471087098357e-01
-2.543635052018938247e-01
-1.485954503160639983e-01
-4.070910293057274087e-02
4.502132791518898003e-02
1.221111666220983244e-01
2.012954911460815011e-01
2.442424776549251553e-01
1.921576554194343034e-01
4.543910460418192077e-02
-1.110389403671343950e-01
-1.805509050119956937e-01
-1.403757642227010660e-01
-4.042364206946288951e-02
6.177031693504846099e-02
1.346679115688646511e-01
1.586736403043423616e-01
1.161243675755654903e-01
4.770297207454657351e-03
-1.426668133644111158e-01
-2.530339665462342791e-01
-2.472639849993145122e-01
-1.202572320327266603e-01
1.433150363215662283e-02
3.421603809947421776e-02
2.505738466069009143e-02
2.864281497057423742e-01
8.943804943736077817e-01
1.305764716190180419e+00
8.700215453053146142e-01
-1.722135416185384127e-01
-8.240280550971361695e-01
-5.945385406859163835e-01
2.229680626885785499e-02
3.763751604992529587e-01
3.593950363589085706e-01
2.224937023653025536e-01
1.411377995378345074e-01
9.470785428283763629e-02
-2.904231781028886704e-03
-1.638216405961520072e-01
-3.050068406739012139e-01
-3.378367586973285985e-01
-2.527223074522069179e-01
-1.070277711374807567e-01
3.811564344868041687e-02
1.421666376198096049e-01
1.727530238074589664e-01
1.135088860919481607e-01
-9.775374952061972531e-03
-1.357671183356401190e-01
-2.100234231025461529e-01
-2.125312333371050244e-01
-1.483558218446761334e-01
-3.067323802698751489e-02
1.168570135568433865e-01
2.458537602603980687e-01
2.805536441482947008e-01
1.541270328450541904e-01
-1.068427949469549776e-01
-3.469755426557313838e-01
-4.115817554209795226e-01
-3.037364510789344330e-01
-1.420722478113815579e-01
-9.251263997839417885e-03
8.619215982578280755e-02
1.494956484779381700e-01
1.687056449758102261e-01
1.318436494937725856e-01
4.471499558341457403e-02
-7.024050222743258298e-02
-1.805644543476253305e-01
-2.412715697405612703e-01
-1.982198681768841397e-01
-3.356757898396579148e-02
1.621275499468618486e-01
2.137941264645013828e-01
8.156152327318395845e-02
5.273986906771292726e-02
4.452015847281133309e-01
9.826764968268998368e-01
8.991842062544672665e-01
1.548095177731383110e-02
-8.124952882663638576e-01
-7.771438749776881094e-01
-1.022665169152198877e-01
4.593967169644855297e-01
5.723630987939833936e-01
4.021387657983603869e-01
1.413616641481073577e-01
-1.914852494988106002e-01
-5.786530131695291068e-01
-8.632675029295285851e-01
-8.642256097663693071e-01
-5.684000293830979711e-01
-1.468776866887200327e-01
1.905270201166279209e-01
3.238639770754956348e-01
2.690823717179129382e-01
1.455685833184472699e-01
6.457701942025133313e-02
3.599896641119933183e-02
4.066811861750015133e-05
-6.941859463635846605e-02
-1.239093992129045307e-01
-1.005101417555778615e-01
7.490849455426074402e-04
1.069832050130539169e-01
1.354524318286324247e-01
7.423000910698088206e-02
-2.192351106334297639e-03
-1.646225208203241919e-02
2.095876286591390192e-02
3.701367900589232207e-02
2.536232698521850848e-03
-3.454129358504140490e-02
-2.363532054118475112e-02
2.875031332718997606e-02
8.201377630775952277e-02
1.023680157132687146e-01
6.557751669449322918e-02
-4.262545228731640101e-02
-1.963003264432991446e-01
-3.187978488599019222e-01
-3.310051119847599033e-01
-2.050839970833365777e-01
2.107485140959833303e-02
2.352445618617229339e-01
2.718918344437679102e-01
7.453077034129368394e-02
-9.849226639443872666e-02
1.612195145097602977e-01
7.966973523625447973e-01
1.071068355481715528e+00
4.498826244527859286e-01
-5.152947548029932490e-01
-8.179116431041031365e-01
-2.956545642091593651e-01
3.348150689912918754e-01
4.999870302166343761e-01
2.627428080381832842e-01
-4.672997568793915701e-02
-2.527557074491766365e-01
-3.619146932881818213e-01
-4.002095561786495059e-01
-3.457510918245803033e-01
-1.943435447416614337e-01
-1.538582220106296874e-02
9.712979596955559347e-02
1.073503021244693878e-01
4.644034393226408042e-02
-4.723868153845640905e-02
-1.783548221697928982e-01
-3.692937097627894683e-01
-5.675854141540359610e-01
-6.249262387131100382e-01
-4.485281152040110908e-01
-1.375784309773367409e-01
1.159785061330769890e-01
2.153855430865583842e-01
1.840306325851724101e-01
8.178963564260130492e-02
-2.269357811071751052e-02
-5.519311239659653590e-02
5.065547125975416835e-03
9.289411435139217910e-02
1.364886011537773114e-01
1.417172958368347613e-01
1.543717305666394146e-01
1.741122072777603336e-01
1.531387918239408286e-01
5.693328794282586508e-02
-9.847554669959833473e-02
-2.476820650944713542e-01
-3.157424851100733565e-01
-2.828489028160540708e-01
-1.994633848736845905e-01
-1.170060809296891158e-01
-2.561896290213498684e-02
8.920925799528880984e-02
1.380602781934636980e-01
1.743913671555271175e-03
-1.906397985686077712e-01
-2.427027327628253350e-02
6.493777994048507418e-01
1.210245238743435037e+00
8.768208189526902618e-01
-1.242865124555338485e-01
-7.099336512027170087e-01
-3.755730215179650111e-01
2.771395655545733638e-01
5.181227851714605981e-01
2.943880095187498824e-01
-2.636756104785304561e-02
-1.999413244021760738e-01
-2.289076750866879117e-01
-1.893861836262744347e-01
-1.124274714468302128e-01
-7.932080504077333033e-03
9.094641652357675354e-02
1.446017726318521157e-01
1.327099507078739193e-01
4.711416311766467024e-02
-1.002641445192888059e-01
-2.471011665488908882e-01
-3.000212319652688642e-01
-2.159793631315962692e-01
-5.483322947567609296e-02
7.181819496488993371e-02
1.138178904132772090e-01
1.260388388023041817e-01
1.659096949281745892e-01
1.618449426237645039e-01
-2.977127590091207046e-02
-3.828699725311171531e-01
-6.165362518428878502e-01
-4.863789814044726656e-01
-9.454965532680598139e-02
2.363136942058595424e-01
3.319410088050454011e-01
2.737080490449377290e-01
2.013020413381664819e-01
1.463342686939843873e-01
6.384730466018023742e-02
-5.999811715172783527e-02
-1.735150370422985089e-01
-2.051985494421251777e-01
-1.229677250771742114e-01
3.623023500177783435e-02
1.953706252863597614e-01
3.080316283440391323e-01
3.645333891107665480e-01
3.111848677467290436e-01
7.118041085233292598e-02
-2.395354895258223760e-01
-2.229113727718383953e-01
3.738307568176543194e-01
1.091323476914037638e+00
1.089745963051989230e+00
2.836709509769558823e-01
-4.331524866657048833e-01
-3.850464239865328819e-01
1.001916594690937662e-01
3.452782000505980609e-01
1.708002090416620988e-01
-1.367948912539650175e-01
-3.064491014419079562e-01
-3.075544876002404560e-01
-2.391331081208849518e-01
-1.597297386971321398e-01
-6.311523106096239566e-02
3.172909091301585882e-02
5.280458321078188716e-02
-3.834864855343445705e-02
-1.881780430030245976e-01
-3.062749090960470433e-01
-3.403575975925332564e-01
-2.865241626957754639e-01
-1.695840134550447853e-01
-3.253342555781538192e-02
7.860496945945441571e-02
1.368035627738703741e-01
1.390835942606198916e-01
8.725793694084768570e-02
-2.439663120280252326e-02
-1.815670897969969555e-01
-3.143609798212151918e-01
-3.227858069193705881e-01
-1.627140294275656873e-01
9.274124741993725052e-02
2.949273265187736803e-01
3.428153822412758345e-01
2.577684391505016270e-01
1.245595133676871968e-01
-6.695362743366965047e-03
-1.285816697620977556e-01
-2.252261863678994835e-01
-2.612670065676057085e-01
-2.159401567911034825e-01
-1.086437221271655124e-01
1.000486450177570652e-02
9.894783054869282779e-02
1.615665956173789608e-01
2.102523512375931158e-01
1.824860577999449784e-01
-3.141979474362785463e-02
-3.691544914662267529e-01
-4.556736951673319158e-01
5.687403082500044893e-02
8.782425573382115491e-01
1.160736692701199946e+00
5.375522582121051718e-01
-2.991727071374822855e-01
-4.982770320806780839e-01
-1.010321536511684798e-01
2.391728133706855219e-01
1.702286656923576447e-01
-1.193309580794781888e-01
-3.093350575722384477e-01
-2.854095367308377984e-01
-1.340537916295203025e-01
1.374656158766019223e-02
8.542392091559349032e-02
7.189660870584668739e-02
-1.331182500920766523e-02
-1.532655588098919275e-01
-3.070253876785005165e-01
-3.987460247470587804e-01
-3.603389592241686423e-01
-2.036490415626265871e-01
-3.936970825257855855e-02
2.334200818640311259e-02
3.444054962428323013e-03
8.018673234635393179e-03
6.648124113455883277e-02
9.378866543526265254e-02
1.986871283388486412e-02
-1.200215922263458135e-01
-2.205734254087744206e-01
-1.872339740417671150e-01
-5.550639132799968511e-03
2.294070302995030730e-01
3.754524696400226569e-01
3.646726733003181065e-01
2.442079120405973858e-01
9.480270552972260012e-02
-4.750774506764472022e-02
-1.758605108351767587e-01
-2.636491285964048803e-01
-2.684062969938648124e-01
-1.761901202864721294e-01
-2.395547689628691607e-02
1.195449649238610607e-01
1.941317926189025378e-01
1.842628905635060876e-01
1.175427942818977056e-01
1.155755954074289341e-02
-1.657481279847844990e-01
-4.084963767152680614e-01
-4.941635293920966232e-01
-5.390030858059495500e-02
8.808916931543961937e-01
1.524490240136635366e+00
1.111095411309949377e+00
9.712002096616656477e-03
-6.550192539920027812e-01
-4.570784601519399248e-01
6.298836955324557674e-03
1.324850312224390148e-01
-4.382344128957820634e-02
-1.911666570072383387e-01
-1.640449930179308791e-01
-4.843975379026616013e-02
3.908798819154132853e-02
6.577370716236352610e-02
4.806507178245643386e-02
-3.782965580011784373e-03
-7.985544862904192520e-02
-1.561376015326204625e-01
-2.107433347052576900e-01
-2.228292225315226249e-01
-1.659078157277233123e-01
-4.440751299156241866e-02
8.491843813323787793e-02
1.551105791748589868e-01
1.325388554356034254e-01
2.522516712789044102e-02
-1.189855464223723014e-01
-2.327865015876402210e-01
-2.752065498889842976e-01
-2.410019417313866985e-01
-1.183875126467487798e-01
1.012532125481660494e-01
3.338852795925489336e-01
3.991179316594172244e-01
2.046633367693954098e-01
-1.015934081688791846e-01
-2.847277154322404580e-01
-3.173665380876539710e-01
-3.878835684311343068e-01
-5.889199472412265379e-01
-7.367008575219279320e-01
-6.028606718694766720e-01
-2.311878736053248895e-01
1.055168064414766099e-01
2.065723745653776089e-01
1.015059706430983255e-01
-4.762574403720502836e-02
-1.286627161315196943e-01
-1.720242512277284086e-01
-2.710249838169894177e-01
-3.707489147309672162e-01
-1.778912781542779653e-01
4.968729034368923325e-01
1.231430240463325720e+00
1.236506253503364627e+00
3.896412752542822155e-01
-4.574736669108080411e-01
-5.522214841416889231e-01
-1.016726566788627162e-01
2.376451923189903670e-01
2.185419862462895102e-01
5.997945493167766012e-02
-2.634393023864867178e-03
5.293687654865546210e-02
1.265153675452494186e-01
1.383776682557211757e-01
8.350585464178322814e-02
2.416071607320978767e-03
-7.701769669280088271e-02
-1.489549816383522740e-01
-1.880957274027844628e-01
-1.488009449709502552e-01
-2.474125328715030825e-02
1.243059395792121685e-01
2.182033600574085908e-01
2.123360568415977867e-01
1.181242223330222496e-01
-7.973818625864487544e-03
-1.018992436641940752e-01
-1.360797463432968923e-01
-1.240439663483425131e-01
-7.639821554615118526e-02
3.059268814701208983e-02
2.174873701308407403e-01
4.316020232502055243e-01
5.480191078008925798e-01
4.758984487670893659e-01
2.591544483055660542e-01
4.426491443041108420e-02
-5.990883483710884166e-02
-7.991934365972301613e-02
-1.226716232946881702e-01
-2.196080237218134001e-01
-2.637676602864499897e-01
-1.518507389984739553e-01
4.944270287349189497e-02
1.615546111026940068e-01
1.027776066698093682e-01
-2.808340584647486121e-02
-8.175335018405573140e-02
-4.231270805253987966e-02
-3.902964404450039171e-02
-1.130249593344127418e-01
-1.350387790346864458e-02
5.284099042307029981e-01
1.200442309402679708e+00
1.197029945799947592e+00
2.880644953542892961e-01
-6.745596400373374824e-01
-8.203087654071540280e-01
-3.331939784168094221e-01
-2.504578387005879092e-03
-1.638890426795358291e-01
-4.878396065216347721e-01
-5.596668907787936131e-01
-3.532744019935307733e-01
-1.392607647690229655e-01
-1.152014958374891485e-01
-2.468548849250468413e-01
-3.886290382222698514e-01
-4.360506910892292254e-01
-3.759323092475236883e-01
-2.551713170853806556e-01
-1.240384436018008019e-01
-1.094485664639095746e-02
6.531857454000565555e-02
8.587305497323548253e-02
3.850388470624009629e-02
-7.115447521710152601e-02
-2.109751886891285400e-01
-3.261853444789213907e-01
-3.601904082242904370e-01
-2.797718371103165014e-01
-9.694671319109648966e-02
1.262217432242100090e-01
3.107451336735858050e-01
4.014081116956500495e-01
3.712047328555118653e-01
2.200064070438434993e-01
-5.894869906462943399e-04
-1.846653859896669470e-01
-2.344696395773414044e-01
-1.422938630376980318e-01
1.265982543439611585e-04
9.255442853897667688e-02
1.159917225094883458e-01
1.107526473160431457e-01
9.356814656412934528e-02
4.102833858153502600e-02
-5.312112193123289666e-02
-1.367343386402610494e-01
-1.353760409827167999e-01
-5.269290434548679070e-02
-9.710093762941898396e-03
-7.930027748704505941e-02
-5.887833964100715189e-02
3.818377558385460668e-01
1.117598263838541550e+00
1.385446630609965757e+00
6.685766624718034734e-01
-4.424331652855845176e-01
-9.015199597740285453e-01
-5.008737239834032406e-01
1.075451871359420636e-01
3.935949947490570144e-01
3.757451807833283031e-01
2.715524935737717582e-01
1.738824080321278720e-01
6.307151421885451303e-02
-8.329975646247761434e-02
-2.455968812095955522e-01
-3.671944255145406788e-01
-3.908305737882205033e-01
-3.041648069646651908e-01
-1.472421473398714542e-01
2.095798555691392659e-02
1.509902971010353978e-01
2.061934586657173107e-01
1.679932629198816474e-01
5.612642417046392190e-02
-6.995710225828871698e-02
-1.497478134199798083e-01
-1.593980692960532131e-01
-1.019327670263301955e-01
1.638431906728144566e-02
1.631989642190700418e-01
2.477796714846433879e-01
1.721217684902058842e-01
-5.009821317983555178e-02
-2.669524320950455998e-01
-3.411728071019582420e-01
-2.915827488211341079e-01
-2.185888802090363847e-01
-1.539034871448705655e-01
-6.167715739320842744e-02
6.367246709148746686e-02
1.670205104715226652e-01
1.879483805858566392e-01
1.177573556219431578e-01
-3.941849363548672810e-03
-1.323340991362544627e-01
-2.354353947758171528e-01
-2.775557993998812867e-01
-2.233787113793628820e-01
-8.816365297253174471e-02
3.237545477635275781e-02
5.535208187195674034e-02
8.984459411914590132e-02
4.080202479358124301e-01
1.005920256509353905e+00
1.290245882443014525e+00
6.957977867221937229e-01
-3.758422817002066152e-01
-8.893381784641094523e-01
-4.837888189487788426e-01
2.175413066666711248e-01
5.566029518435356982e-01
4.842810602501830819e-01
2.860981250045931956e-01
1.313473250325117025e-01
-2.797161430434965713e-03
-1.654561638693803627e-01
-3.207438046361862360e-01
-3.791889709138679398e-01
-2.882856746961243721e-01
-8.881040382295492253e-02
1.063357938427043348e-01
1.989199565842325323e-01
1.749468454360780800e-01
8.440848973332980287e-02
-2.633521200826489939e-02
-1.418777403578098950e-01
-2.515819097953186367e-01
-3.200458007373124802e-01
-2.983273276444152189e-01
-1.701788831904844090e-01
1.890192563981302892e-02
1.860408332607731974e-01
2.669980604764847221e-01
2.571221015756638417e-01
2.009092293007681829e-01
1.339784166442919144e-01
5.064717766968603735e-02
-5.108364181816034411e-02
-1.229257623304218366e-01
-1.027419178454503784e-01
1.607226989230027200e-02
1.699370254437882477e-01
2.707699810602885448e-01
2.678591696581614223e-01
1.758674860170036658e-01
4.566468802766206203e-02
-8.034652251773069520e-02
-1.742908169430586462e-01
-2.038805804080235096e-01
-1.391599910665404227e-01
2.817416945335719097e-03
1.205125132026609175e-01
9.406215820809270267e-02
-1.447508197260664008e-02
1.123739916929286514e-01
6.559357095380835556e-01
1.165516026993570931e+00
9.163389149484599816e-01
-4.629886945164989054e-02
-8.152618948601901838e-01
-8.120258418740139428e-01
-3.959212283001253274e-01
-1.186047271013346976e-01
-6.009925461732720797e-02
-6.070425211221121969e-02
-8.315936358235209713e-02
-1.693145744207033843e-01
-2.970572383731175936e-01
-3.879656512084196929e-01
-3.743937610067208377e-01
-2.488038677333515303e-01
-8.164112784978702630e-02
3.054570810730051350e-02
5.194661703672909941e-02
2.593171859003258820e-02
1.899375103535227288e-04
-5.721668309172082273e-02
-2.356808361673768948e-01
-5.301841664540039023e-01
-7.465471524009936743e-01
-6.680505164609191748e-01
-3.157052419152909795e-01
5.729550386713407745e-02
2.193850492381453354e-01
1.401993252011103641e-01
-3.958026292878387420e-02
-1.535867095226607915e-01
-1.466899404934177420e-01
-9.155215166978387942e-02
-6.537928043959252700e-02
-4.430969807245460634e-02
4.187656760338440143e-02
1.852414812189751847e-01
2.864611355862251019e-01
2.582670805205779518e-01
1.069552371807055702e-01
-8.191407024395730430e-02
-2.151493752928391734e-01
-2.550087085015824706e-01
-2.304468321470453385e-01
-1.898700441688064844e-01
-1.347639979927423293e-01
-2.154732205758184277e-02
1.282293802029823293e-01
1.704318713348889625e-01
2.946517684973709236e-02
-5.404531360052369088e-02
2.834114685058578553e-01
9.086960828716174055e-01
1.087904968851368226e+00
4.279334644958490141e-01
-4.191378311306483972e-01
-5.653242983623150142e-01
-3.478542295359091097e-02
4.573777380679578397e-01
4.928884351295582111e-01
2.257336465210968979e-01
-5.442831716585339735e-02
-2.343235199738280539e-01
-3.198314144849145335e-01
-3.108856331504394888e-01
-2.052245711998892941e-01
-5.126427862693379300e-02
6.709966382669357854e-02
9.587052810357031551e-02
4.871398752237245805e-02
-1.482825694426260187e-02
-5.782336532498089099e-02
-1.198628828426774040e-01
-2.700363110237200548e-01
-4.784338061332909509e-01
-5.816568623075892841e-01
-4.467572150642932227e-01
-1.380612619741171387e-01
1.479791292085304300e-01
2.688390858399399841e-01
2.095946519814472220e-01
5.086468738912058862e-02
-8.240891409436432169e-02
-1.022905378209768706e-01
-2.584986015781040244e-02
6.770082627770572514e-02
1.372868695904961300e-01
1.971879197564742059e-01
2.538293592468163773e-01
2.721877884954087556e-01
2.142618045268668836e-01
9.429907140832524681e-02
-2.486563281517536333e-02
-9.179421148135522013e-02
-1.001769763657571616e-01
-6.610624146272073287e-02
1.017182359176487319e-03
1.054059472742966963e-01
2.445746951784447953e-01
3.592728682222932068e-01
3.212555293192376205e-01
6.113136334006186168e-02
-2.278581789624247733e-01
-1.325927378778681276e-01
4.757281353939926127e-01
1.015121404447146380e+00
7.495349415528496095e-01
-1.366967583077967896e-01
-6.556713118622869985e-01
-3.307633263503466647e-01
2.914167504855790791e-01
5.179795932368385092e-01
2.746707478207617847e-01
-8.175832565481948311e-02
-2.701281794631590905e-01
-2.648578588000925493e-01
-1.740658541522472347e-01
-8.435858700864272419e-02
-1.452479005415097113e-02
3.817468535236302751e-02
5.309887579285062914e-02
5.017441871431127867e-04
-1.196581950378312470e-01
-2.625092007365870117e-01
-3.554650693012718077e-01
-3.463110213120562109e-01
-2.461796157418154607e-01
-1.098402860772081657e-01
2.111449833094602643e-02
1.297006435236044697e-01
1.897921023653285910e-01
1.606832767833201725e-01
2.764782677939621458e-02
-1.640167773537452856e-01
-3.147450306067116621e-01
-3.194587171115703117e-01
-1.508352175483073376e-01
9.543280739863121975e-02
2.766143320527099103e-01
3.297843661718146135e-01
2.888010165631044179e-01
1.951716341142657185e-01
5.653725254762265173e-02
-1.081416801067723726e-01
-2.422875339790725724e-01
-2.914079048006602557e-01
-2.471861964009757773e-01
-1.418580164321983916e-01
-1.235532774893575644e-02
1.150514944516402571e-01
2.147398490912452995e-01
2.549300947716310883e-01
1.914108030223443113e-01
-1.261317767960045896e-02
-2.689792960224272611e-01
-2.720049595137332132e-01
2.375972195256333686e-01
9.597001996812638547e-01
1.122632610128088793e+00
4.499295780731479844e-01
-3.391345450192776445e-01
-4.524676232971032719e-01
-1.270539656571792464e-02
3.145206250996823161e-01
2.323248972497739540e-01
-4.006305719363497525e-02
-2.169507703254199282e-01
-2.207628043410638785e-01
-1.207202741300945070e-01
-3.851237075237302909e-03
7.424093578159350615e-02
9.060114228268398295e-02
4.718875062690499472e-02
-4.243664045397441131e-02
-1.622475436571933216e-01
-2.827779365430093117e-01
-3.469919075049893720e-01
-2.953545549150950467e-01
-1.287884986897230855e-01
4.559798181153220525e-02
5.969277153432343830e-02
-1.475491618176433539e-01
-4.070867731838467840e-01
-4.811101779616208662e-01
-3.503593544108523639e-01
-2.111035934869925912e-01
-1.913155446655967484e-01
-1.971535139103260947e-01
-6.987234814188127141e-02
1.860353331492443918e-01
3.969965966218794717e-01
4.192200983344173681e-01
2.731925849911893689e-01
7.607727608064598912e-02
-9.024029115537751666e-02
-2.123259406669809612e-01
-2.925409162168106647e-01
-3.110543602504405314e-01
-2.417342393917081000e-01
-9.284061000377528960e-02
7.281910191770246676e-02
1.728142087456257803e-01
1.740160983165388586e-01
1.099400145344869573e-01
7.912937604532353092e-03
-1.664172375656127190e-01
-4.030292546331746273e-01
-4.651416996140628757e-01
-3.194705499437233698e-03
8.988874341571564397e-01
1.461809096331030400e+00
1.012408039040873842e+00
-2.452182219596435453e-02
-5.849376020233052476e-01
-3.306434679065988202e-01
1.242876037786441040e-01
2.136642672296089063e-01
7.438601825339827278e-03
-1.495348102324595974e-01
-1.195572396226077805e-01
-2.685128689223197779e-03
7.374741504296296324e-02
6.302310039561886956e-02
-2.167456635492596290e-02
-1.438541897498964439e-01
-2.630889369771986508e-01
-3.469307380483560577e-01
-3.749353289683129420e-01
-3.365118246743662445e-01
-2.324358174185796322e-01
-8.320328433583931704e-02
6.752451667286467341e-02
1.643909140555079029e-01
1.729214748214269459e-01
1.193689086963024421e-01
6.895221318792901788e-02
2.230326680746815005e-02
-1.131886436695377363e-01
-3.537723306508286369e-01
-4.986538854637454499e-01
-3.216892593287622448e-01
1.116321149846370292e-01
4.766497930744382772e-01
5.325787493728895150e-01
3.183040939599278696e-01
3.493614153754954349e-02
-1.625361651856224443e-01
-2.490844884204619636e-01
-2.683660484444956862e-01
-2.359134630340912198e-01
-1.217902987683073396e-01
6.838153341343158886e-02
2.182591515674277838e-01
1.657113813093527288e-01
-1.165768476619178651e-01
-4.447249880830628221e-01
-5.952042418719012407e-01
-5.521385600104218305e-01
-4.952006778737030324e-01
-4.606344666568820134e-01
-1.290541627042705863e-01
7.363913192367812499e-01
1.609678072883956146e+00
1.513441248677846351e+00
3.109036015931326280e-01
-9.232610588724374789e-01
-1.196865354048457952e+00
-6.621834341392697221e-01
-9.501628934066501386e-02
1.026713874885686745e-01
7.619789462573545169e-02
8.003119315160148184e-02
1.758613665872798271e-01
2.670016200275387996e-01
2.542410622009643184e-01
1.268309432653481894e-01
-4.867109505793606322e-02
-1.909457625510289358e-01
-2.570385265006903674e-01
-2.520680119708171296e-01
-1.955282396062602013e-01
-9.282486603518334822e-02
4.308178009157325600e-02
1.597185384896297466e-01
1.926093342557605170e-01
1.282092173676034064e-01
1.210538703099372712e-02
-1.021439946395136522e-01
-1.834927291591798848e-01
-2.150760697280862110e-01
-1.858682080133363668e-01
-8.543476163120100608e-02
9.175297304266709364e-02
3.071585673631572755e-01
4.477284112490118040e-01
3.849079010447552518e-01
1.013115165608069468e-01
-2.488482412393998033e-01
-4.456414064832062150e-01
-3.943684799593338841e-01
-1.887852780194641533e-01
1.617997196290820588e-02
1.429494928529258801e-01
1.992860361632066146e-01
2.092613322440924073e-01
1.745757580705371015e-01
9.762058576841037283e-02
1.244032659717951052e-02
-4.001278754663410708e-02
-7.157149253558624247e-02
-1.373954317223036181e-01
-1.889169161385042262e-01
4.208825108371513912e-02
7.549367620269713530e-01
1.529530077347886374e+00
1.511188833464016668e+00
5.374619439285706068e-01
-4.510325884245736661e-01
-5.924913596529739479e-01
-1.058633480837784802e-01
2.851085626176322885e-01
3.218258680331889110e-01
2.298959620411715199e-01
1.933556493264338150e-01
1.595218363486133051e-01
3.672212091438200460e-02
-1.348606193486882321e-01
-2.368591840328588827e-01
-2.045142164529512030e-01
-7.150622288230491785e-02
7.636615111150757418e-02
1.813764634003537934e-01
2.552362845503842181e-01
3.317097005637054674e-01
4.007807685257894770e-01
4.183810183939393745e-01
3.564111980736591745e-01
2.164848065281764211e-01
2.516127998034316943e-02
-1.532471500513514773e-01
-2.369709609144591278e-01
-2.018771155434572750e-01
-1.051470787574453614e-01
-4.013923376334917192e-03
1.053194951156246895e-01
2.278846132612838971e-01
2.927880192072513932e-01
2.065608411337442052e-01
-1.698396301532489883e-02
-2.390232728152783259e-01
-3.285212239649331067e-01
-2.780556531153575150e-01
-1.717259893791455161e-01
-7.811551166088445686e-02
-1.512231903350309478e-02
6.583753290664851043e-03
-3.479147354677310233e-02
-1.389531497598089083e-01
-2.624067169237404018e-01
-3.414054858762600175e-01
-3.392697857044036924e-01
-2.877991700121920737e-01
-2.723154587042094232e-01
-3.093873543889310018e-01
-2.092651660534740610e-01
2.785806090838803817e-01
9.784150104022478756e-01
1.169061091357548321e+00
4.179297209501728338e-01
-6.612389661946991293e-01
-1.076173979400697478e+00
-6.625167053293173902e-01
-6.270687232452580584e-02
2.101733888046418974e-01
1.780351329551433104e-01
7.361811153098682392e-02
4.970369490835523790e-03
-6.537004116599270942e-02
-1.837424237143225614e-01
-3.208158611443976405e-01
-4.058204727057908023e-01
-4.023047073776378491e-01
-3.311337195868532257e-01
-2.322734707085631345e-01
-1.246053831135359447e-01
-2.009759978244233039e-02
3.803720916390010420e-02
-5.907512466735917456e-04
-1.249410223437235484e-01
-2.587645704199756924e-01
-3.295056776860219028e-01
-3.138991271569470110e-01
-2.304612799324547157e-01
-1.204120394792917437e-01
-2.569921741203912147e-02
4.005516497239127588e-02
9.652927284945529707e-02
1.582061882982532253e-01
1.912370899093520926e-01
1.337422015950650300e-01
-1.953806645785013951e-02
-1.808544366872315012e-01
-2.526536645959288618e-01
-2.193788594826936167e-01
-1.263418434807509205e-01
-1.054303121738112831e-02
1.072809221836302368e-01
1.990888962829475417e-01
2.298968056508308710e-01
1.498826437514959586e-01
-9.627976809889716991e-02
-4.563399879367092682e-01
-6.953231486489165336e-01
-6.015226945779683643e-01
-2.732305878846300606e-01
-1.801162523634621329e-02
8.238876846533003950e-02
3.200162013893173008e-01
8.624653247835721848e-01
1.229542121714040981e+00
7.649349898347503895e-01
-3.096682122227069622e-01
-9.796192166268757884e-01
-7.238051287477829110e-01
-4.479407783446094637e-02
3.657948539959600676e-01
3.716252748844519616e-01
2.154098765166880536e-01
6.589447422864583293e-02
-7.143617753153455596e-02
-2.005066769068568344e-01
-2.811574609164017580e-01
-2.958258005957435377e-01
-2.584138475995070294e-01
-1.595492593877405607e-01
1.556478197015646533e-02
2.100950840128178732e-01
3.086123747198729617e-01
2.494472214768703455e-01
8.153634028252679244e-02
-9.588579223886486980e-02
-2.103457355443336396e-01
-2.371436173097430933e-01
-1.857754526790152405e-01
-8.255104567524973458e-02
3.431453596956984819e-02
1.171318133426644814e-01
1.419659996680778247e-01
1.428680907120540577e-01
1.709359674681907582e-01
2.129585792149006063e-01
1.990477986648434838e-01
1.057171782322867959e-01
8.207172278756724726e-03
3.172868804195996817e-03
9.925350099775624713e-02
2.109960780854899520e-01
2.536045358113443449e-01
2.122121561504727860e-01
1.167665946348128286e-01
-7.365731442865217082e-03
-1.375595745043516616e-01
-2.327468969952970756e-01
-2.460267555826963770e-01
-1.540638047294478619e-01
1.972416577360055698e-02
1.819705268112989938e-01
1.996975122381633994e-01
6.001750357667909319e-02
1.721026834845876610e-02
3.735301954354884879e-01
9.409067786342099060e-01
1.016731063362631859e+00
2.921586943811460557e-01
-5.500667669669874194e-01
-6.671213610103804426e-01
-1.181608544257409105e-01
4.020667379197339075e-01
5.056646572325902422e-01
3.426106646733412253e-01
1.597399869464312117e-01
1.298068146315704309e-02
-1.315266923095304852e-01
-2.485221810828373012e-01
-2.740578706392042818e-01
-1.910951570103949504e-01
-4.535245497840679346e-02
9.688641485962914968e-02
1.804387001479149655e-01
1.743233678423270205e-01
8.930287241561531142e-02
-1.792095753839212727e-02
-8.023268370071329203e-02
-8.356672032575096498e-02
-1.081262585368141516e-01
-2.588900673283567322e-01
-4.893770975885604058e-01
-5.709128422197032870e-01
-3.667982058121701527e-01
-4.712800492602348817e-02
1.211877992955184696e-01
9.564893190432786907e-02
2.881077733415184083e-02
2.116418780646246722e-02
4.396805620624705258e-02
5.604206460857145966e-02
7.531043964376842037e-02
1.309407971150174654e-01
2.132708410804469712e-01
2.688474425619206132e-01
2.048048715943459885e-01
-5.817531151985189108e-02
-4.559809118212384549e-01
-7.447307052154538143e-01
-7.159196684804237654e-01
-4.248421476727919921e-01
-9.338049362662308173e-02
1.455608034729499733e-01
2.729445490610013514e-01
2.484015318959180152e-01
6.133280409202659933e-02
-6.849753158297777755e-02
2.039892933802012753e-01
8.094944502746933557e-01
1.064263816482003522e+00
4.897396471697279541e-01
-3.670136284281346195e-01
-5.778882151661546285e-01
-8.884056685251437435e-02
3.458712480158204761e-01
2.573727601822711764e-01
-1.192448822834441813e-01
-3.756710223575727703e-01
-4.067721563815526187e-01
-3.436800068944272923e-01
-2.921999104067605768e-01
-2.456639922141292121e-01
-1.626281246191397523e-01
-4.632475130086150666e-02
5.111306644443214947e-02
7.370546217681100964e-02
4.844463600433083703e-03
-1.195404656134642224e-01
-2.354914763957234314e-01
-2.963965284533712219e-01
-2.954243168195962999e-01
-2.377550214006398099e-01
-1.088011092820994757e-01
8.701937320485136906e-02
2.641602214387671621e-01
3.012408880762926233e-01
1.652135626099912602e-01
-4.620810712337358045e-02
-1.848763090108874740e-01
-1.686640739192057092e-01
-4.093001407809795933e-02
8.520501181701015114e-02
1.444214479790428274e-01
1.570852432315151259e-01
1.600287001920286667e-01
1.504687168157899657e-01
1.069949037263631803e-01
2.644868878181613064e-02
-7.278669606316025276e-02
-1.609905960859072671e-01
-2.038564504112235776e-01
-1.788658644943937337e-01
-9.397987478326241817e-02
2.186638752102665340e-02
1.408262208009642413e-01
2.172040194324653672e-01
1.567759817095141506e-01
-9.644849205601668807e-02
-3.550556221963730441e-01
-1.970185693927904713e-01
5.163463595715898080e-01
1.163575933176291821e+00
9.414414603176082252e-01
2.209715705973391842e-02
-5.598609824871363383e-01
-2.984651637907563271e-01
2.567397889447179393e-01
4.295515339025990365e-01
1.812011535482067615e-01
-1.340851148541125082e-01
-2.843544054505375285e-01
-2.769163116813074255e-01
-1.952934304305216640e-01
-8.892716878816983583e-02
1.532721885122590236e-02
9.006970379314721553e-02
1.152852923844801258e-01
7.980790707831364461e-02
-1.702884233786163340e-02
-1.441778310819005482e-01
-2.409906106002104587e-01
-2.599234612304981984e-01
-1.975719820076343725e-01
-8.654951236041250051e-02
2.940356163973553011e-02
1.163587469906292859e-01
1.581289474186869659e-01
1.463073742303387659e-01
7.215595134804114741e-02
-4.757186050541726413e-02
-1.396258828855043432e-01
-1.181535365236169033e-01
1.288388695829820879e-02
1.409578651067006361e-01
1.636122877368746398e-01
9.658809835140833022e-02
3.091928339888672106e-02
9.092382151784499447e-03
-1.083364926160422168e-02
-7.200119395765393338e-02
-1.411709471093760826e-01
-1.404392083307368089e-01
-5.138005863967368136e-02
5.209220738935101125e-02
1.051159138697631695e-01
1.381725582219917592e-01
2.096164072534771328e-01
2.850937943483738968e-01
2.324536598096526852e-01
-2.719545537107730462e-02
-3.132992013109311968e-01
-2.092056929118792930e-01
4.491135902746920538e-01
1.099953239617588396e+00
9.531540115180525685e-01
1.039804706321051236e-01
-4.849293626832628656e-01
-2.878502654622705492e-01
2.102099125998909135e-01
3.729044030582356894e-01
1.610551764475958714e-01
-1.307628458420005135e-01
-3.660086912412734983e-01
-5.500237174093856041e-01
-6.029506419897954217e-01
-4.318861347724153865e-01
-1.367937652326219333e-01
6.429101062420808366e-02
7.308184541641339627e-02
-4.317672045987244744e-02
-1.797064758281931851e-01
-2.746972727138141668e-01
-3.004549673618925887e-01
-2.514339270301236828e-01
-1.513549865202208911e-01
-4.012717275609976875e-02
5.549058097766251113e-02
1.212891105389131696e-01
1.338787761011150101e-01
7.078143666450906202e-02
-5.926887777135753793e-02
-2.082163323001764432e-01
-2.936341986440039742e-01
-2.301435602959399362e-01
-1.512011476222935302e-02
2.275643044722388542e-01
3.492100010678458322e-01
3.141301368992234222e-01
2.014907061746091521e-01
9.675300909801601290e-02
1.473902508425034216e-02
-9.181625718005134718e-02
-2.684946969006661299e-01
-4.841798673093832828e-01
-6.231980866052695411e-01
-5.837863801049412160e-01
-3.732452524556483797e-01
-9.552982297644294074e-02
1.253124706664098531e-01
2.086166384478067570e-01
1.291249124127989700e-01
-9.673161859085718794e-02
-3.544887666269269655e-01
-3.531405629348913222e-01
1.767692796398394606e-01
9.903222409109933011e-01
1.302407269268390788e+00
7.001151332682357120e-01
-1.925457260739131538e-01
-4.960145514615187379e-01
-1.737793863813808792e-01
1.682305687217717505e-01
1.750895650897710265e-01
-4.074339085645476560e-02
-2.587869169217781318e-01
-3.404218774624137023e-01
-2.247511853696630146e-01
1.833075311948945824e-02
2.003019971496265150e-01
1.860215456956591518e-01
8.063319811480479382e-03
-2.040748416246457309e-01
-3.450207301765643164e-01
-3.775461214151015210e-01
-3.140369239216933006e-01
-1.896510955383027275e-01
-4.459053231572155523e-02
8.484538288900327074e-02
1.657209574055309165e-01
1.741860531999911699e-01
1.206539369712868182e-01
5.359162181778545642e-02
4.257757037725526730e-03
-4.886873630510889938e-02
-1.047666290318167992e-01
-7.112394317767008201e-02
1.218913851629737227e-01
3.691900968189812393e-01
4.779991103973648681e-01
3.861304919717171158e-01
1.950908896095162604e-01
2.542846785633116891e-02
-8.212685105845371480e-02
-1.486598334791679188e-01
-1.931060278999035540e-01
-1.924017678590821123e-01
-1.052634575827366414e-01
5.802963155669800532e-02
2.081512852693715443e-01
2.483634346664270465e-01
1.715341583541822867e-01
5.826044618851733414e-02
-3.157285442097002015e-02
-1.335437783238311582e-01
-2.838552606864016559e-01
-3.268586985716525062e-01
4.581301619598235342e-02
8.311133835725654784e-01
1.386904144137271810e+00
1.046438157038084515e+00
7.526205014301881602e-02
-5.778606284304541596e-01
-4.805642410741292059e-01
-5.248244863785353487e-02
1.923562300447586582e-01
1.443896020689377502e-01
-7.494733205999212777e-02
-3.158852364499328269e-01
-4.164529207912965880e-01
-2.963350327375099957e-01
-7.643705320786094159e-02
3.202896158462351095e-02
-4.709016091631303830e-02
-2.144193847590871727e-01
-3.286144595462912044e-01
-3.117556420148760443e-01
-1.671653752039044538e-01
2.818069345446707827e-02
1.394509706298710794e-01
5.083665054795473426e-02
-2.069266860916679496e-01
-4.419556024310505316e-01
-4.834399361753376478e-01
-3.487928752966734103e-01
-1.896206428158026258e-01
-1.182632098967597578e-01
-1.172605459422080137e-01
-8.438913997313129967e-02
5.568234862840885924e-02
2.652375418814176822e-01
4.093070780833856781e-01
3.805031197328236359e-01
2.058725053318604392e-01
4.355077719901512268e-03
-1.358008645172661677e-01
-1.957783357074430464e-01
-1.764000872639764073e-01
-7.930830213044906540e-02
5.952675341244084012e-02
1.715764845875522304e-01
2.069786513806336214e-01
1.606135703078131749e-01
5.875820765899590625e-02
-5.151931351726714986e-02
-1.211713707237536686e-01
-1.495246537534399567e-01
-1.950733308424586476e-01
-2.504593045728991663e-01
-1.025655153210098258e-01
4.699468682421109600e-01
1.197190351989775747e+00
1.340152504612929674e+00
6.039098851988019545e-01
-3.220129831360079020e-01
-6.158148364122425500e-01
-3.096666155393279496e-01
2.155677307575391832e-02
1.063992799630261721e-01
9.316331666115784671e-02
1.343185836659435417e-01
1.935059091930672326e-01
1.750506701158987821e-01
6.261844245250484942e-02
-8.740562860640024856e-02
-2.184772310188876909e-01
-2.992412073033937081e-01
-3.038762022346311875e-01
-2.182471510525982594e-01
-6.776940167125057590e-02
8.926459557699664704e-02
1.948816470523523914e-01
2.140840453684349498e-01
1.478019729936448368e-01
3.903130336737498096e-02
-4.667489847592831698e-02
-7.151346648787598737e-02
-5.920813791026904166e-02
-5.730071039678991118e-02
-6.474970285180112195e-02
-1.789322636656237933e-02
1.336928545671523527e-01
3.196476748807404733e-01
3.455861951692434930e-01
8.529424434293478297e-02
-3.199489343578390543e-01
-5.697812373085058280e-01
-5.291611663514581565e-01
-3.273782839399294597e-01
-1.420166563598944665e-01
-2.422700788926630128e-02
5.366637375647912572e-02
9.825338364961172521e-02
8.430861991005206280e-02
-3.789414668791355259e-03
-1.400499619359958647e-01
-2.563330531919901234e-01
-2.863703680375015992e-01
-2.313598333046161248e-01
-1.740946191176476754e-01
-1.768372516720440324e-01
-1.161607243052970168e-01
2.757744195857845804e-01
9.702496570107967955e-01
1.334592162484792066e+00
7.677520090256370056e-01
-3.421443471659314506e-01
-9.439247229080536261e-01
-6.393511935109800204e-01
-1.714637937554244762e-02
2.819127284787558141e-01
2.217031534394670045e-01
1.065643447264343624e-01
1.188907388710988139e-01
2.092941439565738637e-01
2.260080955413489023e-01
6.982265967258557970e-02
-2.104669246328697008e-01
-4.566254736965061900e-01
-5.415477081545586602e-01
-4.510000120618415376e-01
-2.545591278055585605e-01
-4.883612212025700838e-02
8.213334054908766335e-02
9.802064269130345009e-02
1.613031731907516031e-02
-1.084931543260773956e-01
-2.182721663124652933e-01
-2.710718545106949318e-01
-2.461977164424793696e-01
-1.565227685642106570e-01
-4.590926852094560223e-02
4.782531710216687826e-02
1.257066042833759334e-01
2.054562059845235766e-01
2.633504425885375144e-01
2.283595882796072840e-01
7.298627169459517838e-02
-1.075323678127167587e-01
-1.679767479031382682e-01
-7.051026894545850410e-02
8.438460375517689571e-02
1.855213337249350392e-01
2.051982656213441614e-01
1.598875703728597775e-01
5.399735154972470919e-02
-1.017748591473088549e-01
-2.567544266941322317e-01
-3.359213452052213777e-01
-2.910566533428093905e-01
-1.481063376793289865e-01
-1.612006041764649233e-02
-1.406661136393612052e-02
-1.035351500547963821e-01
2.525640245888619365e-03
5.427273320475740626e-01
1.177261533829122353e+00
1.123712902998801333e+00
1.904980082092725679e-01
-7.608122222896611664e-01
-8.537161337221714774e-01
-2.295925972772953350e-01
3.541931849582454217e-01
4.659246843725228238e-01
2.057682472970632226e-01
-1.413238253529949529e-01
-3.649322994081806715e-01
-4.050565144629237890e-01
-3.344060760186871595e-01
-2.526628352936446942e-01
-1.910847237918196218e-01
-1.242903881518679088e-01
-2.938261854901549897e-02
8.307030154537889399e-02
1.678601791460917758e-01
1.723296000481410739e-01
8.156682435458297020e-02
-6.175487352299952049e-02
-1.814467680976871999e-01
-2.154596657960005934e-01
-1.643210487119713681e-01
-9.895376632872764089e-02
-8.708923654612357734e-02
-1.096300226559197566e-01
-9.526477787482791337e-02
-2.038276056451644724e-02
7.824019271103825612e-02
1.476042108718644830e-01
1.370827014464345295e-01
3.645652607697461023e-02
-8.367148326340274889e-02
-1.254396928831315872e-01
-6.019836350794139507e-02
6.012165283252932091e-02
1.625103893554662171e-01
1.926886385071762409e-01
1.273476314171139434e-01
-1.204908191829738573e-02
-1.636241666522308125e-01
-2.621388246305926262e-01
-2.697139199703869061e-01
-1.780104448653222204e-01
-1.680128779453179608e-02
1.202783834289345988e-01
1.115543167026892962e-01
-2.464709657659390138e-02
3.978697853933468864e-03
4.943834964007017829e-01
1.169591078263245265e+00
1.214226522652343654e+00
3.140401818470038853e-01
-7.102571650343587617e-01
-8.665195937045292451e-01
-2.045702678005549835e-01
4.578527595201826172e-01
6.117613719488498303e-01
3.879583831139539196e-01
1.147633813820254228e-01
-5.414442243998386639e-02
-1.400409545835334946e-01
-1.936600026714783707e-01
-2.196940999383437398e-01
-2.000258271749102423e-01
-1.323467458055899992e-01
-3.481314165368792901e-02
5.850378932306558866e-02
1.085452421673519519e-01
9.543796803707785270e-02
1.673491505587589023e-02
-1.283458060388109057e-01
-3.054819823007693391e-01
-4.122771703819358979e-01
-3.515616514799318471e-01
-1.446503512709729766e-01
7.882334141957525464e-02
2.009268758209493411e-01
1.954314717762177245e-01
1.155349724929267963e-01
3.764061322295677442e-02
3.776893802959985745e-03
3.400806504700135124e-03
1.512110775780248911e-02
4.715307324041315834e-02
1.124591340561829772e-01
1.872478823260194936e-01
2.274055167593983240e-01
2.146871770611608887e-01
1.636067240893340213e-01
8.856606361059427002e-02
-1.200368319055874350e-02
-1.274478416952692927e-01
-2.107969717808408638e-01
-2.063955340351900924e-01
-9.457337080746551494e-02
9.035345673180959769e-02
2.494726184924665469e-01
2.408081920049503222e-01
2.748169743920614652e-02
-1.403585119327099839e-01
1.197296174923473122e-01
7.510012229991167576e-01
1.046562099361998621e+00
4.801507318837580085e-01
-4.328815321076874278e-01
-7.262734298910380470e-01
-2.393396304289152621e-01
3.442584935896821907e-01
4.804970774637742914e-01
2.321802794573941398e-01
-8.136305133514799837e-02
-2.720292952654406182e-01
-3.255527426806626434e-01
-2.982515222956090839e-01
-2.655132213652413586e-01
-3.014384821958495664e-01
-4.199135919570517461e-01
-5.279252426449756452e-01
-5.009900649217409185e-01
-3.351369954255359329e-01
-1.712950909109154374e-01
-1.362720737445819730e-01
-2.103650748314298546e-01
-2.756173098125649923e-01
-2.433819321558177984e-01
-1.157036621602445525e-01
3.966333737588986774e-02
1.504875329815238139e-01
1.803724599990274291e-01
1.264715730061400367e-01
1.405449773434870944e-02
-9.224617322941999764e-02
-1.157408294157216966e-01
-4.203635960266456639e-02
6.211129995757460470e-02
1.289487254756140344e-01
1.581418548831595161e-01
1.824100847980218987e-01
1.967140091449917361e-01
1.585684533036430532e-01
5.159325083838536830e-02
-8.103002809824930153e-02
-1.759651254597393299e-01
-2.054476920093649961e-01
-1.804057437931615160e-01
-1.135215707708271959e-01
-3.036724589320681858e-03
1.412208169576933126e-01
2.594295272830494659e-01
2.444468227337118493e-01
4.010112218050146393e-02
-1.958047676445187346e-01
-1.033729996631288922e-01
4.537203999851226466e-01
9.648419450560060673e-01
7.356707677638775200e-01
-9.299488663714686187e-02
-6.038023876918866550e-01
-3.369692978448349252e-01
2.086002499196701332e-01
4.061775047771302161e-01
2.080951348838510073e-01
-7.230723416817093352e-02
-2.323517859487462811e-01
-2.756823316973336935e-01
-2.509362633779051999e-01
-1.668374393312424542e-01
-4.079101434929292835e-02
6.549814584313354282e-02
9.053093553637905910e-02
2.690121946443594508e-02
-7.996236819616731051e-02
-1.702620912698706579e-01
-2.065455135990286184e-01
-1.888600950297084635e-01
-1.341974997493401156e-01
-4.535208081621078247e-02
7.502910192705204706e-02
1.845675494889885693e-01
2.190265919418451779e-01
1.601541689343983499e-01
5.116814638047579439e-02
-5.666711292310214199e-02
-1.307931356974851578e-01
-1.310099396934173988e-01
-1.977258579996087062e-02
1.697402184999611818e-01
3.253208324446177913e-01
3.592969934171006963e-01
2.958174524557465879e-01
2.220717197157902889e-01
1.626074878633060883e-01
3.443986225473244511e-02
-2.371417421283525118e-01
-5.540457851851731119e-01
-6.748491155258474761e-01
-4.804058308295771074e-01
-1.334611819992257420e-01
1.180266035933361379e-01
2.062139114097953640e-01
2.133773207300895813e-01
1.671148496219289348e-01
-5.959307081512871598e-03
-2.921428658418000479e-01
-4.088364913039463366e-01
-3.387040103383292394e-03
7.761172645415462812e-01
1.157276211640249297e+00
6.405991621550630732e-01
-2.189267653647386513e-01
-5.038273384943586786e-01
-1.244278129104331859e-01
2.670322683258341545e-01
2.433176272179526090e-01
-4.030367795158591726e-02
-2.582729522151525070e-01
-2.922824264407931638e-01
-2.126377651252268075e-01
-9.874575447449060461e-02
2.604442270181604041e-02
1.275219325765959977e-01
1.037966571574910762e-01
-1.454376164072805899e-01
-5.523505138317018615e-01
-8.436671254942385012e-01
-7.880122058983886069e-01
-4.520960676633875575e-01
-1.053838871245040693e-01
7.707410539404216387e-02
1.168787291022900798e-01
1.013657497583694556e-01
6.814182280900633881e-02
1.369944792828203459e-02
-6.416007437538483182e-02
-1.551660012047344495e-01
-2.285873989621602098e-01
-2.241295092675477940e-01
-9.541397648385722963e-02
1.124230808952385863e-01
2.746741239292938563e-01
3.074862319179105241e-01
2.361349158062959752e-01
1.255698493082346712e-01
-4.225385009673229136e-03
-1.573244551715053952e-01
-2.931591302097178997e-01
-3.324360335348639506e-01
-2.358042853254934124e-01
-5.114085398380938119e-02
1.219441479815915608e-01
2.079028664079055899e-01
2.030445098747921950e-01
1.546243866099822617e-01
8.584476535775284467e-02
-5.062577070825202696e-02
-2.825633437629013756e-01
-4.271607531366394817e-01
-1.241314798549575105e-01
6.684003467259626019e-01
1.291852205559987254e+00
1.013820631346727286e+00
7.317558050186317997e-02
-5.390971584605941391e-01
-3.767362010873950839e-01
5.913789430957973325e-02
1.893921855700394508e-01
5.766286932058283660e-03
-1.736922479411347475e-01
-1.660087344779740959e-01
-2.799814181344552691e-02
1.044001940250639388e-01
1.540600888884674224e-01
1.183769519595924968e-01
2.759558490479018661e-02
-8.720661044970538789e-02
-1.984992891352893307e-01
-2.701018223280804431e-01
-2.645661349541115204e-01
-1.805674960299751275e-01
-6.286476488117759276e-02
4.215067178341214138e-02
1.184049374570713548e-01
1.601305144680519599e-01
1.513453862405166328e-01
7.902133426145982464e-02
-4.883425291897341286e-02
-1.943911019460746736e-01
-2.805564609216411598e-01
-2.125092792408625753e-01
3.539749701288746886e-02
3.471826038262749159e-01
5.419650189327457346e-01
5.427837897822658242e-01
4.083772236413854562e-01
2.136225051812731257e-01
3.115679822819704403e-03
-1.577216151723861981e-01
-2.040809130287516704e-01
-1.454935231852915456e-01
-5.066135628722721884e-02
3.434845077567474925e-02
1.189989875592243063e-01
2.215467145112659797e-01
3.028507033308657781e-01
2.797631107101256620e-01
1.260693038685268275e-01
-1.001304843039984016e-01
-3.332744273241694533e-01
-4.574460230952946405e-01
-2.044330573413114527e-01
5.680068027828676369e-01
1.375167454972679115e+00
1.369068470092693168e+00
4.316960858886139674e-01
-5.178371364587996961e-01
-6.758765628599806563e-01
-2.531015066801500235e-01
7.519386286692111843e-02
5.642776554403376027e-02
-8.807487320748698389e-02
-1.190956177286623813e-01
-2.197496141843360493e-02
7.551917867059199097e-02
6.643694298373192808e-02
-5.503223802195743308e-02
-2.183504813244522835e-01
-3.504901139804460497e-01
-4.186001046193385533e-01
-4.160725479790219894e-01
-3.397932427683279522e-01
-2.000242986571812709e-01
-4.157369422454200436e-02
6.997109266818972440e-02
9.321915818631063000e-02
3.349854672403827782e-02
-7.370670814165898588e-02
-1.815859165521282181e-01
-2.457059304921765941e-01
-2.482271478423320465e-01
-2.026433208877183867e-01
-1.168335082800178032e-01
2.694448528646129631e-02
2.174811854158599511e-01
3.575466090850441536e-01
3.315997385032103950e-01
1.434830754099461758e-01
-7.790319133378875716e-02
-2.211685132046859736e-01
-2.783161747013570553e-01
-2.835834971961373463e-01
-2.386008815264974159e-01
-1.317886409144265192e-01
7.260959823595553725e-03
1.062666447794870100e-01
1.010930373389734294e-01
-1.068898588074987735e-02
-1.601582578214079955e-01
-2.575395484826876746e-01
-2.731181848517929001e-01
-2.731839417014051974e-01
-3.096815701132611398e-01
-2.170071643802261863e-01
3.078525551908489755e-01
1.156587783935917990e+00
1.559173300401427209e+00
9.333398906595580247e-01
-1.927560041968005289e-01
-8.045621945087511051e-01
-7.093301119960575551e-01
-4.795781693513950228e-01
-4.198651029161751258e-01
-3.336375338410551006e-01
-9.221916034289188990e-02
1.442887487918828038e-01
2.132008483761921036e-01
1.334295836535477620e-01
2.548217943386613810e-03
-1.254462376432776971e-01
-2.333051832926737457e-01
-2.953325438691309368e-01
-2.798070419397403197e-01
-1.810287566217465838e-01
-3.636524642555832160e-02
9.495571990299227216e-02
1.703676721122288629e-01
1.736210702278274676e-01
1.024880526931916808e-01
-2.299062277791684775e-02
-1.478060698807306395e-01
-2.112687114125852972e-01
-1.932711811360490195e-01
-1.137355453300500086e-01
6.315187273848639829e-03
1.584287152907369323e-01
3.138908131081703523e-01
3.969091798310938612e-01
3.336811220032269709e-01
1.466255426327334188e-01
-4.079590897155092877e-02
-1.225327836009830196e-01
-1.015109141950447658e-01
-4.543350379063769429e-02
4.603909572488716802e-03
5.324168152445636626e-02
1.105935188808581798e-01
1.591392603369707337e-01
1.555349357044630287e-01
6.960789648491239046e-02
-6.668013653184381995e-02
-1.620884220441946577e-01
-1.504902791512863214e-01
-8.268641397164673557e-02
-8.209517270667823774e-02
-1.280346851774312733e-01
4.822572467813094482e-02
5.752592343328344349e-01
9.702288698085947960e-01
6.077159687799160714e-01
-2.699087372657703598e-01
-7.370146043666422342e-01
-4.342949911663427365e-01
1.060773627646276751e-01
3.458953645826686185e-01
2.954696411767610553e-01
2.021834338978879264e-01
1.578570819507356393e-01
1.007642261844154119e-01
-2.026271421691256541e-02
-1.801214673195405958e-01
-3.085019649982338463e-01
-3.481554794615026593e-01
-2.982152541598523388e-01
-2.057588082993744572e-01
-1.142266590399872161e-01
-3.269593041084634111e-02
3.726480052246051305e-02
6.818654037407691215e-02
2.713872138042589671e-02
-8.129380576694558713e-02
-2.086328575260357199e-01
-2.886420824551419462e-01
-2.729669555943812220e-01
-1.649888004216839288e-01
-2.041830878628490484e-02
1.013367113992483665e-01
1.880712478742446181e-01
2.621964088947681404e-01
3.103570708192422423e-01
2.604138031276470588e-01
7.317765009844573454e-02
-1.654344603518578261e-01
-3.006983312571445688e-01
-2.546446961250695140e-01
-8.235449757141692639e-02
9.824985579893680265e-02
1.981495620398187885e-01
1.963527788644385264e-01
1.229754579818353177e-01
1.450279791273982946e-02
-1.032740106237208244e-01
-1.866271659989208187e-01
-1.745683486822648955e-01
-6.044416481003395819e-02
6.171564611288431201e-02
7.870980533346030872e-02
3.207369767384404130e-02
1.847010271585740604e-01
7.198076230558878574e-01
1.262983296844445658e+00
1.082827018020996013e+00
1.008703048497890664e-01
-7.782960998988599499e-01
-7.740877621627948457e-01
-1.473022882084408791e-01
3.503741306517247911e-01
4.157032819627770048e-01
2.542787852007409310e-01
9.241815233701869414e-02
-3.304809876308720251e-02
-1.298826411545962178e-01
-1.635308807035036338e-01
-1.744400799981380423e-01
-3.178312420467275801e-01
-6.298547590244879535e-01
-8.513942249984371990e-01
-6.991286740697755242e-01
-2.542071639994432086e-01
1.258610253747290686e-01
2.164910296706820947e-01
8.317081316628624488e-02
-9.135137661395556496e-02
-2.061194332105218130e-01
-2.817024049600079239e-01
-3.469605485558003299e-01
-3.408732054997288263e-01
-1.962143271488520635e-01
2.438331915299249419e-02
1.817097661398515973e-01
2.194904834763655443e-01
1.821724963301389610e-01
1.131450602008869655e-01
2.325660808751464290e-02
-5.838288450477711888e-02
-7.526442214873613201e-02
-1.608613431533440765e-03
1.193468195663698328e-01
2.115780532380525658e-01
2.284306549970666622e-01
1.697191946301478127e-01
5.890278210204282633e-02
-7.301853668363438021e-02
-1.866309417085990074e-01
-2.340177135868694303e-01
-1.719527325370633075e-01
3.084873819954696283e-03
2.081046757627915134e-01
2.844163580968995242e-01
1.500535904860507974e-01
-1.603443741810896966e-03
1.998073207059222478e-01
7.728831358116783345e-01
1.085986615745669903e+00
5.578103476010938255e-01
-4.044121900045596907e-01
-8.036985093392664536e-01
-3.488133665694608809e-01
3.097334319063146935e-01
5.502064687744424587e-01
3.841338307355411930e-01
1.338342143350937097e-01
-3.358138708754279667e-02
-1.468883398769071924e-01
-2.325079198762089461e-01
-2.396231040663222289e-01
-1.381935142996010835e-01
8.146274770711160046e-03
1.060629816698892558e-01
1.227001517492659760e-01
7.934041984357707855e-02
2.914551554848059459e-04
-9.471989405412227503e-02
-1.775577235151977462e-01
-2.192717374369628214e-01
-2.019028781061737721e-01
-1.203796399477109202e-01
1.385224245627471318e-02
1.646177094471998614e-01
2.703531292683830634e-01
2.719413392308890343e-01
1.717248454790124002e-01
5.417489318739765469e-02
-9.237681145582519321e-03
-8.006475680163835373e-02
-2.790392015260383385e-01
-5.494760383357613076e-01
-6.400689245796357119e-01
-4.199575562151561803e-01
-6.407755253054306377e-02
1.684654701482292960e-01
2.042801007473747377e-01
1.272029559863576964e-01
-8.372248444997291289e-03
-2.254854960568736522e-01
-4.945390350821267100e-01
-6.543369698420355984e-01
-5.484154610276329445e-01
-2.116122028372714459e-01
1.447464197412806908e-01
3.033884303970428298e-01
1.729351291979429606e-01
-1.299429997831631212e-01
-2.521881541932560755e-01
1.312346922044644315e-01
8.003237028084947413e-01
1.007952748301972346e+00
4.074700618506886252e-01
-3.594006976365353712e-01
-4.855066403983563927e-01
-2.373579430237085508e-02
3.802176358465590433e-01
3.768904902657202460e-01
1.218956282554096576e-01
-1.177219206196305351e-01
-2.369453576323860833e-01
-2.562792047292895559e-01
-2.077149144664201530e-01
-1.087014998612205463e-01
6.432845464713256994e-03
8.444935536475285665e-02
8.682710666933411703e-02
1.266876986822504034e-02
-1.033709214565335516e-01
-2.096591319568305578e-01
-2.668673480645039620e-01
-2.632250525901961846e-01
-1.994520313094507169e-01
-7.957195563627231238e-02
6.828256479642724752e-02
1.858440824544971282e-01
2.215754160725762756e-01
1.632345152805780852e-01
3.352365578070280044e-02
-1.132028828459006042e-01
-1.865077063273091751e-01
-1.141053870810325721e-01
6.690348581515841164e-02
2.252232052793033124e-01
2.729441600761163822e-01
2.411436972434123915e-01
1.999821175543549934e-01
1.630847487493479742e-01
1.005419604760455360e-01
4.812459029161931384e-04
-1.103142532833987360e-01
-1.852508605632082750e-01
-1.889308713766688075e-01
-1.244681374051987421e-01
-2.952353484004047873e-02
6.771509533945799242e-02
1.716837376231473700e-01
2.573602692863840025e-01
2.072698052523622159e-01
-6.729986090745307403e-02
-3.654934538098904007e-01
-2.250039798189463480e-01
4.927202362803035363e-01
1.137711533495728844e+00
9.179654441305138413e-01
3.221195903525105042e-02
-5.134970690210032274e-01
-2.615507572418052096e-01
2.420304524246115752e-01
3.605669826674133827e-01
8.808742347035852793e-02
-2.024909115668674653e-01
-2.871242941882923283e-01
-2.198746727908263976e-01
-1.317088466890890819e-01
-6.357459646643408291e-02
1.303570115567090869e-02
9.778986665869593420e-02
1.323004408036555501e-01
6.211202214992590093e-02
-9.647770519140885792e-02
-2.614725555343940799e-01
-3.453077228334067161e-01
-3.020298050218332975e-01
-1.403550350818102976e-01
7.366437858471285016e-02
2.409009796848684826e-01
3.036533651498083408e-01
2.883935106981239116e-01
2.246626593998309052e-01
3.985940488201100695e-02
-3.549183706750571043e-01
-8.197068087293779559e-01
-9.801808319392207869e-01
-6.320152245962185056e-01
-2.581596320371305764e-02
4.114201674835699096e-01
5.038846585927863053e-01
3.618482519250015850e-01
1.529697672497252747e-01
-3.088530803126550081e-02
-1.633052338702350725e-01
-2.411877586336392543e-01
-2.576202701437091402e-01
-1.970955080422227002e-01
-6.026840029097123297e-02
1.033378986410579264e-01
2.094449872311289484e-01
2.102697323864364531e-01
1.378584763107790212e-01
5.183860028109811557e-02
-3.695418421662707148e-02
-1.258858755097548021e-01
-6.780958637853777560e-02
3.780158199808955621e-01
1.082744195348939398e+00
1.339531189343635020e+00
6.464571168588779670e-01
-4.701002575759182789e-01
-1.020190261420031108e+00
-7.443451940851315562e-01
-2.155083582060694225e-01
1.446700549625013626e-02
-8.071901264767841755e-02
-2.212080524314947727e-01
-2.101969224195315289e-01
-6.276009094242457342e-02
9.657627893294878918e-02
1.668961305957007424e-01
1.262458769697752392e-01
1.610545207053562175e-02
-1.032051509853904037e-01
-1.961707097702512503e-01
-2.778445260689617613e-01
-3.862142915567253754e-01
-4.895274930329714391e-01
-4.693684318774417052e-01
-2.880627182522539353e-01
-9.159020503018355797e-02
-2.474224141395933024e-02
-5.257814075045781632e-02
-7.388945311407191241e-02
-8.575828988969842748e-02
-1.331345643982504989e-01
-1.784895814364974576e-01
-1.118692649748289913e-01
1.104491568236700000e-01
3.801707427676783158e-01
5.247887771490969966e-01
4.714874825221544996e-01
2.939295074361686910e-01
1.101579015056780575e-01
-2.608253830556265737e-02
-1.282801623220264642e-01
-2.013757340973890697e-01
-1.991222506359450750e-01
-8.120684799050388591e-02
1.045777387917503909e-01
2.391965587482422217e-01
2.426058153029669873e-01
1.487638391474754296e-01
5.497712328587357755e-02
-5.266319401852199295e-03
-1.110584633457357556e-01
-3.107152787160663010e-01
-4.026815888886504102e-01
-8.474389008763696940e-03
8.864659231098167558e-01
1.560085722660238039e+00
1.232701052264326469e+00
1.677219288957847443e-01
-5.572985851318493777e-01
-4.407899540894332779e-01
-4.641589516753724665e-03
1.452852346230760761e-01
8.937022459763200796e-03
-1.048858855806906326e-01
-5.808478683729277614e-02
6.908006021194121327e-02
1.660779952128944303e-01
1.888867496905629051e-01
1.372578865875535292e-01
3.001143296057743465e-02
-9.817191509912491509e-02
-2.406401179176659022e-01
-4.417030835845521253e-01
-6.700449484917698761e-01
-7.264012610397799774e-01
-4.630208654485610809e-01
-3.908482731064372162e-02
2.220066610098186399e-01
1.703633047489708230e-01
-7.362309774615813374e-02
-2.802912820183397491e-01
-3.146989695615817206e-01
-2.175806494566152050e-01
-1.037968234385349547e-01
-8.535975301470223250e-03
1.181331060056947518e-01
2.797832073722100188e-01
3.791259632307374949e-01
3.288839184728513665e-01
1.588390030452667134e-01
