-2.093941929273175628e-02
3.775150527206009299e-01
7.346285378790170517e-01
9.391759501761933748e-01
9.009924638448405521e-01
6.650468118679511154e-01
3.612744826049695823e-01
9.552444192543434187e-02
-6.368444928269567651e-02
-7.108006912071695993e-02
7.588011133216870929e-02
3.322437837646359249e-01
6.230642576082227047e-01
8.741227933776171133e-01
1.030959234715244754e+00
1.009150144338993194e+00
6.864986559685316569e-01
1.118360036803486418e-01
-3.442854564718040855e-01
-3.291456769893449374e-01
4.714431695687071322e-02
3.878269045156577111e-01
5.177175093219475999e-01
5.482639191117215649e-01
5.736903008388112291e-01
5.370760386983459700e-01
3.512230741375768073e-01
3.126121984449674318e-02
-2.965048873156684861e-01
-4.761416217037884868e-01
-4.150006333998643715e-01
-1.387532535016282320e-01
2.198480914571240841e-01
5.061912010833511388e-01
6.452392112499264476e-01
6.475347240734903309e-01
5.175903098747881570e-01
2.363925080695773728e-01
-1.337050953453335078e-01
-4.267170781790321499e-01
-5.037124702909100415e-01
-3.422598500288975831e-01
-4.917452491190493769e-03
3.940761916223076144e-01
6.923457959069724277e-01
7.376142993896592781e-01
4.939775061933235900e-01
7.897272356304210761e-02
-3.236147005129801357e-01
-5.857693365506083660e-01
-6.722328856091930316e-01
-5.867676513891576517e-01
-3.316777952495112980e-01
4.929193567845777807e-02
4.190041676606824916e-01
6.057376036194361824e-01
5.330435262201576041e-01
2.602801286213670129e-01
-9.051985564075976098e-02
-3.971926155415946846e-01
-5.510603424715149190e-01
-4.845582382522282683e-01
-2.111138064629135558e-01
1.689114819876903484e-01
4.977028713152469308e-01
6.245937561182225428e-01
4.976485846129311552e-01
2.131156012732301486e-01
-4.256126054863923480e-02
-1.600751491276538874e-01
-2.555481824955969650e-01
-5.110360403828136944e-01
-7.492508740332218808e-01
-4.721508274961690454e-01
3.844187689567027943e-01
1.121240608041854880e+00
1.075102157111766932e+00
3.733893712811414689e-01
-3.833460138439944709e-01
-8.111093810714239405e-01
-8.970983095923594774e-01
-7.589638852823252790e-01
-4.787871985324937407e-01
-1.022550166250452419e-01
3.065627911713160736e-01
6.259403974501988044e-01
7.120183269445274910e-01
5.077379603062511793e-01
1.058471501215986765e-01
-3.111814860623112744e-01
-5.818550682697332110e-01
-6.326085152062222994e-01
-4.808965593976987640e-01
-1.931063792067011231e-01
1.509547471572974253e-01
4.446196552670236279e-01
5.610059664762190312e-01
4.390253875508610681e-01
1.350076021363104117e-01
-2.466796136653504612e-01
-6.194352441435252432e-01
-8.708296168047661157e-01
-8.433493388438171312e-01
-4.809175197858084894e-01
3.522877001496125399e-02
4.133809535988043904e-01
5.070234788466700948e-01
3.744929366166566131e-01
1.300786825719016104e-01
-1.626661552377245967e-01
-4.475814952217002096e-01
-6.222984275403182775e-01
-5.905437007724423371e-01
-3.426041971489802718e-01
3.548267807254816553e-02
4.046141627545896124e-01
6.260717833983867608e-01
6.178395016782874949e-01
3.870588610717485833e-01
1.453270867681737827e-02
-3.811000928080294781e-01
-6.603122623009938241e-01
-6.745564704129881628e-01
-3.461947421335631048e-01
1.649194101165727400e-01
4.521478965995582855e-01
2.848471539384284101e-01
5.998443870842765091e-03
9.221389792949494235e-02
3.778575858055425729e-01
2.811440014967552248e-01
-2.797960236138422041e-01
-7.736554678607656665e-01
-7.774753193293088005e-01
-3.732423151485596557e-01
1.081928027393329328e-01
4.339395940152340203e-01
5.472594155459671317e-01
4.803886944438521822e-01
2.846622651377893609e-01
1.961386453750201680e-02
-2.348730316997565681e-01
-3.772464554112339719e-01
-3.176229118484740210e-01
-3.925453191160904742e-02
3.621219170285015498e-01
7.119768203143088670e-01
8.574595366364354820e-01
7.533236047183807793e-01
4.580471689515530631e-01
7.701264353641437688e-02
-2.709605820330225345e-01
-4.710422641122115617e-01
-4.449229154756723092e-01
-1.880321493401787836e-01
2.093067173555299698e-01
5.855424769964550080e-01
7.823425458067870819e-01
7.149257730439400049e-01
3.962885965922146037e-01
-6.586963293937203590e-02
-4.926748029228151249e-01
-7.088033484170814802e-01
-6.428477647429314823e-01
-3.542571428123539312e-01
3.490294092903661188e-02
4.030316164343632490e-01
6.353828090205146939e-01
6.363148660669762924e-01
3.871809340658939336e-01
-8.096411408947810917e-03
-3.671497398305684778e-01
-5.519600920395441035e-01
-5.507475732580517924e-01
-4.257398155301289622e-01
-2.104091622809891038e-01
9.929556330528899188e-02
4.711511650288707775e-01
7.646557529558828392e-01
7.147513748156303359e-01
1.263335731314818022e-01
-7.425116044831622242e-01
-1.219394525208634672e+00
-9.561278416631723287e-01
-3.609479987611949880e-01
2.143858609696208672e-03
7.785109562180933529e-02
1.275464641049857684e-01
2.370964625460223463e-01
2.597314049216623011e-01
7.019669022923574753e-02
-2.744164615915591909e-01
-5.853881908151183922e-01
-6.949605920808100690e-01
-5.647635284831951097e-01
-2.701784065349375763e-01
9.035205140999440221e-02
4.302203234163594625e-01
6.396307183048263179e-01
6.063766270475062781e-01
3.132434898165176729e-01
-1.175541613823956888e-01
-4.976240536868662412e-01
-6.899795644736366196e-01
-6.639241108682439885e-01
-4.572206150081344345e-01
-1.246206002834953919e-01
2.514591146748252903e-01
5.328259406851373337e-01
5.715288686373026783e-01
3.197089518411803111e-01
-1.083204925841966537e-01
-5.063445191013392632e-01
-7.286319633431649345e-01
-7.621496040501219982e-01
-6.444283873705352050e-01
-3.748212789302189929e-01
2.651421749672814090e-02
4.183024009698961265e-01
5.990672899316022981e-01
4.769629899459859046e-01
1.296557132482133168e-01
-2.835501601496712154e-01
-6.233465518976121222e-01
-8.002430831209705886e-01
-7.496683539266695284e-01
-4.379403210669056135e-01
5.872896529206947380e-02
5.219878767347004844e-01
7.204490374968424149e-01
5.887877100291978305e-01
2.683478051201282910e-01
-1.773444861135151790e-02
-1.527028185805946459e-01
-2.153087388288958681e-01
-3.005177514956883789e-01
-2.498281521861487608e-01
1.860630140831810164e-01
8.560816413826111138e-01
1.234553964438848128e+00
1.028455595317809834e+00
4.497265621902161725e-01
-1.217104645881402492e-01
-4.742125753926225706e-01
-5.768462867218542289e-01
-4.697112891799235523e-01
-2.110437909277356472e-01
1.261067489693908361e-01
4.503933902566447101e-01
6.621207410987790531e-01
6.842976937769934542e-01
5.009461256669088813e-01
1.745656282265156956e-01
-1.807450068311335922e-01
-4.532399912484899596e-01
-5.563798307575962276e-01
-4.278451386525604638e-01
-7.762292524032954333e-02
3.540342636827319422e-01
6.580062851365198195e-01
7.081834691015200800e-01
5.245963979807553024e-01
1.986191352147810285e-01
-1.811115888896613346e-01
-5.143173313320985596e-01
-6.684583100482306417e-01
-5.444948024061097014e-01
-1.797740867642464713e-01
2.401706662047702057e-01
5.094067923118154040e-01
5.566999911991921124e-01
4.523791782882181645e-01
2.629626177831450584e-01
-2.539308024197142050e-02
-3.862601486184459865e-01
-6.401474211223657784e-01
-5.798153417003841792e-01
-1.998208121259993919e-01
2.750140489478352102e-01
5.983933191996821943e-01
6.882633784690687095e-01
5.964346757656737719e-01
3.719224103667129189e-01
2.732334888541479434e-02
-3.793513767222503885e-01
-6.846497423075118549e-01
-6.754842047877220867e-01
-2.708498153626316407e-01
2.974936491447551790e-01
6.037679989765676325e-01
4.923988121705819565e-01
2.795204620276838803e-01
2.604355991347772625e-01
2.527747063804549610e-01
-6.002190541717796618e-02
-5.876886423411070703e-01
-9.311735133267903253e-01
-8.411967515961906727e-01
-4.046305940047007499e-01
1.137044569488458029e-01
4.975356680181280966e-01
6.630167380778462238e-01
6.035548395893648443e-01
3.419059210001438864e-01
-4.055148515152550565e-02
-3.871876092537774872e-01
-5.402124669277377222e-01
-4.387784858707323710e-01
-1.436917038943864855e-01
2.127798342231067563e-01
4.961259358503007921e-01
6.127706649637905123e-01
5.190907644029217893e-01
2.254548578768226785e-01
-1.854028134776644077e-01
-5.601099939511595682e-01
-7.389943637156024536e-01
-6.474780045785641924e-01
-3.295058037333754575e-01
8.740144693558608846e-02
4.362931532272628088e-01
5.640874049179277483e-01
4.200664830244539849e-01
9.164317609523407737e-02
-2.814911155766344208e-01
-5.865998725312895345e-01
-7.307450652824395432e-01
-6.630321165007959650e-01
-4.236351637202179221e-01
-9.642645808943536845e-02
2.545861557196080760e-01
5.443248403491880438e-01
6.464132720401242205e-01
4.965823808858103594e-01
1.680100694860207078e-01
-1.940040919727435420e-01
-4.652535866734615055e-01
-5.639658918715009239e-01
-4.501707641777793478e-01
-1.442343830923596137e-01
2.765969233299949703e-01
6.978513700052935143e-01
9.449776137383549823e-01
8.076375006894983555e-01
2.682427054594539451e-01
-3.162570497143984416e-01
-5.346622620226344491e-01
-4.072442796762724693e-01
-2.479966982484533566e-01
-1.558052316053347985e-01
1.008014966183447270e-02
2.748349316437594392e-01
4.624361509520015789e-01
4.113213661674026689e-01
1.289185662417826617e-01
-2.478188419305469015e-01
-5.643418468380927422e-01
-6.974133815992470398e-01
-5.612420047999721051e-01
-1.621631844931881450e-01
3.466426913253048414e-01
7.343204928486900540e-01
8.475233905803872814e-01
6.862388436282744753e-01
3.460992520855126764e-01
-6.573104833450194029e-02
-4.444001728740916701e-01
-6.708639955562990531e-01
-6.548650420102285485e-01
-4.110121549965204402e-01
-5.442102517302071368e-02
2.931121853895168328e-01
5.539556606552413776e-01
6.493368955134954934e-01
4.964810660836549427e-01
1.088484379570219401e-01
-3.622547809681168629e-01
-7.222592966208637444e-01
-8.332257156964613110e-01
-6.469786295257117237e-01
-2.284206219181363906e-01
2.418805686665985444e-01
5.580763961438971466e-01
6.136090261103335219e-01
4.267806631961794106e-01
7.771651497543062559e-02
-3.318864308633212024e-01
-6.711541540477813372e-01
-7.909048559380686960e-01
-5.960230378892528158e-01
-1.357212538324532591e-01
3.833919881075056879e-01
7.052866423382835315e-01
6.966008750980887676e-01
4.491065296616295055e-01
1.809757920023348232e-01
-1.132034462304024741e-02
-2.557708142863530654e-01
-6.410755743973345355e-01
-8.869126959387184650e-01
-5.701448241165404385e-01
2.310791643421829522e-01
8.882384848985447334e-01
9.438224677689482922e-01
5.260755437870726636e-01
3.869732754415433629e-03
-4.180131430800433923e-01
-7.061566866937465381e-01
-8.451719974331195484e-01
-7.886939694706326387e-01
-5.164207245484742081e-01
-9.338816720565179530e-02
3.313942033106692109e-01
5.887450039074850761e-01
5.823092127190991896e-01
3.384583204955052826e-01
-3.311165086184590656e-02
-4.083258228176989690e-01
-6.752274236337195701e-01
-7.404673884733531386e-01
-5.612629418827427275e-01
-1.846316037701329349e-01
2.509410892478386446e-01
5.638712625133229794e-01
6.103307690002737207e-01
3.628592267215810518e-01
-6.451264186404938317e-02
-4.777686512793029583e-01
-7.137404842357465418e-01
-7.129363194516633584e-01
-5.126181580581496977e-01
-2.014431740560824191e-01
1.152207891479719304e-01
3.445370966164468252e-01
4.361540109286814459e-01
3.770426869321717445e-01
1.654906083654444637e-01
-1.620698678818306426e-01
-4.782169319769674076e-01
-6.001201327510253813e-01
-4.188293721735224517e-01
2.965404491376562313e-03
4.653943408931677239e-01
7.701003428967770903e-01
8.307654912356318144e-01
6.619993020554481022e-01
3.113242641929673260e-01
-1.442217447895000060e-01
-5.452388322649314167e-01
-6.710644251282641415e-01
-4.225602906096982969e-01
-2.512192801609965803e-02
1.247935474581928772e-01
1.227231512574516320e-03
8.059600263113589347e-02
5.922665863746594539e-01
9.983303438562463050e-01
6.924008344133563142e-01
-1.498785466020314816e-01
-8.413233338011906204e-01
-9.700341362185341820e-01
-6.144603541087458876e-01
-5.139472349287299568e-02
4.765510170152874592e-01
8.057890192669178164e-01
8.578941829214092873e-01
6.464832831191457130e-01
2.621658795483036708e-01
-1.503716720790465033e-01
-4.367776107957905829e-01
-5.019740532028214020e-01
-3.378047024489486128e-01
6.878664219321678486e-03
4.382502442322813163e-01
8.017281322464724358e-01
9.291978563115533829e-01
7.518537021185949243e-01
3.500850892470193099e-01
-1.121293365769969047e-01
-4.784797836574216090e-01
-6.406129453339258761e-01
-5.484648537141763036e-01
-2.365150310171833803e-01
1.631833293463235135e-01
4.793018983325782467e-01
5.887074872937309022e-01
4.552798521074907789e-01
1.364589859842494368e-01
-2.266570244104667009e-01
-4.832417610382457318e-01
-5.669240858854450726e-01
-4.915908133911309763e-01
-2.777596619685594459e-01
5.635920909969625858e-02
4.356825996682460178e-01
7.139981163975898104e-01
7.527368005585733934e-01
5.256454343481637981e-01
1.447806237343021996e-01
-2.231192891372073550e-01
-4.616528648576145866e-01
-5.258800829530713150e-01
-3.860007754770547472e-01
-4.698479456412371635e-03
5.555125603952206781e-01
9.808319836907665179e-01
8.384141591884295419e-01
1.057363776739812522e-01
-5.853338997521715381e-01
-6.413995648051995513e-01
-2.848075929285392993e-01
-1.541339606899759795e-01
-3.604927056473768987e-01
-4.667774817499797946e-01
-2.041403569430582099e-01
2.337446587964265576e-01
5.108106875249722734e-01
4.761557904733951241e-01
1.941387975813215760e-01
-1.769507135752319549e-01
-4.848296584283998678e-01
-6.245783732656651210e-01
-5.451335287052891942e-01
-2.587538357182163629e-01
1.359242940605071004e-01
4.731638268728506902e-01
6.186191488818317818e-01
5.543017991297161107e-01
3.454246031020195562e-01
5.874309742145712027e-02
-2.445890902105570808e-01
-4.736975748469051117e-01
-5.273527036878289387e-01
-3.613918586818706258e-01
-2.993908167012943738e-02
3.317762427807193215e-01
5.667937329523101697e-01
5.706855179694326763e-01
3.370469113521212812e-01
-5.598243253073076353e-02
-4.857692747373424380e-01
-8.073198266636377740e-01
-8.788134038316302021e-01
-6.378276322930195308e-01
-1.777159099677105281e-01
2.989208090843985532e-01
6.239544543932491472e-01
7.283782823243806215e-01
5.968859755067886796e-01
2.519154949466653748e-01
-2.020983295819505365e-01
-5.829057269334660951e-01
-7.232293710700662404e-01
-5.717042748823130127e-01
-2.168068697807018497e-01
1.762440500848796165e-01
4.621457524003736994e-01
5.813618942622831298e-01
5.548171542215506458e-01
3.959580879190155445e-01
3.324598826725119055e-02
-5.481327358098809777e-01
-1.037262639490039495e+00
-9.551553006478175067e-01
-2.641603338329289175e-01
4.876700408889497740e-01
7.946441259307053251e-01
6.579660922854033700e-01
3.514629754758130109e-01
3.708063388095805130e-02
-2.802308637196672114e-01
-5.905836427173667413e-01
-7.974121445570391264e-01
-7.820596090265735656e-01
-5.069431099548389330e-01
-5.788756198227246880e-02
3.955812279701030332e-01
6.830986163301093761e-01
7.022947950320743704e-01
4.524149078740319352e-01
3.396177589560896160e-02
-3.947921408530549181e-01
-6.854362412283134809e-01
-7.452578458093016556e-01
-5.521419149561094253e-01
-1.617335442540510371e-01
2.911158695510509542e-01
6.222986888180058740e-01
6.727762405095756293e-01
4.002303644833382634e-01
-7.323302597891975796e-02
-5.245133937823861503e-01
-7.793569334265811888e-01
-7.956640021762251269e-01
-6.139411001282351066e-01
-2.998108912638146606e-01
5.753832391183569955e-02
3.584788460629741436e-01
5.156555471965251769e-01
4.617447527460170065e-01
1.918987000902681039e-01
-1.895278984111552489e-01
-5.141276012453124267e-01
-6.493633081348736402e-01
-5.502956095179533103e-01
-2.562923017419251326e-01
1.328105756698287343e-01
4.946871907560227988e-01
7.213056693778999717e-01
7.367472833384145492e-01
5.144953589899248225e-01
1.176648528595212739e-01
-2.695719357950752681e-01
-4.103788347971927264e-01
-2.155038365147518564e-01
1.266713725615477570e-01
3.623059176107070734e-01
5.107868556812626970e-01
7.499830671533584958e-01
9.811511282594921335e-01
8.688836045594765523e-01
3.293569751861312733e-01
-3.422514858944529226e-01
-8.075520406782734639e-01
-9.222583085782239953e-01
-7.034040216097299236e-01
-2.565664733504559591e-01
2.370455066354890117e-01
5.733502540381838486e-01
6.411483045728041397e-01
4.679139230079069067e-01
1.500329017483995331e-01
-2.124086836049275395e-01
-5.093694908884516259e-01
-6.202719007101864523e-01
-4.772414263091285247e-01
-1.244116271847755806e-01
3.014408401641766044e-01
6.411157091283794518e-01
7.722394247686228397e-01
6.411983214035088530e-01
2.805497533991153092e-01
-1.876251086151256298e-01
-5.852980201816911920e-01
-7.557225407317885724e-01
-6.401450042915567407e-01
-3.003748114287106974e-01
1.185057390493023666e-01
4.507225533805329087e-01
5.691441742776083279e-01
4.322884570932754578e-01
1.024219221099300081e-01
-2.886501958582572414e-01
-6.082610212020593821e-01
-7.563234798734239650e-01
-6.505472864203351024e-01
-2.682787305780335863e-01
2.463406401416959601e-01
6.211159307930871343e-01
6.967143379843242501e-01
5.495267396662670834e-01
3.209014553747280285e-01
5.473754268435560705e-02
-2.338980444553218629e-01
-4.652971534718763902e-01
-5.422725500654179687e-01
-4.128208610705405013e-01
-6.312129296162456715e-02
4.497745113864706767e-01
8.900253776229722913e-01
9.116717769791822246e-01
4.418772184323501717e-01
-1.277749877559249958e-01
-3.877666770487461778e-01
-3.737089482064879231e-01
-3.444990240337677534e-01
-3.593641814143460622e-01
-2.988344229124439977e-01
-9.494816222971902420e-02
1.889799999775328698e-01
3.997334383797008228e-01
3.933129318271630925e-01
1.477802756662056627e-01
-2.162841107149265640e-01
-5.227354161324142545e-01
-6.402754220903321691e-01
-5.267595216428027083e-01
-2.192975141209693724e-01
1.883932613626507768e-01
5.607437843207337957e-01
7.538247514014200235e-01
6.843150858494219113e-01
3.879232373593376471e-01
4.303887031640932226e-04
-3.294874504917638114e-01
-5.082760921435731660e-01
-4.998148221243150502e-01
-3.033147444479440402e-01
4.181258537653217283e-02
4.291253362461692755e-01
6.963716401076018858e-01
7.072038635297088760e-01
4.375038461543454549e-01
-1.119397601474498433e-02
-4.661607507579168530e-01
-7.601459900751628140e-01
-7.890494397387708414e-01
-5.407836685190263726e-01
-1.095716189873942314e-01
3.338835776454043280e-01
6.298963723737440734e-01
6.940359320396862763e-01
5.140999064864811841e-01
1.427755046184401300e-01
-2.886980120147825124e-01
-6.004477969585652053e-01
-6.591894726945732863e-01
-4.568682738979973346e-01
-1.012477511897158788e-01
2.561537813307933620e-01
4.986128863518189958e-01
5.972097178803951190e-01
5.876879647241791682e-01
4.524854626235684796e-01
8.692184726496574032e-02
-4.578211668460611672e-01
-7.859656103460209708e-01
-5.375791846834386822e-01
9.010522216011386532e-02
5.580962205315624924e-01
6.298929158748295398e-01
4.784930157061569878e-01
2.954070830044204787e-01
8.687304030395373577e-02
-1.968081950279902959e-01
-5.061175285902527188e-01
-6.974275882703526719e-01
-6.515139119900291709e-01
-3.686560025016365483e-01
3.855647011794767487e-02
4.162105546419185842e-01
6.330005396782496518e-01
6.208837917917504612e-01
3.936953254284857873e-01
3.170470714527551248e-02
-3.526554183095870765e-01
-6.353284467571045369e-01
-6.994141042538204456e-01
-4.894537653795478782e-01
-6.949963463032919619e-02
3.913800242549065334e-01
7.032019941538958374e-01
7.427372634735689427e-01
5.023664126098544846e-01
8.105791290318181685e-02
-3.667681040270603376e-01
-6.806703024098440524e-01
-7.459371818454769709e-01
-5.574690742437202751e-01
-2.241294099539050400e-01
1.192300304605800332e-01
3.837533916512307908e-01
5.092723698114455244e-01
4.410738629169957403e-01
1.723802327101011667e-01
-2.089310667422717149e-01
-5.467007668015907429e-01
-6.984100015949394891e-01
-6.049525083617930399e-01
-3.082016624521745074e-01
8.360058567695949350e-02
4.476445090413781469e-01
6.694486008147464418e-01
6.521020683863476552e-01
3.715129903827250613e-01
-4.683022110946064714e-02
-3.569435182767300430e-01
-3.969193213525221142e-01
-2.918471229331783823e-01
-3.016373286451717872e-01
-3.620557215739819701e-01
-6.640878905857544590e-02
6.377132962083774670e-01
1.130360300876109836e+00
8.626448695117421295e-01
4.009576529569221226e-02
-7.095277386002075692e-01
-1.000187175395214068e+00
-8.482952041625206885e-01
-4.583405936593843988e-01
-3.124615664683218913e-02
3.093092508737665947e-01
5.128212003748082726e-01
5.555990012609679507e-01
4.170679113368893076e-01
1.125484626949856126e-01
-2.690398019216324044e-01
-5.779489332705582960e-01
-6.702712362926600553e-01
-4.913323818915108498e-01
-1.087521743526435047e-01
3.316082042273928998e-01
6.676092334491433578e-01
7.647790469775458400e-01
5.727625502030825322e-01
1.656705817427731042e-01
-2.980615848245801724e-01
-6.573600814273812265e-01
-7.971377513813070470e-01
-6.680649294548941519e-01
-3.071684355230652752e-01
1.522971058924543486e-01
5.168933651049610889e-01
6.224755187173467430e-01
4.286905433990305658e-01
4.544444042720394844e-02
-3.433993653701459259e-01
-6.023993001989128571e-01
-6.958973304463033083e-01
-6.377898215842715546e-01
-4.374282345083065904e-01
-1.122762758833804886e-01
2.609855084238160150e-01
5.245114039231090208e-01
5.145317748206165165e-01
2.080787677605735464e-01
-2.315071164283922511e-01
-5.996264998366599430e-01
-7.961047085797753331e-01
-7.883222648778794861e-01
-5.248310717598259068e-01
-6.813869496725577513e-03
5.437342570985277401e-01
7.143524200145801029e-01
3.147316480193610433e-01
-2.601290893938953963e-01
-4.395971897803231387e-01
-2.621186364126253387e-01
-2.542550612186243453e-01
-5.507866340339941935e-01
-7.173635959484345737e-01
-4.441627102590940401e-01
7.217826458941699330e-02
4.598218603693664530e-01
5.522797862151318515e-01
3.874879106475603852e-01
5.335291842757459990e-02
-3.481256478792954523e-01
-6.774797199237745371e-01
-8.052107865144650933e-01
-6.868270572919940031e-01
-3.752098284814718854e-01
1.791260091098199198e-02
3.597322031468760950e-01
5.271514344068856106e-01
4.471005867959617075e-01
1.373577096328982838e-01
-2.874209549299542310e-01
-6.628480737800114264e-01
-8.483121300722210600e-01
-7.817185123878827024e-01
-4.940831420715984801e-01
-9.114898945111354900e-02
2.881371156522566923e-01
5.227739967382759589e-01
5.412352864098942673e-01
3.272999707907123801e-01
-6.963672767289208476e-02
-5.181466522422709664e-01
-8.297375376484836806e-01
-8.490745291386931903e-01
-5.545683433435468768e-01
-7.907456112689199845e-02
3.744523199504448119e-01
6.458248480535299096e-01
6.694145466542857914e-01
4.616564091566882078e-01
1.033313471144561152e-01
-2.655994323324380457e-01
-4.867808680267332044e-01
-4.692332132104437004e-01
-2.386741902989934772e-01
9.979727186951993512e-02
4.310973526395753819e-01
6.788460958769165776e-01
8.231449126274847927e-01
8.496418523361376485e-01
6.511874543229241308e-01
9.574186044033350385e-02
-6.426129110434960490e-01
-9.854866670461077671e-01
-5.434703828221145727e-01
3.231361461140231928e-01
9.254118204077371734e-01
1.030573311033149864e+00
8.763812967445829827e-01
6.681917600348092900e-01
4.077528857033854148e-01
8.173671934890673618e-02
-2.159552065049019087e-01
-3.442021608971350122e-01
-2.168486683022725625e-01
1.485602741004106997e-01
6.313388784150898436e-01
1.043134750332158189e+00
1.214148535381855298e+00
1.103234010415988786e+00
8.140814425631753837e-01
4.747550805005884555e-01
1.542497160523337296e-01
-6.856000289187538788e-02
-6.463855316158934050e-02
2.249031360054419282e-01
6.910339643668971243e-01
1.137739075119519772e+00
1.420963208829503222e+00
1.487204215401333629e+00
1.334959555628264516e+00
1.006339830341813624e+00
6.159662482362855407e-01
3.299367284473512796e-01
2.733782581255160271e-01
4.517880198979968287e-01
7.639275734761622472e-01
1.088247091236205666e+00
1.339601833770881933e+00
1.441878547599467542e+00
1.312009017450058046e+00
9.336582641247410663e-01
4.228538346222317501e-01
-1.977793630077787773e-02
-2.238091758551389310e-01
-1.372049597500837881e-01
1.535514080806110737e-01
4.795027941248987680e-01
6.871336836995809438e-01
6.975004447480865899e-01
4.923990230291899750e-01
9.635932527406398940e-02
-3.855720102623078627e-01
-7.559739762654319462e-01
-8.619731402702107692e-01
-7.662410770399940008e-01
-6.479424991006905721e-01
-5.002077775107647284e-01
-1.603950035509276728e-01
2.807023008883574589e-01
4.253306075829864641e-01
5.728686170652320941e-02
-5.934878064377662188e-01
-1.139028332708791780e+00
-1.366602102176127209e+00
-1.278249474682836340e+00
-9.783605205940939520e-01
-5.883539186192090487e-01
-2.203696712112979683e-01
2.419614680891314651e-02
6.124670210649597185e-02
-1.473184647092214139e-01
-5.456665168800064469e-01
-9.724420463709558815e-01
-1.233744187314469443e+00
-1.210878269493946169e+00
-9.199916804353696076e-01
-4.944857306291100540e-01
-1.052481956906997917e-01
1.230504653427599987e-01
1.398318042116800108e-01
-4.703623362604072988e-02
-3.857525541112547529e-01
-7.804071462105842683e-01
-1.095302352990560113e+00
-1.199368798314676798e+00
-1.040381232550027013e+00
-6.786333686422221234e-01
-2.540896970782968167e-01
7.297445407405267481e-02
1.818351094112652389e-01
4.052288999082485910e-02
-2.804904432459578989e-01
-6.498025653635591814e-01
-9.460414719417592488e-01
-1.083042199429239627e+00
-9.856602178475516451e-01
-6.232847262335012850e-01
-1.039213099531814538e-01
3.300465975222636184e-01
4.601229120110630344e-01
2.528792070774442680e-01
-1.370979537840943119e-01
-5.176154268925167168e-01
-7.940959795387222409e-01
-9.494394411289296398e-01
-9.388553483866988181e-01
-6.729940272219294695e-01
-1.390638923328257615e-01
4.663564364041578036e-01
7.991087656966373576e-01
6.771211885632071326e-01
2.976731781079694494e-01
-1.395336810175434872e-02
-2.070110637649697494e-01
-4.343259614289233794e-01
-6.833491121663141099e-01
-7.440875559362345459e-01
-4.944884735434091905e-01
-4.880198377837146467e-02
3.483045787720092656e-01
5.005053940170863802e-01
3.621141431776955244e-01
2.550329096941982010e-02
-3.561976433528931674e-01
-6.376118412011297920e-01
-7.178360891531659904e-01
-5.573946846653055065e-01
-1.872609862470676068e-01
2.798805848431217824e-01
6.637276437922382533e-01
7.975689292919774243e-01
6.290478325681461147e-01
2.450293241151536572e-01
-1.901110139814676248e-01
-5.177092055627706690e-01
-6.383790303760357165e-01
-5.273997596984594249e-01
-2.261148311065173666e-01
1.719878313773782474e-01
5.356878516929202139e-01
7.314384605989280308e-01
6.844563731758944725e-01
4.175981468025046772e-01
2.956636379006456761e-02
-3.533197682701477160e-01
-6.036762423469642647e-01
-6.155069726178542533e-01
-3.591923060655605737e-01
7.243036667029338627e-02
5.021554624444654058e-01
7.670613975786185756e-01
7.820857871440046738e-01
5.453183611220585592e-01
1.334408629957466452e-01
-3.032064054508273876e-01
-5.833520896294227542e-01
-5.826331935474632351e-01
-3.103274628865469453e-01
9.675899722966652128e-02
4.659701539613144705e-01
6.910600783993452456e-01
7.718152702296836587e-01
7.569149231902270181e-01
6.227425217831139559e-01
2.675385277751144431e-01
-2.529576083860958780e-01
-5.845551181807092656e-01
-4.153522642516489505e-01
1.255101255315602127e-01
6.358096790123327624e-01
8.665215609885570380e-01
8.141781879917764364e-01
5.700652381505582067e-01
2.282414984513582157e-01
-1.315712238327294004e-01
-4.330998957738005362e-01
-5.848240943777673895e-01
-5.077114834518645647e-01
-2.023688241358936046e-01
2.243227653736771243e-01
6.054739832365243490e-01
7.936140796316049073e-01
7.241549298249378985e-01
4.317588131408902630e-01
2.416818344156929782e-02
-3.492289005954840597e-01
-5.373803407746290395e-01
-4.666020794081127132e-01
-1.925195410002495389e-01
1.581096510577297831e-01
4.724748368281376232e-01
6.603383092295257439e-01
6.502823138983836460e-01
4.332866923361022304e-01
8.702946619645317294e-02
-2.617854341921692640e-01
-4.932401308432849407e-01
-5.311383663522957210e-01
-3.656236791189716451e-01
-5.583421652803439994e-02
3.025712740177395332e-01
6.073878309052487268e-01
7.455223362369081119e-01
6.225846192550177349e-01
2.581064427164473929e-01
-1.817066000764647471e-01
-4.955171258117985200e-01
-5.738780121515089094e-01
-4.082575829339001872e-01
-4.211521315555788458e-02
4.243404144133935407e-01
8.137767089489579275e-01
9.408738847446159737e-01
7.378172702312162379e-01
3.015645937830387924e-01
-1.685213893228537929e-01
-4.659549708263914791e-01
-4.756956993026007496e-01
-2.609183086261941398e-01
-6.898118627483434961e-04
2.493876218374392884e-01
6.011194577129351790e-01
9.994570417348619396e-01
1.089356750958280440e+00
6.399317869137364223e-01
-1.162672657564842449e-01
-7.317539187661784572e-01
-9.589463067931320861e-01
-8.360434371472916792e-01
-5.117593921466982998e-01
-1.052840650852661236e-01
2.893308192857106942e-01
5.591762640107150739e-01
5.968133218936276796e-01
3.718036339864655426e-01
-3.180962391621558472e-02
-4.469804469355022070e-01
-7.013474113161235479e-01
-6.981186911101746606e-01
-4.536002803769184633e-01
-6.891121035515623827e-02
3.264389667189722677e-01
6.081726300576987265e-01
6.752698016257463465e-01
4.846570810712204636e-01
9.032481282687879198e-02
-3.604945396393560153e-01
-6.920142089453727996e-01
-7.845796921167593752e-01
-6.190291612370928398e-01
-2.632052622904439421e-01
1.586090319003726490e-01
4.843488636930365354e-01
5.586196362909089386e-01
3.261705269497365278e-01
-1.037559170884382043e-01
-5.183784324214929518e-01
-7.507849417143095394e-01
-7.628691225347012939e-01
-5.921623186032262121e-01
-2.790856922229592585e-01
1.136047757933725255e-01
4.603851556840872217e-01
6.227353753507893774e-01
5.426972905149807236e-01
2.671795250091685281e-01
-9.909742364128697190e-02
-4.397015647775910363e-01
-6.479243509132023293e-01
-6.448559841640033596e-01
-3.984049776831364298e-01
5.721522826652521848e-02
5.807350136313482736e-01
9.060193224041568349e-01
8.001548343871807134e-01
3.490753587074383879e-01
-6.512478866428353386e-02
-2.135503844771565463e-01
-2.459654200508162580e-01
-3.437912165455711544e-01
-4.148220709848267629e-01
-2.763424851389225112e-01
5.992051790934511957e-02
3.953663141899769196e-01
5.335658068351317729e-01
4.084003886389724891e-01
8.390147272678760704e-02
-3.080047898760818748e-01
-6.137534849976707951e-01
-6.905970511843086967e-01
-4.758453324718999733e-01
-5.331775954189666572e-02
3.882968132279364659e-01
6.816361395829654279e-01
7.504373624908645679e-01
5.876666115149579150e-01
2.356597229445042130e-01
-1.965852797820458742e-01
-5.459064363234620298e-01
-6.717276198679388299e-01
-5.352808611802827299e-01
-2.117342017836612578e-01
1.627265882708709421e-01
4.602811790358050659e-01
5.970915835557698559e-01
5.289668380583135709e-01
2.585725273998681351e-01
-1.355848491029789105e-01
-5.135734102954926383e-01
-7.419208168772341017e-01
-7.436837893912506825e-01
-5.091448317962895542e-01
-1.073563551425388979e-01
3.139557157933401399e-01
5.872851340060915026e-01
6.087692072562028711e-01
3.762007942345869105e-01
-1.788640570608439340e-02
-4.189970810997625805e-01
-6.738536663152487893e-01
-6.941913803019100770e-01
-4.790103189642263004e-01
-1.052726318950644446e-01
2.884915515234718342e-01
5.435807439641799910e-01
5.649441515389018731e-01
3.891485881654220269e-01
1.355564669916776710e-01
-1.419856220930261204e-01
-4.787965798833522801e-01
-7.730049005626120628e-01
-6.920101350205557500e-01
-8.392620749423648774e-02
6.558380579161933177e-01
9.664942127783038295e-01
7.353501769119328291e-01
2.653260780379608774e-01
-1.740733888726908318e-01
-5.173183186362014796e-01
-7.529704242971458905e-01
-8.086625798793086739e-01
-6.117325925537140385e-01
-2.026780583439110051e-01
2.591587541162967967e-01
6.007070099205538138e-01
7.202429834859890301e-01
5.983624491157998326e-01
2.841168060245906068e-01
-1.236661782867719134e-01
-4.981870202104346501e-01
-7.040065306542215851e-01
-6.494289028290566312e-01
-3.667630476678299667e-01
-8.440490452225321572e-03
2.851140757057225583e-01
4.812926935744630819e-01
5.790926077061311350e-01
5.126466028214954340e-01
2.227576877338846018e-01
-2.105182802960484378e-01
-5.801806765324922788e-01
-6.962035292717517754e-01
-4.999461459701374233e-01
-7.906170313077118261e-02
3.703872138305652206e-01
6.263096198121154146e-01
5.803316346533152759e-01
3.121258254216883188e-01
-1.880976517898274442e-02
-3.199603926945925325e-01
-5.521909149478269052e-01
-6.436832288095128973e-01
-5.193752031809673042e-01
-1.958260287710050784e-01
2.120579446660655898e-01
5.622576341839230496e-01
7.352645150016873243e-01
6.515529473169455743e-01
3.072801409194696465e-01
-1.809569225607477461e-01
-5.922898088551414864e-01
-7.066414546106728478e-01
-4.492374624074972345e-01
6.210444937145856437e-03
3.063822466982789594e-01
2.609158134726302092e-01
1.381684718050714133e-01
3.215003371873780269e-01
6.379431304924895185e-01
5.023623272838138032e-01
-1.999981257835545534e-01
-8.966883129587600587e-01
-1.057917939312022160e+00
-7.076448339286897093e-01
-1.858757870863428918e-01
2.489789689442145904e-01
5.096100258913002223e-01
5.757828786016327971e-01
4.298590744280798570e-01
9.555693008805843380e-02
-3.054963110007511418e-01
-5.914510469260049197e-01
-6.335721006415108159e-01
-4.211085498866397603e-01
-3.439594109227275126e-02
4.006673115237301963e-01
7.321137106368080794e-01
8.228133093429950140e-01
6.356758275907415934e-01
2.766456848611630326e-01
-7.887752682490867251e-02
-3.030251618982907624e-01
-3.530120634659382750e-01
-2.318161404953760774e-01
3.139623932179629734e-02
3.537491297135220703e-01
5.976779780342603710e-01
6.404578586364668702e-01
4.498985837524335230e-01
8.887396687999743472e-02
-3.264495414198710921e-01
-6.508080793437207578e-01
-7.463683119964726886e-01
-5.700379005380434849e-01
-2.113508937899457041e-01
1.935015011696774867e-01
5.468418596140005583e-01
7.673861546322712224e-01
7.610833142244118887e-01
4.893059051874380505e-01
5.011836024103745457e-02
-3.590018410053617548e-01
-5.720224640517366232e-01
-5.416247893938594959e-01
-3.183031687952049826e-01
2.041232846362812936e-02
4.080133490924020001e-01
7.551342110973315869e-01
8.730967485139419226e-01
5.187362404308826225e-01
-2.871594812158315135e-01
-1.007601464428510507e+00
-1.025931505447829295e+00
-4.171141234678484855e-01
1.413358736806053506e-01
2.639425057333726898e-01
1.874461977786898714e-01
2.179653765789133779e-01
3.088808859588853539e-01
2.445441576676279372e-01
-4.434615767544268505e-02
-4.262907448036548086e-01
-7.004324591625051832e-01
-7.321086970600274579e-01
-5.153042707076643802e-01
-1.460590986565984128e-01
2.587714417433315539e-01
6.081339352482636462e-01
8.076756072505395512e-01
7.526801940789276113e-01
4.198067297477072746e-01
-6.488942845025146011e-02
-4.960406563427774418e-01
-7.041008822122047928e-01
-6.117358333567332052e-01
-2.538980208530544624e-01
2.142314731714198284e-01
5.704191868049856007e-01
6.602829243108170321e-01
4.907790661943826627e-01
1.722673902916967426e-01
-1.864004954329368524e-01
-4.985341853922371502e-01
-6.798240947372127252e-01
-6.634129597861840866e-01
-4.337696514675920545e-01
-4.646306374261747335e-02
3.696737962398031763e-01
6.442244091113986659e-01
6.485615859912445824e-01
3.772698895559529753e-01
-5.060715780263290442e-02
-4.582633705337013086e-01
-6.874909762466513419e-01
-6.607481193000069863e-01
-4.040621798747588977e-01
-1.664540921339156820e-02
3.709240041231044449e-01
6.214465273369215170e-01
6.291259573807178596e-01
3.843674566334753240e-01
1.399350949543348710e-02
-2.852235212684549603e-01
-4.265343103177883788e-01
-5.154920381302785515e-01
-6.089117524093186073e-01
-4.677191935607332152e-01
1.297762685587103282e-01
8.762591879821576279e-01
1.153780084488062796e+00
7.487808012092866949e-01
1.443830839826512613e-02
-5.933863955187507200e-01
-8.738624517926855129e-01
-8.552029930826933191e-01
-6.305914179367145822e-01
-2.754891525071674896e-01
1.379181678090349306e-01
5.114655143686588357e-01
7.272794683651860881e-01
6.889380561779298029e-01
3.813707026915543197e-01
-8.546235484907893643e-02
-4.993195451692352682e-01
-6.520439421628712040e-01
-4.717306300446838518e-01
-7.199185706702770915e-02
3.402612681354515445e-01
6.125768272999033703e-01
7.017023976984713141e-01
6.200411714214615344e-01
3.867195259503138915e-01
3.918499733558826470e-02
-3.405152066735301353e-01
-6.281793303249342264e-01
-6.930970520197100582e-01
-4.669901311719854009e-01
-1.932825980754915296e-02
4.430278165138039070e-01
6.967831364972867370e-01
6.504522564993707734e-01
3.755031053467799418e-01
1.150947136285841721e-02
-3.258197789480490880e-01
-5.578592267151252226e-01
-6.244206846672872846e-01
-4.893703500409292695e-01
-1.748000837464448176e-01
2.129035883207739399e-01
5.180238701564210402e-01
6.215767404340322155e-01
4.973576065020629544e-01
1.979496093279061175e-01
-1.880247712725986453e-01
-5.518855276295631107e-01
-7.503537255034383735e-01
-6.307974687450452755e-01
-1.639914394798647757e-01
4.103625808368273065e-01
6.954483592672605630e-01
5.527116883393666802e-01
2.842362109941797832e-01
1.845913179243933444e-01
1.193002021649745004e-01
-1.637111415383556978e-01
-5.570555408446340451e-01
-7.226144592656297272e-01
-5.079053160051419935e-01
-4.396632315576889938e-02
4.398284727229806457e-01
7.591960382701350429e-01
7.959339434098718913e-01
5.232685944991730675e-01
5.618080720259262945e-02
-3.979073033392960257e-01
-6.777596963999301671e-01
-7.285320858707130531e-01
-5.573945261389988692e-01
-2.109971562373767762e-01
2.085265139584869809e-01
5.646926719709824960e-01
7.331397413418375697e-01
6.326642775728106294e-01
2.682851073917630891e-01
-2.243793435791348045e-01
-6.241317415654982215e-01
-7.560079831696443486e-01
-5.841777865053736640e-01
-2.069273860869876580e-01
2.039470442729733879e-01
4.792710932584873795e-01
5.189337206040827155e-01
3.223546198288558817e-01
-3.016575395512866020e-02
-4.199696467709751468e-01
-7.126799122977104384e-01
-7.870494710117423853e-01
-6.063840561726646650e-01
-2.514184918514705824e-01
1.428809668588329473e-01
4.593109094380945501e-01
6.134024873835689506e-01
5.517946139160752050e-01
2.767912465763864294e-01
-1.194217960822707980e-01
-4.699409576810573141e-01
-6.228922601036195328e-01
-5.327275987034044702e-01
-2.630474849105458590e-01
8.676172593555334100e-02
4.425342660141406426e-01
7.372043208323542096e-01
8.394790736513378926e-01
5.839511057687684081e-01
4.097965494277308607e-03
-5.243867852865353729e-01
-6.177148375279956083e-01
-3.369069931422560837e-01
-4.393628505731802386e-02
9.574515365960423185e-02
1.760003618083005594e-01
2.503532535005296711e-01
2.458356100271248124e-01
1.054079644057954596e-01
-1.425930019150504768e-01
-4.173103841092460353e-01
-6.177016453215862235e-01
-6.542570561806102525e-01
-4.910120146395761109e-01
-1.638647323051916904e-01
2.281555256041967183e-01
5.430070575137595501e-01
6.477200855106436395e-01
5.024422858763164523e-01
1.949503164709264214e-01
-1.353606647234787130e-01
-3.958026491399544988e-01
-5.341840728735126609e-01
-4.834579233415300381e-01
-2.061974334009431253e-01
2.054138695701444584e-01
5.512516089882799619e-01
6.683629846590487533e-01
5.309870658466856463e-01
2.254928670464146911e-01
-1.261277202908751838e-01
-4.144418407979323371e-01
-5.603498367698288574e-01
-5.222319798896937204e-01
-2.967643066565902044e-01
6.811929712183818764e-02
4.532775770332769794e-01
7.010741144950302095e-01
7.036508020219826021e-01
4.624591761509377341e-01
7.768162039406059649e-02
-3.038235413876789193e-01
-5.475763768975435708e-01
-5.689961840259779580e-01
-3.475196828894060452e-01
5.685946595864609793e-02
4.930304513084389773e-01
7.635537217830586920e-01
7.407927280414253746e-01
4.758934968378918384e-01
1.646534662846034225e-01
-5.753261403916336281e-02
-2.631705830473046737e-01
-5.348014057478378547e-01
-6.393415030332058047e-01
-2.311381000222152426e-01
5.349091692105301110e-01
1.024875529332395230e+00
8.803732184820843854e-01
3.456937333199130991e-01
-1.791996305693157043e-01
-5.312891821805826309e-01
-7.191842029674792025e-01
-7.478141853055226829e-01
-5.936947497285758324e-01
-2.660709955808060467e-01
1.526103958502665892e-01
5.177188847047112796e-01
6.844942270907797832e-01
5.887983552526717679e-01
2.850677925418113601e-01
-8.413876220367419445e-02
-3.620616828530682230e-01
-4.558784638892394159e-01
-3.675084424449487908e-01
-1.550223427543628296e-01
1.160432791586033241e-01
3.721823320152893300e-01
5.175529048665252763e-01
4.674309000750827559e-01
2.081338183790598373e-01
-1.818774116850829514e-01
-5.641108120878702836e-01
-7.976533831972016930e-01
-7.934302705008382528e-01
-5.504267240297219255e-01
-1.705447013742614204e-01
1.784150480016919449e-01
3.633344568295543420e-01
3.553450259616762752e-01
1.921955274738066655e-01
-7.808290922774555054e-02
-3.796000553792388543e-01
-5.899475900268345008e-01
-6.047506242261522225e-01
-4.162764228290123936e-01
-1.068684662532252139e-01
2.180062177283339231e-01
4.721363763922619694e-01
5.813414876100718720e-01
4.758387139048843584e-01
1.373761895124088195e-01
-3.283803591123735655e-01
-6.899356335861884792e-01
-7.113915937197773376e-01
-3.657810936501496579e-01
4.297158595845935319e-02
1.450205120068035203e-01
8.871776557927452123e-03
9.061083024927737983e-02
4.834886012369943864e-01
6.592157066116848263e-01
2.328710516783011053e-01
-4.804948894899921941e-01
-9.095283363796281551e-01
-8.372792587634400041e-01
-4.287046700146225908e-01
5.495422482882681564e-02
4.296852459034978255e-01
6.083276007952940212e-01
5.692232187768297980e-01
3.347603234650957660e-01
-2.275910434936637139e-02
-3.777226255508870922e-01
-5.901592783044266044e-01
-5.731472831649890853e-01
-3.257100167195510765e-01
1.018191892874658749e-01
6.318204484933955811e-01
1.097384347953799244e+00
1.243052166572726325e+00
9.399430782033842968e-01
3.637063111753606748e-01
-1.612915472212218815e-01
-4.395467766459851822e-01
-4.583170345138378732e-01
-2.737452838284879508e-01
4.986511276484146410e-02
4.195561317097318832e-01
6.994635029443135865e-01
7.474290585883098803e-01
4.962741762527785871e-01
2.742713938717766115e-02
-4.482886840467077416e-01
-7.234200318904325799e-01
-7.289336848403463742e-01
-5.385717448460565215e-01
-2.595135466454569495e-01
5.097815785589480952e-02
3.582539264127647671e-01
5.753806210245340225e-01
5.771846995373326461e-01
3.183814803971274920e-01
-9.263136185495721153e-02
-4.566056803761222582e-01
-6.142218667770774632e-01
-5.313187543934888568e-01
-2.719220036952549879e-01
9.987098331795211947e-02
5.312141200520827944e-01
8.488669893678582046e-01
7.557823237987516540e-01
1.910130974886364297e-01
-4.024849562387683433e-01
-5.267422388518483434e-01
-2.694246388137517823e-01
-9.657604418058293727e-02
-1.474104896752570781e-01
-1.579579218819759379e-01
4.472925201371022452e-02
3.184778731589186784e-01
4.257624694197386650e-01
2.783168449164131197e-01
-4.073513882650776213e-02
-3.824615289978154919e-01
-6.089708962654150071e-01
-6.264860962040393888e-01
-4.174889685858919064e-01
-5.500510304171944004e-02
3.292727719840154443e-01
6.029363728322798544e-01
6.752700614560622761e-01
5.118611352794572023e-01
1.513156456718596776e-01
-2.710779721038771295e-01
-5.625545758203300828e-01
-5.965666317674030994e-01
-3.913910260192889901e-01
-5.838186090344357065e-02
2.727808252758798790e-01
4.796806097051488083e-01
4.919865882100744603e-01
3.355400338054685960e-01
8.444830275780980389e-02
-2.101046548259603852e-01
-5.031917998606261211e-01
-7.045342954605349206e-01
-6.939061122505277845e-01
-4.155410415462243989e-01
3.354745071425163649e-02
4.411574086518359472e-01
6.287842459514727533e-01
5.541338026727575805e-01
2.908882112033693290e-01
-4.770026731234591755e-02
-3.597548793460297323e-01
-5.575651624128140638e-01
-5.652072647456382049e-01
-3.555027840591812871e-01
5.046158930213283378e-03
3.649293439319427068e-01
5.641905990852436048e-01
5.393365993964578387e-01
3.679605904491249913e-01
1.674354274369558027e-01
-6.904920054109164873e-02
-4.207106280397981957e-01
-7.476271662673642515e-01
-6.803786350074654266e-01
-1.124011109784696094e-01
5.429710431658250069e-01
8.120071640734888296e-01
6.375412790496952642e-01
2.596017527138129721e-01
-1.242203701695443752e-01
-4.410931984059078270e-01
-6.457784185384849440e-01
-6.825574173427988445e-01
-5.243476872159233970e-01
-2.000723556167010309e-01
2.012108857291688147e-01
5.403729544680273555e-01
6.793045579861385352e-01
5.553392477980797493e-01
2.201779267726711176e-01
-1.818478410492532227e-01
-4.853212571196441338e-01
-5.849221415623976350e-01
-4.693287286761854693e-01
-1.985558942785358716e-01
1.327820220162113096e-01
4.218080971814392455e-01
5.775279049125368047e-01
5.377437039987572609e-01
2.884280764554830179e-01
-1.087606679158355655e-01
-5.048528571210996185e-01
-7.180969867708937304e-01
-6.502157279343249163e-01
-3.580208707061300899e-01
2.023531962244654037e-03
2.901796768677269989e-01
4.408670200712708764e-01
4.371253486591157866e-01
2.744200289716683949e-01
-2.554342475912124016e-02
-3.813194638062863961e-01
-6.592239297702108258e-01
-7.233781886861897492e-01
-5.075224338144108671e-01
-8.425297541007009672e-02
3.428255235856035865e-01
5.669150467727611664e-01
5.241730499262592380e-01
3.017855648375517008e-01
9.394521426910218409e-03
-2.928793387424855066e-01
-5.179937684980436829e-01
-5.198681140405397860e-01
-2.542350193716081952e-01
9.358239367991486035e-02
3.121771101835228435e-01
4.563656316653487699e-01
6.836382324407906941e-01
8.523182482015434491e-01
6.406292397892315860e-01
3.952539976541893929e-02
-5.875156058745306664e-01
-8.907865266655309311e-01
-7.815782110006073147e-01
-3.838823893952653110e-01
9.933915195202530635e-02
4.879625541262107569e-01
6.776409938483963780e-01
6.371129413869890401e-01
3.838159983937523556e-01
-8.019262091885026589e-03
-3.902583934394669440e-01
-5.944776708943307897e-01
-5.368307381357880770e-01
-2.583714480772699162e-01
1.250264303396969034e-01
4.766748307405938023e-01
6.627013410597347720e-01
5.927897178751121432e-01
2.844204348029550355e-01
-1.191405176267021915e-01
-4.288742425731224550e-01
-5.318596114094993332e-01
-4.314769487058877639e-01
-1.815127795494905771e-01
1.655358625870975153e-01
5.256964887734217884e-01
7.572214802964019054e-01
7.271333939126012336e-01
4.180035217230602673e-01
-3.274775990617054267e-02
-4.138628428994853281e-01
-5.874410790109841907e-01
-5.550790023212186508e-01
-3.814483964479645217e-01
-1.072059345346864367e-01
2.336840727729906919e-01
5.537725233929700064e-01
7.139422796373220415e-01
6.081220303365877378e-01
2.606323525984547418e-01
-1.730980068803187888e-01
-5.140741606182810397e-01
-6.586452489077445627e-01
-5.910744776049943194e-01
-3.399891074243393541e-01
6.492541179241471949e-02
5.641874926275513014e-01
9.546997007625338538e-01
9.201024120376120052e-01
3.892433432908046775e-01
-2.322454696599435819e-01
-4.906152819146691324e-01
-4.184306154427634428e-01
-3.318700964577004919e-01
-3.057836003839902728e-01
-1.714679446016286746e-01
1.212374468280143225e-01
3.806405999530914630e-01
3.797398313454901086e-01
9.387502414375105408e-02
-2.915804272152074939e-01
-5.837188385469671559e-01
-7.172746028366628890e-01
-6.893304272576116221e-01
-4.836328681614537883e-01
-1.199156989114025240e-01
2.884552170744896782e-01
5.802744868685205670e-01
6.436785535655209500e-01
4.654130553839131990e-01
1.165878537416134564e-01
-2.793649136821680368e-01
-5.796295446213549640e-01
-6.692744570875795995e-01
-5.140983913527185090e-01
-1.813555562846819180e-01
1.941701095325735760e-01
4.753882486208794167e-01
5.800253548057773267e-01
4.995383237396003318e-01
2.679284017073980673e-01
-7.440017976417095946e-02
-4.605460180751492771e-01
-7.543011365801283175e-01
-7.823038750451911660e-01
-4.625176639165071713e-01
8.239135639318670434e-02
5.744272552430794709e-01
7.820286286438891121e-01
6.684113166437343212e-01
3.466039054755891691e-01
-4.772045384867089346e-02
-4.007168868752565838e-01
-6.011905223828378775e-01
-5.655054038795870319e-01
-2.966367671487966096e-01
1.042230028687343019e-01
4.763399461706167570e-01
6.597145692866270839e-01
5.899629747437646898e-01
3.700241760627329679e-01
1.638513326645848478e-01
-4.490999856120701100e-02
-4.249993168501091656e-01
-8.604073011221640144e-01
-8.350109242526068121e-01
-1.282621770856033905e-01
7.001339099034572522e-01
9.556361776168234012e-01
6.043884238663848052e-01
8.943304278309427424e-02
-2.912817783979342323e-01
-5.364151293725654135e-01
-6.992668071617438308e-01
-7.309464647980641328e-01
-5.434514579000784273e-01
-1.398007345076948682e-01
3.441741780439355192e-01
7.118503107725524526e-01
8.183872486788593692e-01
6.422618031114234460e-01
2.793558443286661697e-01
-1.185559567620009663e-01
-4.105787917024701361e-01
-5.087269181620618363e-01
-3.963784740595653333e-01
-1.323097184802601856e-01
1.715738846554466512e-01
4.076994956548952720e-01
5.106823614536852851e-01
4.381461470967127347e-01
1.741831410514642631e-01
-2.113054671182911792e-01
-5.614141172476222463e-01
-7.300550730705457347e-01
-6.643203270558216689e-01
-4.046603774708991130e-01
-5.312728857928413623e-02
2.598814056409930462e-01
4.296273004323271638e-01
4.189764974649021201e-01
2.408968318084837024e-01
-6.539977333909854917e-02
-4.061455710023197385e-01
-6.273289972914338763e-01
-6.061932182375450173e-01
-3.502109671992253426e-01
1.752273818861539711e-02
3.591882291091195167e-01
5.947385621110716780e-01
6.911926292194287003e-01
6.163643733238400868e-01
3.389551970550469528e-01
-9.919607344614495004e-02
-5.048557543286259497e-01
-5.907472500447252806e-01
-2.411374823315869109e-01
2.526392837309631156e-01
4.258382754443021945e-01
2.504948521840313913e-01
2.104072130756650394e-01
5.133223063137324349e-01
6.728475891725963498e-01
2.417375186658641817e-01
-5.034304055282873280e-01
-9.535596241072784585e-01
-8.644857770707704558e-01
-4.280487550321142587e-01
7.293382303136121403e-02
4.656767818626882383e-01
6.581661930796434135e-01
5.960527620893459888e-01
3.029706557207401674e-01
-9.286300557405957612e-02
-4.255692927708601969e-01
-5.823125493523195750e-01
-5.270200264016798863e-01
-2.793606956156425292e-01
8.974979682411464432e-02
4.559200787717992975e-01
6.827889518390583001e-01
6.949611343384616280e-01
5.047857961698415385e-01
1.774105434944164561e-01
-1.947406357578573000e-01
-4.903275893782521599e-01
-5.882307484974405032e-01
-4.345203377163231462e-01
-8.179928612021766798e-02
3.367593475644385936e-01
6.619951042561289523e-01
7.524495619443396510e-01
5.348499546477794020e-01
7.009501542400792262e-02
-4.369869430375883934e-01
-7.523775640037638768e-01
-7.686724577814263437e-01
-5.351319297010710407e-01
-1.616194726906722834e-01
2.480361375030820936e-01
5.846600937482024918e-01
7.321589091035436425e-01
6.185715410631177358e-01
2.724185450316248813e-01
-1.779497640859400986e-01
-5.652335882671104539e-01
-7.473692236928256571e-01
-6.582862333127347254e-01
-3.468038829283737190e-01
6.864535731235096860e-02
4.999103409510217144e-01
8.480943561774133554e-01
8.720509377911607185e-01
3.546870361840243624e-01
-4.590726108839910391e-01
-9.133000616611250955e-01
-7.015440256138443242e-01
-2.392191111941173176e-01
-2.647337321466396165e-02
-4.000216313698667925e-02
1.654651195723528742e-02
2.120132816498726536e-01
3.475646799880657278e-01
2.390450437111611703e-01
-9.448723774688622123e-02
-4.618459063466076597e-01
-6.434058413232298657e-01
-5.315625306551182705e-01
-1.910098069903202189e-01
2.077424885365477536e-01
5.215996098149492388e-01
6.931557771954284242e-01
6.978400891267512174e-01
5.045460104396171097e-01
1.318229956673776515e-01
-2.975300099231210083e-01
-6.080845031076353990e-01
-6.745120632915444503e-01
-4.774906804498879609e-01
-1.052231869290617405e-01
2.768724025032341940e-01
5.006316202904538271e-01
4.955008616332561289e-01
3.139689822285782195e-01
4.101158918163462508e-02
-2.730289051964209790e-01
-5.639141158071788729e-01
-7.200385191055400647e-01
-6.519195164360780392e-01
-3.610358458891594902e-01
5.980280825954851359e-02
4.583167894436812606e-01
6.772090911052979223e-01
6.256648369130746179e-01
3.203374416888138954e-01
-1.197509620581777567e-01
-5.117498896073526815e-01
-6.912425481991062437e-01
-6.042783039284346236e-01
-3.200855572990596309e-01
4.340434692764204294e-02
3.825478695072971336e-01
6.038903803210149412e-01
6.190803129939786986e-01
4.113427592562543533e-01
1.001005031103675003e-01
-1.481577625251641328e-01
-3.014685561060524988e-01
-4.291043248511869357e-01
-4.426515198601720380e-01
-1.168165881972149794e-01
4.960042908265391848e-01
9.600930827467228923e-01
9.264708021932374082e-01
4.711543400762285838e-01
-9.982005155994556900e-02
-5.629375194754812073e-01
-8.382477643998937911e-01
-8.791565368043481321e-01
-6.342371320973394511e-01
-1.575859926397839006e-01
3.376146379342289117e-01
6.298127926248826558e-01
6.505981578656162556e-01
4.616597540735870586e-01
1.486116123889577034e-01
-2.099937797005086426e-01
-5.133372095722308348e-01
-6.420705331031145713e-01
-5.221616516288082321e-01
-1.916235172736798775e-01
2.032483016377114593e-01
4.917549636292851689e-01
5.730749137542606730e-01
4.467374098110457603e-01
1.751165553240725814e-01
-1.649624748190887114e-01
-4.861200691012187436e-01
-6.639665456085297457e-01
-5.671914787318509399e-01
-1.774857364357239620e-01
3.276335288398517509e-01
6.742106445990724284e-01
7.033792599575980908e-01
4.680525152222770879e-01
1.250109418105923575e-01
-2.181637025365887328e-01
-5.161356813378807917e-01
-7.016756391167920937e-01
-6.804326975891574758e-01
-4.239552995420787784e-01
-2.137939466002320571e-02
3.722980743162293549e-01
6.211859879998112843e-01
6.550254137572677493e-01
4.699145284907370046e-01
1.161116173010493247e-01
-3.006690170020649422e-01
-6.203536141572619789e-01
-6.711261775715958722e-01
-3.708091464917109281e-01
1.580889565274228858e-01
6.068749165666886825e-01
7.418720443241560991e-01
6.499490267772698449e-01
5.538181886510864516e-01
4.306916674317975979e-01
8.799173141258377628e-02
-4.361838057367372068e-01
-8.371370757152385433e-01
-8.722853003454633658e-01
-5.498481158998568263e-01
-5.835955219365512869e-02
3.728358061013211655e-01
5.779335946502024424e-01
5.035928068799984114e-01
2.062943255981383173e-01
-1.768719231625957011e-01
-4.805848696375727425e-01
-5.857904977686543280e-01
-4.700568600974068256e-01
-1.933387121085500260e-01
1.509130198070789408e-01
4.620723446868819639e-01
6.368101551589054887e-01
5.981407848384946435e-01
3.469270683737881167e-01
-2.612166561181111096e-02
-3.884350715387356878e-01
-6.198658566146092452e-01
-6.385019132026114042e-01
-4.227480352144095122e-01
-4.032501804848583754e-02
3.596515673332515428e-01
6.178778236962536585e-01
6.410185900374819612e-01
4.186746046677755073e-01
1.269178725082891618e-02
-4.372919232228423270e-01
-7.397916790059694270e-01
-7.484755608682136518e-01
-4.572345899380895196e-01
-1.853269861583350941e-04
4.371797324075624158e-01
7.108700611898743915e-01
7.539621260766254940e-01
5.663087693320295601e-01
1.959326331568730095e-01
-2.601034192417336355e-01
-6.373369380635198755e-01
-7.504202461436284555e-01
-5.396353636450583746e-01
-1.410042459125442349e-01
2.510246339759580891e-01
5.516799516787227464e-01
7.664702593935234232e-01
8.357457376146960604e-01
6.102927812276375263e-01
9.226456728909328275e-02
-4.040169684273394735e-01
-5.501687866564769491e-01
-3.722879856731843295e-01
-1.190217747386180802e-01
8.115727693543997590e-02
2.471521381537458983e-01
3.749210105201517540e-01
3.811534329332554871e-01
1.903402859002744363e-01
-1.560075795114664321e-01
-4.971795815288271303e-01
-6.672928205781083477e-01
-5.978252182399269588e-01
-3.286698405859890260e-01
3.800402602987063699e-02
3.847063011356484652e-01
6.053819192897460510e-01
6.252147372102507816e-01
4.290716865746989628e-01
8.279392695826087722e-02
-2.854977128736996272e-01
-5.423936969119315110e-01
-5.996950027340955947e-01
-4.345554337366098752e-01
-9.937100523168443389e-02
2.825188723255571133e-01
5.648237125404343972e-01
6.410137851319213098e-01
4.673002454638939818e-01
7.283031719095886536e-02
-4.053980979868970769e-01
-7.471865007354271393e-01
-7.962167492036882344e-01
-5.776921297693626833e-01
-2.313385962499762694e-01
1.275200411575500570e-01
4.305019414480156792e-01
5.988407396666317606e-01
5.601299354756884563e-01
3.270043886742444172e-01
8.254001796150697845e-04
-3.024408954269275918e-01
-4.902296129692736981e-01
-4.880097387681202603e-01
-2.685786471144904208e-01
9.957738542098232282e-02
4.637687722750927222e-01
6.613198024237741945e-01
5.993852732001432315e-01
3.089274963297432564e-01
-4.951710206893627370e-02
-2.806459456255520069e-01
-3.291873975875684866e-01
-3.215762469854430150e-01
-3.239636195770129179e-01
-1.576417467241893744e-01
3.109032339938970768e-01
8.104345912733186275e-01
9.067648743191584204e-01
5.141373043828494360e-01
-7.399646076363411429e-02
-5.413533480578150980e-01
-7.579363196870907426e-01
-7.332530109848901523e-01
-5.139254444356124996e-01
-1.560302645013588729e-01
2.429283247334705076e-01
5.400783142549253624e-01
6.102493577121620438e-01
4.232915058804646025e-01
6.673957617377966611e-02
-3.061158745433359973e-01
-5.633080710184356077e-01
-6.424702321588070530e-01
-5.342304529754866582e-01
-2.606316572343921334e-01
1.077767036896915970e-01
4.404149229965933499e-01
5.953101931685259585e-01
5.047169231595842742e-01
2.165288909863122557e-01
-1.481049506015532091e-01
-4.661334208873958995e-01
-6.448593920482514896e-01
-6.238146241358176747e-01
-3.886521892933914590e-01
-1.310374599817337726e-05
3.934401900702336752e-01
5.989562752522519240e-01
4.968092714585292669e-01
1.463131622798308218e-01
-2.593753936878321342e-01
-5.602765513065010028e-01
-7.070532612732087774e-01
-6.865714636742167309e-01
-4.672946668230768541e-01
-6.306693525910048170e-02
3.872106144117298809e-01
6.614002117236894573e-01
6.185283904391036813e-01
3.173137434713159122e-01
-5.395184770212817921e-02
-3.501666586203914244e-01
-5.392797511145765998e-01
-6.100661851752139375e-01
-4.831203710743134927e-01
-9.236793880945429192e-02
4.425243921953542769e-01
8.179291046680049471e-01
8.298078857984352297e-01
5.986096399578815230e-01
3.481215206041503030e-01
7.340786706789680094e-02
-3.234134599783536901e-01
-7.117575718703211818e-01
-8.226528899512295379e-01
-5.725664152529899020e-01
-1.369964204503114902e-01
2.306158070923207404e-01
3.735395606578081340e-01
2.759665534416359534e-01
1.261283071863924382e-02
-3.158437725694436815e-01
-6.139963417330518425e-01
-7.897752007368763483e-01
-7.520614938713099384e-01
-4.501599641291434972e-01
4.875415283815014156e-02
5.394030113570127405e-01
7.938175522770352099e-01
7.168832775494599074e-01
3.818501542194259191e-01
-5.164959417708672035e-02
-4.218569188126414793e-01
-6.092974284993516454e-01
-5.650163566006071170e-01
-3.174777062882523926e-01
4.974646501566690193e-02
4.213346978913908858e-01
6.697762642290960855e-01
6.973250265250864333e-01
4.857757215008048912e-01
1.085607921075363302e-01
-3.049936272523225966e-01
-6.164839204136891571e-01
-7.064869056674071279e-01
-5.138004293706631698e-01
-9.984736508562865043e-02
3.509052881725467921e-01
6.444571121316203799e-01
6.900319003441743870e-01
5.083633215742419109e-01
1.842960798457535798e-01
-1.679165552002022110e-01
-4.322571240264307391e-01
-5.182907248028922886e-01
-3.820492863810485140e-01
-5.531419271733201137e-02
3.338112261352657040e-01
6.127607534516713583e-01
6.854022452944323884e-01
5.934429314578979486e-01
4.136526539074505959e-01
1.222158523183376477e-01
-3.040672888896233106e-01
-6.371501648272677176e-01
-5.100111432494656150e-01
8.800129932421993373e-02
7.024867258458513675e-01
9.267924397644111689e-01
7.654104491377454744e-01
4.425324634782956679e-01
1.033446803196237385e-01
-2.279350400736994131e-01
-5.294216040839140325e-01
-7.047330584284328125e-01
-6.316630527322493194e-01
-2.836752189017949233e-01
2.049362875474881329e-01
6.154044985956116376e-01
7.946607485664443082e-01
7.203024305814609285e-01
4.478164196152466525e-01
6.115333649836279806e-02
-3.238522403407239625e-01
-5.762778355031169530e-01
-6.073569401648469812e-01
-4.097986102941838515e-01
-5.705021145364302937e-02
3.196835337412546330e-01
5.761005122794341515e-01
6.166143737486429188e-01
4.320796855936812064e-01
8.732697950358798977e-02
-3.079033979905105856e-01
-6.191985704446992811e-01
-7.272205753032444653e-01
-5.922659687216469404e-01
-2.873543287395576851e-01
4.542559827522105881e-02
2.844479220887529136e-01
3.776120253619607015e-01
3.156919855735580427e-01
1.062578915619836056e-01
-1.951150113584042001e-01
-4.706081312506657510e-01
-5.997670775678856092e-01
-5.230868756228157501e-01
-2.585792353694294499e-01
1.034260426081353712e-01
4.281763475000167074e-01
5.941321407823789702e-01
5.385618943553848181e-01
2.651470194881736520e-01
-1.532584346418199850e-01
-5.530262364604617842e-01
-7.099946295675738650e-01
-5.119373125211560405e-01
-1.478095429668396243e-01
3.378926561840852466e-02
5.473022740959876051e-04
1.296998696076390734e-01
5.599280801153341258e-01
8.113267416023861589e-01
4.336796701061146897e-01
-3.390302807575271693e-01
-9.130649063946840727e-01
-9.851431957162147812e-01
-6.546760744405982768e-01
-1.559066914739858090e-01
3.152256218144869337e-01
6.103273736755592260e-01
6.391155369396666064e-01
4.191711621570630153e-01
6.852444913605040822e-02
-2.727720570871780548e-01
-4.990578318915996348e-01
-5.406099693808580353e-01
-3.674045339843562408e-01
-2.026481550578497492e-02
3.774473383620825517e-01
6.663879131049742499e-01
7.303537640798546393e-01
5.548151675041720354e-01
2.336851895822075476e-01
-8.864747789340740591e-02
-3.112006555055439883e-01
-4.107535909011401642e-01
-3.833641152921380968e-01
-2.068578585833921735e-01
1.054522960257148062e-01
4.533653822176022530e-01
6.805715062762340839e-01
6.509630508709227659e-01
3.272555064619551701e-01
-1.713400356718792761e-01
-6.026022026670796450e-01
-7.578668879296923677e-01
-6.072177334993382747e-01
-2.759243304024123211e-01
9.047164761380187270e-02
3.995946063191908038e-01
5.906609519499363969e-01
6.070575153495687548e-01
4.183076045982763169e-01
6.833205377248006973e-02
-3.138299771989530029e-01
-5.703957864224563634e-01
-5.975956159557989089e-01
-3.920249268429206735e-01
-2.068151034359883705e-02
4.410319563173065172e-01
8.670189855990376726e-01
9.694010425381187623e-01
4.706935866586776096e-01
-4.066563046775196755e-01
-9.270358496331895237e-01
-6.932473460032188006e-01
-1.730405900124846741e-01
1.617155266206784375e-02
-8.704926278425130504e-02
-7.218995699811553424e-02
1.692469998196164116e-01
3.880855137755217510e-01
3.590472696486385895e-01
9.078272455499444837e-02
-2.574654215744251462e-01
-5.234634041987532571e-01
-6.050031116070402337e-01
-4.645938015379678099e-01
-1.351570055189862396e-01
2.749087769242744006e-01
6.134931017199524161e-01
7.528563266227330519e-01
6.470138410975621035e-01
3.460075971678654994e-01
-3.163452354566993058e-02
-3.549570364150642088e-01
-5.299634808971556144e-01
-5.099500144190378670e-01
-2.906808571031482824e-01
7.108660377637014693e-02
4.352344169403911667e-01
6.175441696671600811e-01
5.171645730401437380e-01
2.153186911031490514e-01
-1.115288812551657738e-01
-3.689875344195768236e-01
-5.620807313767230973e-01
-6.657378674782038486e-01
-5.823892924351280476e-01
-2.518644848992974694e-01
2.341130066542547739e-01
6.437807619120994307e-01
7.438114610001330673e-01
4.641502755872676800e-01
-3.786826459510571341e-02
-4.878030636177190793e-01
-7.002528266821831382e-01
-6.681692638147711527e-01
-4.622187485141222574e-01
-1.325455315710468707e-01
2.500151633424501640e-01
5.390276614303113334e-01
5.851672628741353410e-01
3.746584188255038805e-01
6.968429724711042161e-02
-1.378686539019354229e-01
-2.527627237705999397e-01
-4.569909125242114789e-01
-7.266863206039064771e-01
-6.675673959052298434e-01
-4.784869687125731935e-02
7.208611698768967457e-01
1.006644797184302664e+00
6.615610248298233742e-01
3.566255329848233568e-02
-4.895045500868200339e-01
-7.630797978788251834e-01
-8.013045254832679154e-01
-6.541721132999661625e-01
-3.609642084723880817e-01
2.411826628890999247e-02
4.070949034347582929e-01
6.648714801980035727e-01
6.927708505322356380e-01
4.669830557706498020e-01
7.533668469236461107e-02
-3.168933084411600931e-01
-5.507520004067623098e-01
-5.517200882996496913e-01
-3.459747827313532365e-01
-2.125953515658995929e-02
3.054963467343395633e-01
5.063478658788552744e-01
4.926447897179337398e-01
2.698810004757332681e-01
-7.189287359311713477e-02
-4.099037499271970808e-01
-6.262607743307012642e-01
-6.394419716005387277e-01
-4.377062771213417469e-01
-8.953135535986340987e-02
2.743192413482393732e-01
5.149439214873097193e-01
5.681496477175108639e-01
4.627739715846976853e-01
2.414570278395928860e-01
-6.815325434917990366e-02
-3.787870919102225287e-01
-5.402475572925348191e-01
-4.597366025939153555e-01
-1.744472150354943740e-01
1.946767266571321209e-01
5.133496419730709803e-01
6.747999737201467729e-01
6.249966530869850434e-01
3.693102257233204511e-01
-3.490197441409217949e-02
-4.679634960862927295e-01
-7.389820518189066378e-01
-6.595672230391127489e-01
-2.156123805078034861e-01
3.211810735709865749e-01
5.805547696457157292e-01
4.948255942171735922e-01
3.528580191893249118e-01
3.275531622105299911e-01
2.252307897482037358e-01
-1.207888159986918869e-01
-5.220006392657019489e-01
-6.760469011294835129e-01
-4.984889314387905279e-01
-1.158668922193913098e-01
2.929548061347400090e-01
5.689412823687013399e-01
6.020533285095709397e-01
3.901841262990871639e-01
4.995426118234615881e-02
-2.719715398008406004e-01
-4.797295751499348060e-01
-5.228902244384789899e-01
-3.783309175419468096e-01
-7.660566228445514492e-02
2.814226887570935309e-01
5.609978616366979587e-01
6.506753998701733099e-01
5.027936029225635872e-01
1.558798752123217723e-01
-2.619087620959091312e-01
-5.747461204254370459e-01
-6.491126410222133325e-01
-4.673354692295702550e-01
-1.227532185107825802e-01
2.453706529385709656e-01
5.142696353972421308e-01
6.058931578569143328e-01
4.942122098705752919e-01
2.056668777477326515e-01
-1.807317717261913148e-01
-5.322913744499209177e-01
-7.025901241858261148e-01
-6.238193035593034841e-01
-3.475932047805668779e-01
1.733049133442004369e-02
3.653169659884589193e-01
5.952897679970170497e-01
6.231787376683094459e-01
4.276845463858859331e-01
7.488216558630261810e-02
-2.983943067591002807e-01
-5.331326070773196868e-01
-5.262313486569721865e-01
-2.963946519594484186e-01
4.039914935491235870e-02
3.797565772044392274e-01
6.755809248450914684e-01
8.387108491548742606e-01
6.900434857130752775e-01
1.938924950002989256e-01
-3.227572606877969763e-01
-4.615153198342417107e-01
-2.433995383218594544e-01
-1.745430418095404029e-02
5.087929048251470937e-02
9.352857276333680081e-02
2.200050830312733630e-01
3.464432271680578657e-01
3.239187292984115896e-01
9.819893398863914491e-02
-2.503464658192979808e-01
-5.573106927439416269e-01
-6.681691873540521742e-01
-5.286419318544803847e-01
-2.063877932628935818e-01
1.711692723433484442e-01
4.889311686671152235e-01
6.575242852961553641e-01
6.066244002835734506e-01
3.273687110008192125e-01
-8.022622237704543635e-02
-4.492590096464975091e-01
-6.468403796399621042e-01
-6.215103192113847763e-01
-3.872323038426660480e-01
-1.810464232388442340e-02
3.462296121040098207e-01
5.474188128620947058e-01
5.025045628756645844e-01
2.573758575403696236e-01
-6.461847421221919574e-02
-3.623447034683368040e-01
-5.833585431599492832e-01
-6.707935269182248028e-01
-5.508070211844756647e-01
-2.137489057208733223e-01
2.118196680754564354e-01
5.155406832285440721e-01
5.580163223243430615e-01
3.547381714650569284e-01
2.319015926438276060e-02
-3.101829965181426840e-01
-5.485474539411846484e-01
-6.161976448116278648e-01
-4.638242488575167188e-01
-1.134781887816963680e-01
3.075341905422886990e-01
6.093254462330839338e-01
6.532835595739495682e-01
4.557805158896106601e-01
1.784089300981733239e-01
-3.287244453507764952e-02
-2.179835243079342455e-01
-5.017001869624908572e-01
-7.423279807768146110e-01
-5.255652617172807961e-01
2.359371184649716735e-01
9.790633350318556083e-01
1.094768064420077236e+00
5.965002830924917010e-01
-5.241548059282720440e-02
-5.032834956605469756e-01
-7.111493985022562248e-01
-7.494099620182060884e-01
-6.380258378236278727e-01
-3.561008282332373542e-01
5.325022989693999759e-02
4.436314282275848342e-01
6.505849009403931182e-01
6.056675655809263814e-01
3.569588624610568472e-01
7.421675297301914831e-03
-3.330752732304115837e-01
-5.556995776871397341e-01
-5.703970663460312673e-01
-3.527986946018039638e-01
2.060207033922995673e-02
3.933605194788093451e-01
6.094154506512554637e-01
5.987261074506442515e-01
3.937444006414048125e-01
7.582120168132047699e-02
-2.672869963046798358e-01
-5.325956452826888787e-01
-6.047498333781791136e-01
-4.292746837991562869e-01
-9.392580924346752291e-02
2.037458645853656714e-01
3.121392892233270100e-01
2.488784449494476081e-01
1.303261874007322352e-01
-8.476656245794474132e-03
-2.224499074411738220e-01
-4.780729549945562096e-01
-6.075938555766324800e-01
-4.814016042927434236e-01
-1.306981113722682775e-01
3.013116207507235411e-01
6.501712730039019839e-01
7.895393263341664580e-01
6.769489258111092145e-01
3.593582758612806072e-01
-6.682121563907766904e-02
-4.671758151630375222e-01
-6.508612476835610172e-01
-4.605427496156274669e-01
3.670323288222317182e-03
3.477159832438263543e-01
3.118575146131520315e-01
1.710212588636516873e-01
3.336939860292890137e-01
6.213453493958871476e-01
4.758249263768236648e-01
-1.772769729809518524e-01
-8.003229495654360370e-01
-9.226002824113104239e-01
-5.635546121717682766e-01
-3.937311957867831169e-02
3.831655319784316172e-01
6.066906492084959135e-01
6.215773155522356097e-01
4.323748440938497417e-01
8.202127207772336170e-02
-3.165175347104225434e-01
-6.161429429687163006e-01
-7.011875146163983885e-01
-5.307195611577951722e-01
-1.587529977003768467e-01
2.719671164395599527e-01
5.882152282017054645e-01
6.734579280608280483e-01
5.142162197457265105e-01
1.853377873995072367e-01
-1.918417677045841652e-01
-4.921560844075636987e-01
-6.133960295396392315e-01
-4.907866546645011097e-01
-1.334908978416133873e-01
3.319952467181409572e-01
6.947369274515061699e-01
7.799835621728040680e-01
5.501041811959850314e-01
1.109395427949387281e-01
-3.494272408773968497e-01
-6.536296960926156752e-01
-7.215884939891804573e-01
-5.765990652448553799e-01
-2.813035346683351867e-01
8.549025701641994879e-02
4.083652576755092412e-01
5.719498538095754148e-01
5.327398908292768631e-01
3.237807946990760577e-01
1.315615049169061718e-02
-3.050809436007503317e-01
-5.158605457387522852e-01
-5.390381505658961014e-01
-3.753768258391773638e-01
-6.656665175151801894e-02
3.498967535660748029e-01
7.603872451596851434e-01
8.755311528464728710e-01
4.323592433079159747e-01
-3.554039196699859127e-01
-8.288662257858929738e-01
-6.548698097010309249e-01
-2.420847846694207384e-01
-9.465238909469930739e-02
-1.629466695973544321e-01
-1.148906394790027291e-01
1.234250893200981303e-01
3.355879166375452805e-01
3.132999003985297293e-01
4.641594373350611813e-02
-3.046697552770123441e-01
-5.533299283723157602e-01
-6.049162974181042651e-01
-4.616111524089264173e-01
-1.684304799640186923e-01
1.992373895590860977e-01
5.220084304097090122e-01
6.698429988549740033e-01
5.749889718478808920e-01
2.773506224410163812e-01
-1.013439697106903736e-01
-4.305086670401556126e-01
-6.157069773625698517e-01
-5.940709137204145396e-01
-3.467408062371339361e-01
5.029908727894755183e-02
4.254106794966784899e-01
6.116507689165453510e-01
5.535330913539547870e-01
3.086559612374402128e-01
-2.503500983647635042e-02
-3.535530368550526270e-01
-5.875985457315604510e-01
-6.465952353283093146e-01
-4.828908175642020462e-01
-1.277177770472968099e-01
2.801238938793992328e-01
5.618259617174756748e-01
6.182193785181805401e-01
4.562464634321785062e-01
1.325361454945813700e-01
-2.580025922321133591e-01
-5.659416232356081489e-01
-6.458592522643926692e-01
-4.543728011343337592e-01
-7.706341285618298342e-02
3.245606047244206094e-01
5.839083692176524343e-01
6.032233743672722470e-01
4.220062610749271137e-01
1.894532517376397995e-01
-3.440940992411142818e-03
-2.317233908578326673e-01
-5.369908152206173124e-01
-6.637907948697246985e-01
-2.920106489985954124e-01
4.331710136768154862e-01
9.509649049525840114e-01
9.131696170198089213e-01
4.686276093779044305e-01
-4.813890075644019356e-02
-4.396309428147658349e-01
-6.593882273554316775e-01
-6.977078691351271678e-01
-5.413089029385365070e-01
-2.154166232509505396e-01
1.843957755788731001e-01
5.236872886517477399e-01
6.897266227615979073e-01
6.291522228423800378e-01
3.628002408310130322e-01
-1.069184874239093030e-02
-3.453983529124822760e-01
-5.154260473540368537e-01
-4.692794876896549949e-01
-2.328486112969827271e-01
1.141428657345832931e-01
4.497640387634774251e-01
6.353067323516945475e-01
5.872410384708942610e-01
3.344342174683235247e-01
-1.076437994115881508e-02
-3.283023692427818885e-01
-5.320084597460980058e-01
-5.639866171150750285e-01
-3.921872114904859652e-01
-4.464054406658089086e-02
3.699011847587991286e-01
7.063753297414845367e-01
8.386908271552566685e-01
6.882052976883286100e-01
2.803608431629775466e-01
-2.102415224454782239e-01
-5.484316777797652032e-01
-6.022784731515405943e-01
-4.070772540893748959e-01
-9.756890025627171226e-02
2.032917721955484203e-01
4.428920450776744899e-01
5.942981452415131427e-01
5.892620941944749502e-01
3.562542116463809916e-01
-6.832112096597925399e-02
-4.993908007695886941e-01
-6.889981643143953116e-01
-4.938627987254911034e-01
-3.244132087688857136e-02
3.609317297415367554e-01
4.787326525454949078e-01
4.764904001191811456e-01
5.613627916167183152e-01
5.896096635933479879e-01
2.801511920599389915e-01
-3.126179178723891283e-01
-8.168690135780276584e-01
-9.321213826158762927e-01
-6.467661388001970657e-01
-1.612462194508811897e-01
2.921971791885380476e-01
5.622587113668163772e-01
5.834583035091676084e-01
3.569269770480961168e-01
-3.726808895696363810e-02
-4.490458123823426462e-01
-7.178972867086216292e-01
-7.406992191200578723e-01
-5.103518496416816763e-01
-1.128533393591149847e-01
3.002692554662682589e-01
5.537603722412328677e-01
5.333780286217378874e-01
2.727518182727958207e-01
-8.184104505717938738e-02
-4.134033925131076481e-01
-6.827525546665905720e-01
-8.299332418814162615e-01
-7.460529069208514663e-01
-4.066319486489092805e-01
4.826254959849061305e-02
4.143378461013852432e-01
5.549837500033639737e-01
4.364288664872170709e-01
1.097012739269634107e-01
-3.074407928110868826e-01
-6.624656680751398463e-01
-8.168778404923360270e-01
-6.960848948809029713e-01
-3.354528331793913409e-01
1.176207771659749102e-01
4.833946038303389980e-01
6.449642530037574817e-01
5.723390044691046841e-01
3.000724302806497823e-01
-7.452403950255392928e-02
-3.961009009805682157e-01
-5.259874613792466791e-01
-4.375057475897963788e-01
-2.052497790056421467e-01
1.000488472117783967e-01
4.511199231059397907e-01
7.680539749463562993e-01
8.484683615742629748e-01
5.351988110645502505e-01
-7.726855649628369682e-03
-3.715595447766540937e-01
-3.626660130521322523e-01
-1.827472085763988119e-01
-7.154241035479425026e-02
-2.047720141985612252e-02
8.834729012483559518e-02
2.607810573065260096e-01
3.746339752332224493e-01
3.051102818207437339e-01
3.990304928081229996e-02
-3.088545051829264532e-01
-5.864208335877110212e-01
-6.767371087116359485e-01
-5.252653625011636240e-01
-1.519519170251815154e-01
3.139684557506431384e-01
6.638526492506823251e-01
7.429793102761332868e-01
5.505052914769120731e-01
1.997570258697042300e-01
-1.754960612259363617e-01
-4.638440765160892210e-01
-5.862720991087698730e-01
-5.117615898802055918e-01
-2.686970701067117884e-01
5.874672117347831679e-02
3.570191385487700986e-01
5.275045796545424492e-01
5.136913198431394267e-01
3.112140622930593681e-01
-1.573911989893919672e-02
-3.522313150135676363e-01
-5.962957917347969650e-01
-6.805865645150338539e-01
-5.485854152849308774e-01
-1.937223613067423633e-01
2.645854896704711856e-01
6.147718602567523449e-01
6.916182140652503696e-01
4.717640939428205948e-01
6.508743818826299987e-02
-3.532255771593645344e-01
-6.209252853082691814e-01
-6.399202669278392097e-01
-3.941544090453781846e-01
3.454957191138337269e-02
4.663435176055804599e-01
7.039196702089014490e-01
6.671529403844054240e-01
4.454702731336086519e-01
2.003301416407128055e-01
2.468743425886044118e-05
-2.299758278500184938e-01
-5.015407984234241390e-01
-5.492187775115966453e-01
-9.464016556496238075e-02
6.458958515943133971e-01
1.085016477115870126e+00
9.427900289180134452e-01
4.594448194572639532e-01
-2.964800711282575274e-02
-3.987603465335672337e-01
-6.387162295624252417e-01
-7.150895134392172281e-01
-5.820270512307624822e-01
-2.564063179996526887e-01
1.581223915418026038e-01
5.111753936922324160e-01
6.729104692826164413e-01
5.890101694530004428e-01
3.024104244578902367e-01
-6.801321658884265653e-02
-3.853840619074701546e-01
-5.478085752413095477e-01
-5.049938029034719555e-01
-2.666094131650008081e-01
7.565299370839428938e-02
3.655667518027596596e-01
4.787992633102052253e-01
4.045284813482806774e-01
2.042604895719147551e-01
-7.136811678148895222e-02
-3.721158329050442415e-01
