-2.853250116303687189e-01
-3.680313329960909763e-01
-4.493699310208790210e-01
-4.906938895411848134e-01
-4.751653964769222416e-01
-4.085652727330167933e-01
-3.076192491750023850e-01
-1.961619455755906349e-01
-1.037939751513006631e-01
-4.936778416237610351e-02
-3.340332973609968364e-02
-5.930689877836112234e-02
-1.422071837297897989e-01
-2.807909120343841658e-01
-4.327399976116440006e-01
-5.088169087964484749e-01
-3.684437913315777857e-01
1.231716090167068040e-01
9.163327963489765748e-01
1.648471514880637034e+00
1.850879583450577792e+00
1.389741558972581448e+00
6.248944495032925373e-01
6.574512267231989726e-02
-5.625445840035325079e-02
1.440480945649954270e-01
4.268353725314787961e-01
6.286165493706904472e-01
7.082310304695648151e-01
6.903527639214401823e-01
5.980682957526896049e-01
4.311532038422608570e-01
1.973632559254193675e-01
-5.174993401679832405e-02
-2.387116136429692503e-01
-3.128940576563956633e-01
-2.726850507479463559e-01
-1.500386938851377694e-01
2.292193836918893224e-03
1.175585464486423037e-01
1.445680224268130198e-01
8.425124825670680939e-02
-1.723701409251560124e-02
-1.167225885254321305e-01
-2.060671806170845388e-01
-2.927218380154692490e-01
-3.536566391072312743e-01
-3.248395149232360946e-01
-1.615370038184222035e-01
8.502822275490541648e-02
2.721982978037986722e-01
2.661971765642340837e-01
4.817007707707694764e-02
-2.720759938189844518e-01
-5.448196868583200514e-01
-6.819832617715240186e-01
-6.848394780983675378e-01
-6.045848189805717032e-01
-4.944152340381930411e-01
-3.886267661732796808e-01
-3.094749391118520876e-01
-2.814183986883993516e-01
-3.233614366270929907e-01
-4.213008533809391998e-01
-5.293568159132414630e-01
-6.058349258143512772e-01
-6.251732673682072194e-01
-5.645036320820849829e-01
-4.217399821626087175e-01
-2.423040077611159637e-01
-9.523740789795773209e-02
-3.100820898689778116e-02
-7.016469801023997310e-02
-1.984002221674552868e-01
-3.621340801234220752e-01
-5.024068405669565029e-01
-5.894306891091312117e-01
-5.801442568884440654e-01
-3.576250296881807733e-01
1.806931564274060209e-01
9.060777581566263894e-01
1.428766855445749551e+00
1.420220252087854851e+00
9.467186753483797235e-01
4.167555565687790509e-01
2.118022336186483612e-01
3.862661285284795798e-01
7.115557723502202725e-01
9.574994091380670813e-01
1.056892423148502402e+00
1.037497533577144138e+00
9.273398910039211129e-01
7.476755692592360614e-01
5.218234192833481888e-01
2.696389983217170050e-01
1.748007701858084531e-02
-1.844744376719922585e-01
-2.772902561200727423e-01
-2.443186593382112581e-01
-1.353131097019792672e-01
-2.417371498192843332e-02
4.173801360208841127e-02
4.200038809510191207e-02
-3.561368471571059457e-02
-1.829299216455700372e-01
-3.484293504503930827e-01
-4.565771003373149117e-01
-4.640033269200936616e-01
-3.884817034243838174e-01
-2.701529908087081377e-01
-1.108705060637625861e-01
1.064568894582568620e-01
3.189941100413118402e-01
3.729383607138335721e-01
1.749590525674944164e-01
-1.877374119093812022e-01
-5.236759946458409143e-01
-6.951935776834086145e-01
-6.826794845437320625e-01
-5.460066634328164525e-01
-3.649362097278332495e-01
-2.074425572764173054e-01
-1.204864765859346154e-01
-1.209865177399204739e-01
-1.929327781604922853e-01
-3.010471143663941418e-01
-4.046488386332987020e-01
-4.645239992476718482e-01
-4.523313499204146826e-01
-3.639109417852083861e-01
-2.294588776926664575e-01
-1.042772478546586112e-01
-3.818929024116789195e-02
-5.248628824369219043e-02
-1.383600692220852968e-01
-2.620155808959189758e-01
-3.716239898343778880e-01
-4.176499795626399392e-01
-3.873055042383169999e-01
-3.120805854999555429e-01
-1.957428470138112275e-01
6.808304044457849646e-02
5.979478028014498792e-01
1.264557781817247317e+00
1.648541282315983070e+00
1.420340132392114985e+00
7.248030547109155508e-01
6.817236533197595927e-02
-1.556300845861911253e-01
5.465853999973202537e-02
4.418904924204331564e-01
7.604615077893918107e-01
8.967515690368169645e-01
8.472958078190901965e-01
6.655018637948399984e-01
4.180826966313339055e-01
1.601363240206925553e-01
-6.618204437823706210e-02
-2.240089527999441776e-01
-2.823783294380618480e-01
-2.280526146656721986e-01
-8.355605678473115860e-02
8.182811971957071329e-02
1.730764828490294338e-01
1.283207579499111295e-01
-3.098930454441959845e-02
-2.135127583099438731e-01
-3.273788905516968328e-01
-3.412376285602995996e-01
-2.824431386968607183e-01
-1.875258194442956938e-01
-7.137672273915970922e-02
5.754718487175425334e-02
1.717967892160550680e-01
2.223692035869832273e-01
1.584720420578040190e-01
-3.787933409933583878e-02
-3.148457372021052358e-01
-5.544438601213148576e-01
-6.470054226720085566e-01
-5.771337402733272004e-01
-4.273994350162558242e-01
-3.009216389159131144e-01
-2.506585037874924926e-01
-2.637944179807222844e-01
-2.849830387166157886e-01
-2.731365926308484404e-01
-2.595539132789902448e-01
-3.109643214980845061e-01
-4.159274918599203397e-01
-4.698486206744804106e-01
-3.961532792947164427e-01
-2.287748102004664441e-01
-6.463833954308707830e-02
1.706545210957776532e-02
-1.816666824805150682e-02
-1.584404742287293666e-01
-3.311744362073373860e-01
-4.274845757146748526e-01
-4.053824537848775833e-01
-3.486412205793294472e-01
-3.434415013438555375e-01
-3.046028948988784846e-01
-2.219722580234286674e-02
5.562347891991750171e-01
1.137454591080553135e+00
1.308703939729661148e+00
9.823299320293609194e-01
4.879036673303482896e-01
2.143197396926312948e-01
2.935785390936317962e-01
6.078371950508415500e-01
9.529213396799554037e-01
1.167807925767710087e+00
1.186861799645092974e+00
1.027706764258202954e+00
7.507009299205995578e-01
4.318536426241103010e-01
1.498400804813567189e-01
-4.046161118036161602e-02
-1.337809021482408434e-01
-1.579427990773268065e-01
-1.341525704186877221e-01
-7.400608703240768582e-02
-9.727840384936316948e-03
3.792292767917454510e-03
-6.804372694630442253e-02
-2.063216699033450507e-01
-3.564197517912188751e-01
-4.683267836830541375e-01
-5.115265796960428712e-01
-4.623995152418151067e-01
-3.040892475853902988e-01
-5.846492767105299082e-02
1.882956836907090370e-01
3.118244651731878481e-01
2.229294230560942836e-01
-5.795607514230298463e-02
-3.915766302526136333e-01
-6.157041844815906995e-01
-6.742051298919922164e-01
-6.303226531626434648e-01
-5.531934968844141043e-01
-4.547989342505160959e-01
-3.516203049749757059e-01
-3.048856152981704870e-01
-3.569946699831348935e-01
-4.731353356823818634e-01
-5.742879091373273015e-01
-6.064027495161121717e-01
-5.662756914753507287e-01
-4.841517221791402092e-01
-3.983552786556223135e-01
-3.284074153467219648e-01
-2.631829131422955825e-01
-1.953923961411183630e-01
-1.618651217347011340e-01
-2.159951200689920747e-01
-3.528783364911419751e-01
-4.850967856257636379e-01
-5.256375454644601763e-01
-4.899998181280943998e-01
-4.432929865186648333e-01
-3.228617528273080017e-01
6.494680016741513628e-02
7.595812858839696702e-01
1.427196591412670967e+00
1.583403724196960294e+00
1.083096143151129231e+00
3.062507438602463106e-01
-1.974457719341541351e-01
-1.851846019772451779e-01
1.790873936213802642e-01
5.781206128679654555e-01
8.088437526549279166e-01
8.589451796782316961e-01
8.115728352543053470e-01
7.094067736737134089e-01
5.126550920603669681e-01
1.950002779847547774e-01
-1.404758211906651233e-01
-3.086696266016533685e-01
-2.388664447987434991e-01
-6.204528587079963242e-02
5.300763399630536304e-02
8.335883145006697803e-02
1.015602059284998887e-01
1.235723081691838809e-01
1.007763711472946105e-01
9.796899166199243142e-03
-1.146830275173398445e-01
-2.067292160625498754e-01
-2.115404982983618842e-01
-1.101494925200414282e-01
9.519759030491165008e-02
3.640221104630811388e-01
5.617905412526802422e-01
5.171028986066970035e-01
1.982685247087583869e-01
-2.207642229124656685e-01
-5.158802789604211014e-01
-6.057031534913709381e-01
-5.677422174512966047e-01
-5.029509624662529266e-01
-4.290242684438857479e-01
-3.028488008721154090e-01
-1.279448250438479373e-01
-1.283609175325726992e-02
-7.461394994560870131e-02
-2.883506048045285097e-01
-4.901765268966756794e-01
-5.326467908660594830e-01
-4.127942670437662609e-01
-2.551482116070062922e-01
-1.706731283913876518e-01
-1.554631896968255433e-01
-1.541611587660617899e-01
-1.607204371842709256e-01
-2.025463176852604907e-01
-2.819558046619285441e-01
-3.840897702719147655e-01
-5.042578794461882730e-01
-6.125692164775542459e-01
-5.979191767785000389e-01
-3.235294722923426347e-01
1.935778568274190703e-01
7.061266352871317098e-01
9.421741570099989582e-01
8.641410674821156102e-01
6.529122261801658667e-01
5.096085544043502669e-01
5.339622273581182688e-01
6.998825915923990726e-01
8.879040187988607169e-01
9.812204444182206498e-01
9.551493156193178180e-01
8.743495096765749874e-01
7.986909769619219279e-01
6.999018822916749372e-01
5.068512558000325408e-01
2.301118746206990140e-01
-1.473250645854873829e-02
-1.251311933613812322e-01
-1.106863202590126771e-01
-4.953797868498972801e-02
1.802520320785407082e-02
1.045380636035553867e-01
2.010828730782731610e-01
2.496075411217595907e-01
2.046827322262400328e-01
8.563397813899192856e-02
-5.345299387945329217e-02
-1.817184249466709811e-01
-2.828691158353268120e-01
-3.001137051252842913e-01
-1.574991424826205355e-01
1.273687162463036648e-01
3.901616599497271798e-01
4.302577600178056905e-01
1.900515027764268783e-01
-1.903781975893421297e-01
-5.081508336914862811e-01
-6.647511304440251179e-01
-6.881405081015816716e-01
-6.387437890911500382e-01
-5.466663081651567113e-01
-4.300177119817647498e-01
-3.302766622981856415e-01
-3.042114293674562098e-01
-3.751725818286191227e-01
-4.998151815063305858e-01
-5.996011249876038729e-01
-6.255792921888206903e-01
-5.791748877009462726e-01
-4.817892802445033484e-01
-3.549338733279153724e-01
-2.299613899869991374e-01
-1.458649424950463624e-01
-1.225990899109763027e-01
-1.495768489471820673e-01
-2.059782538119024897e-01
-2.798740988298583088e-01
-3.683839796982891213e-01
-4.685107472874767143e-01
-5.417795261930444806e-01
-4.546378632383012985e-01
-1.409378642351015801e-02
7.956188683695262220e-01
1.594249561103056712e+00
1.817868716865401968e+00
1.285630391733437294e+00
4.334273918868284947e-01
-1.290098187400559593e-01
-1.747928905153134926e-01
9.896554208386582063e-02
4.097169318546216021e-01
6.214753790943456924e-01
7.264544675285935504e-01
7.412761068474907900e-01
6.589116529082239548e-01
4.713723298658541450e-01
2.085888622401856352e-01
-5.854825061469529079e-02
-2.545824640643141179e-01
-3.377705462498130640e-01
-3.087412517034145987e-01
-1.977571627477825722e-01
-5.273430442227468318e-02
7.493708761400891261e-02
1.495639299183638693e-01
1.529298439023177025e-01
7.338015443938764037e-02
-7.784541879594807090e-02
-2.429060653291684746e-01
-3.495694947179435186e-01
-3.660633312239771620e-01
-2.952672292243613827e-01
-1.373405552672794516e-01
9.491401452156567053e-02
3.209907764559328802e-01
3.957835999634194968e-01
2.200684966295455847e-01
-1.463352875073892223e-01
-5.204196704885253322e-01
-7.452974992611698379e-01
-7.801391762864611223e-01
-6.767374043227647462e-01
-5.179947327315026495e-01
-3.725435828594829690e-01
-2.757174413622406339e-01
-2.378745478793944101e-01
-2.665735241585346915e-01
-3.670935960227330042e-01
-5.083055071858619822e-01
-6.141968154377438482e-01
-6.228321067597071270e-01
-5.380264018900458023e-01
-4.072662732169129995e-01
-2.766164254607536566e-01
-1.815127642376554717e-01
-1.542006520642566214e-01
-2.095894725132137204e-01
-3.186436262869067892e-01
-4.198920601083669935e-01
-4.812057786750826294e-01
-5.266513686742890776e-01
-5.509853533919167878e-01
-4.177820385169226380e-01
4.873609384356578089e-02
7.816363029846680188e-01
1.373417178165390551e+00
1.428588489609282863e+00
9.872145882455780619e-01
4.627949062928801705e-01
2.141821460403217081e-01
3.032436942406379621e-01
5.875141081385027997e-01
8.862663001266011253e-01
1.063386321296908577e+00
1.062910279303704186e+00
9.135960639230447100e-01
6.791400391857040919e-01
4.052343354949470844e-01
1.320211965172147228e-01
-7.943934748391165424e-02
-1.800211568504302695e-01
-1.730804866550665622e-01
-9.743490392122849952e-02
8.225380467065439294e-03
1.118797038093231055e-01
1.817824571028527902e-01
1.864413428943068607e-01
1.053783381679608833e-01
-4.300184422505389653e-02
-1.923365167207388704e-01
-2.801888304682203512e-01
-3.015886520918510949e-01
-2.799467653777388820e-01
-2.033465212799016320e-01
-3.478694589068945242e-02
2.081249230470312572e-01
4.068973520459799320e-01
4.036214452809583353e-01
1.414370090851591599e-01
-2.568935337627961113e-01
-5.828596552766668326e-01
-7.101063257555179087e-01
-6.534435079880387409e-01
-5.024504169439124590e-01
-3.447117139450591727e-01
-2.392332196457355176e-01
-2.135850260581458882e-01
-2.613952649333328715e-01
-3.509038491031038487e-01
-4.426727470240333084e-01
-4.994947873675588124e-01
-4.917388027937155126e-01
-4.113808457597195600e-01
-2.848483360751525861e-01
-1.588365900143848541e-01
-6.841142167455256662e-02
-3.010161656769887867e-02
-5.852147923500438526e-02
-1.593618407194877518e-01
-2.970058911856013895e-01
-3.960796221886627166e-01
-4.053916337894306610e-01
-3.552849095788289668e-01
-3.069412915298725952e-01
-2.134127979314076329e-01
1.124226624040737810e-01
7.653528639211841789e-01
1.466299343297143398e+00
1.695012101332849186e+00
1.229990891491500316e+00
4.329388727011694860e-01
-1.100913233999178814e-01
-1.240617898262188767e-01
2.329223252997793536e-01
6.397580476526927296e-01
8.937764835121544404e-01
9.700150855384400694e-01
9.074184589787496202e-01
7.182987935816598224e-01
4.183769254647717317e-01
7.936142877731053313e-02
-1.959587892157002575e-01
-3.320665916862600153e-01
-3.029078985466072682e-01
-1.345601122970404018e-01
8.540494695346924348e-02
2.294179773143411871e-01
2.092634936447925198e-01
4.854590190273625622e-02
-1.391371802279588732e-01
-2.519970920854383567e-01
-2.713153050791802801e-01
-2.349105037435999521e-01
-1.806321775091057069e-01
-1.427864951203644261e-01
-1.470639800500074257e-01
-1.499280198088784877e-01
-5.500543854231529362e-02
1.227705044749694413e-01
1.973919107328740985e-01
2.334052275657757039e-02
-3.105476872335913852e-01
-5.788392074609177707e-01
-6.434489081841948677e-01
-5.353223059836946796e-01
-3.742163329344538880e-01
-2.580771837781439815e-01
-2.196693412702083459e-01
-2.519071248493056081e-01
-3.389523616290742725e-01
-4.559610851136387533e-01
-5.643187572903813898e-01
-6.283172431667074509e-01
-6.293980662914052671e-01
-5.613987387280638952e-01
-4.357423320228145380e-01
-2.939631587254983303e-01
-1.866946799415518388e-01
-1.414296230620211148e-01
-1.655159441060173875e-01
-2.550419927062709813e-01
-3.819475455585638612e-01
-5.005925058377367343e-01
-5.805715374405583384e-01
-5.942012737447742721e-01
-4.456573659984143232e-01
1.153532385094532646e-02
7.647429010335708988e-01
1.479570154995219822e+00
1.714875676889512812e+00
1.346405898772406795e+00
6.857609887180942110e-01
1.785946221211707208e-01
6.041453805684752348e-02
2.775990529419900543e-01
6.249805962817976956e-01
9.057080046378914728e-01
1.015806690522112588e+00
9.558248915768323695e-01
7.834927099789423810e-01
5.444572387185664386e-01
2.584605840728159132e-01
-2.836478477923274136e-02
-2.276077161098111479e-01
-2.794281835761627253e-01
-2.131723381373551995e-01
-1.140374188783087606e-01
-4.521132249517679363e-02
-1.729643416242083315e-02
-2.019359633195797268e-02
-5.660712599262539280e-02
-1.380749479239193334e-01
-2.601807372109364858e-01
-3.804470550450771982e-01
-4.302610323438645912e-01
-3.718864326225763683e-01
-2.367761502210054547e-01
-9.240163867908493533e-02
1.757457029801460027e-02
8.857115893078559843e-02
1.203051404763745974e-01
8.979080535376793293e-02
-2.383960463984913583e-02
-1.945472284961309861e-01
-3.485214517754433028e-01
-4.141626702542965388e-01
-3.686585635125465554e-01
-2.447056495809052656e-01
-1.143006679555145233e-01
-5.844668296632824639e-02
-1.153890210716865400e-01
-2.516897306613543606e-01
-3.974853878581051103e-01
-4.977583342048942927e-01
-5.233149613118345256e-01
-4.626223438053523873e-01
-3.308545319719103373e-01
-1.783116629922534002e-01
-6.760452777067833818e-02
-3.616524187903705223e-02
-8.174923896714701710e-02
-1.779258124869425861e-01
-2.951062419617282995e-01
-4.018261678443222351e-01
-4.545298454494599016e-01
-4.134303654480404600e-01
-2.870034451454592239e-01
-1.460148475634075460e-01
-5.632370427086247355e-02
2.748193756170749791e-02
2.638892106611074873e-01
7.277871375844351398e-01
1.200533139184679188e+00
1.292875147725906837e+00
8.762169289618988444e-01
2.921898372833393043e-01
1.439686145162866887e-02
1.829153698619597479e-01
5.738933047738857818e-01
9.038135671231388724e-01
1.024525812665656899e+00
9.166892937186008616e-01
6.433377606927246362e-01
3.177116806512601532e-01
6.120239476658591304e-02
-4.631264309146986002e-02
-6.214855109695865271e-03
1.020626171840684215e-01
1.826245458930867704e-01
1.892569632939027635e-01
1.317745812443188169e-01
3.249365938940093623e-02
-1.010946034420892869e-01
-2.526759439793088147e-01
-3.735727102441560032e-01
-4.145479851038307850e-01
-3.731339523997861396e-01
-2.896156167007266635e-01
-1.956540550209679152e-01
-7.688663280123374244e-02
9.201745124138607790e-02
2.630494488330716862e-01
3.025781318486664984e-01
1.137326033598046460e-01
-2.353083241508373835e-01
-5.450963204862643297e-01
-6.523260869011900942e-01
-5.491054985993908399e-01
-3.527209523410499981e-01
-1.923545657047060764e-01
-1.316079809532698097e-01
-1.713967117680355312e-01
-2.874609273444145296e-01
-4.439129977586618869e-01
-5.870449836306113056e-01
-6.598733417443873872e-01
-6.351077484664162665e-01
-5.269564524232902558e-01
-3.738689644216752761e-01
-2.225683113397497193e-01
-1.224227901701698262e-01
-1.084555082487347472e-01
-1.795561616989038711e-01
-3.018407319772644648e-01
-4.255259197984290753e-01
-4.955569770420822362e-01
-4.814462540753601250e-01
-4.167222075139247472e-01
-3.679232875461703745e-01
-3.159920522665988218e-01
-9.313426620115264343e-02
4.439608089883788078e-01
1.113534580973077226e+00
1.440578203411299940e+00
1.152502635391743580e+00
5.160076953078960305e-01
4.278772823477937359e-02
-1.107135565146123019e-03
2.958393977435707090e-01
6.993665391632067907e-01
1.011162676846198538e+00
1.121236026733358315e+00
1.015556506186008789e+00
7.687932076636723178e-01
4.878025171499832946e-01
2.385170251327713431e-01
3.991939919031393946e-02
-8.795747882637372506e-02
-1.174489627104554068e-01
-5.521220712822243887e-02
4.331665249873787454e-02
1.045057893497781804e-01
7.644788453548403973e-02
-4.321462053110360080e-02
-2.075132727185557135e-01
-3.500969134728095233e-01
-4.168387203991671397e-01
-3.880620398481207656e-01
-2.919829837814783002e-01
-1.750095967596395630e-01
-4.193976743131835189e-02
1.336174065050436677e-01
3.174365656567674776e-01
3.841942344635093654e-01
2.295780942513218903e-01
-1.010955803323638491e-01
-4.382833790160540754e-01
-6.369278694967539511e-01
-6.659414959433559433e-01
-5.740797349816656459e-01
-4.282074890738971629e-01
-2.904272204463638762e-01
-2.134378078457876138e-01
-2.292805059434902537e-01
-3.301008092259120064e-01
-4.591499573321222161e-01
-5.424543102296475183e-01
-5.412164903141627459e-01
-4.622816337250676422e-01
-3.309813430542421497e-01
-1.859177019245662477e-01
-8.976126650206921187e-02
-9.321005515252475671e-02
-1.767535776450175344e-01
-2.752806239885461359e-01
-3.568010115967941154e-01
-4.239578210235561140e-01
-4.600295464483503127e-01
-4.271237460816041387e-01
-3.148996491423834421e-01
-1.656806376613189913e-01
-6.686544202282358393e-03
2.500042119490437642e-01
7.160591852284794445e-01
1.255901239156138161e+00
1.466087579469465441e+00
1.091280244151747292e+00
3.723334494648238291e-01
-1.612395427448286289e-01
-1.941175102707126954e-01
1.631930829259835292e-01
5.815569465261147819e-01
8.149844461921452732e-01
8.224294853626853419e-01
6.856743205598571089e-01
4.688498067599135011e-01
1.954999615451066264e-01
-6.405966016734411517e-02
-1.887559524978198455e-01
-1.369391085536917629e-01
-9.451863140452460010e-03
6.733760865507554261e-02
7.255371620779585418e-02
6.583850306341092196e-02
7.243118025639549984e-02
4.017278515965518049e-02
-8.098041477457869342e-02
-2.314001448402871475e-01
-2.727559441145152030e-01
-1.655145211546307227e-01
-2.739168067057905914e-02
5.208758983449060520e-02
1.426155501090383970e-01
3.273936916873328440e-01
5.190050773114723848e-01
5.184854242468569518e-01
2.358852754970151011e-01
-1.911861793634654361e-01
-5.075624500678720397e-01
-5.705458815761281777e-01
-4.534210533612635929e-01
-3.114304663142318796e-01
-2.174157799511497458e-01
-1.798763607058199987e-01
-2.161582398663171867e-01
-3.260568478195164377e-01
-4.675155168882536572e-01
-5.897332727460624646e-01
-6.534172213240982963e-01
-6.419044445933003162e-01
-5.595658550185899083e-01
-4.041499525330533027e-01
-1.835733231684167077e-01
3.172508800708261772e-02
1.319550831039262018e-01
5.781847148145484450e-02
-1.550004465156891720e-01
-4.013078086670857081e-01
-5.634047487698748968e-01
-5.915175329941553262e-01
-5.474369191863509565e-01
-5.084938249643382591e-01
-4.048183734653248433e-01
-4.964584080305174674e-02
5.656864479731715800e-01
1.096566595078325879e+00
1.159609640769289740e+00
7.829153601387266459e-01
3.564744826341473827e-01
1.988747140901475363e-01
3.346773312067720108e-01
6.154916863709850583e-01
8.978891753495847894e-01
1.091426307292460152e+00
1.125765833864666776e+00
9.649512178047601196e-01
6.606822532771442491e-01
3.310682759018976351e-01
7.209433438799595084e-02
-8.618950827889021449e-02
-1.476262772006013968e-01
-1.138910013149646572e-01
-8.666727547249480912e-04
1.338591074235899181e-01
2.187351178761441362e-01
2.178097949451660298e-01
1.311454890828344100e-01
-2.747541174544148451e-02
-2.175501203778797965e-01
-3.599800709288389355e-01
-3.856786621343624710e-01
-2.970270802056197978e-01
-1.506434186099640526e-01
1.760625223969309455e-02
2.083877606988820130e-01
3.818365898364705080e-01
4.150014662848016678e-01
2.070850014285417484e-01
-1.768621646247532653e-01
-5.298423827857995372e-01
-6.802010745483008103e-01
-6.157883615827738355e-01
-4.532773922740199191e-01
-3.213619206061998357e-01
-2.703698975337598953e-01
-2.791958909010612833e-01
-3.238324115965423022e-01
-4.059063593921969915e-01
-5.181508534634013952e-01
-6.150185018117906299e-01
-6.366081046091540685e-01
-5.587135222453344374e-01
-4.088548481687022673e-01
-2.384566205095879909e-01
-9.670920880517816509e-02
-2.347418016243185343e-02
-3.803846582695508127e-02
-1.259590196029178877e-01
-2.473037891951185285e-01
-3.594556934081460930e-01
-4.305915917280010441e-01
-4.410788909152868476e-01
-3.837531617399135286e-01
-2.545557822690893146e-01
-2.287718584769450961e-02
3.581820661197781530e-01
8.385488445573372474e-01
1.180926982972948736e+00
1.108487627211302895e+00
6.195707349510929385e-01
7.649802719489297298e-02
-1.232083486140216344e-01
8.480253256783680527e-02
4.641701501254121842e-01
7.717085837871684451e-01
9.096835644637806251e-01
8.770957580669247466e-01
7.037380980641257944e-01
4.396465340595099303e-01
1.551437051027303449e-01
-7.688328296990491750e-02
-2.024507556390673646e-01
-1.902421338826709440e-01
-3.726686051933147947e-02
1.888475898255833341e-01
3.432839634549281205e-01
3.216275466070113165e-01
1.686394578048495685e-01
6.297670265187333034e-03
-1.053215455031833725e-01
-1.789881924117217582e-01
-2.222151580200271703e-01
-2.149430430381974733e-01
-1.543857463116933837e-01
-7.188469187105694935e-02
1.191193008516466464e-02
1.111531744289390167e-01
2.146776322991701125e-01
2.339090456778335769e-01
8.061486776838518165e-02
-2.100622962326752219e-01
-4.932471928691062324e-01
-6.412460819901427689e-01
-6.202770343412381537e-01
-4.785350817299714454e-01
-3.077460471849370327e-01
-1.983106126966004690e-01
-1.955321688188475515e-01
-2.902316184617405037e-01
-4.395558716270264177e-01
-5.818631846096984361e-01
-6.524160059474537476e-01
-6.189940204429561499e-01
-5.042718439075715153e-01
-3.593807213200025941e-01
-2.211964474379593815e-01
-1.115548100101290685e-01
-6.588974652877582772e-02
-1.247440979607049860e-01
-2.828785070552154446e-01
-4.657827961920201210e-01
-5.768269532400891464e-01
-5.771688483103254441e-01
-5.142761320319392260e-01
-4.416980846042016795e-01
-2.873897042699880555e-01
1.237394202436532531e-01
7.817084320239158224e-01
1.295917409748296167e+00
1.244707605255950478e+00
7.062903129257989132e-01
1.839548922155953281e-01
4.613604979152689800e-02
2.653429986295651188e-01
6.194873746905843470e-01
9.275309023540816433e-01
1.103986018836105476e+00
1.120012195537764210e+00
9.739464091027820736e-01
6.973838315441018842e-01
3.626463587401901334e-01
6.096276489160069867e-02
-1.328817719641862127e-01
-1.876178030276823283e-01
-1.257874301511791582e-01
-8.362810952036198175e-03
9.850213308723411443e-02
1.482773752667967126e-01
1.192717997362878479e-01
1.417832829806978112e-02
-1.346148046844486412e-01
-2.712790716018260162e-01
-3.513978204166289809e-01
-3.687659052699351903e-01
-3.347408691713281148e-01
-2.519206112912567019e-01
-1.280755504544048573e-01
1.199803579441916651e-02
1.439991475211073180e-01
2.384726821801348429e-01
2.343869898422057396e-01
7.348215653308595718e-02
-2.098901402722234133e-01
-4.681624262233601841e-01
-5.535606130707088068e-01
-4.515480422317981191e-01
-2.819871252992882660e-01
-1.775146455018098979e-01
-1.848342256488549606e-01
-2.730086716231888144e-01
-3.901965297628272045e-01
-4.943443361732872132e-01
-5.597030343211718550e-01
-5.745141924585772664e-01
-5.318087965748538037e-01
-4.284654692284033395e-01
-2.772664020704784238e-01
-1.189460952415806877e-01
-1.771364493376422974e-02
-2.520089451077689099e-02
-1.344458465081771747e-01
-2.813729263346110288e-01
-3.985331231620756198e-01
-4.480863458840481650e-01
-4.072683648861438188e-01
-2.754124236363252320e-01
-1.150918690807413991e-01
-1.855869168633011643e-02
3.320916302242635232e-02
2.263148127885573069e-01
6.949860928764652890e-01
1.231429964337685146e+00
1.389143052701570014e+00
9.831991520458613909e-01
3.533478151871930484e-01
1.158520077010569138e-02
1.352404747485049796e-01
5.014556995564547481e-01
8.032657148483663967e-01
9.031899238171834376e-01
8.282059527095367857e-01
6.432576546920549809e-01
3.904959573934583816e-01
1.238275839498036018e-01
-7.080795462275910057e-02
-1.293155226716570239e-01
-6.338359370195947862e-02
5.506108611281394088e-02
1.477659821871026014e-01
1.646688740005487483e-01
8.826020279177965167e-02
-6.663684517027601562e-02
-2.458289594385139887e-01
-3.707054758614591328e-01
-3.897503135764484594e-01
-3.149029746020424181e-01
-2.011193870743563927e-01
-1.019160938020597512e-01
-4.019429136678835668e-02
-3.685069843851890292e-04
4.865606830083972489e-02
1.021690844683867672e-01
9.630219819935580128e-02
-3.098725527126087315e-02
-2.477091369735570925e-01
-4.310078366727079224e-01
-4.786020693515237734e-01
-3.964855283596377400e-01
-2.750571039585740230e-01
-2.025470357507919150e-01
-2.093923450610680193e-01
-2.831416865718207054e-01
-4.042798966545046446e-01
-5.402223478423160419e-01
-6.318538165958753616e-01
-6.284648700388546505e-01
-5.315123644710983974e-01
-3.891518857650684282e-01
-2.537587961720029206e-01
-1.537506000370491288e-01
-1.073593416173389409e-01
-1.404266784275960411e-01
-2.590162554824199104e-01
-4.120392343541715019e-01
-5.170347941585626828e-01
-5.328865070659007941e-01
-4.807377159179686554e-01
-3.778793351351895091e-01
-1.836278762751540339e-01
1.580758398720902291e-01
6.502306261967053524e-01
1.216962323413895097e+00
1.667423516837035491e+00
1.722721100488082024e+00
1.267576594737880313e+00
5.874443680968914894e-01
1.599259964598024053e-01
1.901970874415176149e-01
4.940349502484638333e-01
7.834467660959409940e-01
9.011487341986156308e-01
8.186316933669296469e-01
5.731828493595942930e-01
2.514345847293180114e-01
-3.180902659666311888e-02
-1.896389245247852295e-01
-2.091231558578883210e-01
-1.410351412764482559e-01
-4.783604709429136598e-02
3.163852848241305304e-02
7.433518079902880216e-02
5.533219761875147330e-02
-3.817988227435376025e-02
-1.764551554532576283e-01
-2.985864362158173191e-01
-3.632698106945579375e-01
-3.653063708971561185e-01
-3.060961150080537818e-01
-1.877979825115072277e-01
-4.591421919595841533e-02
4.904114192747328210e-02
4.856019860764658469e-02
-2.734228060946126276e-02
-1.153883457043179128e-01
-1.713446930628315379e-01
-1.968614011979297196e-01
-2.133501143637885067e-01
-2.252351286054952439e-01
-2.177434422130598846e-01
-1.866974975915360047e-01
-1.572300216674453466e-01
-1.676807146957252359e-01
-2.392688285859246311e-01
-3.598308264108352472e-01
-4.894836218648561110e-01
-5.815732874285328702e-01
-6.050468040463107267e-01
-5.518213716817272907e-01
-4.317808455546250923e-01
-2.739842539334808036e-01
-1.281392960543948356e-01
-4.744842951666660563e-02
-6.263360819309193861e-02
-1.655592698799589479e-01
-3.076201278695600005e-01
-4.207994518905325831e-01
-4.558533906697253002e-01
-4.030535536041840450e-01
-2.817051559914379721e-01
-1.293838749876583261e-01
-4.567248745044908895e-03
3.387549990083192630e-02
-4.945660811787017108e-03
9.202294030786484225e-03
2.437802162897827751e-01
6.932861871642338469e-01
1.092652223321529004e+00
1.139826638399428882e+00
8.141858320978002661e-01
4.174762886088500546e-01
2.851500409944392467e-01
4.835816942135589547e-01
7.945482463281989816e-01
9.497179159950916993e-01
8.452586390371088498e-01
5.706922464460979505e-01
2.954455964483934660e-01
1.382953581515874997e-01
1.073903621482323323e-01
1.224515635513851730e-01
9.440691995274569370e-02
1.503604093294288666e-02
-4.685753006371778939e-02
-6.186467799393885469e-02
-8.905387297704747684e-02
-1.718875394674834467e-01
-2.644385316349670001e-01
-2.970810876484274998e-01
-2.571093307496467029e-01
-1.848150060717730914e-01
-1.223934691717560863e-01
-8.285564011276103091e-02
-5.787567971647386567e-02
-3.571006200244700168e-02
-1.353640792581376449e-02
-1.438127075298497974e-02
-8.239106386201473786e-02
-2.278763367563233222e-01
-3.826636094849247272e-01
-4.446431897179096149e-01
-3.757156453284397069e-01
-2.405511505590679500e-01
-1.431408128629052534e-01
-1.442059902651569303e-01
-2.487048732496157100e-01
-4.278247480250357282e-01
-6.133372690294091045e-01
-7.091183113410904904e-01
-6.597854947720777075e-01
-5.019605402581150955e-01
-3.284512426626416404e-01
-2.108183731623996249e-01
-1.633768384673695839e-01
-1.651947049459393801e-01
-2.030187281546175504e-01
-2.897616892910984676e-01
-4.308749826893085166e-01
-5.744841762150858511e-01
-6.210914415803722166e-01
-5.034005846069854462e-01
-2.672467538234237772e-01
-6.954798281407531535e-02
-4.019298196309482180e-02
-8.739736996398309032e-02
8.805229920154604428e-02
6.311767614685940275e-01
1.225390693162281108e+00
1.376114884090888335e+00
9.994581035795029322e-01
4.851736182145404142e-01
2.062528899306972086e-01
2.254485869121554131e-01
4.331936179078197391e-01
7.044387510326370894e-01
9.086521259671196393e-01
9.352470994621318034e-01
7.566665855522870521e-01
4.505776995938796659e-01
1.669089481151456444e-01
3.398721060750340556e-02
6.146137385981970125e-02
1.546399484269734281e-01
2.174010621571934587e-01
2.118073709499921631e-01
1.393834885982745686e-01
1.006051942048099765e-02
-1.560703268243996134e-01
-3.121228395111987353e-01
-3.991210056986981281e-01
-3.918690206580535129e-01
-3.144288220858917349e-01
-2.057444015604872889e-01
-9.308198947791199163e-02
1.818356612566521952e-03
6.202750015541955847e-02
8.775764788157608409e-02
8.518625932070421347e-02
3.657906568324997831e-02
-8.733798163626657618e-02
-2.599282590515580860e-01
-3.703338043873481977e-01
-3.140615831627123766e-01
-1.178899229068194054e-01
6.792530531972759689e-02
1.121383165349576216e-01
9.109836141210133492e-04
-1.942049118869673685e-01
-3.859047909688811950e-01
-5.056083161583512231e-01
-5.224802814076693336e-01
-4.559933689789928968e-01
-3.564985866221841437e-01
-2.623847785358007778e-01
-1.871907310679311320e-01
-1.472667310327791523e-01
-1.671715719719520932e-01
-2.427849387379560908e-01
-3.326909472449081639e-01
-4.005126549442810102e-01
-4.330543057175626487e-01
-4.115900576661987165e-01
-3.127406680558470486e-01
-1.620864637743485992e-01
-4.869645043093163289e-02
-3.170161891654665887e-02
-1.768826771110349264e-02
2.097497099867119408e-01
7.357531775232325488e-01
1.287829216637929486e+00
1.417856259065010782e+00
9.965384920068731667e-01
4.015637972111332221e-01
1.196769998801519158e-01
2.727023541671145246e-01
6.131994259819792958e-01
8.515413400770219798e-01
8.695632218741180530e-01
7.054875336577269840e-01
4.645014630765631480e-01
2.478697359513043486e-01
1.072405904062397053e-01
3.832019123654119286e-02
1.717909630457530729e-02
3.411422243136302823e-02
7.943827493041140386e-02
1.113539438993799841e-01
7.058805710679552647e-02
-6.357842389371484715e-02
-2.428244738062900476e-01
-3.836368716569906745e-01
-4.305361735305821558e-01
-3.850458343515892889e-01
-2.822351386217124558e-01
-1.547621197186947184e-01
-3.089330213987907803e-02
5.133138322475380017e-02
6.994625823066646930e-02
5.329089010382885572e-02
3.846787910049653814e-02
1.159716843277738309e-03
-1.139179471216490852e-01
-2.887688637677202630e-01
-4.164286753754539161e-01
-4.111100718556144895e-01
-3.019403702615449658e-01
-2.029384166980336413e-01
-2.102066052860732948e-01
-3.330222491861323797e-01
-5.013053168471479637e-01
-6.260598475479696168e-01
-6.611759828480930912e-01
-6.142313868383177944e-01
-5.110429285326305582e-01
-3.747265132550974820e-01
-2.348937966144177270e-01
-1.313468040169616657e-01
-1.042999340683929549e-01
-1.760999784220344533e-01
-3.246857728944065324e-01
-4.800818682546919014e-01
-5.662561274555477642e-01
-5.468678979061616374e-01
-4.308516780792135403e-01
-2.641976105941538644e-01
-1.354673432810168665e-01
-1.319947104375674418e-01
-2.123754747619507055e-01
-1.578374817191871837e-01
2.137983767034402904e-01
7.549396902584293301e-01
1.061377945188348493e+00
9.140619229612708674e-01
5.175371637054797525e-01
2.509177367636976630e-01
3.049555575586233580e-01
5.905679798121569180e-01
8.877804824479682555e-01
1.014695826623307484e+00
9.068384720971601753e-01
6.274368554157289113e-01
3.207580605463653534e-01
1.141939390467704984e-01
4.436226858351475372e-02
6.993667861320304602e-02
1.316483445663047536e-01
1.880111584768313915e-01
2.113016546451928768e-01
1.778383931428683395e-01
7.791498476367555992e-02
-7.033568023317443574e-02
-2.245438381609040635e-01
-3.356476725512586579e-01
-3.700658751676121905e-01
-3.248162130689950522e-01
-2.209576851641171236e-01
-9.080542886987541529e-02
2.099124730385189611e-02
7.674080361038110309e-02
8.853316087188375927e-02
9.317771908734477637e-02
6.675895717584033606e-02
-5.706318082214115878e-02
-2.582896663447094010e-01
-4.077157886234922812e-01
-4.089021498646706609e-01
-3.042630694014841208e-01
-2.181315205535975799e-01
-2.304433001786101720e-01
-3.229252617595853581e-01
-4.302446841212597128e-01
-5.101280472450316905e-01
-5.518485284429400783e-01
-5.492041229633130017e-01
-4.912310137515490394e-01
-3.723095957173631620e-01
-2.180728437030382549e-01
-1.033898654745878665e-01
-1.029748365279753303e-01
-2.107274051754888800e-01
-3.536066672144671519e-01
-4.827312214219552922e-01
-5.801405645555084423e-01
-5.862807450091614969e-01
-4.374014480304398989e-01
-1.963842459863409662e-01
-3.404886138181428129e-02
-4.160776729189395728e-02
-1.265102370918210761e-01
-1.019017061795016166e-01
1.640032776421843363e-01
6.488646515570996032e-01
1.142055278707939214e+00
1.335279935874745583e+00
1.068712802473570145e+00
5.366964982494694114e-01
1.687779563103387614e-01
2.235012410440049002e-01
5.353733673762461898e-01
7.382041334578500758e-01
6.797390598531274364e-01
4.954130431708143045e-01
3.374119065582531496e-01
2.131734259646025087e-01
1.014744056382141518e-01
6.916370322865228459e-02
1.762623508130602701e-01
3.310955703363547831e-01
3.575437273305941965e-01
2.134108328340720007e-01
4.654814465329618761e-02
9.273789062058685612e-04
4.602174896184650643e-02
4.835132016113245779e-02
-4.237832309040194534e-02
-1.375204402355716393e-01
-1.261077813831020522e-01
-4.088448048427534287e-04
1.532530140909102168e-01
2.543455496353735357e-01
2.802757863275461281e-01
2.427366489158448437e-01
1.507620444964677398e-01
-1.037601556255351651e-03
-2.005326114495127876e-01
-3.826903870530398155e-01
-4.691654764834651825e-01
-4.398624529231905944e-01
-3.367649878683051101e-01
-2.245431298709220924e-01
-1.689089372485750862e-01
-2.142121045219795294e-01
-3.490427739761512438e-01
-5.029304973546193658e-01
-5.943334677813504330e-01
-5.846278958222105304e-01
-4.763435011481774728e-01
-2.752574352412027192e-01
-8.784424011418531797e-03
2.175244222703777708e-01
2.621780074758053858e-01
7.764641716688193418e-02
-2.410255363045732679e-01
-5.411915794067589935e-01
-7.163560919430358442e-01
-7.284783750122298951e-01
-5.853745826689107368e-01
-3.568211093907212028e-01
-1.756392495384197505e-01
-1.210236763535949278e-01
-9.496355308498014014e-02
8.525667356330471347e-02
4.306873010448341033e-01
7.040066751598705874e-01
6.774625950776417271e-01
4.144171541097291245e-01
2.090020076154433804e-01
2.783103986549306796e-01
5.890173171513072292e-01
9.476601610395477548e-01
1.163817934001958765e+00
1.135962823303453995e+00
8.794976879249415402e-01
5.140179671186771992e-01
1.866003505474635449e-01
-1.513063175016752214e-02
-7.855676809287377715e-02
-3.413170438148777769e-02
6.268418232459502248e-02
1.472841899541147415e-01
1.753555576850550635e-01
1.321986834281399237e-01
1.906296786898742379e-02
-1.423590001892998114e-01
-2.934568431260634602e-01
-3.591971423781457062e-01
-3.010159548616131442e-01
-1.485781528273843743e-01
1.607272136795261097e-02
1.110204549836835280e-01
1.110444356272518307e-01
6.493955198939541096e-02
4.997910359242529327e-02
8.563358017567766767e-02
9.141652102905989397e-02
-2.955097773201195710e-02
-2.551752148932807107e-01
-4.411899130880116426e-01
-4.713928225570313546e-01
-3.714787084392802696e-01
-2.629596904563105686e-01
-2.427449410322141676e-01
-3.190582847288596646e-01
-4.329067828624609260e-01
-5.212846037047265124e-01
-5.612702424188833472e-01
-5.587448489837265608e-01
-5.128944588227036805e-01
-4.118281875766119371e-01
-2.611628974237043543e-01
-1.065446159981703611e-01
-1.917256213510148272e-02
-4.811551655592294363e-02
-1.822462714655553873e-01
-3.581933594469643989e-01
-5.015312632833357487e-01
-5.608533679578324715e-01
-5.126026800027709829e-01
-3.589844027241151925e-01
-1.516992777097195544e-01
-7.463115334784952565e-05
2.002274228965186115e-02
-1.136322668811487469e-03
1.573864569684651216e-01
5.886624541339751104e-01
1.059018846041210216e+00
1.178564109710555030e+00
8.253848656608442358e-01
3.214513075027480848e-01
9.975244645906022889e-02
2.666131315742998886e-01
5.837614041847825064e-01
7.817694844929968800e-01
7.654674488019830303e-01
5.846399276941245393e-01
3.413419688282646192e-01
1.347779409111703464e-01
2.398610948757751507e-02
8.121044877020429376e-03
4.430243895315737201e-02
8.380082456552331860e-02
9.821001415192440187e-02
8.469544042311838439e-02
4.657070377979561498e-02
-2.517124315837328957e-02
-1.325262884144847997e-01
-2.399792872255336051e-01
-2.911227933879321217e-01
-2.535845704002621104e-01
-1.350022794137187288e-01
1.999737521697598011e-02
1.319255825357536771e-01
1.264665597184328194e-01
9.501481883938428519e-03
-1.174869757204883430e-01
-1.509322245928783057e-01
-9.597402085313291864e-02
-5.764927677264206768e-02
-1.094199575768577681e-01
-2.067141177543545538e-01
-2.588311332084268224e-01
-2.469562097556841085e-01
-2.327214117697428142e-01
-2.760979207790965617e-01
-3.810938485776058093e-01
-5.120476105535810563e-01
-6.288077957502331561e-01
-6.963262771292119124e-01
-6.839618617041979265e-01
-5.827670223923994142e-01
-4.269128164717719831e-01
-2.806455351183703706e-01
-1.926699819446446027e-01
-1.719706045325312682e-01
-2.117238435501657134e-01
-3.113399509505544449e-01
-4.542987244361750276e-01
-5.838821334993892220e-01
-6.247433367400901938e-01
-5.314459335121743955e-01
-3.333294634661053690e-01
-1.458783264779206224e-01
-8.668533735536917972e-02
-1.115633086727527978e-01
2.476713855693665756e-02
5.006776104112358183e-01
1.094747342320570027e+00
1.322228659780556592e+00
1.008244238903334145e+00
5.187578960808210127e-01
3.133350096761491899e-01
4.769002491540310640e-01
7.769896558250508622e-01
9.835350659446226995e-01
1.027076139863499549e+00
9.478724449835534971e-01
7.952732836517104609e-01
5.969471660942808899e-01
3.904372511891050501e-01
2.260386672079464088e-01
1.301071247310350010e-01
1.007114185942212803e-01
1.233963232987509429e-01
1.591534815910949641e-01
1.473396402199972921e-01
5.300594736001676410e-02
-9.740578297093895055e-02
-2.338970463347549433e-01
-2.963286848802776929e-01
-2.733921364248821928e-01
-1.860225868656229797e-01
-5.239671346812164315e-02
9.480769536971470068e-02
1.770853023881067412e-01
1.189665288619397021e-01
-5.436562713166655930e-02
-2.066507800604725498e-01
-2.158806261057425180e-01
-1.056760398255937039e-01
-1.728378946835893576e-02
-4.669076120558846715e-02
-1.489957506860123959e-01
-2.175713434557062509e-01
-2.129122856075338910e-01
-1.839568606021152464e-01
-1.974307726691489906e-01
-2.800246298560185032e-01
-4.109678041230334644e-01
-5.411033091232418935e-01
-6.177885022570425155e-01
-6.066267285043803748e-01
-5.036439237061087759e-01
-3.415668928662328740e-01
-1.889996376990596416e-01
-1.196189736894798655e-01
-1.587472975776020867e-01
-2.672813346141059698e-01
-3.851213673672413407e-01
-4.749991017201594112e-01
-5.168222419143968516e-01
-4.863031317581573698e-01
-3.693081157948294724e-01
-1.884372664694792254e-01
-1.208074583768085040e-03
1.126070203837671591e-01
8.457617302436243323e-02
-4.160799754395200223e-02
-4.784951824549300153e-02
2.804456980668246779e-01
8.447987359812108021e-01
1.233108328210662741e+00
1.143494738901665420e+00
7.170534041474814213e-01
3.535700310570680793e-01
2.885927714671733813e-01
4.421450312803202332e-01
5.989256838881614753e-01
6.221024392962586358e-01
5.106112736395681528e-01
3.429476511052781951e-01
2.056733228818853620e-01
1.475073031819181812e-01
1.634180655761929835e-01
2.062937341593252538e-01
2.182646015142242213e-01
1.623363447413491145e-01
3.613100182290989587e-02
-1.280091942579049125e-01
-2.749497489042598275e-01
-3.621335857723685381e-01
-3.872853938648557204e-01
-3.643537054886308302e-01
-2.889277635700378544e-01
-1.617686346424757060e-01
-3.481903230295332191e-02
9.401556541013707941e-03
-6.278725666542003814e-02
-1.938019600909738627e-01
-2.796105231205645580e-01
-2.596814341423442363e-01
-1.681705427444654122e-01
-9.329998937665703873e-02
-8.830039745859982747e-02
-1.352099385856868063e-01
-1.906357325987635132e-01
-2.420905166469297376e-01
-3.092595040805590778e-01
-4.037324796956229256e-01
-5.042769647183028559e-01
-5.708989338596047736e-01
-5.717922112095072951e-01
-5.015733857618281943e-01
-3.861946196321854319e-01
-2.666713212702072622e-01
-1.724120627423753049e-01
-1.143354144111149440e-01
-1.017854458751155378e-01
-1.511055927533148102e-01
-2.646579877790133928e-01
-4.061784896772506204e-01
-5.095247925966791547e-01
-5.178456783512583872e-01
-4.211057835972691898e-01
-2.639639757651917051e-01
-1.159514910802470905e-01
-2.376491984707860411e-02
2.412347722830733565e-02
1.049891810145235638e-01
3.318268691513027724e-01
7.692269472815849163e-01
1.308075279449089967e+00
1.633054292894758452e+00
1.463538260837047744e+00
9.045827468297563678e-01
4.104572130737210167e-01
3.154132024921411093e-01
5.348902945229984107e-01
7.572782345956730055e-01
7.721687665724482619e-01
5.793143462773776564e-01
3.078870314259036789e-01
9.397895742442391454e-02
-9.209722800000725434e-03
-3.826096837535961775e-02
-3.686728592992129933e-02
5.901066243461677852e-03
9.635229266046800578e-02
1.582199201647127851e-01
9.464749437169045487e-02
-8.349664689094216108e-02
-2.617836629343321397e-01
-3.518828471612019393e-01
-3.576203460620736574e-01
-3.151867334631697770e-01
-2.351023828236345481e-01
-1.303545105251605052e-01
-5.543876097937820019e-02
-6.954019182696095924e-02
-1.702243469040016222e-01
-2.886182338282911597e-01
-3.407454499224598643e-01
-2.851444187456151358e-01
-1.604463050837690030e-01
-6.090409521156331385e-02
-4.806475645402988328e-02
-1.013848509491360600e-01
-1.681926788569996223e-01
-2.285921577245700886e-01
-3.010345659811436980e-01
-4.130834534622083165e-01
-5.616075283439944110e-01
-6.877022967611162718e-01
-7.169314344543957773e-01
-6.306244184365861205e-01
-4.732429320415884599e-01
-3.016913724469811875e-01
-1.568176818806544248e-01
-6.936809495930718050e-02
-5.656342257278323266e-02
-1.105556129159141615e-01
-2.090687248801573195e-01
-3.275378166501629607e-01
-4.231429119127924077e-01
-4.310523927240914599e-01
-3.131454031960742013e-01
-1.104931111113531400e-01
7.312098513030848568e-02
1.454086459290506173e-01
7.678384406124380557e-02
-9.247073351126960938e-02
-2.274558770097558358e-01
-1.003975161806647115e-01
4.251216424516102710e-01
1.128263394703249878e+00
1.502288421761174053e+00
1.259498478158783463e+00
6.782557995920118765e-01
2.901897301092067893e-01
3.120651043363240063e-01
5.365402635718941049e-01
6.735622623017855082e-01
6.248170434631951098e-01
4.709413328608471061e-01
3.320923671027294910e-01
2.721709297053773735e-01
2.851933590126858875e-01
3.307944213244268794e-01
3.630850170948529132e-01
3.321431604319791675e-01
2.047705738559399136e-01
1.026742551488682258e-02
-1.700469918144949799e-01
-2.746813293923792698e-01
-2.957633151472590649e-01
-2.524013768682180081e-01
-1.655832614977860162e-01
-5.716810115160344402e-02
3.952578425559961917e-02
7.452972385008348188e-02
5.107915469010293474e-03
-1.550536654812229298e-01
-3.114848857580650998e-01
-3.449741111960076823e-01
-2.248925482328466563e-01
-5.401195946638993883e-02
3.229803029602123371e-02
3.393718342183790412e-04
-7.722206139604202713e-02
-1.330923562703559548e-01
-1.815698499472011007e-01
-2.809469682028874482e-01
-4.478884110613929881e-01
-6.213465572101279921e-01
-7.059244885646933643e-01
-6.544023098246962711e-01
-5.073766286932218650e-01
-3.408782887302916342e-01
-1.947292120850815933e-01
-8.462446886036766036e-02
-5.215814689557272260e-02
-1.358485182174759553e-01
-2.994609946140624479e-01
-4.505697296560796095e-01
-5.267625175511720936e-01
-5.128712190203399413e-01
-4.002448147128150335e-01
-1.990468155542938766e-01
1.824552487196126269e-02
1.355779448693385791e-01
7.625960400460886357e-02
-1.045050661282901361e-01
-1.931385414332016659e-01
4.793247381878389807e-02
6.326169242908127321e-01
1.255610326529463361e+00
1.519402054279989089e+00
1.285454622523679369e+00
7.962214040504880241e-01
4.410656821551287576e-01
4.038472487833368318e-01
5.597475910276669131e-01
6.799513632661938756e-01
6.541543303875303472e-01
5.205769236390010990e-01
3.704122088281081027e-01
2.658100380846476485e-01
2.172692597750347232e-01
2.018135626869470012e-01
1.939746754396654838e-01
1.774037103697782281e-01
1.278991155620883002e-01
1.185007662567227546e-02
-1.727100889473262568e-01
-3.655770705928138575e-01
-4.788452841101643043e-01
-4.654498489633482894e-01
-3.461414559484111697e-01
-1.779152034618911582e-01
-2.234107951701900380e-02
5.809625086830991908e-02
1.683675480401597424e-02
-1.357125812033168066e-01
-3.170129896785136570e-01
-4.130426435884094749e-01
-3.535299323275681305e-01
-1.731870486801259656e-01
-1.204055065729021934e-04
4.568681728469284331e-02
-4.098639105167918573e-02
-1.639614110545585257e-01
-2.522986570410508111e-01
-3.342596090299894684e-01
-4.654812759656311028e-01
-6.328397242181186266e-01
-7.647960353890950191e-01
-7.968523626674733906e-01
-6.997981219055051660e-01
-4.928755669610524470e-01
-2.631356754101646378e-01
-1.265100486350025921e-01
-1.313838382692698314e-01
-2.255337083766764117e-01
-3.348749574750247149e-01
-4.352022950506883592e-01
-5.188121248828205800e-01
-5.450575500966768905e-01
-4.818648955327373695e-01
-3.534913330712328716e-01
-1.998369872429874572e-01
-3.984377318975998450e-02
8.522260540159129483e-02
9.303758973285487788e-02
-4.723733795691519022e-02
-2.130439984638033135e-01
-1.728225030636946491e-01
2.098474049356097437e-01
7.829863657724990267e-01
1.170642492489611275e+00
1.115969313779060501e+00
7.378401031471779614e-01
3.809733096535607988e-01
2.569847335931163546e-01
3.118645167824459774e-01
3.919650534700649391e-01
4.207751207593775633e-01
4.103499904736483406e-01
3.895942295311178860e-01
3.640281833853847293e-01
3.233915187080957376e-01
2.654807987256125879e-01
2.095026829278655855e-01
1.798301948408620177e-01
1.666497231597789397e-01
1.143074140622744456e-01
-2.302450356600997325e-02
-2.101823319000754031e-01
-3.432773268158468838e-01
-3.378157573465384034e-01
-1.900090380202028029e-01
2.405573582259470239e-02
1.865223916198680831e-01
2.024094303670107842e-01
6.320529548325275193e-02
-1.330295822634372516e-01
-2.381243679980388495e-01
-1.748629191009353212e-01
-1.411182691443922665e-02
9.428044382923862765e-02
7.643709421617408961e-02
-2.184852669473867984e-03
-4.485860697396791552e-02
-5.508307018057938959e-02
-1.113423999652881219e-01
-2.495912285094849525e-01
-4.315587090646920143e-01
-5.930909312609948802e-01
-6.661780151298801744e-01
-5.968211435607650994e-01
-4.069911232491818520e-01
-2.051199321266349018e-01
-8.208021905910160843e-02
-3.762178862767762144e-02
-4.821629183801476315e-02
-1.355639925857475836e-01
-3.030497060981418023e-01
-4.653252173848660966e-01
-5.197977939660048952e-01
-4.573225645637786774e-01
-3.388008081099032065e-01
-1.958846336262501653e-01
-3.591663623583708081e-02
6.586547535137811382e-02
-4.480174693523818197e-03
-2.022321174825182089e-01
-2.515666933664224558e-01
7.332801007133199489e-02
6.165465158915756083e-01
9.628882925274618865e-01
9.172261191800769042e-01
6.854829096374979169e-01
5.587845815108229974e-01
6.177593956789205754e-01
7.671312782531207741e-01
8.810983616791516759e-01
8.798033888345775377e-01
7.590260369400327889e-01
5.776688133915182100e-01
4.093606504703697913e-01
3.074287037843406178e-01
2.888500735683151577e-01
3.218541507685821479e-01
3.427661498345848101e-01
3.051696197473770522e-01
2.094063183375960702e-01
8.362662470653037250e-02
-4.915456347368164780e-02
-1.722616100040750831e-01
-2.546559792408027989e-01
-2.567977033643998874e-01
-1.649747754127910970e-01
-1.093937323838138631e-02
1.384763060925011113e-01
2.107790480406186717e-01
1.664971468180272141e-01
2.862269178585842219e-02
-1.182213569980037904e-01
-1.741319643050589505e-01
-1.087209034374721911e-01
-6.465851040308751019e-03
1.285136774758236650e-02
-7.397654019012145366e-02
-1.820314708645832114e-01
-2.379547724071913728e-01
-2.632586685308440644e-01
-3.291237113832261585e-01
-4.663157992631205007e-01
-6.365366649374821773e-01
-7.693216429450470129e-01
-8.082498747437578679e-01
-7.329964719922951177e-01
-5.614589843847935802e-01
-3.476382138540965450e-01
-1.723711016703063648e-01
-1.067891674030779642e-01
-1.648002727021775360e-01
-2.972363882157821324e-01
-4.342664504201724784e-01
-5.249686210840223133e-01
-5.419419213945492197e-01
-4.733508388452775106e-01
-3.313388899273054800e-01
-1.607829117935772600e-01
-2.290099848689656700e-02
2.811473518190007320e-02
-4.010436415397035381e-02
-2.007643443269539196e-01
-3.174094635800721043e-01
-1.898297091881407384e-01
2.524588475877173610e-01
7.917555059723331290e-01
1.055907025006888045e+00
8.885245044828448124e-01
5.293217672150174469e-01
3.417177421990652553e-01
4.242581221033622785e-01
5.861385234971977498e-01
6.290541965838915006e-01
5.328731932442484220e-01
3.988795162812439621e-01
3.145308118783241569e-01
2.958423477253723233e-01
3.122474960540643774e-01
3.253529372464981084e-01
3.038089596127291347e-01
2.266136335837866389e-01
9.203050212016296305e-02
-7.399707107922125215e-02
-2.247790176753671210e-01
-3.156724153797706989e-01
-3.251205670310635121e-01
-2.591319493739835944e-01
-1.430543912848460664e-01
-1.101670782517630634e-02
1.018517827066511144e-01
1.607708347909500013e-01
1.311360800979446128e-01
-6.661157997692483332e-04
-1.839913526714070657e-01
-2.990283124970863349e-01
-2.461920736302558588e-01
-5.972453555381213031e-02
1.081294142310036677e-01
1.397038384958557422e-01
4.861417661380436350e-02
-8.708076323622752912e-02
-2.256024470597931264e-01
-3.656174746652921526e-01
-4.995722944490403328e-01
-6.025613288149530566e-01
-6.510410483691224659e-01
-6.306451235621213236e-01
-5.350749379944433892e-01
-3.797916460713463560e-01
-2.188828031744343705e-01
-1.246947500503907402e-01
-1.350461142822618477e-01
-2.301230970182271685e-01
-3.618225902809322214e-01
-4.848182066603587970e-01
-5.610752530285199047e-01
-5.620502685128874187e-01
-4.762767139351895551e-01
-3.186168817965671640e-01
-1.455312961817870898e-01
-4.694354829175220040e-02
-8.467826458033043957e-02
-2.147210280154200901e-01
-2.708095288563043268e-01
-6.355421093196569893e-02
4.426628637066872263e-01
1.035977696851152929e+00
1.385313630605649271e+00
1.312266054774273716e+00
9.517567535737561091e-01
6.236697529395076600e-01
5.333211986309718267e-01
6.222703525304951189e-01
7.032228091066785591e-01
6.686699583460481433e-01
5.437288141461330548e-01
4.035343500668261418e-01
2.967325880276650008e-01
2.378256453952738714e-01
2.294826921177352264e-01
2.552872011389594187e-01
2.567828122520603995e-01
1.658292391609777483e-01
-1.753775889003708968e-02
-2.107739841847537376e-01
-3.311679759799259770e-01
-3.608881913625927029e-01
-3.185106340722577145e-01
-2.176914174630979470e-01
-8.461825502201195115e-02
2.825718914769460854e-02
7.997430595445420565e-02
6.238159601061983583e-02
-2.745793495701716672e-02
-1.885151673401816441e-01
-3.667992153765855523e-01
-4.452832839104062801e-01
-3.319337342124150103e-01
-7.162562622000603896e-02
1.609345996294659631e-01
2.142756791708125275e-01
9.047653266433336450e-02
-9.829063260137217706e-02
-2.679102829807116781e-01
-4.173123508998085041e-01
-5.637349847900630095e-01
-6.712662238723008379e-01
-6.727605659660433890e-01
-5.524781342154290176e-01
-3.738411408264589730e-01
-2.171901701926439998e-01
-1.170489181447349203e-01
-7.417200423102615625e-02
-1.003108089027536926e-01
-2.120069830314659232e-01
-3.791060394280150736e-01
-5.150091560254588252e-01
-5.417565738703241651e-01
-4.533300530269488426e-01
-3.016727337399521258e-01
-1.400550777095425359e-01
-4.279853125756269243e-03
7.101972750709162341e-02
5.279793507568875111e-02
-7.411081978575921603e-02
-2.797059616987089270e-01
-4.316883489661910711e-01
-2.988044402205439209e-01
2.441100943410180191e-01
9.663609155166782427e-01
1.394630494217903527e+00
1.280557630199435248e+00
8.419403985896174447e-01
4.744352785850297627e-01
3.552849191175416754e-01
3.948717700797548802e-01
4.474908825294737769e-01
4.599950368164277825e-01
4.574555845653075492e-01
4.698773586907613042e-01
4.933308342364771670e-01
4.976136847711120081e-01
4.531070782771186023e-01
3.473734215071885290e-01
1.845908156880592121e-01
-1.607490776732280191e-02
-2.155665110693815445e-01
-3.572806890968363569e-01
-3.908893262152881021e-01
-3.075035240833912664e-01
-1.514347220813080375e-01
8.311514133678914173e-03
1.157213347981503326e-01
1.399215478096898779e-01
7.031107270906293560e-02
-8.172113526775773296e-02
-2.725205746752229485e-01
-4.203203465690882323e-01
-4.275070970440527085e-01
-2.496554333896527367e-01
3.440281546022005976e-02
2.522056269124762218e-01
2.755545106015488410e-01
1.198244833694801920e-01
-1.053663536253220262e-01
-3.108539513917338848e-01
-4.723630027393177500e-01
-5.928559739150053298e-01
-6.610878848652442796e-01
-6.560345640315382587e-01
-5.726420422142519673e-01
-4.315334249438931846e-01
-2.776678280682742805e-01
-1.707378792782794363e-01
-1.537779999597113090e-01
-2.261788295645782709e-01
-3.556750354768022926e-01
-5.006982927081535806e-01
-6.076070022811029814e-01
-6.151328429409760323e-01
-4.978774405786658974e-01
-3.030661810309328019e-01
-1.246226769856546013e-01
-3.851122790601308604e-02
-6.111765556574794839e-02
-1.467124974426055051e-01
-2.067704852194995335e-01
-1.342609857961735709e-01
1.744911789259577517e-01
7.455397995032188030e-01
1.382455105482165436e+00
1.687414029340487787e+00
1.429705607496605024e+00
8.547715442014732767e-01
4.324597276736803497e-01
3.520229449160240387e-01
4.378896618118670037e-01
4.729114802834191722e-01
4.139730902771400212e-01
3.287395555782361978e-01
2.743688365260858464e-01
2.664835422414434940e-01
2.926381591651699976e-01
3.184436808347350101e-01
3.061538317419946198e-01
2.409846475519382136e-01
1.257742555429887388e-01
-3.368321554404601209e-02
-2.068093246727626677e-01
-3.230389679886062071e-01
-3.236222129942494807e-01
-2.227772910466379597e-01
-9.127934588583111464e-02
6.630855352014269899e-03
4.440085106100727375e-02
2.196838607587563511e-02
-5.727089090981324349e-02
-1.961946083111369143e-01
-3.773059403600798611e-01
-5.169565157073381378e-01
-4.835436459794786312e-01
-2.164735054088125499e-01
1.679049526415550830e-01
4.353123508629053173e-01
4.299575504213348220e-01
1.920431379258391025e-01
-1.269827516421859204e-01
-4.096928566818160977e-01
-6.093237657927327300e-01
-7.107760578201894885e-01
-7.101599583823108297e-01
-6.163846564878774359e-01
-4.598682480631690050e-01
-3.018063316676553587e-01
-2.082794361335342515e-01
-1.972040578069704786e-01
-2.339759240812523955e-01
-2.876569866417155175e-01
-3.547003074057443750e-01
-4.173630674220785708e-01
-4.292751858391631314e-01
-3.632698271266892598e-01
-2.416210089766567815e-01
-1.149082422772823853e-01
-2.808243588112821487e-02
-2.850571488863806735e-04
-2.957075249941146233e-02
-1.165763860523196527e-01
-2.696477374916098624e-01
-4.595715021928050703e-01
-5.509083741985686400e-01
-3.186294557947046413e-01
3.480350452826554419e-01
1.194433237428499162e+00
1.684611692711101671e+00
1.490173945735749239e+00
8.338436400933554316e-01
2.423888044059957503e-01
3.577740649326693889e-02
1.445954227781934831e-01
3.368534406783144641e-01
4.776411010586263384e-01
5.585932094304839612e-01
6.011157710546086719e-01
6.105283111074176761e-01
5.761124789439726612e-01
4.711587060139560412e-01
2.758393267616759958e-01
1.762039552175394264e-02
-2.192262241535155032e-01
-3.424916787758010006e-01
-3.276338391205962375e-01
-2.334068806187939438e-01
-1.342393428759487417e-01
-6.148635475072281031e-02
-1.238271458536213676e-02
1.133090607235567177e-02
-1.668168781693440961e-02
-1.274679296181796539e-01
-3.115987284980213934e-01
-4.927812077104411492e-01
-5.496929419574886344e-01
-3.945622940027111447e-01
-6.839405718704252846e-02
2.556651538483983854e-01
3.989822385431933682e-01
3.071970580311236265e-01
5.491313052929272520e-02
-2.437305602604293298e-01
-5.054128122371601695e-01
-6.822257142008789632e-01
-7.437926393905822664e-01
-6.833635772865043201e-01
-5.359959333392926295e-01
-3.687961451005720148e-01
-2.364680873690952756e-01
-1.564691575042076455e-01
-1.421146173399062962e-01
-2.218975018194561111e-01
-3.869481191266886388e-01
-5.571282621171828042e-01
-6.358299474212461000e-01
-5.752582897081478519e-01
-3.926189770340390295e-01
-1.663673082486062660e-01
-4.765693300251739803e-03
3.077188698979023765e-02
-3.171833983779220184e-02
-1.313121615308208701e-01
-2.452794020421123766e-01
-3.570788859577807561e-01
-3.593952325481312715e-01
-6.675636384204471085e-02
5.897045790602555293e-01
1.382007536627781308e+00
1.877936941761955580e+00
1.781436829293541413e+00
1.200741231182035573e+00
5.527535238741756451e-01
1.854083734206977141e-01
1.323946850914323181e-01
2.285130950449723586e-01
3.452349633228265491e-01
4.476343500074146942e-01
5.163188044177435820e-01
5.235165493255707903e-01
4.696152595136925401e-01
3.775201749711361576e-01
2.545862980207609927e-01
9.622512524024820491e-02
-8.017089855061833303e-02
-2.285768035954217903e-01
-3.001395365767259293e-01
-2.703126625886492773e-01
-1.543311969520913263e-01
-6.792126132062738242e-03
1.056448288679258662e-01
1.396480360110256835e-01
8.641425197211363707e-02
-3.448572597511917470e-02
-1.867907392607759398e-01
-3.353734013698699279e-01
-4.455721383059581542e-01
-4.601402685579630281e-01
-3.160088795503616654e-01
-3.010976536658214325e-02
2.484257020068561528e-01
3.364647498349715438e-01
1.833826035813484467e-01
-9.998148306774694294e-02
-3.714852747895122653e-01
-5.627347205692935228e-01
-6.610316741253933204e-01
-6.597311580464840786e-01
-5.637361626084463895e-01
-4.124342928032203037e-01
-2.674827959222705887e-01
-1.824327442901113039e-01
-1.797654034879301033e-01
-2.412746796539098904e-01
-3.221096701133689399e-01
-3.827010526526957168e-01
-4.116702883870560492e-01
-4.179167512067153423e-01
-3.970468422694789501e-01
-3.234844790014463900e-01
-1.973620156355475885e-01
-7.269999356170771254e-02
-9.873717654345987721e-03
-2.579933101764476586e-02
-1.052932369673917068e-01
-2.263767052225030274e-01
-3.567264895621090059e-01
-4.316322104161460782e-01
-3.326141814516072048e-01
6.790627720486476504e-02
7.482774561022799142e-01
1.419531489210383191e+00
1.673275090864132508e+00
1.335542536889121390e+00
6.639026872169317972e-01
1.220283448588845993e-01
-4.190361523064484867e-02
8.376004694482966362e-02
3.073461633091417733e-01
5.191839291657081024e-01
6.704141190710037890e-01
7.264043997630428295e-01
6.755582261905727082e-01
5.321722836442126514e-01
3.224996416076688077e-01
8.195895812307897599e-02
-1.406847168157865091e-01
-2.935146448133185704e-01
-3.416152078077467902e-01
-2.753871058468462252e-01
-1.165642878305729602e-01
6.486600550501978035e-02
1.698878844737367333e-01
1.509299978081779514e-01
5.463690037869203819e-02
-4.977992020066957651e-02
-1.496879151928698914e-01
-2.562115164173905946e-01
-3.289653155947679930e-01
-2.837886901990452904e-01
-8.046045423577927180e-02
2.025556706992553690e-01
3.946290191037969963e-01
3.662767954515970259e-01
1.382435110633637998e-01
-1.599847115961748889e-01
-4.133443901683689359e-01
-5.711968611197899559e-01
-6.171827106944403063e-01
-5.564778043662925722e-01
-4.332389185242285778e-01
-3.170364179580749120e-01
-2.544005887580539915e-01
-2.442704553553774194e-01
-2.648178045427985183e-01
-3.133523955546721473e-01
-4.074886004296483510e-01
-5.423967495068364730e-01
-6.594820745513663152e-01
-6.803421161328633282e-01
-5.749327852427161822e-01
-3.869524893314773561e-01
-2.024688111357995368e-01
-1.004681828433860169e-01
-1.091664047663026271e-01
-1.944207388522419810e-01
-3.069141332666662225e-01
-4.359832985725846100e-01
-5.707293846858627617e-01
-5.885608761201697181e-01
-2.649839713762133786e-01
4.628912551716273804e-01
1.251764215504899358e+00
1.579828008855421073e+00
1.279481425569105379e+00
6.747881783776317199e-01
1.992693541160991400e-01
5.279433497581489942e-02
1.872623813169959350e-01
4.412346113572492845e-01
6.553990401003024768e-01
7.473849256476333691e-01
7.382044877919102799e-01
7.053169529659668591e-01
6.820582304092032144e-01
6.016067716775848062e-01
3.801354288537563408e-01
6.039962033212241399e-02
-2.027835449420672675e-01
-3.155009285767365057e-01
-3.085520116319732664e-01
-2.312952901516335535e-01
-9.783872172239066467e-02
5.337120705104703849e-02
1.357689524808315396e-01
8.118270907880469067e-02
-9.137064851228944573e-02
-2.916145873651081466e-01
-4.395273187084088873e-01
-4.986016578881696248e-01
-4.299806544512861928e-01
-1.915093637724249453e-01
1.655750434188854592e-01
4.518664961592770424e-01
4.702207738890033517e-01
2.023738389730983245e-01
-1.734500426781538096e-01
-4.636488273721184883e-01
-6.185868005670096537e-01
-6.949163133698338379e-01
-7.226025472353194701e-01
-6.725049334513146793e-01
-5.299083118023003580e-01
-3.421775602709330455e-01
-1.924165940555798704e-01
-1.475339334485267773e-01
-2.167744475038604623e-01
-3.450727317687813933e-01
-4.618245132187921986e-01
-5.399235995092790397e-01
-5.858445955055759935e-01
-5.774057686747184892e-01
-4.662067709087721057e-01
-2.664955918545925950e-01
-8.102475646662754549e-02
2.311759757576853716e-03
-1.373843412569233924e-02
-9.720741287224865523e-02
-2.522056137075829318e-01
-4.481681706846494251e-01
-5.357758319408545411e-01
-3.440449300157681911e-01
1.388371433698275814e-01
7.435143541885373963e-01
1.233774035405298841e+00
1.401180807295204112e+00
1.171492913931559077e+00
7.048453167058734703e-01
2.912659499089954585e-01
1.094501412106599209e-01
1.520738230393226531e-01
3.182669966572382325e-01
4.900451383344104905e-01
5.920847857485148635e-01
6.353129648410044128e-01
6.620284718294530135e-01
6.666133429616033501e-01
6.084802035130254527e-01
4.425330728434760941e-01
1.337046798000192938e-01
-2.438317118010978612e-01
-4.576410872008473407e-01
-3.347665084252680057e-01
3.913849871689287219e-03
2.724711405667926134e-01
3.327880813612710265e-01
2.642334871717109124e-01
1.772502730330836607e-01
7.065120840466837526e-02
-1.026195088923576026e-01
-2.840004601508857585e-01
-3.092210632725035935e-01
-8.818857881742114824e-02
2.621921355955297850e-01
5.042997059084360911e-01
4.977672991332878771e-01
3.048628663431615093e-01
6.778571369267477609e-02
-1.607764990223203294e-01
-4.029085519135357507e-01
-6.194098774547356356e-01
-6.991281406308779145e-01
-6.037048337399508746e-01
-4.307855519136668532e-01
-2.933057008092631035e-01
-2.140554961693095226e-01
-1.721524549978419305e-01
-1.770183044012968165e-01
-2.577347985557115195e-01
-4.144052358473035991e-01
-5.932073359601994778e-01
-7.045105722091578038e-01
-6.808790022519487506e-01
-5.284875186969412164e-01
-3.266828708182414887e-01
-1.807004162832887562e-01
-1.535063107924587722e-01
-2.221037738575933895e-01
-3.152154096404796157e-01
-4.020768741088642240e-01
-5.071126471621062448e-01
-6.124757727613366898e-01
-5.839607388793338627e-01
-2.634765991117530848e-01
3.197803387903263017e-01
8.738261316221949127e-01
1.078480091860587686e+00
9.036469009543014463e-01
6.181969848517110400e-01
4.863603149929177638e-01
5.384494046611365548e-01
6.442463843243866339e-01
7.071407892957629615e-01
7.273584860708046662e-01
7.379020870776847874e-01
7.482978973592077088e-01
7.383781976310380690e-01
6.720924958783097702e-01
5.222000117259246732e-01
3.000295035544499611e-01
6.182049147191021055e-02
-1.222635263494790125e-01
-2.115435981882278771e-01
-2.078114755709223882e-01
-1.281448075857114788e-01
9.931190488219276968e-03
1.589406653994488439e-01
2.337720119504097249e-01
1.773306407233937454e-01
2.048109706892897383e-02
-1.536010554665670491e-01
-2.901446445977244881e-01
-3.749538198389791854e-01
-3.750777530826799322e-01
-2.276297899183309659e-01
6.223483414597642122e-02
3.453456913357525471e-01
4.277951580946199317e-01
2.537732976941032281e-01
-6.049118147801925416e-02
-3.672144881077644141e-01
-5.988554977146345326e-01
-7.356367177721581108e-01
-7.455826042806780185e-01
-6.218017379857627702e-01
-4.343820739949596499e-01
-2.785450563974307681e-01
-1.931020303948962069e-01
-1.600866404202094806e-01
-1.549842481877544975e-01
-1.826655319665590194e-01
-2.704190756809974339e-01
-4.122891035313667740e-01
-5.323574721758486117e-01
-5.398208617830762002e-01
-4.200743344485876607e-01
-2.507815033764202450e-01
-1.303474944645490741e-01
-1.031941044955034387e-01
-1.510239568546895006e-01
-2.329247146981586469e-01
-3.199152472524365298e-01
-4.013571298476625859e-01
-4.474259469003427636e-01
-3.471733625494335951e-01
4.519606587466610398e-02
7.025456907964804376e-01
1.303663265455052622e+00
1.450604495136683880e+00
1.052569827941009839e+00
4.342405199017921880e-01
1.653843460070396343e-02
-5.438420281542907797e-02
8.836426883278952760e-02
2.840102397608559870e-01
4.687908026828974672e-01
6.131478674405804741e-01
6.771077947710236744e-01
6.454402234919833781e-01
5.354022336118202663e-01
3.549503142425168845e-01
1.058897019422791186e-01
-1.610822381212990428e-01
-3.474228164601593782e-01
-3.857776590738504763e-01
-2.919161568810995089e-01
-1.347199931308473708e-01
1.703342300259644282e-02
1.146342348334159489e-01
1.258288116221258912e-01
3.741196224166724871e-02
-1.279763452470694118e-01
-3.062972168474870083e-01
-4.276854545519561679e-01
-4.596607724653546390e-01
-3.949420143120033200e-01
-2.161989597197930268e-01
6.950097251139257526e-02
3.545819937041148617e-01
4.612529899503441388e-01
3.006249276627823153e-01
-3.286422165221905556e-02
-3.579382638714269094e-01
-5.578411711481058299e-01
-6.207048061428728225e-01
-5.906886802873988485e-01
-5.182246579134485165e-01
-4.331472484359307207e-01
-3.443655963195216274e-01
-2.666814134856380636e-01
-2.370180011650589447e-01
-2.863539248925474623e-01
-3.969141556613208222e-01
-5.041915582698098808e-01
-5.483498265444475273e-01
-5.120340159490771592e-01
-4.095107455551837417e-01
-2.679293072454474456e-01
-1.298226866043354633e-01
-4.535455808463506600e-02
-3.977327367593147533e-02
-9.788153533876495227e-02
-1.927210915804229707e-01
-3.204578390594396975e-01
-4.755541377642535372e-01
-5.523035922237683470e-01
-3.115692118478414763e-01
3.833263748867927201e-01
1.237143493580428633e+00
1.666458467303700397e+00
1.418304385365074083e+00
8.280250737271894756e-01
3.713539347435552695e-01
2.171815041776815614e-01
2.845790152241550186e-01
4.716587131266827826e-01
7.064299385125206721e-01
9.028071673878214076e-01
9.726785133184200349e-01
8.853524047352996362e-01
6.889110066932422338e-01
4.565991455381707143e-01
2.286558352379662595e-01
2.114465109257631509e-02
-1.429576692981578967e-01
-2.433180549109222879e-01
-2.757394667738085614e-01
-2.346827987572952801e-01
-1.140354760550163771e-01
5.500617186141227438e-02
1.863079660872019316e-01
1.773349547289039263e-01
-1.324382987566272672e-02
-3.013155181260626092e-01
-5.161698801739297293e-01
-5.538007182998357925e-01
-4.632683495097211224e-01
-3.327472860761926943e-01
-1.549264758311673928e-01
1.114167011884527880e-01
3.895452407771964332e-01
4.922767584574769262e-01
3.057377849892879418e-01
-7.973872260727896122e-02
-4.474905180934101723e-01
-6.368103379925813545e-01
-6.356090402143700357e-01
-5.308920593033803481e-01
-4.118569164135355565e-01
-3.176045646260887700e-01
-2.427303964459327779e-01
-1.826375383144350495e-01
-1.734746110453454226e-01
-2.612544767809901192e-01
-4.218707205026728246e-01
-5.454637654846110628e-01
-5.291261917822638328e-01
-3.737095987205647507e-01
-1.702227007758792821e-01
-1.252274029095997755e-02
5.266926642495056016e-02
2.157446185890318779e-02
-7.916536062736544144e-02
-2.034240618765695008e-01
-3.048694059018059455e-01
-3.634862872503250575e-01
-4.000274739064973439e-01
-4.349932954992292156e-01
-3.939668252719268904e-01
-9.233705166097705419e-02
5.619009231955806039e-01
1.309680158865789812e+00
1.643207415740556954e+00
1.304074601864559479e+00
5.800849012553042083e-01
1.180692011721232171e-03
-1.507680054307862783e-01
4.422474601472993483e-02
3.665179509469479457e-01
6.498340928177449571e-01
8.114922935233048751e-01
8.204820511015958884e-01
6.852492569943159362e-01
4.563895046060882921e-01
2.125745836165993941e-01
2.051172340131758934e-02
-1.001179062848435164e-01
-1.626124870872353578e-01
-1.652663174673238700e-01
-9.085562557544467344e-02
3.479410984306400417e-02
1.274886953900617459e-01
1.138224222826575149e-01
-6.026735694138230480e-03
-1.729780048505261125e-01
-3.238830487815535508e-01
-4.205898640444343251e-01
-4.467079513141830049e-01
-4.003009299676401622e-01
-2.832529420896714445e-01
-9.055448428555110119e-02
1.621151722668851269e-01
3.824474596555890171e-01
4.191059802211175578e-01
1.953437040796150437e-01
-1.873574899519056536e-01
-5.248548784336711792e-01
-6.784906794699328003e-01
-6.483899561351030849e-01
-5.193702921124466743e-01
-3.770728542578996034e-01
-2.701556746869646641e-01
-2.182475411809512433e-01
-2.268351199000763208e-01
-2.925315839109045024e-01
-4.037699084534355221e-01
-5.334382218730874259e-01
-6.321680346600768718e-01
-6.460948836057444078e-01
-5.518851559426647402e-01
-3.737374479688218565e-01
-1.732491887373519557e-01
-2.782530981551488425e-02
4.870464302442922833e-03
-7.240036694009902019e-02
-1.998995431907140963e-01
-3.206346169206031882e-01
-4.216345856100821021e-01
-4.823435366713710315e-01
-3.877722805959080699e-01
3.061983883320045299e-02
7.915921268992596183e-01
1.601239635105664805e+00
1.975579374309678782e+00
1.646780098107920587e+00
8.624535411451510480e-01
1.701734133188336218e-01
-9.122316587490844619e-02
1.921081702919249026e-02
2.732717415164957475e-01
5.068694756518248301e-01
6.515841550933839654e-01
6.849043634219458276e-01
6.036885804691686230e-01
4.189838612306936438e-01
1.574583813372184282e-01
-1.321348441637468230e-01
-3.742714681912099883e-01
-4.859257139203634335e-01
-4.315882645667576956e-01
-2.621222734426946754e-01
-7.448776785824133551e-02
6.111832055635169070e-02
1.153034871732984135e-01
7.365135741894075772e-02
-5.848606875221901147e-02
-2.350359946852496051e-01
-3.804999309169342370e-01
-4.286923053554477225e-01
-3.649979338394888084e-01
-2.418842154540508382e-01
-1.236731947589232439e-01
3.773259188222001514e-04
1.934060301661623960e-01
4.184146919385244856e-01
4.866736676505107329e-01
2.600678125562478904e-01
-1.478144912718751813e-01
-4.735483229776493719e-01
-5.637287202956861032e-01
-4.650842440969802372e-01
-3.120077801936501638e-01
-2.015811641999812887e-01
-1.642091317769280578e-01
-1.930575643702032718e-01
-2.735013027204648561e-01
-3.893142058804121008e-01
-5.062025930934537232e-01
-5.712901503761955713e-01
-5.537656395500649698e-01
-4.748719616841863278e-01
-3.790616045344530338e-01
-2.824422246246159895e-01
-1.621500540785697220e-01
-8.577013932428455278e-03
1.084835340709296714e-01
7.262812058883783006e-02
-1.316121444008280239e-01
-3.536369840748479487e-01
-4.272883359768381295e-01
-3.499071024829740195e-01
-2.481537584988550704e-01
-1.689406800120715479e-01
4.086241395521614250e-02
5.540408099611683346e-01
1.228712269997339179e+00
1.596564666214708161e+00
1.328691223301724733e+00
6.307838794107587521e-01
4.723626361504021376e-02
-6.808424450683556173e-02
2.092092602930180900e-01
5.896196965134137269e-01
8.645889260050304559e-01
9.669101996676173760e-01
8.944589530961096768e-01
6.851525042546552369e-01
4.200413127637412369e-01
1.822606623748768695e-01
1.155144930060983920e-02
-8.683088135415255315e-02
-1.018965090887630626e-01
-1.900491981930503560e-02
1.259776989929387581e-01
2.320361824455291488e-01
2.059169384083469334e-01
3.826419566538308975e-02
-1.950767686520570310e-01
-3.907454722103205214e-01
-4.878390986014564668e-01
-4.947171199746891457e-01
-4.493863598818644278e-01
-3.691426635478812779e-01
-2.370805399184324480e-01
-2.980518229994210538e-02
2.125140392557492708e-01
3.483825028209238117e-01
2.382235191971565635e-01
-9.439893535903277899e-02
-4.593938326175731612e-01
-6.704325976909063511e-01
-6.824647121676816752e-01
-5.708907802876571624e-01
-4.288049893554117808e-01
-3.087128814767987617e-01
-2.381141166387306385e-01
-2.438741412996885682e-01
-3.367406311119198747e-01
-4.867839811837447739e-01
-6.303405797132142219e-01
-6.976124326257382435e-01
-6.443236357455841556e-01
-4.848472705205156830e-01
-2.928236050347881037e-01
-1.458060306067307799e-01
-7.059898790055417483e-02
-5.195597112875750823e-02
-7.867103704486605453e-02
-1.568385900424679180e-01
-2.758624021521530190e-01
-3.898953202610179192e-01
-4.555167134574855670e-01
-4.536767441986169214e-01
-3.300692238733591299e-01
3.323063206505585954e-02
6.816382504214649751e-01
1.415362050772911440e+00
1.837847842164592294e+00
1.657712268202730321e+00
9.764849015664301968e-01
2.438208640099200908e-01
-1.133477142678167848e-01
-3.638077117159958795e-04
3.769608773008207847e-01
7.433606571184402378e-01
9.275080961972931304e-01
8.994684796669002447e-01
7.163479153073585293e-01
4.516900715067350691e-01
1.670736226451356721e-01
-7.970904245224487428e-02
-2.337949846560100076e-01
-2.657170805284040926e-01
-1.890443952744903788e-01
-4.880009411123188701e-02
9.963512965810905619e-02
1.919217619134478137e-01
1.618310130997036855e-01
-7.383085707763588357e-03
-2.417985479874588950e-01
-4.234142645487936063e-01
-4.776194185897448818e-01
-4.065292078053862057e-01
-2.615649421218162463e-01
-1.009758663319606231e-01
4.190511860048613119e-02
1.669836588294126845e-01
2.743982069502584609e-01
3.146409435018899803e-01
2.081850384585030023e-01
-5.173613436380231773e-02
-3.468623520988800002e-01
-5.245732137365822778e-01
-5.281304470004462015e-01
-4.113685139119914180e-01
-2.502424922503591609e-01
-1.047209710695497370e-01
-5.650102767519166180e-02
-1.760929517932976474e-01
-4.235292061693141097e-01
-6.542860237091684406e-01
-7.404845409806248835e-01
-6.608757695977769409e-01
-4.869818333025872081e-01
-3.093254529635074968e-01
-1.822515943074581590e-01
-1.205419221731614116e-01
-1.196917188258707354e-01
-1.672830268204834325e-01
-2.465109223351006906e-01
-3.385587616888378615e-01
-4.159565777546626597e-01
-4.398080906748296770e-01
-3.901221264668592315e-01
-3.003800782252751267e-01
-2.165448331531034665e-01
-9.156984794614980716e-02
2.195632935495870630e-01
7.619933622644208260e-01
1.293902427940789801e+00
1.430488030524534881e+00
1.040078679136643425e+00
4.229919303327094315e-01
3.570303964898099980e-02
8.723851559705786407e-02
4.432454362611207843e-01
8.308402424256871033e-01
1.040383031653706380e+00
9.931429838380412267e-01
7.385022934519248627e-01
4.052001172359496195e-01
1.128508613338523037e-01
-8.580344982684343091e-02
-1.912813171922722877e-01
-2.142610190275763549e-01
-1.575153256422780479e-01
