2.119908275924866081e-01
-2.249555867183157254e-01
-4.299996191339641727e-01
-4.784657373887175602e-01
-4.298197979992067763e-01
-3.013586343933745693e-01
-1.233095910252610949e-01
3.385494363336068180e-02
8.628660999905019002e-02
-9.108281529855320399e-03
-2.063756889650167070e-01
-3.898618324676945135e-01
-4.695573583893974945e-01
-4.427866561823638469e-01
-3.514958752558741684e-01
-2.157889128003814272e-01
-3.882206795679403466e-02
1.402727186293097061e-01
2.356490834593584494e-01
1.770012291987477226e-01
-2.522506897988052374e-02
-2.840517586316725906e-01
-4.880522690438496847e-01
-5.476426081375538324e-01
-4.366391450971658372e-01
-2.200935282647056013e-01
-1.380664462116691291e-02
1.016327385803295208e-01
1.113348909173336038e-01
2.763523045771768341e-02
-1.356306263376785004e-01
-3.421186972987769748e-01
-5.182189050832965993e-01
-5.884263687686771549e-01
-5.253897214862122134e-01
-3.606609558884796840e-01
-1.562382087970150546e-01
3.282687940000424826e-02
1.741775426783044867e-01
2.398770705835061301e-01
1.894345666957231999e-01
-8.052960740257776584e-03
-3.220744780949988950e-01
-6.013699720840782748e-01
-5.662846603559386072e-01
2.120074209206014582e-02
1.024941010228666016e+00
1.837897585446673032e+00
1.917776392947447173e+00
1.451408717908613699e+00
1.115065282798018753e+00
1.162189126246637727e+00
1.200620339898507583e+00
8.797262755970549630e-01
3.574614662877730886e-01
1.368776391007363313e-02
-8.197733958698667778e-03
1.386788981603460924e-01
2.501234194791506771e-01
2.451857235540835789e-01
1.421098872771655031e-01
-2.106119083409268775e-02
-2.041794135841147051e-01
-3.502783123181001934e-01
-3.982206486990741423e-01
-3.201627010079302615e-01
-1.429129445024867051e-01
6.748471795103105908e-02
2.357230863841549284e-01
2.979706409348141238e-01
2.219398088273009939e-01
3.028627466119934719e-02
-2.026854453271978440e-01
-3.977300065281803576e-01
-5.150980937056537368e-01
-5.456245157286854219e-01
-4.800906679899066831e-01
-3.189846951536235986e-01
-1.047593012958689257e-01
7.955474759417549557e-02
1.438803005768257981e-01
3.062467392611031847e-02
-2.476455386084188415e-01
-5.905983097544316163e-01
-8.391417128375452394e-01
-8.629038822796371022e-01
-6.632324578952919492e-01
-3.776192793333918440e-01
-1.549930080827429946e-01
-4.970878809981078145e-02
-4.519047551771587790e-02
-1.260613444388318516e-01
-2.853455909283789116e-01
-4.792311080020930647e-01
-6.151421016150764309e-01
-6.120736152908642369e-01
-4.827135355017942442e-01
-3.382666896929596989e-01
-2.579771504251236469e-01
-1.252936401061620353e-01
2.994499776947965874e-01
9.853874562717370722e-01
1.420364191014547250e+00
1.136371362581548139e+00
4.203412713097504638e-01
6.187237911927775946e-02
3.763751591965815990e-01
9.149439712884142040e-01
1.131339717620137630e+00
9.385314637092806445e-01
5.834217034417861214e-01
2.662181507540871683e-01
1.747403307253394406e-03
-2.566976527533857966e-01
-4.853132932200205918e-01
-6.019663785647199061e-01
-5.571386807431670807e-01
-3.804664429103644108e-01
-1.532836764187450462e-01
4.341709656615279356e-02
1.545181291349554120e-01
1.461310866932532537e-01
1.167263258452330005e-02
-1.974491479628438795e-01
-3.755271365749371926e-01
-4.391816277627509368e-01
-3.910188490777396497e-01
-2.796563548018269341e-01
-1.344009899739357083e-01
1.685104135574017753e-02
1.127902116616873035e-01
1.019896670458696336e-01
4.191601633087502221e-04
-1.307798388257601641e-01
-2.500597515659472303e-01
-3.495371586972031430e-01
-4.134403967759928133e-01
-4.011330881593199726e-01
-2.934184814664498875e-01
-1.364571068703435974e-01
-1.257114785495795986e-02
2.299758440173195473e-02
-4.465100054983794919e-02
-2.110532720468920320e-01
-4.378852058599774777e-01
-6.341261226759719039e-01
-7.046502706252811832e-01
-6.189588280904125828e-01
-4.151412557860396646e-01
-1.633693829221543048e-01
5.334435124606468070e-02
1.456644449822596110e-01
4.236827346366343200e-02
-2.331082971341622012e-01
-4.594806342869794946e-01
-2.815927630529557191e-01
4.090263832770554275e-01
1.154789510411703857e+00
1.329562880119081303e+00
9.567148084922576512e-01
7.080878228095223159e-01
9.625202907228813665e-01
1.338008102065737059e+00
1.289399523633299349e+00
7.615806930900363980e-01
1.175256683216045622e-01
-3.063438849417272070e-01
-4.283780806029205968e-01
-3.463231091374985304e-01
-1.874358872234139495e-01
-3.492501949711909054e-02
6.727643906332454737e-02
8.465467525798585358e-02
-8.477934502360952654e-03
-1.934072508190396167e-01
-3.913331682219280405e-01
-5.085303176747135723e-01
-4.971239161488817948e-01
-3.648358681111610879e-01
-1.526260235150466438e-01
6.880104526077976401e-02
2.105882594935514773e-01
2.151578152897731799e-01
8.662009446644458599e-02
-1.267855992106578233e-01
-3.502866121881543227e-01
-5.035199962178890098e-01
-5.470221685281558832e-01
-4.892829133319047674e-01
-3.396899343876130795e-01
-1.140208033229797024e-01
1.036281186162378021e-01
1.848028860214558922e-01
7.372760391674600122e-02
-1.655892643946253184e-01
-4.185947193933718391e-01
-5.967351366801280088e-01
-6.622777018773243762e-01
-6.194006352056691256e-01
-4.849805055005397270e-01
-2.687815320474541414e-01
-1.062551350534198143e-02
1.725161498735698351e-01
1.502728906804475517e-01
-8.457261773966380514e-02
-3.922224820675647705e-01
-6.104662965645756278e-01
-6.795102070800773664e-01
-6.393106639588511664e-01
-4.842525361960576813e-01
-5.375752168978360779e-02
7.442750838192273566e-01
1.542959055964351123e+00
1.702725798512429778e+00
1.114801354577485970e+00
4.403540088079018755e-01
2.941885250387670236e-01
5.650291959778321882e-01
7.542448321617433171e-01
6.439170757250410881e-01
4.103683306356860072e-01
2.727918167646944392e-01
2.402455184048256642e-01
1.867054891670220096e-01
4.234740114529118860e-02
-1.577561362348414153e-01
-3.505079415810625210e-01
-4.813169111716429915e-01
-4.991495030999952287e-01
-3.968960121152908527e-01
-2.314234321758911750e-01
-6.298340320042028484e-02
8.283414910909295270e-02
1.816490576673083224e-01
1.899957549092795017e-01
7.332867010326332702e-02
-1.529476135375476831e-01
-3.939868451778136271e-01
-5.019336086727524959e-01
-3.911484148299434471e-01
-1.404016412341775877e-01
7.045711074592453382e-02
1.425997827011277475e-01
1.341474424604931215e-01
1.436826587000359090e-01
1.644625717158932354e-01
8.510372712087584113e-02
-1.617189421914128900e-01
-4.604603868454048010e-01
-5.759139817146575746e-01
-3.983913021416436995e-01
-7.584225898851804093e-02
1.445588363227546802e-01
1.533706559275035131e-01
1.709897386140360812e-02
-1.571597123640721128e-01
-3.200051310393073889e-01
-4.598393317851537931e-01
-5.560089540891062221e-01
-5.721505426377790915e-01
-4.716118008685708518e-01
-2.564050789458324764e-01
-2.462935786408903399e-02
6.757931210931812649e-02
1.012671616678234229e-02
7.355609417407582562e-02
5.338040093416018816e-01
1.186943076369214145e+00
1.422151279675832880e+00
1.009064103512894439e+00
5.056574149257933026e-01
5.491081671871809178e-01
1.037296009449667489e+00
1.360321221468674402e+00
1.181631340990113355e+00
6.739555442514346684e-01
1.606336309201058798e-01
-2.001321469219373428e-01
-4.157271454176094672e-01
-5.258533465246306715e-01
-5.278375715965560877e-01
-4.022708184544808718e-01
-1.847291056869302395e-01
1.937246318611186846e-02
1.128913763423591565e-01
7.736176293174634733e-02
-4.817291154306981710e-02
-2.192399693352261592e-01
-3.896709908081408269e-01
-4.943717352114848640e-01
-4.689018061298663165e-01
-2.982384264657645945e-01
-4.356510985196018065e-02
1.821840119840157091e-01
2.745968261853817260e-01
1.947341850056956702e-01
-1.447134572645937881e-02
-2.570660481655111518e-01
-4.303175296032060726e-01
-4.740693993516348348e-01
-4.036650105576251590e-01
-2.795606700891425933e-01
-1.394127695124628419e-01
8.124490801899775586e-03
1.288601615710419368e-01
1.546861081274921446e-01
4.694149001092965540e-02
-1.552017110346112783e-01
-3.593651144127185115e-01
-4.861041554918282270e-01
-5.097856303109091769e-01
-4.446772205629747621e-01
-3.145891735728828520e-01
-1.529278374093700488e-01
-1.177596121715259250e-02
5.926721634275682743e-02
2.700467568696549719e-02
-1.448788566871855310e-01
-4.463668132213532425e-01
-6.724180286681643581e-01
-4.453909439750007304e-01
3.660737168115169027e-01
1.266284624085593613e+00
1.541060988423876621e+00
1.149707203598009819e+00
7.732398891053464673e-01
8.565013628760933528e-01
1.094245049376545209e+00
9.923413104106730831e-01
5.095258570542864351e-01
-2.970633552404115807e-03
-2.455215220222577432e-01
-2.074081073116580409e-01
-5.746906631656140130e-02
5.891498569647122402e-02
9.300854102694092185e-02
5.132177210371258180e-02
-5.401795683976102352e-02
-2.112822810382375682e-01
-3.826695943999368077e-01
-4.994731328527385328e-01
-5.040035588751776707e-01
-3.866151269904253840e-01
-1.807305428567754779e-01
5.081837562465981589e-02
2.223178075381772034e-01
2.541094175569300617e-01
1.190817616516498950e-01
-1.346424335419602325e-01
-4.022791899016499584e-01
-5.735122709413809083e-01
-5.892880018447281820e-01
-4.607380298101516614e-01
-2.421187955122925395e-01
-4.424677456797129760e-03
1.672594364154129376e-01
1.944697013248189443e-01
6.092595522778870842e-02
-1.681135659169755714e-01
-4.035158809499383992e-01
-5.858402768274709738e-01
-6.740551796926670391e-01
-6.323486743798572007e-01
-4.628897966541837272e-01
-2.292063041016926817e-01
-2.592525298046401486e-02
6.835242662889684517e-02
1.603686568605092178e-02
-1.665559517812136570e-01
-4.021611163700212765e-01
-5.790935506290714185e-01
-6.219905987644511747e-01
-5.547372317135220721e-01
-4.597868199433633452e-01
-3.164393288391029180e-01
7.136894447564999522e-02
8.031517614074261679e-01
1.512060251698698288e+00
1.588661471426107585e+00
9.639326870447276763e-01
3.154915484020935912e-01
2.458191254898084988e-01
6.109611106830475924e-01
8.819339971583864957e-01
8.269043800280014844e-01
6.054804651460569120e-01
4.129020992177894200e-01
2.653015410805343866e-01
8.332230473527781067e-02
-1.616654873794681480e-01
-4.068138232002992405e-01
-5.485054883339134379e-01
-5.256289010785335503e-01
-3.705309009761043604e-01
-1.749552872521845381e-01
-1.132628123215327978e-02
9.258372806787483478e-02
1.175872790802459239e-01
4.000121063734410343e-02
-1.293968503999096686e-01
-3.210867956950409496e-01
-4.484720882125905472e-01
-4.690807506451482034e-01
-3.892812975259546393e-01
-2.329249057554540758e-01
-4.447534715008773232e-02
9.956368157760846216e-02
1.324843241330927179e-01
4.899591862308565193e-02
-1.026298690086824839e-01
-2.663236339418264542e-01
-4.031460704324704158e-01
-4.819479388812565879e-01
-4.703167037061434241e-01
-3.567314377817879523e-01
-1.821367239595153564e-01
-3.102407437956949954e-02
2.192731608710028063e-02
-4.138833949002673762e-02
-1.830474938644657268e-01
-3.572085503944388285e-01
-5.552359306003137318e-01
-7.653033299582413518e-01
-8.870655300045044989e-01
-7.748717834237246471e-01
-4.113075150091715093e-01
1.298193603163060733e-02
2.200765887384043273e-01
5.934143114307151995e-02
-3.130321952474745539e-01
-4.540032384168042334e-01
-2.728170322523650396e-02
7.081978012228246078e-01
1.065386290677124537e+00
7.970208266838925137e-01
4.711535440591512192e-01
6.837822222683678230e-01
1.247773974042818645e+00
1.513240291248227232e+00
1.206926985903226779e+00
6.170321752970802098e-01
1.191613893201521196e-01
-1.738990435036766591e-01
-3.172248997495769052e-01
-3.254153425054430171e-01
-1.698264268385297204e-01
9.143566117111710800e-02
2.960281912283845851e-01
3.189992929908785357e-01
1.774583848266965691e-01
-2.124642273113911545e-02
-1.816303123314566559e-01
-2.590974052272708716e-01
-2.435069697146374501e-01
-1.418535807774784496e-01
1.028120485763195716e-02
1.499827502869269247e-01
2.312215146386815690e-01
2.453712026107100208e-01
1.945661401446582839e-01
7.842387617848840808e-02
-1.013218840509571422e-01
-3.246061232413586795e-01
-5.070872815614757556e-01
-5.119275437144226171e-01
-2.885137664474684560e-01
3.016533709084881498e-02
2.409449346720373697e-01
2.539381054305446805e-01
1.175102024288107450e-01
-8.673368417540605613e-02
-3.053922302101044761e-01
-4.931802462387351871e-01
-5.953720162756660494e-01
-5.685298275571284421e-01
-4.099492714086356293e-01
-1.750513817536984984e-01
3.237036211398010288e-02
1.177152450534305894e-01
6.652643024721752174e-02
-5.822242834168329939e-02
-1.981693645656844860e-01
-3.535320746055261032e-01
-5.389399477806735561e-01
-6.731284541774189556e-01
-5.142700520098001382e-01
1.675002737030648614e-01
1.189920046884743954e+00
1.875053240794460452e+00
1.712644787749129316e+00
1.026969482992000637e+00
5.719246088851093202e-01
5.739106413751646762e-01
6.341750068921772066e-01
4.473451756008572922e-01
1.538540726909465028e-01
1.865008723888181633e-02
8.726220898570594131e-02
2.047918129591478065e-01
2.193551834056066963e-01
1.022717137948882665e-01
-8.605402579758844595e-02
-2.821275554912163752e-01
-4.430190951071271699e-01
-5.223550043273098575e-01
-4.783834195940586675e-01
-3.122034464764183448e-01
-7.902805707823414016e-02
1.351114558941396704e-01
2.449155085497130846e-01
2.012237079470493573e-01
2.385536590746820118e-02
-2.037150407536090779e-01
-3.893756922413011967e-01
-4.836973613158069840e-01
-4.804642736287846883e-01
-3.926200914537443798e-01
-2.451026851112398930e-01
-7.825620868997847090e-02
5.555067850974054061e-02
9.959449320479936418e-02
1.339874428085983081e-02
-1.885394931917775962e-01
-4.244432894146972779e-01
-5.941858270242541540e-01
-6.391894643140149102e-01
-5.544227928648518544e-01
-3.757258973570156146e-01
-1.744806614611390250e-01
-3.148030691373556594e-02
8.158903151628531247e-03
-5.832625017601072992e-02
-2.150483154985889378e-01
-4.200388318964695666e-01
-5.855410765206617851e-01
-6.157482934686840936e-01
-4.898712380918452403e-01
-2.999248009334836151e-01
-1.740672091504628094e-01
-1.113396086649734579e-01
9.334640705526134341e-02
6.111659822076037640e-01
1.197222533665798894e+00
1.302521202418796431e+00
7.881587215660599277e-01
2.385674576214651121e-01
2.593867791880172802e-01
7.467683073907901425e-01
1.141395900522764739e+00
1.134480981657756571e+00
8.491666933182046018e-01
5.097117952917555872e-01
1.936933873708624188e-01
-1.130686451975430329e-01
-3.850606235378252751e-01
-5.442577626480579189e-01
-5.307881604657878061e-01
-3.561684417375851064e-01
-1.073443659448204690e-01
9.336955061844577630e-02
1.616528534415844764e-01
9.984757274980424202e-02
-3.605030705962856963e-02
-1.977028286307072613e-01
-3.530780764726507148e-01
-4.650774901549537543e-01
-4.928017137856605112e-01
-4.142630067077489042e-01
-2.475797694475099509e-01
-5.167269805577644204e-02
9.460248754494655909e-02
1.214158413398952613e-01
3.088388563619558214e-03
-2.116211457512540972e-01
-4.146059122153083476e-01
-5.138398998362256886e-01
-4.993532985497879939e-01
-4.192814782973227072e-01
-3.107176981237885771e-01
-1.904072116179505447e-01
-9.276160823222462382e-02
-6.753835322803551644e-02
-1.394832357918347754e-01
-2.963566591812765161e-01
-4.987491466353134451e-01
-6.715511240331445419e-01
-7.225854665637673202e-01
-6.194426725074985152e-01
-4.241621934305827013e-01
-2.238589170767571745e-01
-6.338438163199815178e-02
2.902154484529288758e-02
-7.989360358720904581e-03
-2.275896842730178726e-01
-5.324220120911363763e-01
-5.966978396035385046e-01
-1.091613957452442635e-01
7.575689215254624020e-01
1.330569660303316804e+00
1.191889610470098004e+00
7.491090907549295963e-01
6.793300793961997153e-01
1.021645920743416314e+00
1.228627081759385620e+00
9.420238595840753071e-01
3.509363755230235360e-01
-1.347638591723060164e-01
-3.008958851779918731e-01
-2.157322883090970200e-01
-5.418851280449134278e-02
8.389578144515640046e-02
1.835542879232393843e-01
2.138912469595885824e-01
1.171741325689601987e-01
-9.624586498924574129e-02
-3.198106250130655637e-01
-4.377142638131087948e-01
-3.999182183877090790e-01
-2.210864507999023842e-01
3.584695263730442588e-02
2.729360486373087480e-01
4.032791340709300232e-01
3.989099809254976758e-01
2.884641300597393099e-01
1.150701751275142182e-01
-9.398972664757308804e-02
-3.021717615819487501e-01
-4.277939419425003664e-01
-3.867867440344425756e-01
-1.743599314813290002e-01
1.169198308362316419e-01
3.408637334866022606e-01
3.777485319395416652e-01
2.209450130802285417e-01
-3.433439629411187688e-02
-2.916363399764957398e-01
-4.889422236417980128e-01
-5.695703457481887666e-01
-5.065663020831664420e-01
-3.394464634085364585e-01
-1.341745701409939873e-01
6.114060734523460439e-02
1.968478423093966700e-01
2.180034953859235902e-01
1.083302982958270627e-01
-8.744658953431523607e-02
-2.824453723104226044e-01
-4.047472711634378939e-01
-4.580590466114216053e-01
-4.600522195476512977e-01
-2.795532916010277091e-01
3.179567533944206437e-01
1.266501680285834874e+00
1.956322161686491645e+00
1.784921578648473561e+00
9.661640016223269622e-01
3.382752966119568772e-01
3.376095416913187375e-01
6.251288614985660574e-01
7.187307019069935077e-01
5.487008239874409110e-01
3.357023208247457702e-01
2.267045914783739347e-01
1.764377211106442356e-01
7.123948267662875977e-02
-1.316789011833757184e-01
-3.713358446051301387e-01
-5.425009291728942751e-01
-5.794958066184732193e-01
-4.919721150283274391e-01
-3.334924623684012435e-01
-1.568730066755718022e-01
-6.975595751753736751e-03
7.036495206514184475e-02
4.298122620226334234e-02
-8.384943032996257373e-02
-2.670368660268420125e-01
-4.442414463998471952e-01
-5.517571668532657014e-01
-5.429008830304211664e-01
-4.127989755065831767e-01
-2.125067915786034156e-01
-2.730347994951858384e-02
7.203752690829640093e-02
5.876799396967465061e-02
-5.801418457345940138e-02
-2.443220640306947578e-01
-4.411380073999993101e-01
-5.811768197844094930e-01
-6.192807729051628129e-01
-5.447080704901995363e-01
-3.792693708515991191e-01
-1.770489647990326210e-01
-1.381668454516164768e-02
3.616986939146667190e-02
-7.656898366769074316e-02
-3.404689690437679439e-01
-6.434671904561164446e-01
-8.163823651004471493e-01
-7.686645804660050540e-01
-5.469864593827843402e-01
-2.534464682659967050e-01
2.342558716313732515e-03
9.316175817492573785e-02
-4.987537392237256784e-03
-5.357002477599719786e-02
2.635472424267102931e-01
8.548834566356839915e-01
1.157685423894440513e+00
8.464679922186202354e-01
3.793931898830812943e-01
4.397348478628025359e-01
1.027207840950925766e+00
1.514695630192915754e+00
1.448740767380007011e+00
9.357309154631334724e-01
3.381236092284500838e-01
-1.078472335769992962e-01
-3.602454270363327771e-01
-4.533681184636287886e-01
-4.167569807434986506e-01
-2.820151088577017018e-01
-1.056093523103538712e-01
4.492465950978800221e-02
1.173091308828502211e-01
8.404692252751967685e-02
-5.018943878862024838e-02
-2.364597561211315979e-01
-3.962169355662591985e-01
-4.697588766292840612e-01
-4.436443250671603389e-01
-3.313859982113572245e-01
-1.612271156623609203e-01
9.764309438262522289e-03
1.074663769574195210e-01
8.341559543307829061e-02
-5.976657469112849064e-02
-2.683727861823064775e-01
-4.524724904878599796e-01
-5.273749940911650613e-01
-4.670873426696827702e-01
-3.188542100904265819e-01
-1.590252824333571180e-01
-4.002869827155668830e-02
1.440383149222010557e-02
-1.373962920447948342e-02
-1.336063896002219753e-01
-3.224506631071659135e-01
-5.217381122055353426e-01
-6.614623118587223960e-01
-6.949521164498888570e-01
-6.169235387419617078e-01
-4.541975930889567414e-01
-2.530523494332397316e-01
-7.580652288546223250e-02
1.734738184023992130e-02
-3.205024214475129390e-03
-1.431025093987656760e-01
-4.011185076894592805e-01
-6.998436614571224013e-01
-7.792869180986818911e-01
-3.238730335844309249e-01
6.047744954935017070e-01
1.381958038062216731e+00
1.424949722252938811e+00
9.417303773861792626e-01
6.485896806455454522e-01
8.002158154221545860e-01
9.826554109333763831e-01
8.114712986345851142e-01
3.768474242678794828e-01
-9.674849381217980049e-03
-1.777551216618452057e-01
-1.466056970735715448e-01
-1.567948414082254160e-02
9.571591049987679400e-02
9.225504941343873333e-02
-3.794503895346357930e-02
-2.292265067699897629e-01
-4.054228058846177651e-01
-5.087331429080819145e-01
-4.918228729963833312e-01
-3.422428081751730522e-01
-1.145759305368810599e-01
9.612202323763771594e-02
2.160146572914248830e-01
2.191576653100497374e-01
1.158595452352781247e-01
-5.773897798364399647e-02
-2.473573665683815592e-01
-3.963145765391641873e-01
-4.546205853948028230e-01
-3.866291034904766888e-01
-1.990757497249678598e-01
4.476675215518299139e-02
2.588341485103257122e-01
3.587743432149733680e-01
2.713372688738953653e-01
1.964096546178270564e-02
-1.965163037265184875e-01
-1.284165279987339314e-01
2.710868825288442197e-01
7.893490538723868521e-01
1.154503961395752398e+00
1.242790826658192849e+00
1.100942391905239015e+00
8.419677665506836162e-01
5.541346383553510391e-01
2.764468092776089514e-01
1.917359651467981374e-02
-2.041066071103371515e-01
-3.605495324001971036e-01
-4.142865058354020524e-01
-3.567212839724069329e-01
-2.130317408393445910e-01
-2.862952593693697534e-02
1.330942259862683830e-01
1.968599490172486255e-01
1.176077132648017248e-01
-7.461855193239683159e-02
-2.876037929229472989e-01
-4.293633664734725075e-01
-4.594896648802532790e-01
-3.945273819159528794e-01
-2.752630258237470096e-01
-1.351066964409380899e-01
-5.069097988189965459e-03
6.883788057845455222e-02
4.520944797123777753e-02
-7.143752908610262464e-02
-2.278283569591157687e-01
-3.632304187990624822e-01
-4.398313462825342857e-01
-4.403960308772734145e-01
-3.661407610142520253e-01
-2.432244296743598100e-01
-1.149239439560813675e-01
-2.906037471831476177e-02
-3.471951919999886199e-02
-1.598238920489237214e-01
-3.675047947958141048e-01
-5.560996374188464930e-01
-6.304194128592804924e-01
-5.689218906312986102e-01
-4.150337913977673043e-01
-2.230073055228216361e-01
-3.279179095444131886e-02
9.889334724332485282e-02
7.426941773156381377e-02
-1.458957853347263578e-01
-3.624439820081780117e-01
-1.960636293923636309e-01
4.597763524136960211e-01
1.121247735358071207e+00
1.202327339629014613e+00
8.226489515344628245e-01
6.696342934844603523e-01
1.018305190611988653e+00
1.401154203982782454e+00
1.311105101085771718e+00
7.770869307419993044e-01
1.645486838061464840e-01
-2.577771090012951349e-01
-4.294650809919608458e-01
-3.770960115156106740e-01
-1.573676977881227901e-01
1.054567167584894993e-01
2.544142878398377716e-01
2.254113057074753346e-01
8.081567602567504838e-02
-9.526936244580810897e-02
-2.626227987903135830e-01
-3.878721153913517461e-01
-4.245844630722585555e-01
-3.501941224404261366e-01
-1.880264914658055786e-01
9.063105283658563771e-03
1.758007013888470693e-01
2.477851555016568896e-01
1.940710421500406735e-01
3.900632079093321880e-02
-1.665941426614842014e-01
-3.809013109160622190e-01
-5.530162657578679974e-01
-5.916022082236412905e-01
-4.185012665853269920e-01
-8.965547831289763514e-02
1.921694017541092647e-01
2.443786717938888076e-01
6.068942110709572846e-02
-2.203159333900612527e-01
-4.591613261132522217e-01
-5.995033126754867325e-01
-6.460841505892865877e-01
-6.124462567008492897e-01
-5.004793186170291008e-01
-3.155751805146360112e-01
-1.002951003094696564e-01
5.654934910026460093e-02
7.371604611704181409e-02
-5.040060888022943747e-02
-2.330160908928296803e-01
-3.871511044435063109e-01
-5.078042945055927238e-01
-6.294276522547431751e-01
-6.337120741860310380e-01
-2.045519744178404542e-01
7.596843399381496553e-01
1.706852851235164836e+00
1.852050929619089903e+00
1.170043520891902666e+00
4.713462993224852293e-01
3.509726588022460958e-01
5.846745708076027670e-01
6.744394464388228094e-01
4.986889004726197672e-01
2.686758338163017235e-01
1.569179786200048665e-01
1.460785535871776120e-01
1.335198203099935976e-01
5.377552014750799914e-02
-9.984041576475713442e-02
-2.992643157445947222e-01
-4.910460371181952777e-01
-6.042408645947828782e-01
-5.789530397288613628e-01
-4.067313033768859554e-01
-1.539002071138671490e-01
6.833381269893135102e-02
1.772163482974364046e-01
1.571694272554419736e-01
3.009153500303590745e-02
-1.739923966733668559e-01
-4.002429583326349016e-01
-5.573946157799417600e-01
-5.678513508940964405e-01
-4.418065152754329095e-01
-2.718415443959263378e-01
-1.348125939704776788e-01
-3.143352255642908877e-02
5.276250618733080433e-02
6.601179312702754043e-02
-7.219544361879778882e-02
-3.458352486397057168e-01
-6.068876785534080831e-01
-7.022430464127995542e-01
-6.034368177978196579e-01
-3.871555462185620744e-01
-1.484554204843743230e-01
2.382053025115066225e-02
5.702079934249621590e-02
-5.018567500480480836e-02
-2.193273529479008999e-01
-3.738971314336705931e-01
-4.879971776554219431e-01
-5.387207840621279775e-01
-4.691037318509614362e-01
-2.493194864169579195e-01
3.003365041403275801e-02
1.888860546801788276e-01
1.735620023775120147e-01
2.287952666871403973e-01
6.587306899305380714e-01
1.304050345441563952e+00
1.539025129494147048e+00
1.079014682368079292e+00
4.886375853778210376e-01
4.896531171452003783e-01
1.041142171531430627e+00
1.489261028323256575e+00
1.396046031842380408e+00
8.919029053170938193e-01
3.436948812620620464e-01
-4.215124419333262512e-02
-2.649539223033735014e-01
-3.660342928697989384e-01
-3.517908825469547307e-01
-2.403954618973034862e-01
-8.492474982931386140e-02
6.165452248040744626e-02
1.590304698742646961e-01
1.672747799580045769e-01
6.619713201616535259e-02
-1.131797963609166291e-01
-3.005820599712726859e-01
-4.272310556813403437e-01
-4.483139536031657824e-01
-3.513807977381495085e-01
-1.706960706902933278e-01
1.668816164545729175e-02
1.312835877965400355e-01
1.285908946542412834e-01
3.948435623475364357e-03
-2.063032191525208114e-01
-4.193147532927339327e-01
-5.419574747533034698e-01
-5.381066263868048427e-01
-4.382316814457354881e-01
-2.864627651656428409e-01
-1.270490472731189979e-01
-3.097743240698918460e-02
-5.852586497029829693e-02
-1.906722727269101192e-01
-3.522452401233254760e-01
-4.890224682456794092e-01
-5.845370420031911207e-01
-6.284798727466068824e-01
-6.022995489244031830e-01
-4.894573986879043881e-01
-2.963205127289176288e-01
-7.477668378849150477e-02
8.207045112820098021e-02
8.567665968151991218e-02
-1.015906374308074567e-01
-4.350047893431556734e-01
-7.280013916752821057e-01
-6.495698009512637094e-01
5.898066325658254255e-03
9.295755559037528482e-01
1.443956395202976806e+00
1.279659687497575860e+00
9.223336018570087447e-01
9.083505505439939398e-01
1.124196330425382362e+00
1.112026273834118451e+00
7.367277584897964360e-01
2.548503659038677815e-01
-6.190264025104483259e-02
-1.494563126338145365e-01
-8.868119820830533406e-02
2.623810993872944392e-02
1.305470097206002378e-01
1.655506773116952324e-01
8.414032109626232159e-02
-1.032727079655675617e-01
-3.181021948610682215e-01
-4.656228129921277104e-01
-4.932793879069377052e-01
-4.055567562321142905e-01
-2.389033045494898533e-01
-3.910444427822750563e-02
1.334312514088481505e-01
2.090398666932212213e-01
1.507207326351376331e-01
-1.749295516772517850e-02
-2.291687759280598979e-01
-4.071550694335264176e-01
-4.855932458632435389e-01
-4.324709879956257774e-01
-2.640941033923608905e-01
-3.894216405078916587e-02
1.555303710395638528e-01
2.279745062417116719e-01
1.353014901486484234e-01
-8.500717792359312186e-02
-3.473945566377084071e-01
-5.649805852795793948e-01
-6.672867817750695041e-01
-6.234977582976141131e-01
-4.664351326008260301e-01
-2.663403889010007020e-01
-8.238216989623062259e-02
4.229564580992491163e-02
6.009482436125020838e-02
-6.752875568486035873e-02
-3.178265486643433446e-01
-5.698360186829929397e-01
-6.675445281866282388e-01
-5.822113375650285194e-01
-4.638993998627594095e-01
-4.098146011429461000e-01
-2.144927104359301839e-01
4.089377108391859528e-01
1.252662673558314177e+00
1.592567565735153901e+00
1.069340841832367106e+00
2.773959899479090385e-01
3.811427647405833674e-02
3.821521638997671388e-01
7.130432445751452297e-01
6.978245527133593029e-01
5.208200158216284015e-01
4.196037971779339459e-01
3.730433057533642516e-01
2.430441588279739773e-01
-2.862078430791137676e-03
-2.694605851218095371e-01
-4.498959724189504628e-01
-5.035467644936363341e-01
-4.411297359877613955e-01
-2.936659714376492203e-01
-1.103203116753849189e-01
4.735168981317045001e-02
1.296582339152086705e-01
1.144938531637710033e-01
3.089783719471475912e-03
-1.822035883439740156e-01
-3.848137914442218976e-01
-5.097900386315717958e-01
-4.647290437339460789e-01
-2.415076013760429907e-01
3.730688378970656305e-02
1.960918798960373244e-01
1.616174380926316267e-01
1.596598263201087081e-02
-1.176201309092807790e-01
-1.998652788006162195e-01
-2.699066391563887946e-01
-3.569366886373961933e-01
-4.334017509998722706e-01
-4.438504238230700505e-01
-3.546998224869695182e-01
-1.881366594113033641e-01
-3.055878851388729375e-02
1.555566453996278659e-02
-8.292218152033319079e-02
-2.671410414649246223e-01
-4.482909607610086611e-01
-5.612467067326032399e-01
-5.701100976425355071e-01
-4.607132336167884534e-01
-2.386455424318362495e-01
4.426818934770716807e-02
2.437934719657535720e-01
1.828377789208360249e-01
-1.242767238236730798e-01
-3.320856316496357818e-01
-3.403286979491867981e-02
7.110818585496125888e-01
1.286565269183365556e+00
1.202848204065407156e+00
7.574871592388965347e-01
6.605723424519334142e-01
1.089827447979334840e+00
1.521609977913723988e+00
1.450441020387801094e+00
9.064678053249811684e-01
2.643977420638301545e-01
-1.761987178157597422e-01
-3.467194830001919525e-01
-3.030979496694833353e-01
-1.138104558592651361e-01
1.325588840893053844e-01
3.154752519531687227e-01
3.543553079616006962e-01
2.642076818725929144e-01
1.148847698052401500e-01
-4.318833316363305391e-02
-1.977862184316169225e-01
-3.235517873203700434e-01
-3.490559159174693171e-01
-2.203800498061477542e-01
1.916244989839471086e-02
2.472395149011823723e-01
3.482682442088213537e-01
2.781218169050255762e-01
7.986259153645802744e-02
-1.483923151654852057e-01
-3.209098713845602302e-01
-4.090128089121495281e-01
-4.155329741152994916e-01
-3.349414212186413997e-01
-1.794116236739172199e-01
-1.908628706711332224e-02
5.751412360708304389e-02
1.152052553596454205e-02
-1.415739118371387162e-01
-3.576296284691184990e-01
-5.707499191651062009e-01
-7.093972671677623021e-01
-7.293623945133749231e-01
-6.281079757475892533e-01
-4.388998422963504287e-01
-2.259376003613293438e-01
-7.074788171741837328e-02
-3.084325676416694098e-02
-1.003820909286886331e-01
-2.285025474470770701e-01
-3.832277648016801930e-01
-5.662347569643588763e-01
-7.147280410269535311e-01
-6.020865882393944268e-01
1.269863102241466923e-02
9.871706868852925254e-01
1.686893591775182610e+00
1.594291052134214626e+00
9.734213929676892585e-01
5.510773697476767374e-01
5.979760107802738478e-01
7.429732339268467767e-01
6.234130700351869780e-01
3.050301254169846543e-01
5.704178019228400842e-02
8.153500205533553008e-03
9.003978539682916393e-02
1.645251753680749551e-01
1.305715247969479742e-01
-3.224502838714464470e-02
-2.657930560867350356e-01
-4.753181166670941704e-01
-5.838878282159902788e-01
-5.631951051497686711e-01
-4.287214841036963153e-01
-2.185135518371696117e-01
1.069121359617319911e-02
1.793434712799208686e-01
2.160268852247782534e-01
1.054606429145903412e-01
-1.055841497711264565e-01
-3.382059968398850591e-01
-5.057492950633473150e-01
-5.417467279009766656e-01
-4.409951387053498983e-01
-2.633923840486503409e-01
-7.743928928555740554e-02
7.976820739144400985e-02
1.708755709840707737e-01
1.355686726833438271e-01
-4.961507286749869405e-02
-3.166810221895923205e-01
-5.531650626403529225e-01
-6.768406461108070760e-01
-6.424833749222506052e-01
-4.405012943468595288e-01
-1.484820431838202448e-01
7.128442204785920278e-02
1.026590860113233417e-01
-2.514493016314833795e-02
-2.099418332142833077e-01
-3.896287195904007405e-01
-5.403176156045306211e-01
-6.214279470554575635e-01
-5.854587635098151832e-01
-4.443170050231362023e-01
-2.893262125737914303e-01
-1.831026005646472776e-01
-1.455169962592953517e-02
4.086417892215431502e-01
9.899065521056210626e-01
1.239159388055050215e+00
8.460837514247844249e-01
2.253077397298746676e-01
8.363797943562467641e-02
5.392493706392373909e-01
1.065120529323002385e+00
1.198038576518519527e+00
9.462493674830911861e-01
5.640554374943258509e-01
2.209270813263217725e-01
-5.628464240450747891e-02
-2.772726604228236691e-01
-4.308843880050686193e-01
-4.990762493595967686e-01
-4.700171518030484830e-01
-3.421702568833688840e-01
-1.438799187658347523e-01
5.224426421601306714e-02
1.557364100631906112e-01
1.120956346108296087e-01
-6.087129174492486583e-02
-2.788524763036869247e-01
-4.377773847244341709e-01
-4.710544514099271884e-01
-3.735278984698930937e-01
-1.924412851562952997e-01
-7.280473072079695490e-03
1.071045254915679590e-01
1.189363594733906931e-01
4.083660565488151512e-02
-9.326105367851778016e-02
-2.409612166384365595e-01
-3.619455047044776719e-01
-4.285059844154096576e-01
-4.194324896501623878e-01
-3.238803072651080805e-01
-1.722402023283805539e-01
-4.008354629101590350e-02
5.550370543564338288e-04
-7.258693437088993561e-02
-2.288522612705073400e-01
-4.083325625823648886e-01
-5.494666349818924100e-01
-6.103909573188857074e-01
-5.743428138206762013e-01
-4.364344471959074045e-01
-1.991695810719597004e-01
8.976193557993433769e-02
3.078595414949552578e-01
3.159744392772129706e-01
5.967315046493536224e-02
-3.505859252770174295e-01
-5.985644277936799096e-01
-3.221907609573833597e-01
4.628805974100975162e-01
1.186061806527357598e+00
1.297132479889093304e+00
9.708399899148008050e-01
8.406955387142212022e-01
1.100536557041291053e+00
1.327921707268488571e+00
1.142388400043933272e+00
6.286681374212037543e-01
1.186762144526296442e-01
-1.646887207420771881e-01
-2.099746995304991870e-01
-1.177861111272017897e-01
2.658435833773094975e-02
1.957906453824239668e-01
3.494211428946220055e-01
3.755279059660771024e-01
1.929841270389827945e-01
-1.086402742306840224e-01
-3.277472082939589249e-01
-3.461857109220752293e-01
-2.075390220489808923e-01
-2.430215570049411300e-02
1.262402711762268259e-01
2.204216756160522761e-01
2.618435381966859321e-01
2.527327031406851332e-01
1.793692627338828727e-01
2.715235765171223128e-02
-1.873634843823016871e-01
-3.918759721314254985e-01
-4.727809450680158787e-01
-3.547182897577766392e-01
-8.836694496114365360e-02
1.645300661935936160e-01
2.598645161837217499e-01
1.775770934730821204e-01
-8.611149144603386790e-03
-2.275416353406282677e-01
-4.331112358592160150e-01
-5.678556616157575121e-01
-5.787661479901602402e-01
-4.666842457788187848e-01
-2.748053015487174622e-01
-5.436619723563539813e-02
1.184610345498509770e-01
1.462417482651884315e-01
-3.963436791588323405e-03
-2.464921591762929409e-01
-4.517925720190252847e-01
-5.624404144074721668e-01
-6.181383951465964088e-01
-6.494861710121543341e-01
-5.244272384220676209e-01
9.911282076128066082e-03
9.427434332199381428e-01
1.712076246862322959e+00
1.680283093585256626e+00
9.671920004382396074e-01
3.640670174409977866e-01
3.360196736012023844e-01
5.839629920384461492e-01
6.448760554114324473e-01
4.645689267575149328e-01
2.712526150226567401e-01
1.933712591601532971e-01
1.567446698524589399e-01
4.419248117088612343e-02
-1.596725370646239484e-01
-3.731349832311210424e-01
-5.081113276885372843e-01
-5.320368959578875012e-01
-4.624363985400694599e-01
-3.344097959192009473e-01
-1.779554898634861937e-01
-1.827621831206600184e-02
1.030656616585122337e-01
1.262118785069391014e-01
1.665759003414452044e-02
-1.913965532814712045e-01
-4.062292265314219053e-01
-5.359688681253342857e-01
-5.390697643811788176e-01
-4.307414677071310094e-01
-2.611561487413718297e-01
-9.501960372417284084e-02
1.347320558967880777e-02
4.779274623264505306e-02
1.723098195179040282e-02
-8.202427019508723438e-02
-2.570015363390436569e-01
-4.646461483744139254e-01
-6.068442090545753675e-01
-5.980475421663616897e-01
-4.368960008319208721e-01
-2.126564241945588241e-01
-3.614239546087907179e-02
3.692799882593778005e-02
4.715616783294095116e-03
-1.334294805677991025e-01
-3.677482772962387125e-01
-6.128307645439212692e-01
-7.260010494519287816e-01
-6.289135805802470447e-01
-3.807349260451474704e-01
-1.331564133225913160e-01
-3.174134188451233074e-02
-8.451918381553005788e-02
-6.747847574452095487e-02
2.909168777777312864e-01
8.779636442012694886e-01
1.149530973053598082e+00
8.025789176463653529e-01
2.924757538835793813e-01
2.973553100726017973e-01
8.453259413267031341e-01
1.351963173987763778e+00
1.364725045454995067e+00
9.430131933598308036e-01
4.059101586141806717e-01
-2.191006507821091631e-02
-2.937725350836757898e-01
-4.354206151056133067e-01
-4.601465698276053784e-01
-3.732721076904351731e-01
-2.082039631451286232e-01
-3.365356388819892852e-02
7.619350886708256554e-02
7.993632614815936177e-02
-1.453726305557163229e-02
-1.604914069385635078e-01
-2.977021846719903331e-01
-3.818111805529109115e-01
-3.990105059523652575e-01
-3.508533961312939042e-01
-2.380116439338903489e-01
-7.785649951714221362e-02
7.219830695962724254e-02
1.299068869717049102e-01
3.891517792652826602e-02
-1.776618168296524858e-01
-4.088722888821906820e-01
-5.267009655482776109e-01
-4.861421176850696524e-01
-3.464008643487312966e-01
-1.894282817058920987e-01
-4.864735357429741947e-02
5.814948640880953507e-02
6.249394847631059569e-02
-1.157337134679602281e-01
-4.363810036653362756e-01
-7.148015720464154787e-01
-8.003606008891748225e-01
-7.197936687465086303e-01
-5.788702250089580170e-01
-4.158200565931117199e-01
-2.275426357619977913e-01
-5.313792077662259083e-02
4.451198473538043460e-02
3.702798668835181883e-02
-7.770996702847564330e-02
-3.002823404113039718e-01
-5.517800400648068537e-01
-5.710671195497225572e-01
-8.092752081843399004e-02
7.811365511102938974e-01
1.394217429329607461e+00
1.324815425168129002e+00
9.059039866484357439e-01
7.769015973552160226e-01
1.019620990647226444e+00
1.157093880371652617e+00
8.667252933359014255e-01
3.227151999308919272e-01
-1.096148144839442090e-01
-2.545804236286685618e-01
-1.853624007456673994e-01
-5.687069011779125050e-02
3.891902915133362006e-02
7.581246949712031058e-02
3.034061177272821125e-02
-1.141996711012196464e-01
-3.107060738082792484e-01
-4.556853478606813779e-01
-4.712988543355604576e-01
-3.586251240964464793e-01
-1.731623093021886217e-01
2.426517927020777760e-02
1.870799084904565535e-01
2.742020350817816476e-01
2.425225633625585353e-01
7.352047177458224947e-02
-1.781565969295599294e-01
-3.878922814398547692e-01
-4.470314031182386905e-01
-3.504655983166254374e-01
-1.813963201244592760e-01
-1.072960275725925311e-02
1.481475255640481714e-01
2.743505477250431923e-01
2.907371493001486562e-01
1.263144161778537722e-01
-1.894165307364505668e-01
-5.099357320158439677e-01
-6.510627701696402037e-01
-5.266324583926639269e-01
-2.411497325737379516e-01
-8.526084254442629906e-03
5.534022729367706062e-02
1.391411104047736089e-02
-2.650183593844541302e-02
-5.732475594979525441e-02
-1.362818213527201561e-01
-2.652983682764935569e-01
-3.532523945523284303e-01
-3.237075795485591656e-01
-2.255304552216055303e-01
-1.392152247375992857e-01
4.396665842913444200e-02
5.751071833806034039e-01
1.411653715617636751e+00
1.981210224532541586e+00
1.736716308681386156e+00
9.279438184621626728e-01
3.893703973530153739e-01
5.221429142181045480e-01
9.288658613241116413e-01
1.074255311417724679e+00
8.762325257120847644e-01
5.827686074262210525e-01
3.775131683196172316e-01
2.396631500932853986e-01
7.243642752219349445e-02
-1.479748248306599900e-01
-3.517876711232073572e-01
-4.480138664173936025e-01
-3.934472004394611311e-01
-2.149807672412102078e-01
6.411537544261131094e-03
1.756727383784340013e-01
2.286890280106838036e-01
1.537791445431656856e-01
-1.610365453239723937e-02
-2.207903260901868947e-01
-3.931843154577208121e-01
-4.822144833263942720e-01
-4.648571387602447036e-01
-3.478225929633237401e-01
-1.728528744303247100e-01
-1.240942224829026663e-02
6.548102213731391008e-02
4.033213982868152914e-02
-5.940636950383121340e-02
-2.006166623451154374e-01
-3.703846460894666404e-01
-5.384475736578259175e-01
-6.251570502221043268e-01
-5.602878102519726067e-01
-3.766158036646200524e-01
-1.993823551446649578e-01
-1.266519681710626399e-01
-1.559340665392864589e-01
-2.392914708359399623e-01
-3.561570099448927995e-01
-4.999286542629340913e-01
-6.373475455091711650e-01
-7.162804487384584196e-01
-6.910624715231535875e-01
-5.366395191683448473e-01
-2.855730859340684935e-01
-6.792222451085190571e-02
-4.506630268295517411e-02
-2.137860833987998976e-01
-2.941763966742387271e-01
2.032797517353868502e-02
6.031620366391451382e-01
9.050848625689228433e-01
6.583512608805222044e-01
3.188026404987953089e-01
4.670440433730317364e-01
1.018697944002035172e+00
1.387740170064542200e+00
1.222578618255398375e+00
6.781414389338037418e-01
1.061787553451389587e-01
-2.761071960351547672e-01
-4.402251612805658243e-01
-4.417959963940886192e-01
-3.424899127651659936e-01
-1.957431717108812086e-01
-4.735613528782867121e-02
6.094673133846224833e-02
8.119338671819548159e-02
-2.350479567439270681e-02
-2.302062105551195559e-01
-4.432172380191094496e-01
-5.520637740418706807e-01
-5.051163235973848975e-01
-3.353344731459401706e-01
-1.284306259975112885e-01
3.632951914626816881e-02
1.223570583437261217e-01
1.217909138573828737e-01
2.738354066972642845e-02
-1.590447205930585195e-01
-3.909479235366846717e-01
-5.691890918146096379e-01
-5.909610872437047746e-01
-4.281431649732157507e-01
-1.659670621480288655e-01
5.407223004688013063e-02
1.408408920348784565e-01
9.423457885551926594e-02
-4.164092749869666155e-02
-2.248070049935235182e-01
-4.121358027429973814e-01
-5.460382404871565454e-01
-5.754654285803915137e-01
-4.912634041335902646e-01
-3.277041056203357505e-01
-1.375899715273258550e-01
2.122697622981097737e-02
9.788105401419498752e-02
7.392029984505210649e-02
-3.311975149566649679e-02
-2.049848362766538701e-01
-4.376889938411409053e-01
-6.648231722648897390e-01
-6.528340167016049023e-01
-1.175758320471859686e-01
8.613842091723762362e-01
1.657689959420610926e+00
1.684241610152467317e+00
1.129272649195000033e+00
7.068713072692706101e-01
7.273099027147792439e-01
8.511927644859493824e-01
7.113023369302735599e-01
3.639135450837547303e-01
9.244917093786114703e-02
3.991198725114861873e-02
1.278943803826966541e-01
2.065185737042086189e-01
1.850092656619991838e-01
5.358653187313204558e-02
-1.442457838834688977e-01
-3.372360289424097823e-01
-4.530598512729301364e-01
-4.523441462459913409e-01
-3.445765053857553495e-01
-1.717012044914114632e-01
1.268207844122908740e-02
1.511519132529990650e-01
1.927947729333359672e-01
1.130623544123712243e-01
-6.516842607995693148e-02
-2.714093845682642447e-01
-4.285360788151557077e-01
-4.951214863957383860e-01
-4.563050212801103567e-01
-3.063501046184777810e-01
-7.848691495607568180e-02
1.356186552602661743e-01
2.338371523473215252e-01
1.672674748549079771e-01
-3.526517740806137807e-02
-2.842308726877411096e-01
-4.811048503625522943e-01
-5.684473960818214877e-01
-5.364593819518665985e-01
-4.078802440266359186e-01
-2.320474242807229470e-01
-7.163898814115617075e-02
1.974659672792573178e-02
8.351820278092446023e-03
-1.124728068876011677e-01
-3.101269897328092773e-01
-5.085176820384360585e-01
-6.077873532004270940e-01
-5.462165156022417145e-01
-3.702522134960022915e-01
-2.171907783447470930e-01
-1.738165911233462424e-01
-1.202471403722885496e-01
2.065013862335526862e-01
8.337673896829239650e-01
1.304879428352685666e+00
1.137965020791798398e+00
5.373045094694874901e-01
2.199326345079597456e-01
5.001678375104405827e-01
9.832350042635237264e-01
1.170998493300431820e+00
9.760834753223560645e-01
6.158803071945475605e-01
2.851748645639285984e-01
2.354772717889934766e-02
-2.066842516133128860e-01
-4.029442387870344477e-01
-4.971938347039959183e-01
-4.251521838540716081e-01
-1.995794231230891835e-01
7.679718983596886539e-02
2.622389247796665934e-01
2.698794973351235083e-01
1.334286527981745074e-01
-3.904343432544694209e-02
-1.752612646685228204e-01
-2.707712787268491961e-01
-3.162843258146268988e-01
-2.503634347150959227e-01
-3.195285856577662759e-02
2.596891639952287889e-01
4.492543801596911579e-01
4.093195398165526133e-01
1.769371766014039005e-01
-7.833309177994714212e-02
-2.082230407149096574e-01
-2.113698804788244345e-01
-2.034343536301581323e-01
-2.551842706956750084e-01
-2.911357796329339109e-01
-2.030017473554074914e-01
-2.854884421186072024e-02
7.475984849301141322e-02
1.833349245742419906e-02
-1.440065825804683897e-01
-3.185887391027442117e-01
-4.638192399847099190e-01
-5.723808746174566808e-01
-6.209683116129580682e-01
-5.654083397931184418e-01
-3.819128295178752519e-01
-1.154016748384800173e-01
1.191180867533872395e-01
1.927145764648465209e-01
2.834576301056683165e-02
-3.294968003330521200e-01
-6.297407056800555791e-01
-4.682239603604334000e-01
3.245231141327505897e-01
1.279812028883435371e+00
1.628584413248959084e+00
1.237517009346025931e+00
7.911524518248287396e-01
8.312871902581051575e-01
1.101976360714858050e+00
1.060434593792332958e+00
5.970960308936175132e-01
3.542727737170228014e-02
-3.090742931256439396e-01
-3.803451914403087053e-01
-2.954314460500456208e-01
-1.647230249801683311e-01
-3.979216428199091465e-02
3.391635568776853182e-02
3.075478655383236809e-03
-1.344585242956330695e-01
-2.983475815002499809e-01
-3.959686284548897817e-01
-4.073235983664321158e-01
-3.601522157254184453e-01
-2.623612004765820127e-01
-1.199288763630892568e-01
2.015802380863829235e-02
9.476451499077123697e-02
6.689323133900408613e-02
-6.389239219931915070e-02
-2.604258067080159056e-01
-4.534098283833409293e-01
-5.694477171560302642e-01
-5.638627778184353012e-01
-4.334728154379131615e-01
-2.222757970370695668e-01
-2.190407898607061102e-02
7.502627223517767396e-02
4.353642293304908067e-02
-8.335369463224917563e-02
-2.812022968709333437e-01
-5.264223167169711504e-01
-7.347272162250243488e-01
-7.917555131922403566e-01
-6.601036982862773517e-01
-4.135011896267229425e-01
-1.729712900234750550e-01
-3.458562438449597903e-02
-3.331835971089772835e-02
-1.395225492682253543e-01
-2.849777791361796653e-01
-4.090532049948404913e-01
-5.019092453153729538e-01
-5.919326468811823005e-01
-6.306069286923760009e-01
-3.965380771572183938e-01
3.127900067033941855e-01
1.267634225616397492e+00
1.793854788956454227e+00
1.473295190708488134e+00
7.238441246709352850e-01
3.290852748929278260e-01
5.062855764780354040e-01
8.055503315980906409e-01
8.108121711867549708e-01
5.722268678149309284e-01
3.733117912760066104e-01
3.395928576844385316e-01
3.564782159499606529e-01
2.647798879544674411e-01
3.771392705642594850e-02
-2.281642332941826723e-01
-4.236410214182261269e-01
-4.962376060375416342e-01
-4.474275681590022535e-01
-3.069636460306429671e-01
-1.213452558853324315e-01
4.931781427535963935e-02
1.453559676401102729e-01
1.332228839095275230e-01
2.566419728603387337e-02
-1.246971837240849201e-01
-2.623728282460883188e-01
-3.559180142547940240e-01
-3.818715480642043136e-01
-3.196720153690594812e-01
-1.917599639719014815e-01
-6.503907031418731943e-02
1.596035545271363293e-02
5.416780150545379147e-02
4.248667426228373845e-02
-6.275526050660795718e-02
-2.713861423927078631e-01
-4.981644400959272523e-01
-6.204169616833632439e-01
-5.860976486617925918e-01
-4.382046760436681399e-01
-2.553992674198422574e-01
-1.030531030773822188e-01
-2.978680275331669139e-02
-6.985439327752809846e-02
-2.226582997746974213e-01
-4.322316494271403742e-01
-6.036293996638761872e-01
-6.539245105491395815e-01
-5.571376287613331035e-01
-3.557603641232150449e-01
-1.467465219959259159e-01
-3.967477189344734839e-02
-6.304986298424573865e-02
-6.854835539874334915e-02
1.917581920291850373e-01
7.371987792337919565e-01
1.150889332234876772e+00
9.992578604016434385e-01
4.876635655274517145e-01
2.950121701791529882e-01
6.896773783859373452e-01
1.227479047874395324e+00
1.371973645910671058e+00
1.044959933206099700e+00
5.179305000433248596e-01
4.492880005449850778e-02
-2.811463861312178958e-01
-4.524659958854284625e-01
-4.788490176487851246e-01
-3.938181538985196517e-01
-2.425157596568094653e-01
-4.863868222779458433e-02
1.508584759353943650e-01
2.562203156567481321e-01
1.757360935503108346e-01
-5.838269005470146655e-02
-3.082374422616921961e-01
-4.552342474768000802e-01
-4.739374401991391372e-01
-3.970718173507640780e-01
-2.495781537686247720e-01
-5.165496646993323476e-02
1.314419920573028366e-01
1.983234540675697932e-01
8.963621680503940092e-02
-1.525375448148312552e-01
-4.010051273756634616e-01
-5.227572296322546830e-01
-4.704148774574974934e-01
-3.140556480017016039e-01
-1.689222814250651017e-01
-8.581139947576474358e-02
-3.273250921450149981e-02
2.131625149891085147e-02
4.119895769476553116e-02
-4.373053297879782308e-02
-2.539696049817417589e-01
-5.102607636135706448e-01
-6.772502366311918820e-01
-6.584301092748824358e-01
-4.487891445627044118e-01
-1.301299493342501501e-01
1.515819562980974256e-01
2.530315462064069987e-01
1.493897047750210316e-01
-4.908505630997445079e-02
-2.468517527973222436e-01
-4.370112087637181841e-01
-5.293368027177713930e-01
-2.426414023444216916e-01
5.699558321619550005e-01
1.495237036260104180e+00
1.833110732297433154e+00
1.452099827649962593e+00
9.681711204524683367e-01
8.930114581768071602e-01
1.058424376846962334e+00
1.044066249413593495e+00
7.366546062065120193e-01
3.161940648047595337e-01
-2.169696483839134160e-05
-8.928596008932987438e-02
2.909838695937341790e-02
2.094950254097347753e-01
2.929499942019807568e-01
2.195690746331464271e-01
3.485019997003022812e-02
-1.788810084803979517e-01
-3.527938897802142537e-01
-4.342936026524638615e-01
-3.858504845051466958e-01
-2.103900894858268256e-01
2.322480392105218117e-02
2.035978434700083106e-01
2.518595839661573188e-01
1.699244744491656134e-01
7.001816456712237589e-03
-1.880635325689878345e-01
-3.658380857884661053e-01
-4.745032638468605346e-01
-4.852678304224110617e-01
-3.962779910534012240e-01
-2.171809405323625874e-01
8.467658093136015696e-03
1.710965768462711090e-01
1.493264160746684555e-01
-7.208816995717283460e-02
-3.731925815631808585e-01
-6.089059846864589565e-01
-7.172690623132341736e-01
-7.087102613965630127e-01
-6.015335850494211156e-01
-4.137726444480102073e-01
-1.983381984055458125e-01
-4.271045126527474312e-02
-2.150155606429468569e-02
-1.503101193166793692e-01
-3.689311465426988179e-01
-5.609075290068916697e-01
-6.223739328110300395e-01
-5.502655331127649374e-01
-4.498319203517938680e-01
-3.966652133531248237e-01
-2.645881322382765410e-01
2.125766653620538571e-01
1.040160216046788655e+00
1.679622999705195685e+00
1.524350828796033674e+00
7.369223594765081931e-01
1.630969280260175236e-01
2.876818901512741555e-01
7.474712071815768910e-01
9.686518706742610618e-01
8.271409639001755520e-01
5.542517385961188703e-01
3.271186987403952862e-01
1.391530342088433958e-01
-6.552326879956268946e-02
-2.830261076618210692e-01
-4.614503048534208673e-01
-5.520963208471840744e-01
-5.334906999122052129e-01
-4.119463389219381044e-01
-2.208490825465632135e-01
-1.763527211335934319e-02
1.271379286592432545e-01
1.505923167754508463e-01
3.349191258700826013e-02
-1.713972118532403888e-01
-3.605439714999105205e-01
-4.437319046995612526e-01
-3.934972311086807895e-01
-2.449256612052035653e-01
-6.562448326513693753e-02
7.365287484142629681e-02
1.230598744251581445e-01
7.413406570954876595e-02
-3.629953708736128465e-02
-1.546850003926421857e-01
-2.547468700562932620e-01
-3.414116921663071236e-01
-4.046382992318680594e-01
-3.993830610896109690e-01
-2.954127594061956574e-01
-1.316697151117489084e-01
-1.842962944007726662e-03
1.354049104222331684e-02
-9.823982051926249959e-02
-2.816217356242273206e-01
-4.574717186099293564e-01
-5.708945340468274399e-01
-6.039381593371149215e-01
-5.522926864833030969e-01
-4.057061778144475661e-01
-1.792551069166664623e-01
2.841199784334674794e-02
5.997597310490188072e-02
-1.402044331774695285e-01
-3.641282483355099409e-01
-2.313937353039082767e-01
3.830768756363350236e-01
1.032101197468457077e+00
1.121731189860194267e+00
7.211061803094077627e-01
5.237488394004801151e-01
8.897423900423284682e-01
1.394280863776345525e+00
1.451468214254976852e+00
9.819554197760202996e-01
3.406344895840193177e-01
-1.331519652776345652e-01
-3.467343739828526172e-01
-3.740005254233487730e-01
-3.030966832347905537e-01
-1.809910080472039995e-01
-3.888720908851896890e-02
7.722021836722171850e-02
1.060467417909245480e-01
5.209096919593052613e-03
-1.988502596327263172e-01
-4.036232458476338159e-01
-5.016161226282070951e-01
-4.610813613265887234e-01
-3.243289102927023326e-01
-1.491667082808871558e-01
1.801784857013732227e-02
1.295373490107684655e-01
1.351717880246441628e-01
7.214832696193161296e-03
-2.273153248235187940e-01
-4.746275914701011400e-01
-6.130137577887571076e-01
-5.718230991328137058e-01
-3.822818980607113892e-01
-1.509148282070771063e-01
1.549227266776860741e-02
6.685301025122064589e-02
1.282266577520060208e-02
-1.123218328916772007e-01
-2.786448304895415840e-01
-4.565653101389461899e-01
-6.014456533877143851e-01
-6.634442784524458014e-01
-6.159871067342727047e-01
-4.692834150777678293e-01
-2.665198861840668565e-01
-7.707380219412990341e-02
2.245327183508180613e-02
-1.124822226376675713e-02
-1.549214428659728415e-01
-3.437827950516739728e-01
-5.430744040034577447e-01
-7.371357457105729427e-01
-7.769396447197073341e-01
-3.553813598518981154e-01
6.045439326887240838e-01
1.561306217188276335e+00
1.765653353920719759e+00
1.187030812516422618e+00
5.857826844641961239e-01
5.179887970033127953e-01
7.532002584833008552e-01
8.064196690034733939e-01
5.746148216085211757e-01
2.852668070781154142e-01
1.371382088754609097e-01
1.525573973932130289e-01
2.317426304498877987e-01
2.409652839924603107e-01
1.018741486251353995e-01
-1.455779038417749360e-01
-3.751417624920632132e-01
-4.768587486531626340e-01
-4.278969742803680476e-01
-2.801722384151476564e-01
-9.346961650405644084e-02
1.069850082811429209e-01
2.983085753281146668e-01
4.130482159429721967e-01
3.683785791621571604e-01
1.533826912327173608e-01
-1.359213440599381095e-01
-3.612155796564405219e-01
-4.297544958378184954e-01
-3.318311926406163348e-01
-1.292467481855871236e-01
8.500263181784088740e-02
2.339559513169653104e-01
2.831824119156906572e-01
2.363501623899809945e-01
1.157785326907229684e-01
-4.869313067154394659e-02
-2.219762245877100193e-01
-3.645203358777448499e-01
-4.274454087826460857e-01
-3.673519316733960816e-01
-2.001989831975164447e-01
-2.243830029123828826e-02
5.943207044397730981e-02
1.068646776426669318e-02
-1.325411866384405279e-01
-3.145316772208873179e-01
-4.831366231833258418e-01
-5.791899632433600287e-01
-5.425384135198765279e-01
-3.661918266505974628e-01
-1.568420737677240218e-01
-7.373023279925201845e-02
-9.974156724409397046e-02
7.534061229384714231e-02
7.014230441506733582e-01
1.442512112443969041e+00
1.575139643611457307e+00
9.418951924492594552e-01
2.872039622953314053e-01
3.201903479959347654e-01
8.619906474332117430e-01
1.233145346736638892e+00
1.104041612271662753e+00
6.666234852394491428e-01
2.206172483211782942e-01
-1.195312700751879897e-01
-3.659233933856335108e-01
-5.202684305016259669e-01
-5.635728577189815791e-01
-4.956110507343039484e-01
-3.376881981939249266e-01
-1.333380179513085073e-01
4.619672102170370442e-02
1.280427061955808632e-01
8.150956072127941987e-02
-6.224530851996082359e-02
-2.335172929393620478e-01
-3.709526062401360402e-01
-4.440600251741196880e-01
-4.365756963156808279e-01
-3.367042127508211302e-01
-1.637107357517777750e-01
1.148843022110289727e-02
9.836173645265244847e-02
4.791160490799235144e-02
-1.104344244099604300e-01
-2.837962025210143957e-01
-3.876077187607523400e-01
-4.162800023582564624e-01
-4.139147078392865775e-01
-3.835789668673986741e-01
-2.887638546826076791e-01
-1.431140145916295903e-01
-3.062221296700448972e-02
-2.729186963844658712e-02
-1.472111639502679259e-01
-3.574881262320012687e-01
-5.921175408656240702e-01
-7.511287592086728360e-01
-7.460161161937443053e-01
-5.719285609139009852e-01
-3.121670913156360805e-01
-7.289256583168514381e-02
6.689082127630108232e-02
5.836556062371673487e-02
-1.192464608688514616e-01
-4.087622562217511635e-01
-5.887716529062175796e-01
-3.398616221987203478e-01
3.924733927088030483e-01
1.127076114444772292e+00
1.286674929556223645e+00
9.636106090420637482e-01
8.102975105181107196e-01
1.101041443909225981e+00
1.396766942221853602e+00
1.221072331745230777e+00
6.330059476036421495e-01
3.234789273998664449e-02
-2.970054016068007785e-01
-3.351280543241101362e-01
-1.996445116432520317e-01
-1.405147756537252629e-02
1.324610378177244752e-01
1.844336725133545463e-01
1.221431237235513917e-01
-3.513909673668406952e-02
-2.356338532624327464e-01
-4.129923735468117862e-01
-5.078900110749121621e-01
-4.841987403998510020e-01
-3.407784676086894615e-01
-1.213618056195311101e-01
8.782476659870915026e-02
1.872026143572905477e-01
1.206313927966019689e-01
-7.499009068049102000e-02
-2.885875456715462084e-01
-4.257392054598872488e-01
-4.764363512866119366e-01
-4.751722077239423081e-01
-4.109410489650274778e-01
-2.370310319103670071e-01
1.183845032108585965e-02
1.873577094479020322e-01
1.615036465748914685e-01
-5.454019507673463218e-02
-3.419067085244348880e-01
-5.732353267125435137e-01
-6.781968394953152846e-01
-6.546390959557144562e-01
-5.341920496073612190e-01
-3.524350151383917051e-01
-1.620893175220643190e-01
-3.676616841516207324e-02
-2.186624440860363700e-02
-9.938358748293329992e-02
-2.240252040913521536e-01
-3.679890999018436970e-01
-5.165562753417766162e-01
-6.510547056449006442e-01
-7.198252686049496640e-01
-5.733544698287530439e-01
-1.317116622099624018e-02
9.006720319745191716e-01
1.630068344751933518e+00
1.595752092458018856e+00
9.252569212982874047e-01
3.709345919061344254e-01
3.788673432755282899e-01
6.582043318162950074e-01
7.417008354670593384e-01
5.652614224260077425e-01
3.741584508091479466e-01
3.177152299495956123e-01
3.077641763073626358e-01
2.049339068170764055e-01
-9.247691495534744038e-04
-2.225575921392396184e-01
-3.905524155951933807e-01
-4.829792330416627921e-01
-4.903093135763419430e-01
-4.015114162901985972e-01
-2.252085268319729827e-01
-9.439579522688250346e-03
1.725253494009259536e-01
2.600568087648069127e-01
2.252644277710815768e-01
7.017530834700397291e-02
-1.613760943358539257e-01
-3.700130323977607327e-01
-4.513943686662583166e-01
-3.821248835147341705e-01
-2.226970521370949252e-01
-3.868518311889931199e-02
1.318991202619990422e-01
2.412706925474398800e-01
2.296626260513331963e-01
8.181698525446166881e-02
-1.410231958901590477e-01
-3.311630698830154707e-01
-3.976660014347785932e-01
-3.202784334644936948e-01
-1.463107564709278385e-01
5.669952035734486528e-02
2.131625170565197014e-01
2.421516406791186515e-01
1.305209866159199039e-01
-3.840869655553694195e-02
-2.021484242526853103e-01
-3.816944389507044288e-01
-5.542280352817200439e-01
-5.779506209464376765e-01
-3.545472559347324637e-01
-3.025869637312578186e-03
2.151831708430465562e-01
1.512256519991279080e-01
-2.395493931019243572e-02
1.100648200323392778e-01
7.593853742364817805e-01
1.482296146766906686e+00
1.565051035252761125e+00
9.808599044580620374e-01
5.144522093679801955e-01
7.176190309023118274e-01
1.246295738440968970e+00
1.443614711844222853e+00
1.119823208825757588e+00
5.564139029578487605e-01
6.387026263034620288e-02
-2.514639003636501280e-01
-4.129155488259286244e-01
-4.468724239063461279e-01
-3.583991055405342796e-01
-1.755423155840563076e-01
1.575448670325121925e-02
1.011513527388762795e-01
3.357086415744806041e-02
-1.185689547107964953e-01
-2.617855856761034383e-01
-3.750593550203362159e-01
-4.680308827466007626e-01
-5.059994398906870749e-01
-4.408989136783418861e-01
-2.818925244073798853e-01
-9.713120519991316759e-02
3.582256392841066950e-02
6.669808849512384730e-02
-1.568209598574309138e-02
-1.805105079383528821e-01
-3.605642184986452836e-01
-4.755768506368668325e-01
-4.765260616976946251e-01
-3.826990169135482400e-01
-2.599058576863311210e-01
-1.559888190344974890e-01
-8.280280472640969003e-02
-5.693581634242406847e-02
-1.125445134619097454e-01
-2.588981212667291754e-01
-4.479668329336263244e-01
-5.986325191255710276e-01
-6.551579368136923875e-01
-6.160256784287363452e-01
-5.051881299394767044e-01
-3.437199337271419353e-01
-1.648613681998722102e-01
-2.469389214925797257e-02
2.094500157060405141e-02
-6.969156030236899058e-02
-3.155983937462701894e-01
-6.339462927015243610e-01
-7.456529088554372242e-01
-3.231890329261191686e-01
5.771744722363751912e-01
1.351026765105134642e+00
1.437186231860520191e+00
1.021284107667147500e+00
7.664365760562021901e-01
9.077093379825873498e-01
1.049325072041243256e+00
8.135917556055072275e-01
2.951941186841225973e-01
-1.455942305856602614e-01
-2.845315618421340176e-01
-1.703137636206007444e-01
1.038633911447151004e-02
1.138720706797923810e-01
9.948078127363738088e-02
-1.564457016442110521e-02
-1.955502757235416667e-01
-3.834420778137119790e-01
-5.129550778842127956e-01
-5.427448653732787065e-01
-4.643490078177973657e-01
-2.882228315048815936e-01
-5.576678934194603809e-02
1.473633284941320287e-01
2.314954108330493088e-01
1.652007429988744391e-01
-1.090608452275297277e-02
-2.225151464935752055e-01
-4.031194343271320424e-01
-5.082377424929843679e-01
-5.108268708748133768e-01
-3.982087657861681507e-01
-1.834723627527524159e-01
6.866549135008348514e-02
2.403899516245834589e-01
2.299428901528552394e-01
3.707674809900987634e-02
-2.403524447577733703e-01
-4.836223845509735608e-01
-6.116512273736058880e-01
-5.975693907926455939e-01
-4.664596995323840867e-01
-2.773878789875875994e-01
-9.463901246985625959e-02
2.961172509093055322e-02
5.732166390632219277e-02
-2.721925856922655790e-02
-1.995976336903869941e-01
-3.899275667821719416e-01
-5.085908921336268484e-01
-5.085846540971576957e-01
-4.380385122498173800e-01
-3.687809283731917076e-01
-2.131069647818746027e-01
2.613566366016699671e-01
1.029318007028262372e+00
1.548487266938298967e+00
1.298544707584509572e+00
5.464729191062591696e-01
1.004833908405557696e-01
3.042152979498330412e-01
7.457958071981179993e-01
9.324750818420033394e-01
8.081001066742105055e-01
5.808462315070443971e-01
3.747925659975135937e-01
1.697002425996510799e-01
-6.498823896650222920e-02
-2.944093156295860547e-01
-4.530023863369201376e-01
-5.012178557942502666e-01
-4.396951058493639986e-01
-2.902921759455816542e-01
-9.098069989676724201e-02
9.091833787711749160e-02
1.770750431792064428e-01
1.322053324612973702e-01
-1.154264190247139728e-02
-1.885287939815001312e-01
-3.422572271583085302e-01
-4.339806440566216783e-01
-4.381741402269863639e-01
-3.520251547641596312e-01
-2.056265782793453845e-01
-5.705196882800102343e-02
2.971149793656845464e-02
2.520601789603503853e-02
-4.170818398460891113e-02
-1.268209755997630472e-01
-2.287340479341644084e-01
-3.585209301056639930e-01
-4.669950624667534855e-01
-4.667117064222943701e-01
-3.323388399539898286e-01
-1.403161496377292039e-01
-3.118104008673502903e-03
1.478187105548522257e-02
-8.308400242075103526e-02
-2.530687832266850235e-01
-4.347872971563825906e-01
-5.658354155396377871e-01
-5.957697317985952701e-01
-4.964329626962260544e-01
-2.853129326142059830e-01
-4.594057223208025675e-02
1.023889028217948305e-01
6.907709737125915239e-02
-1.305969245341578322e-01
-2.865526157676426267e-01
-6.182839636951191487e-02
6.199314824295099058e-01
1.278145406221619762e+00
1.331514129671826030e+00
8.947500515080321071e-01
6.568890119735505406e-01
9.220895184021744573e-01
1.289528650131176013e+00
1.297614454253998240e+00
9.133798543154263427e-01
3.857390270572665369e-01
-3.793322507009912192e-02
-2.228514536927548029e-01
-1.735985630641044830e-01
-8.537391832574382777e-03
1.370773928387798435e-01
1.953433442140748433e-01
1.714475488528021396e-01
9.971836269410508380e-02
1.327784304152163780e-03
-1.135495638099710825e-01
-2.104890709066632448e-01
-2.348648259935808003e-01
-1.665693593795679606e-01
-4.531891639078907547e-02
7.618282815022131560e-02
1.820217834472499796e-01
2.662104890799240620e-01
2.823339031641226016e-01
1.736402516233385984e-01
-5.114783123236289752e-02
-3.061362679046717439e-01
-4.801599381980106718e-01
-4.852382732890308525e-01
-3.064799314898845051e-01
-4.572293690127304799e-02
1.368591108572994874e-01
1.624186308523287992e-01
7.307340015935659405e-02
-6.803237859203517535e-02
-2.491702037848169404e-01
-4.661312091794300172e-01
-6.592293778844929841e-01
-7.371148733518262386e-01
-6.582838925409627562e-01
-4.652189553468922267e-01
-2.455794310220358045e-01
-8.490665464757457537e-02
-3.776856184922722931e-02
-1.026542467186241370e-01
-2.280432315492539608e-01
-3.718847352604801038e-01
-5.452920630373946365e-01
-7.360891255509921516e-01
-7.576943061299714621e-01
-2.977764061018629005e-01
6.758279747723457964e-01
1.599861180732491839e+00
1.766041391015235273e+00
1.190049769057474949e+00
6.178985818305562372e-01
5.479621636214860869e-01
7.210639723084041330e-01
6.834744384094602054e-01
3.881442068976640458e-01
9.629876595139125195e-02
-5.772766074202062385e-03
5.491205704361448725e-02
1.391511650119407750e-01
1.262523636175709729e-01
-1.836921938291540338e-02
-2.439648889663028342e-01
-4.578790706421127510e-01
-5.731094896512001213e-01
-5.474929436674789152e-01
-4.062125590584713120e-01
-2.205819675235036192e-01
-5.266131896278192920e-02
7.301022787320060603e-02
1.415045061748865796e-01
1.172198000634841891e-01
-2.683975566311783828e-02
-2.509284380877048193e-01
-4.520670087391489567e-01
-5.388507317167703370e-01
-4.877412310546752616e-01
-3.333497439176584254e-01
-1.330186992678368818e-01
5.365593420037777228e-02
1.656518416260214233e-01
1.453427020328590946e-01
-2.681643156354955246e-02
-2.966499167112746638e-01
-5.511800738262371269e-01
-6.779639754066605351e-01
-6.267736996968605867e-01
-4.383549545850851659e-01
-2.162998991162919937e-01
-5.749255067668200547e-02
-1.543598038927514182e-03
-3.980898607810899603e-02
-1.513568562398870665e-01
-3.118637723054243915e-01
-4.781923473702704430e-01
-5.845334779482170839e-01
-5.734189278511979682e-01
-4.568041475027302400e-01
-3.276209168260604265e-01
-2.324237765745061635e-01
-2.926050155778675554e-02
4.724729567587171997e-01
1.124146380486902741e+00
1.391523952813797038e+00
9.751373971776546856e-01
3.232721030650042571e-01
1.549621843409622890e-01
5.850059395082849445e-01
1.086717362640290174e+00
1.202577010000327018e+00
9.483959251118583289e-01
5.802428947037419071e-01
2.541201323361738096e-01
-2.435172928761919486e-02
-2.711628687970799589e-01
-4.562525509281618041e-01
-5.345155241544456981e-01
-4.842640567438432075e-01
-3.195986216385772738e-01
-9.743133654048577452e-02
9.188199120461158775e-02
1.699885597907251078e-01
1.181183676633341256e-01
-2.375100411394027652e-02
-1.974443955539756657e-01
-3.533882128427359159e-01
-4.461242158461369844e-01
-4.354738486743623405e-01
-3.146628020827734740e-01
-1.332555381951092965e-01
2.314900770130997112e-02
9.139990571183863322e-02
7.244188740774692992e-02
4.346344548743835343e-03
-9.430574238636657558e-02
-2.251025443663027814e-01
-3.635683422307501855e-01
-4.472918855274158889e-01
-4.225291367106024376e-01
-2.981380348016349768e-01
-1.465005569027002519e-01
-4.935295838526230355e-02
-5.060986941257666211e-02
-1.539084217100381569e-01
-3.313407285200584695e-01
-5.192799231971949592e-01
-6.358195842110396789e-01
-6.310436452303309629e-01
-5.151543557820491559e-01
-3.333893017236883027e-01
-1.330276564755508983e-01
2.967183285668983581e-02
6.906625673161499723e-02
-8.481777754255166724e-02
-3.568402853878670511e-01
-4.571217440729724579e-01
-8.891887528320849277e-02
6.419409833236702223e-01
1.173795979260188638e+00
1.112568434651307392e+00
7.732452545732028115e-01
7.458650906200030573e-01
1.075016209361450814e+00
1.270249129098176999e+00
9.997508452377845689e-01
4.199597197560403505e-01
-1.083185256421730913e-01
-3.738357512982531938e-01
-3.854532943539543122e-01
-2.499340721069219784e-01
-6.386149689140244168e-02
1.034747618789245982e-01
1.931529532269400107e-01
1.643266940841464907e-01
1.982772429063512851e-02
-1.816467074920643798e-01
-3.471468810164471952e-01
-4.013394383704007584e-01
-3.352849147377349182e-01
-2.016903374955948403e-01
-4.738421424725957481e-02
1.277017937882898024e-01
3.071651175755265029e-01
3.910492007580775864e-01
2.809916920653475203e-01
2.801367129970849454e-02
-2.075172559433335895e-01
-3.408279673713410785e-01
-3.830195840586753664e-01
-3.035652224445568592e-01
-5.414507697196720842e-02
2.678105935608259824e-01
4.519563271728923026e-01
3.920790069105634656e-01
1.618670590214345839e-01
-1.046108886017830808e-01
-3.126338747026314868e-01
-4.145491406677093704e-01
-4.075109152660804090e-01
-3.281378177514721051e-01
-2.149149288083626874e-01
-8.856502922194726957e-02
2.586941666177060284e-02
8.972199486185122863e-02
6.983422095783672900e-02
-3.930413248506500756e-02
-2.046109305830595970e-01
-3.831434050207846997e-01
-5.576717963497717090e-01
-6.599472321472956704e-01
-4.550720523035372556e-01
2.865019518719467140e-01
1.340567090421430629e+00
1.979286268757486589e+00
1.714482425313425873e+00
9.493208465052647149e-01
4.877686667907745188e-01
5.478730468854072777e-01
6.972115575135688914e-01
5.939752907777997581e-01
3.416354240257155062e-01
1.773963237217840438e-01
1.484369583791664560e-01
1.450055969148492663e-01
7.739726318774806102e-02
-6.273007638826516574e-02
-2.424016792774138507e-01
-4.123356027545046487e-01
-5.101464734149214753e-01
-4.896778882965139856e-01
-3.601703047719683193e-01
-1.806070247939333684e-01
-8.639878643808558689e-03
1.252634019583238056e-01
1.835304863485606452e-01
1.103728667041805889e-01
-9.736129219948279345e-02
-3.444425019607137983e-01
-5.106118304762915505e-01
-5.457100764531654935e-01
-4.712929113102209966e-01
-3.304093835658143408e-01
-1.633125566137933748e-01
-9.196555898538280593e-03
8.269984287908385689e-02
5.170880596752119168e-02
-1.294102433210279623e-01
-3.951171375913423711e-01
-6.092861186155965614e-01
-6.703357770201316956e-01
-5.796239192689154329e-01
-4.058831088786618579e-01
-2.165387779000908508e-01
-6.176055937363142401e-02
8.844919300671398935e-03
-3.737089551974520640e-02
-1.811447446498261338e-01
-3.599052016972137391e-01
-5.068279129262102112e-01
-5.672627470334183908e-01
-5.070764009273128758e-01
-3.495212075421366138e-01
-2.008068736091200013e-01
-1.685242269775758250e-01
-1.783660239927911118e-01
5.812850706302129244e-02
6.812616953439190048e-01
1.285662376282849628e+00
1.249632931530070934e+00
6.024322215932219615e-01
1.184278994034299037e-01
3.359539594432538467e-01
9.305276247711359305e-01
1.248013053555531604e+00
1.057472446118709497e+00
5.993435788083723015e-01
1.727796253948997718e-01
-1.169521122353364834e-01
-3.068668385897920792e-01
-4.437075740393979228e-01
-5.194927984652077946e-01
-4.805899691300724585e-01
-3.007152806113778665e-01
-5.447921759138337622e-02
1.157241590661081398e-01
1.187179506778217458e-01
-2.143900471588632700e-02
-2.149936534916006836e-01
-3.856467085627183211e-01
-4.916413179459112603e-01
-5.088325596593823441e-01
-4.356863952142540075e-01
-3.050573508312096060e-01
-1.628626678985350684e-01
-4.664135545392782828e-02
2.419029554117799879e-03
-5.845442644079689581e-02
-2.234527859186059562e-01
-4.057190422067017965e-01
-4.963333035168737695e-01
-4.653613571243565561e-01
-3.777721970701798937e-01
-3.031219443790203472e-01
-2.425896330675840484e-01
-1.639751099211674834e-01
-8.531013994418708279e-02
-8.889007291884420958e-02
-2.352848549605393580e-01
-4.754409899921096527e-01
-6.764327019343721048e-01
-7.378531104656130823e-01
-6.603674826570811174e-01
-5.044263957991865777e-01
-3.223581575656556675e-01
-1.468785056578179038e-01
-1.546021027915042007e-02
1.610515999911747015e-02
-1.125202174679599820e-01
-3.944739161426962792e-01
-6.376930953152899484e-01
-4.866972903090430735e-01
2.194853397300798592e-01
1.066059645960762525e+00
1.375873223643293342e+00
1.061008658768514801e+00
7.464916167539059622e-01
8.720325649778757349e-01
1.150243856051342384e+00
1.093747785459683985e+00
6.508583487211939689e-01
1.367327278624266285e-01
-1.833187549854140008e-01
-2.656876956059496253e-01
-1.824861369700886415e-01
-1.384231577687553699e-02
1.502795198565109180e-01
2.031742482686411666e-01
9.457651654889079329e-02
-1.052909247743662180e-01
-2.783886888714454111e-01
-3.808064042695163409e-01
-4.173358182920067772e-01
-3.372995978903933212e-01
-8.882428330116350079e-02
2.368376189170490476e-01
4.453171969287577081e-01
4.351873188743167753e-01
2.800009909580889467e-01
1.133081224547727306e-01
-1.754232124898918999e-02
-1.537506315524990175e-01
-2.970798505455768956e-01
-3.394206748479202118e-01
-1.764083428124072206e-01
1.295425534544367707e-01
3.795187604849430962e-01
4.416837287121170852e-01
3.477080832202469329e-01
1.793170934495503244e-01
-3.541379678620790866e-02
-2.702024279548620456e-01
-4.384327848876130584e-01
-4.500991768040660257e-01
-3.005322371824357686e-01
-7.866166664059327795e-02
1.003130950131792265e-01
1.666656398758403212e-01
1.180542343199117300e-01
1.120218923923697180e-03
-1.188324474358623539e-01
-2.006597766158542129e-01
-2.678519799458590200e-01
-3.858783978743687282e-01
-5.375240618229063516e-01
-4.967855038939271162e-01
6.022276510621913520e-02
1.125435146828373867e+00
2.067042485529476892e+00
2.125179945294908723e+00
1.334757062414483997e+00
5.524973946737610220e-01
4.120532844800026684e-01
6.965020253505971315e-01
8.631865219781377219e-01
7.314436990127203275e-01
4.812104429851537524e-01
2.841945025964922045e-01
1.447899980852295765e-01
-3.961887663074051269e-04
-1.755303234952770297e-01
-3.546452916166988878e-01
-4.862747942859039219e-01
-5.232132394481809889e-01
-4.571568649412781626e-01
-3.242085564821899357e-01
-1.747368499215264936e-01
-5.045836797179239358e-02
1.658319541339544484e-02
6.956962934626994416e-03
-7.826212255690961905e-02
-2.181955745723009044e-01
-3.753715656232211595e-01
-4.948936930765656106e-01
-5.177325308498661460e-01
-4.215110021809279628e-01
-2.546691620753706586e-01
-1.061210946934931371e-01
-2.416636770859382707e-02
8.934138609126370326e-03
4.619152154063057951e-03
-8.133664150043959373e-02
-2.801772649364326351e-01
-5.248716957037748987e-01
-6.795914424800139075e-01
-6.496581290604902525e-01
-4.564510466778119446e-01
-2.202372259279238853e-01
-7.097121996608744821e-02
-6.511266282617947376e-02
-1.765344159681458414e-01
-3.431837546860571075e-01
-5.082639456014538260e-01
-6.303924278818848759e-01
-6.703530416397590619e-01
-5.857745702198607907e-01
-3.777271463863677847e-01
-1.556959767583333543e-01
-8.566522482186307574e-02
-1.813585048977672809e-01
-1.765137043648485893e-01
2.204313177054365025e-01
8.605125165462078618e-01
1.168432484305334418e+00
8.529627707403351078e-01
3.754776710372456638e-01
3.790949901990151583e-01
8.629154398129182946e-01
1.273936404877570538e+00
1.229839831206049228e+00
8.251532399056136224e-01
3.444057971832532594e-01
-4.222683992433345218e-02
-2.995026049384535427e-01
-4.302389726441023798e-01
-4.365781872350822934e-01
-3.351991183459710477e-01
-1.756590685981898048e-01
-3.165431181277839068e-02
4.058079417972144248e-02
3.148811645740969695e-02
-4.416775036890817352e-02
-1.767918371064824967e-01
-3.447615439748668575e-01
-4.876004287519095648e-01
-5.299825505659727654e-01
-4.383456359269341518e-01
-2.490136093844689813e-01
-4.541201168964777851e-02
8.951934679972806119e-02
1.072024537139148331e-01
-5.410522400390860298e-04
-1.999978234628905227e-01
-4.069454234747864607e-01
-5.172104244856743360e-01
-4.881159206308203213e-01
-3.691572853566674750e-01
-2.319396932319619520e-01
-1.130445257417798111e-01
-3.925724623987085493e-02
-4.778373455026509870e-02
-1.532805551519872966e-01
-3.303720487907513270e-01
-5.365494134944044369e-01
-7.182148950711724211e-01
-8.007571298476737764e-01
-7.265701976335302570e-01
-5.186335834888003982e-01
-2.758300149379121491e-01
-9.695755213393407457e-02
-2.258178701822613488e-02
-4.792747681085816891e-02
-1.761177199119144388e-01
-4.164328570610606461e-01
-6.640063472238860731e-01
-6.158682492775021666e-01
-1.453710906057864745e-02
9.031010752041793710e-01
1.453723929864688014e+00
1.279366868936034241e+00
8.242088332000840900e-01
7.151962045998373485e-01
9.473396764531215597e-01
1.032621862830661819e+00
7.153803391842811221e-01
2.152288407968749318e-01
-1.265513519643848284e-01
-1.965751210584046893e-01
-9.932558223361756533e-02
3.179133859524944927e-02
1.193540238377812229e-01
1.190033763980830467e-01
2.106565417042272764e-02
-1.268736705035005685e-01
-2.535289447406003371e-01
-3.222932943099916514e-01
-3.307685104813689603e-01
-2.689281713562421960e-01
-1.203194499449085630e-01
8.756387977104146403e-02
2.710654926586075764e-01
3.503817917192554865e-01
2.954256500514201855e-01
1.191860687256789120e-01
-1.096532045254123983e-01
-2.704244985765900666e-01
-2.995125348042724234e-01
-2.519732928683449114e-01
-1.703149418067709253e-01
5.386503075126943679e-03
2.903806618459073841e-01
5.226971150614990735e-01
4.938965903018333603e-01
1.818294381784693881e-01
-2.080149243171835471e-01
-4.430328799927313876e-01
-4.708358798038965731e-01
-3.930392249451654108e-01
-2.864214021174166791e-01
-1.444529887707562688e-01
2.914511659801873392e-02
1.762017992509453679e-01
2.368975268819959734e-01
1.834008800699868380e-01
2.715697812136085368e-02
-1.612456082743698726e-01
-2.865507296635336210e-01
-3.265418879217396597e-01
-3.379851471418007236e-01
-2.873906470975343685e-01
6.273766389185475578e-02
8.844909126179134606e-01
1.830239891539683361e+00
2.158607095347717664e+00
1.590755228394356013e+00
