-2.630982603623496785e-02
4.214858952566090111e-01
6.534174004184710727e-01
5.904630383563076457e-01
2.639028729397647766e-01
-2.054020856921095484e-01
-6.496368370836972383e-01
-9.020481039612380236e-01
-8.561728818608324021e-01
-5.251841470756293262e-01
-4.360425882587229407e-02
4.079101434214552624e-01
6.882212378009838760e-01
7.315275855777011449e-01
5.404619824853036381e-01
1.697955384451372562e-01
-2.767437772227084869e-01
-6.461524876964169772e-01
-7.792385705164278642e-01
-6.011420546744069560e-01
-1.783906126183530949e-01
3.105460305508681018e-01
6.599322253660298010e-01
7.324386651434908746e-01
5.197874417870733676e-01
1.245378018817772936e-01
-3.089019515621879708e-01
-6.426888656185459903e-01
-7.663651401355147108e-01
-6.303514736767047433e-01
-2.783504683784621681e-01
1.682634199947624365e-01
5.598014623616254237e-01
7.534892344078480964e-01
6.359703449104443518e-01
1.801714987663731449e-01
-4.430689762633185369e-01
-8.247686418850550538e-01
-5.867202373797553161e-01
1.529059895861922258e-01
7.743003742893986852e-01
8.427375657251190422e-01
5.938567426033500851e-01
4.998199303144068573e-01
6.024124539823070279e-01
5.533759882096950244e-01
1.457066696247480142e-01
-4.368924426986006693e-01
-8.385865806572344594e-01
-8.495894139859699878e-01
-5.172691632453296773e-01
-4.317818021477712320e-02
3.723836986152513906e-01
6.051179589884426724e-01
6.000190265136786660e-01
3.548347445382479259e-01
-7.232888493200795299e-02
-5.502005553777190583e-01
-8.944011086564589430e-01
-9.435504678163521008e-01
-6.527014902557858322e-01
-1.259148350163952768e-01
4.332972130201285799e-01
8.099677549483722538e-01
8.655535559472327112e-01
5.923479264582783843e-01
1.024797273187223745e-01
-4.249490942960399975e-01
-7.941004433099291271e-01
-8.557530811931958192e-01
-5.891060933870925220e-01
-1.203971256489708985e-01
3.618694582920095049e-01
7.029704613068173957e-01
8.072621248650395653e-01
6.302043044653845572e-01
2.035564999005435860e-01
-3.298600471851036997e-01
-7.578874385130349722e-01
-9.167800082950753326e-01
-7.690494805442104065e-01
-3.832651297448778083e-01
1.106184395179978519e-01
5.409345808034463632e-01
7.387677267931135328e-01
6.221371316041479638e-01
2.480247435433225456e-01
-2.165201652635277141e-01
-5.910663091865453467e-01
-7.907272490865632220e-01
-8.327122523159804501e-01
-6.820440041416613308e-01
-1.468648914693965191e-01
8.551295682472415116e-01
1.863450637664008536e+00
2.062323803289255242e+00
1.181861836388473197e+00
-8.972175620463554435e-02
-8.681888454864965521e-01
-9.391460516512388779e-01
-6.581445770930256511e-01
-3.371514132413260256e-01
-1.194688092048613176e-02
3.495032702978261852e-01
6.585162931890469196e-01
7.499723452451555472e-01
5.292138947093079082e-01
5.719987471818720193e-02
-4.764537854043673359e-01
-8.581788122997262569e-01
-9.568987986061462392e-01
-7.640613092498383940e-01
-3.612595050842271061e-01
1.264408617644919297e-01
5.482506248138312444e-01
7.471394145468208681e-01
6.235479510464065900e-01
2.118203888513823796e-01
-3.138114473260040782e-01
-7.314336423431835321e-01
-8.866727957659000792e-01
-7.412495346557504972e-01
-3.492600000107132230e-01
1.761971511828203107e-01
6.714966722842892199e-01
9.496459484809471885e-01
8.831083395629373278e-01
4.860425955142324006e-01
-8.292526110208250922e-02
-5.989425669016742448e-01
-8.718907946070435511e-01
-8.149505849221456710e-01
-4.637387874913649899e-01
3.982462018847266610e-02
4.964423068763655356e-01
7.324563889797089944e-01
6.723714173397165039e-01
3.496956562300724825e-01
-1.284047175455284850e-01
-6.132741017538980710e-01
-9.371996601683753036e-01
-9.594440157295175409e-01
-6.428919289115634372e-01
-1.121441527713996633e-01
3.759452775332718377e-01
5.899308025769895991e-01
5.421605469668889787e-01
5.112093635144826509e-01
6.733997815202910076e-01
7.390640401284500616e-01
2.811721780876879628e-01
-5.295641719216557242e-01
-9.490501566895859220e-01
-5.476214290336038903e-01
3.084597098220452915e-01
9.541430734289475524e-01
1.069362476625007830e+00
7.457810042530306216e-01
2.050961463235139171e-01
-3.591843956074746158e-01
-7.748566980674129745e-01
-9.121141490438001709e-01
-7.502124199512939517e-01
-3.799788079764828130e-01
5.780984563316404062e-02
4.236850385011791675e-01
6.064956831377256163e-01
5.435324292562235815e-01
2.333468279725487149e-01
-2.460349167837744266e-01
-7.216910054666434426e-01
-9.799439153505198341e-01
-8.923167253257580089e-01
-4.961792086247674427e-01
3.726892456452268049e-02
4.945772435692307734e-01
7.147456700680544506e-01
6.544749447074866833e-01
3.785361414451438034e-01
-1.215834028990724763e-02
-4.213639222815574459e-01
-7.352462502916163878e-01
-8.242720891354728963e-01
-6.193332915508171777e-01
-1.831667778081031428e-01
3.073510326596093911e-01
6.510930850791618596e-01
7.133655288942676309e-01
4.727020423514844971e-01
2.239053868322914143e-02
-4.657971147210042684e-01
-8.083435565802202794e-01
-8.776868970215413457e-01
-6.434937384594024978e-01
-1.891327658362838837e-01
3.098444500478345631e-01
6.698778333126099715e-01
7.875897588882200262e-01
6.318429557254455764e-01
1.915090895005528426e-01
-4.503137491280292948e-01
-9.589719939894461032e-01
-8.592972495615192052e-01
-4.593559980797171094e-02
8.981157698411095236e-01
1.226501914640813595e+00
8.762571778529451016e-01
4.411564989306502316e-01
3.223417071885086305e-01
3.141611159739515213e-01
6.544997396239662923e-02
-4.076151780869373131e-01
-7.821259918802663247e-01
-8.010712052845325726e-01
-4.702839729780855516e-01
2.239463116791519381e-02
4.637232290911557087e-01
6.945473516755343857e-01
6.357246116874597508e-01
3.122647116143898449e-01
-1.550885399032980172e-01
-6.059595841448006670e-01
-8.914962140751272468e-01
-9.064797949975844649e-01
-6.252648956251992685e-01
-1.184832695189509538e-01
4.618905570250741444e-01
9.037384008747396669e-01
9.990057304695220131e-01
6.815734921829414983e-01
1.049318676504286674e-01
-4.596135001523488084e-01
-7.850097644474980374e-01
-7.675966074707086806e-01
-4.460371419877198207e-01
2.450718160927780470e-02
4.702557011088503436e-01
7.776864037729865897e-01
8.639198556259141126e-01
6.556792255672981851e-01
1.839680201909594803e-01
-3.608982627019428069e-01
-7.509903069309420420e-01
-8.638682437196172348e-01
-6.913712300762602236e-01
-2.960064442696440090e-01
1.952568140839116839e-01
6.055559830493860707e-01
7.708511767572319151e-01
6.171576626432336843e-01
2.017982404132619978e-01
-3.063386526428715229e-01
-6.981759603396819891e-01
-8.251007829291625573e-01
-6.819343550850514024e-01
-3.653325975566470429e-01
1.056401538624402447e-01
8.135001082324199162e-01
1.606568753059121057e+00
1.925066628609926722e+00
1.347678476188380658e+00
2.122681947199652752e-01
-6.859951995704136607e-01
-9.208227767986290058e-01
-6.637222747406451573e-01
-2.503780161522632941e-01
1.537521277793190699e-01
4.982135937380203772e-01
7.081183376150800290e-01
6.898323796594053592e-01
4.152961001742614400e-01
-3.926992152176449202e-02
-5.234694185396505661e-01
-8.713432774497542610e-01
-9.566897032496495257e-01
-7.363800742259433152e-01
-2.784379436591422619e-01
2.402735576712302923e-01
6.002734889954920439e-01
6.596805199920557916e-01
4.270107303696566436e-01
1.833695589188638619e-02
-4.273091187436571792e-01
-7.805060861319845777e-01
-9.199660205680565417e-01
-7.590371495457978179e-01
-3.033021908591569393e-01
3.066056695523252107e-01
8.283036853000298461e-01
1.045107391644678252e+00
8.854486592831046776e-01
4.290683593616242408e-01
-1.555148562543075264e-01
-6.667127823761143102e-01
-9.280090922323482872e-01
-8.540620495737619722e-01
-4.851860412931708333e-01
2.989339030261966429e-02
4.881394218253894413e-01
7.098695907931978910e-01
6.175303282999580201e-01
2.635732389187978031e-01
-2.123215411513484363e-01
-6.477179593957848036e-01
-9.005146011170388487e-01
-8.779902136506428922e-01
-5.673341691666270448e-01
-6.535314781306700294e-02
4.181212856627141150e-01
6.389024962824679799e-01
5.022244747634302398e-01
2.144555486442462910e-01
1.273347983023953023e-01
2.825411798432240773e-01
2.721263976719406896e-01
-1.746130604954083676e-01
-6.619416277000753634e-01
-5.701901200062042818e-01
1.282263114787564606e-01
8.483795407027022728e-01
1.062582015066328989e+00
7.224313213481935447e-01
1.158249052042011756e-01
-4.491699330067034368e-01
-7.951649303116026246e-01
-8.668664595138182438e-01
-6.845494133388883018e-01
-3.124413692154895950e-01
1.450934597483716226e-01
5.309442317077021078e-01
6.716740999704882142e-01
4.855390093566289700e-01
5.406433034898866508e-02
-4.342116460189014426e-01
-7.970824763241521893e-01
-9.199899156158667379e-01
-7.671487133153478410e-01
-3.883594805549350215e-01
8.560274105362625230e-02
4.854371818099197933e-01
6.735815292509800267e-01
6.001573397521796638e-01
3.102409051065952994e-01
-8.983412168119356278e-02
-4.739250668958250312e-01
-7.246676406802829984e-01
-7.507800548321084122e-01
-5.126390060361838419e-01
-6.302385260842255366e-02
4.369814864983361247e-01
7.751103328663828673e-01
8.007474283555793271e-01
5.054790794530310549e-01
8.991820432315389411e-03
-5.078144161242046373e-01
-8.573901389911852133e-01
-8.984393657978499981e-01
-6.056641087202204732e-01
-1.020093512489892162e-01
4.009850752697864396e-01
7.196644987656612980e-01
7.765948417196562037e-01
5.785722021159861450e-01
1.489126224810182197e-01
-4.462559629720878607e-01
-9.618109669083507729e-01
-9.722381608848075230e-01
-2.454064714280028148e-01
8.140010602031025888e-01
1.394134978344804043e+00
1.146972571503515503e+00
5.412960564110305128e-01
1.795185600545950999e-01
1.083278316621440751e-01
-6.053679357959093968e-03
-3.102244046221850349e-01
-5.989778638651104270e-01
-6.079708286344934765e-01
-2.978955736835475765e-01
1.543903567275677624e-01
5.309801799984238402e-01
6.874486674458327728e-01
5.671826139930842281e-01
2.004491609621567583e-01
-2.869797886458528291e-01
-7.085323135994656685e-01
-9.044943718133496846e-01
-8.130510964936235041e-01
-4.747758532113843244e-01
2.370510541516948622e-03
4.734046086269182441e-01
7.832088814264459575e-01
8.143053152011108242e-01
5.433421773061141158e-01
5.959983566663363402e-02
-4.653625275695960628e-01
-8.230007119905011770e-01
-8.348782350204629887e-01
-4.665192370808095013e-01
1.061739347813427242e-01
6.046901884188617959e-01
8.430060422979706036e-01
7.960053750231906866e-01
5.218034536517789368e-01
9.973230667556787221e-02
-3.587073583969294654e-01
-7.086026579897010125e-01
-8.207070278384646089e-01
-6.437064514151437100e-01
-2.375861842971150606e-01
2.455634415631898770e-01
6.246017597055891768e-01
7.566444026991748784e-01
5.855704470215223889e-01
1.717855176330191358e-01
-3.192759865669780317e-01
-6.917590837222634681e-01
-8.205946465807184564e-01
-7.099420474794950753e-01
-4.456312713283537841e-01
-4.480904830701685354e-02
5.921850885565436151e-01
1.404665094127531155e+00
1.894312406774729451e+00
1.494777192787420939e+00
3.265863204391555863e-01
-7.767571080179750398e-01
-1.126119092214892703e+00
-7.686410062500498297e-01
-1.870780543785903749e-01
2.701509280263341140e-01
5.470028012525125494e-01
6.808527935341396331e-01
6.366748653274268976e-01
3.538244831580127925e-01
-1.205241387833849570e-01
-6.092625816914810644e-01
-9.163158115642676682e-01
-9.367321005993461958e-01
-6.800543509359584515e-01
-2.393327221131369420e-01
2.414148455559116946e-01
5.979784551291850159e-01
6.941108938801641148e-01
4.805436229867522946e-01
3.088036822414756688e-02
-4.758931496089445767e-01
-8.316160262995330177e-01
-8.973429424554294487e-01
-6.591172884094045337e-01
-2.138094255607682348e-01
2.866213585031681110e-01
6.892516169786948588e-01
8.665257068096101634e-01
7.413256970885598873e-01
3.410882722447374782e-01
-1.811036357471106917e-01
-6.172233269395164257e-01
-8.044646877820126329e-01
-6.834620209510489097e-01
-3.145105284849724070e-01
1.511773029126556311e-01
5.421768785652675282e-01
7.275999348268091804e-01
6.405094845359189382e-01
2.950306622034733484e-01
-1.965877943700869990e-01
-6.510577249101233699e-01
-8.950593551271354142e-01
-8.412326734610844348e-01
-5.083654220481244046e-01
-4.334460220286363852e-03
4.828042699420226347e-01
7.154672899834987332e-01
5.541120730639428338e-01
1.605303964468918765e-01
-5.755406848567732464e-02
1.038942446610347375e-01
3.215902730951037958e-01
1.542978667242526358e-01
-2.720970129433233353e-01
-3.707274332187747712e-01
1.079131488236807213e-01
7.534533754435227548e-01
1.001916849674206356e+00
6.835364997258749353e-01
4.191629313639121113e-02
-5.715495959588140495e-01
-9.306769425088616821e-01
-9.682383903573152928e-01
-7.130341237806244736e-01
-2.532775282395072214e-01
2.642432360031645722e-01
6.593193037756742703e-01
7.778862432567454910e-01
5.565064133565602589e-01
7.001877227552187610e-02
-4.832250975476483634e-01
-8.811303137587250811e-01
-9.861059915308865165e-01
-7.807254518511332897e-01
-3.479133670352552721e-01
1.587534693129816210e-01
5.581317329045943909e-01
7.079000490488703834e-01
5.667670580618563436e-01
2.158970231614878443e-01
-1.848259987175704389e-01
-4.936020074727704432e-01
-6.475734448379681929e-01
-6.220403674475157851e-01
-3.877040277295130677e-01
2.549528658088759392e-02
4.630748075429563237e-01
7.185158420585590067e-01
6.706068940494148700e-01
3.436710053483216232e-01
-1.251069679076406149e-01
-5.582659330003968412e-01
-8.085707915551108016e-01
-7.964070709216602983e-01
-5.185859277290877367e-01
-5.893447439826068196e-02
4.177118369659052477e-01
7.308325360443019836e-01
7.732640377541721843e-01
5.440614692326873891e-01
1.128874704847886434e-01
-4.179272792044673168e-01
-8.823275034082765922e-01
-9.949155149891013572e-01
-4.817358552649348979e-01
5.394524105581411932e-01
1.412758199836206874e+00
1.509587288690958484e+00
9.224259898938924618e-01
2.792336188796527008e-01
-4.680598223459744162e-02
-1.971068638212385704e-01
-3.935399127499515370e-01
-5.901925870154826059e-01
-5.888816694210867730e-01
-3.082639908123152028e-01
1.332092450219475310e-01
5.245643107683846118e-01
6.933577375325020720e-01
5.667741872571436801e-01
1.787022154180787359e-01
-3.395487477645401930e-01
-7.926083975889675060e-01
-1.001507783262554518e+00
-8.896059718904885116e-01
-5.056440979846952288e-01
1.195870636611429810e-02
4.862895223883044182e-01
7.561373660107063577e-01
7.304755513352294560e-01
4.245303146825281648e-01
-4.438796692160539709e-02
-5.034888384171504194e-01
-7.831718267350360474e-01
-7.629851553087249050e-01
-4.219537687404599224e-01
1.149023515420579677e-01
6.129133563845848842e-01
8.641861276341520348e-01
7.975290397291824318e-01
4.702682888853849108e-01
5.318851080024521172e-03
-4.510257977122881790e-01
-7.545535886618136567e-01
-7.955586956359563811e-01
-5.462040458776734608e-01
-9.477897163064047392e-02
3.838356418002016324e-01
7.140617859073870033e-01
7.889364987718617828e-01
5.839236503993275873e-01
1.545099346449364253e-01
-3.524471836992230100e-01
-7.243360398044441650e-01
-7.957153732094921494e-01
-5.783170951894015532e-01
-2.461364963084705648e-01
7.633209934600027058e-02
4.883063727912686502e-01
1.118432430577838588e+00
1.699089750810218735e+00
1.611808071992839819e+00
6.287404211952303257e-01
-6.129207012938492349e-01
-1.208319983148036014e+00
-9.022571617550771972e-01
-1.645882809888602749e-01
4.540013780325382053e-01
7.607663911604310991e-01
8.120018024209681995e-01
6.532402711191515055e-01
2.791901440846621951e-01
-2.421049502861876423e-01
-7.220297974964620114e-01
-9.621810817140012961e-01
-8.880775578701247674e-01
-5.649968517542903745e-01
-1.215318131289612053e-01
3.074935455158669950e-01
5.886151657425332528e-01
6.088522121382393681e-01
3.371350013150715696e-01
-1.290643602376406185e-01
-5.992112429365555881e-01
-8.889711969762619237e-01
-8.984074136258900500e-01
-6.296679957894293356e-01
-1.749513916599969021e-01
3.142415600726006231e-01
6.845980070205075485e-01
8.256373053698322639e-01
6.810932580337752951e-01
2.764562611756183896e-01
-2.449001807140565590e-01
-6.662383553217940957e-01
-8.167341246177411973e-01
-6.494133879148499267e-01
-2.356504422480056871e-01
2.686746193120204684e-01
6.668857145168690659e-01
7.959930064729938692e-01
6.025896676870101665e-01
1.657804744146840203e-01
-3.424883591196744570e-01
-7.356576764895655929e-01
-8.893548596419558194e-01
-7.697251903478585788e-01
-4.141412884307937303e-01
7.985908673702707405e-02
5.377064564442529671e-01
7.285797318325795136e-01
5.006889313544857778e-01
-1.508891223419933647e-02
-3.833781147939576694e-01
-2.523878912983554823e-01
1.727229485389471797e-01
3.154221826917670835e-01
1.151714950844873880e-02
-2.395156104030333744e-01
1.401554600679737021e-02
5.632989651227545691e-01
8.412711783542988764e-01
5.771912795652446304e-01
-2.971612849691887548e-02
-6.178612709981877726e-01
-9.557100571824475033e-01
-9.812538304768887443e-01
-7.235039031831080880e-01
-2.687639608606740005e-01
2.329346891166022560e-01
5.967794871252558586e-01
6.765783895798944680e-01
4.336999359671000476e-01
-3.687936794800513590e-02
-5.437960445043831248e-01
-8.909170560767216696e-01
-9.599265010526099040e-01
-7.323299179390292402e-01
-2.798794547373449904e-01
2.437792096616507309e-01
6.412870918885669180e-01
7.547630307402317662e-01
5.452850627469854050e-01
1.171016618550557303e-01
-3.332302630732746906e-01
-6.242435802193059269e-01
-6.786005473024803170e-01
-5.177473892211245099e-01
-1.953348235467167737e-01
2.200103092478398747e-01
6.039504297716450365e-01
7.908484409912098778e-01
6.786534096768268576e-01
3.090190092594212734e-01
-1.683587109727761599e-01
-5.860153996627053274e-01
-8.073781702897965262e-01
-7.473833157920581893e-01
-4.132056481965104000e-01
7.447640979400681205e-02
5.328337924470979425e-01
7.995513045001193531e-01
7.851140940227986365e-01
4.976393174828078192e-01
3.973957806417970778e-02
-4.462867579975636767e-01
-8.240538049413431709e-01
-9.098987856492722903e-01
-4.596932049263598996e-01
5.429417998493810682e-01
1.555874621738286168e+00
1.815817287373695743e+00
1.181336861547704231e+00
2.889495664304857492e-01
-2.439429918541261844e-01
-3.935111742735566964e-01
-4.402874000412791422e-01
-4.799539022456172366e-01
-3.826397461377707976e-01
-6.079048389291385329e-02
3.762104129265599894e-01
7.105065624853740269e-01
7.805560920350754772e-01
5.576672983617821933e-01
1.266254953187088694e-01
-3.639826033947731743e-01
-7.482283860673251130e-01
-8.885206476719690327e-01
-7.249697765074006872e-01
-3.119389767755364473e-01
1.930900839346881004e-01
6.005218425242078162e-01
7.752300062807537806e-01
6.762513725383169083e-01
3.452519581595950293e-01
-1.130054277632418641e-01
-5.471746057178354938e-01
-7.928870328211233831e-01
-7.273612927651060822e-01
-3.380450812995436927e-01
2.295059426785361345e-01
7.210404240435650536e-01
9.254026300527942173e-01
7.921241897959493405e-01
4.104641070992789964e-01
-7.626659914206197766e-02
-5.177362747068458004e-01
-7.787504161178576689e-01
-7.746199844552039693e-01
-5.027074824862476365e-01
-5.028199943011335549e-02
4.233137653514088550e-01
7.346567671456856186e-01
7.497263850340072366e-01
4.516314034717066050e-01
-4.382600480868637655e-02
-5.426780310451679856e-01
-8.575485115826081417e-01
-8.757017110116951386e-01
-6.092608782651224297e-01
-2.077924258902261179e-01
1.453962876027580786e-01
4.230197373051259313e-01
7.654613360567147362e-01
1.155590572299490804e+00
1.188928722634093660e+00
5.068048312970248048e-01
-5.554375729386792360e-01
-1.172347808396474900e+00
-9.339367009721346591e-01
-1.963127469341013620e-01
4.546625194944584059e-01
7.496367482571327789e-01
7.357864614427782612e-01
5.207046071445303737e-01
1.584843401559858367e-01
-2.924889697797880550e-01
-7.138325723795430067e-01
-9.689237109500465905e-01
-9.777863356125505723e-01
-7.303355539152349696e-01
-2.765687360191665389e-01
2.349023862615543523e-01
5.699719941256372602e-01
5.604552552678889743e-01
2.339519907895445117e-01
-2.299913136817633430e-01
-6.320572672625588417e-01
-8.372587889291248642e-01
-7.913903512793755146e-01
-5.150153740726898244e-01
-9.583021158257297445e-02
3.392261894792903965e-01
6.676601029421829203e-01
7.928617273442237767e-01
6.507114896215822064e-01
2.476372132905287904e-01
-2.851077743925573005e-01
-7.111973962066004962e-01
-8.227939228283460693e-01
-5.770357100871735812e-01
-1.005894279778795364e-01
4.075791796714053339e-01
7.591396934759631066e-01
8.250350896902517439e-01
5.824861540489812972e-01
1.307980328348682664e-01
-3.590547977243834787e-01
-7.195659072862616856e-01
-8.352740622346380706e-01
-6.700318076564787395e-01
-2.781273417859543295e-01
2.141947548093645348e-01
6.386530622578061589e-01
8.136595684026421971e-01
6.136938408833465530e-01
1.047335173026479743e-01
-3.725967047940318966e-01
-4.102609803304563263e-01
1.172795950308085783e-02
4.084924077905514039e-01
3.665433496347412223e-01
9.081773414413293888e-02
8.584648802080219188e-02
4.419325874863619941e-01
7.484714085101096259e-01
6.259347482987724920e-01
1.012631022846363915e-01
-5.051163888793623880e-01
-8.847964578318789908e-01
-9.089674584838554061e-01
-6.179850455314437330e-01
-1.517480961376516391e-01
3.102784862095742668e-01
6.024846244948343088e-01
6.244266159337649169e-01
3.736918644710602866e-01
-6.039483043886462177e-02
-5.317618476198149313e-01
-8.697190815570847722e-01
-9.237167284868790240e-01
-6.471646861337913004e-01
-1.535017596909005189e-01
3.438636302110125720e-01
6.604662563558849619e-01
7.089376068792960783e-01
4.839256067644628900e-01
5.358803958422288932e-02
-4.214312953297424946e-01
-7.320246099479671420e-01
-7.482563291053705434e-01
-4.990869830201110635e-01
-1.107741033456126345e-01
2.949613295637063537e-01
6.130102981987436417e-01
7.307106567653685048e-01
5.748297907601185308e-01
1.821276807918535967e-01
-3.046884874426696310e-01
-7.059765662829273758e-01
-8.789241448379431221e-01
-7.636817337259652616e-01
-3.962576879105079164e-01
1.006040198405754038e-01
5.462309456310012745e-01
7.658854168915664173e-01
6.778600138611396986e-01
3.388149897464138860e-01
-1.081929948797362151e-01
-5.366418848175608103e-01
-8.654385281373779826e-01
-9.672208728780552489e-01
-6.156341532696362195e-01
2.926763231885837202e-01
1.376226760381869862e+00
1.875484035978686626e+00
1.394340158221987203e+00
3.673186271809373293e-01
-4.561314133252927228e-01
-7.740999259923835307e-01
-7.640409965514883828e-01
-6.285219788911683425e-01
-3.890676078034773777e-01
-2.322692809997518870e-02
3.876698108263486042e-01
6.788651671338887805e-01
7.165868891084650194e-01
4.689450743165723412e-01
1.046081421500423547e-02
-4.922924344683622389e-01
-8.305812820402527219e-01
-8.587438126722087839e-01
-5.792454724811404443e-01
-1.279051351342507803e-01
3.190505427123899174e-01
6.300428440465462021e-01
7.372363595976991757e-01
6.157714394159374827e-01
2.873998010314667839e-01
-1.517388563845687988e-01
-5.394585117705092969e-01
-7.147987465632666959e-01
-5.929468813703464569e-01
-1.944484875791559486e-01
3.564282957551009878e-01
8.466821683238324736e-01
1.051829459119175247e+00
8.746318104181405317e-01
4.133149577935647523e-01
-1.259859517345734425e-01
-5.636484768622851416e-01
-7.911076172162944120e-01
-7.518952857014111757e-01
-4.458378514889116406e-01
4.364787648801478348e-02
5.391580438794507657e-01
8.178792965068826248e-01
7.413430693431340979e-01
3.617226849635344355e-01
-1.329477707910335371e-01
-5.644949982437776903e-01
-8.200162007512570295e-01
-8.182812786820213846e-01
-5.337652875388406715e-01
-8.692847456421097518e-02
2.836486913059945714e-01
4.573239626663169743e-01
6.017137303756372457e-01
9.080424344167515871e-01
1.141630195909981715e+00
8.007823042379916822e-01
-1.184445678747243214e-01
-9.021814714608671348e-01
-9.001495900980626130e-01
-2.138706630929174124e-01
5.553689767694792723e-01
9.530649980998436854e-01
9.152740185226497793e-01
5.895457724417570988e-01
1.297582966389292380e-01
-3.478092540906349006e-01
-7.293755406735868974e-01
-9.014113897047558721e-01
-7.970404885681359186e-01
-4.439896392052208318e-01
2.990454100388496850e-02
4.430471291155757552e-01
6.330253790430531158e-01
5.207183357372193733e-01
1.459720048641795775e-01
-3.383427199149549036e-01
-7.315348262787245703e-01
-8.897630153370975625e-01
-7.853725167530085649e-01
-4.738277721243189244e-01
-4.745022741538571648e-02
3.663305589437307330e-01
6.327693421618425518e-01
6.763109179993295195e-01
4.887792761414654352e-01
9.906636801748905374e-02
-3.916831845983297922e-01
-7.793273028061749041e-01
-8.629152330210444477e-01
-5.982380727148894906e-01
-1.197896244809030786e-01
3.611318769333135559e-01
6.621211075840949256e-01
6.897758966706467598e-01
4.566005639820219786e-01
5.753038384989254267e-02
-3.709172650795918846e-01
-6.896128652991074803e-01
-7.970067339884768787e-01
-6.600626029601159850e-01
-3.209729291017534014e-01
1.142830446008848144e-01
4.971071761146674817e-01
6.624107130874650196e-01
4.730936205037579168e-01
-6.800742552721741885e-02
-6.738435638449764564e-01
-8.466598261965015970e-01
-3.427942695239551973e-01
4.241817025198240110e-01
7.652562756761234208e-01
5.607868380041741707e-01
3.379573160716248248e-01
4.566903441691607668e-01
6.593371156729551652e-01
5.208015831391840100e-01
-2.810602027646470769e-03
-5.880841277500025166e-01
-9.040253002848382957e-01
-8.457127161912211255e-01
-5.078436967317876416e-01
-5.632052256692969550e-02
3.546517648474658557e-01
6.022064722346228693e-01
5.985383007649160980e-01
3.211361875215888451e-01
-1.382625352944259756e-01
-5.799032737581159003e-01
-8.074658899935757139e-01
-7.530233970953750244e-01
-4.791213138134567395e-01
-8.790404420178561662e-02
3.214994150929868511e-01
6.259100092420269990e-01
6.881722676657894278e-01
4.479854162421781361e-01
-1.429010060466820442e-03
-4.511881080153154477e-01
-7.021701900393482187e-01
-6.703486323898948385e-01
-4.014797341292833943e-01
-1.120917478249695842e-02
3.717436426030159002e-01
6.259337673562531679e-01
6.678493991702963983e-01
4.907932608482850068e-01
1.530590237355685668e-01
-2.571614278881083071e-01
-6.198210635740031282e-01
-7.924812704388335405e-01
-6.873418139912171876e-01
-3.404134362274460757e-01
1.166798971999897100e-01
5.316648901638043601e-01
7.654064466741145045e-01
7.183124235393271162e-01
3.991640204347737253e-01
-4.845349959500806075e-02
-4.455894426274370490e-01
-7.010457344695419923e-01
-7.752793882575792495e-01
-5.243485572233596015e-01
2.414227692885491383e-01
1.356379300693691281e+00
2.110206676449707608e+00
1.834116874046927137e+00
6.944987039236315551e-01
-4.336172675130213205e-01
-9.005037452863845493e-01
-7.809234421844883922e-01
-4.843008235704712172e-01
-2.278717694087942780e-01
2.144143372462625069e-02
3.125936376948273976e-01
5.676382623126207116e-01
6.344675921958932152e-01
4.196597989665578066e-01
-2.913281113065386424e-02
-5.409355308926082628e-01
-9.100649269709630840e-01
-9.924559523461121691e-01
-7.609692785534492021e-01
-3.088434699410360085e-01
1.900775239824644414e-01
5.501966511197304843e-01
6.443494102627111975e-01
4.486181249280787320e-01
5.122856018088312730e-02
-3.824173081840595567e-01
-6.860702892131070874e-01
-7.622414491998789066e-01
-5.913931283667474004e-01
-2.081287366899970404e-01
2.930447794767639946e-01
7.394798973074092618e-01
9.267900043555380440e-01
7.433538684719210865e-01
2.637138994577024054e-01
-2.994766701276205811e-01
-7.331537594510766365e-01
-9.111768409217916309e-01
-7.983705067099715613e-01
-4.384562420105530545e-01
4.519793747226596992e-02
4.724819767704566131e-01
6.788449314071497431e-01
5.952592057088956778e-01
2.667769108896932972e-01
-1.884446321345231712e-01
-6.210950141419842030e-01
-8.794905943602824294e-01
-8.513767911596799021e-01
-5.254195953869980062e-01
-4.101197954139175483e-02
3.528180320450809981e-01
4.863491767992245696e-01
4.678204722061758969e-01
5.736286181938654583e-01
8.100950581208234968e-01
7.636824474871051205e-01
1.657930368550768474e-01
-5.692359383987399823e-01
-7.429409569115147383e-01
-1.966536239695690913e-01
5.781328906287868108e-01
1.036416919533638570e+00
1.012209988042565456e+00
6.412817014874195864e-01
1.266978580394753084e-01
-3.612794014207879600e-01
-6.974135565011886362e-01
-8.110817940886987376e-01
-6.835878544631743825e-01
-3.442305934708228543e-01
1.096493419848062756e-01
5.086086187677185677e-01
6.768205228277941465e-01
5.360294870317335869e-01
1.523847866082727598e-01
-3.132882194461212300e-01
-6.930379168404918744e-01
-8.666737657468688294e-01
-7.778685197790770056e-01
-4.459912585720990363e-01
1.743228910085983102e-02
4.291584791914843100e-01
6.238027566015371672e-01
5.511096717193162409e-01
2.792016408593713805e-01
-8.525357106070695357e-02
-4.491154906884871068e-01
-7.137211833516133863e-01
-7.576504438935530716e-01
-4.940920752591635434e-01
2.875072715174620264e-02
5.935874547547644875e-01
9.224873633919973281e-01
8.665728901909842685e-01
4.930974872069195936e-01
-1.044844622911197951e-02
-4.688216755729460727e-01
-7.567546041573629534e-01
-7.938952984317834138e-01
-5.686059492461165155e-01
-1.619611077475935912e-01
2.764943144233443784e-01
5.949920123490615165e-01
6.928785721845632795e-01
5.169513024212869512e-01
6.002596599144724432e-02
-5.358579735637115649e-01
-8.869072871369436672e-01
-6.031427094967228841e-01
2.112350158119487009e-01
8.989601432436908901e-01
9.608732926689095288e-01
6.251919645488039912e-01
4.229394441611261102e-01
4.517523432191611898e-01
3.869094544671856095e-01
2.757014584497583659e-02
-4.628236171466952875e-01
-7.849625980342681553e-01
-7.747019085307373931e-01
-4.549226220272467591e-01
3.656426230195858329e-02
5.050484309226560553e-01
7.512735428304656571e-01
6.583484275565186783e-01
2.672747663852916289e-01
-2.384425893104114291e-01
-6.435170783452405230e-01
-8.160749964301683423e-01
-7.377576999759819509e-01
-4.589590324702885193e-01
-5.775500801205634555e-02
3.590304935655828644e-01
6.501002440807215343e-01
6.800678429733285624e-01
3.998609344903600871e-01
-9.398987917529852409e-02
-5.807190501137106109e-01
-8.287831338890785382e-01
-7.380159651902381546e-01
-3.912159384873837853e-01
3.821577795429033364e-02
4.131657687658191747e-01
6.553029065140217879e-01
6.954249781806434161e-01
4.802990945615949747e-01
4.298247200475040913e-02
-4.671993713027116080e-01
-8.457301792370612858e-01
-9.395915390540191536e-01
-7.227112116348660686e-01
-2.927749142450415398e-01
1.920319527967314643e-01
5.712793687350758987e-01
7.099593463683750993e-01
5.398351839569220934e-01
1.248575741760756391e-01
-3.376263942278678876e-01
-6.431516835880896066e-01
-7.296091860103616211e-01
-6.585178293215724343e-01
-4.158472119877500983e-01
1.695378830376318979e-01
1.110092572740514649e+00
1.886386840789731512e+00
1.777421831868868818e+00
7.393585867665508626e-01
-4.256172196298989574e-01
-9.610591682404070468e-01
-8.500165216836372828e-01
-5.093385168381125983e-01
-1.868502972890717928e-01
1.370869013336186715e-01
4.755783299678967291e-01
6.964178678332879624e-01
6.481934670768091378e-01
3.186285243174822313e-01
-1.566990152527973357e-01
-5.950254715637225411e-01
-8.548886007062759251e-01
-8.622369085314853798e-01
-6.057360708257524262e-01
-1.458937052073016605e-01
3.672991612455636101e-01
7.257922551792371779e-01
7.687217795366307893e-01
4.861019966242868806e-01
2.146351769972633383e-02
-4.274886735086377287e-01
-7.136413632768078275e-01
-7.704799693492354606e-01
-5.825747529488799481e-01
-1.676351680694361523e-01
3.870234248881601058e-01
8.796931531599290199e-01
1.060904496412538700e+00
8.213872868775909941e-01
2.948696278194271603e-01
-2.631838237744172915e-01
-6.573850495791039306e-01
-7.994534319007002843e-01
-6.667955251646459081e-01
-2.992611653329239063e-01
1.748343154108097930e-01
5.681626444432513745e-01
7.246121406720282820e-01
5.911927457766741334e-01
2.227691998673345941e-01
-2.534490651929456884e-01
-6.747881801553144987e-01
-8.835969317704063242e-01
-7.858138889378429859e-01
-4.055842599971983820e-01
1.006760100402516456e-01
4.915748446625852752e-01
5.816910248542079831e-01
4.367302451351447456e-01
3.702659059829888077e-01
5.575135742967193275e-01
6.874804288259707130e-01
3.131603959279570248e-01
-4.215473329842834294e-01
-8.072288286899751419e-01
-4.258459235610505544e-01
3.785910409824628786e-01
9.632791351430041171e-01
1.010080789166344362e+00
6.187252058777974462e-01
4.148880665256843292e-02
-5.123263865456062494e-01
-8.972346922968220673e-01
-1.009577387746094512e+00
-8.136431151408691775e-01
-3.838265426507836975e-01
1.079233540959384507e-01
4.663417929521352367e-01
5.561852391362378523e-01
3.541018486914827568e-01
-4.784501417098983855e-02
-4.916628148703718892e-01
-8.234457907777195107e-01
-9.356615607416748359e-01
-7.810585847270737903e-01
-3.896383236926880267e-01
1.149189822939165884e-01
5.398641096975792530e-01
7.087697025645207649e-01
5.626155560888167484e-01
1.909165437729362647e-01
-2.399786765016598544e-01
-5.873477299014252528e-01
-7.632426323620188358e-01
-7.092480427686809197e-01
-4.114395137176063977e-01
4.509284591484787746e-02
4.847925505711669358e-01
7.300727443177269516e-01
6.883624033029138722e-01
3.850515916279738660e-01
-6.330570984010888691e-02
-5.036058852533524810e-01
-7.840236580423972645e-01
-7.898211935637716730e-01
-5.036019531813422656e-01
-3.746787822221404884e-02
4.215483023532498041e-01
7.124136430395489050e-01
7.525149625580918045e-01
5.139570208821269137e-01
7.531255771336294036e-03
-6.317760260511897652e-01
-1.041057047402744296e+00
-7.903643079420266115e-01
1.325091646866168316e-01
1.092270976184084974e+00
1.383539607145070960e+00
1.007789540833984754e+00
5.488480381843965361e-01
3.608616508695189351e-01
2.609298334621574789e-01
-2.211243819251297940e-02
-4.422830659566238665e-01
-7.276686905873356315e-01
-6.817373825477996974e-01
-3.274521178992219061e-01
1.543231009116538266e-01
5.518353586111182096e-01
7.112704609756300700e-01
5.781598396592452227e-01
2.076054481564576781e-01
-2.587940111461278780e-01
-6.499375144436460028e-01
-8.317180906478072178e-01
-7.449451313958382892e-01
-4.091839442567797858e-01
7.530874992014646718e-02
5.333780760695238099e-01
7.781201866335953898e-01
7.115190375001597678e-01
3.694837472692711344e-01
-1.132710362489899869e-01
-5.549659053143847220e-01
-7.721043806594136694e-01
-6.552728542317489691e-01
-2.481705594795167169e-01
2.684078141414488194e-01
6.909607136693363127e-01
8.885715601780228567e-01
8.185165962133610362e-01
5.060435908245691783e-01
3.150393020420476364e-02
-4.668601751964280289e-01
-8.059011871930410464e-01
-8.367079444038849623e-01
-5.488294288311226232e-01
-8.178112213369251315e-02
3.702134826461718764e-01
6.520776207317207085e-01
6.795635295112343321e-01
4.457533693989992885e-01
3.102746629141844154e-02
-4.100622726726146361e-01
-7.089004270520647966e-01
-7.692781375715536107e-01
-6.179811667443561030e-01
-3.442084263996865179e-01
4.787512789874696917e-02
6.473750079542978098e-01
1.344215019949828172e+00
1.629754017709984515e+00
1.054024920197940807e+00
-9.747581741345887063e-02
-9.809998389924452500e-01
-1.090062162216784758e+00
-6.407383535768952365e-01
-1.082690237984654663e-01
2.749726951832904831e-01
5.253065973063062444e-01
6.616949776249235748e-01
6.059576198828249272e-01
2.921454047617171312e-01
-2.090162357467483245e-01
-6.995860079429963019e-01
-9.713297699115681638e-01
-9.176402549330423541e-01
-5.721661303847616065e-01
-8.109825118951528855e-02
3.658313703669066608e-01
6.160767841932849320e-01
5.988207710526342042e-01
3.263882689527346503e-01
-1.076228359556724717e-01
-5.412909680505435528e-01
-8.057994299481274769e-01
-8.043998013593747221e-01
-5.453252809976323334e-01
-1.155310752718576861e-01
3.655542601461067020e-01
7.619109243666466469e-01
9.211254999754840966e-01
7.368534512760366306e-01
2.555813597022069672e-01
-3.145020854130826660e-01
-7.320716764959885881e-01
-8.527252270534629863e-01
-6.644325748861266145e-01
-2.609768894484150725e-01
2.046065271058933044e-01
5.714853342097553357e-01
7.081921691816098763e-01
5.441591147872084644e-01
1.190426318480794499e-01
-3.971063299539676072e-01
-7.861556179146813594e-01
-9.128840979679597734e-01
-7.651418104469212000e-01
-3.922449885526797519e-01
1.211619085054726763e-01
5.946999211476109437e-01
7.701224055986720662e-01
5.463551202577086041e-01
1.982309411491673945e-01
1.473353512454358694e-01
3.966972314415660450e-01
4.467689394343647979e-01
7.596764745812403796e-03
-4.871594647375188103e-01
-4.105241571935225875e-01
2.437924368354647819e-01
8.939351913240732861e-01
1.046677059346738270e+00
6.876190165782024577e-01
1.077840281401721834e-01
-4.179186175931408620e-01
-7.484412011155645583e-01
-8.258220970837137909e-01
-6.391365885106315980e-01
-2.532096957100455903e-01
1.814573652801452774e-01
4.905125120546405815e-01
5.561204358432186856e-01
3.513891649677690632e-01
-5.840166189954700687e-02
-5.259314915451339667e-01
-8.685465627496834484e-01
-9.495727106394161732e-01
-7.364543425389475928e-01
-3.019917471103570339e-01
2.066999044968292620e-01
6.092207646494305351e-01
7.540831315515224009e-01
5.942010625578313388e-01
2.180179886129509081e-01
-2.117060117110211304e-01
-5.601437292132246393e-01
-7.473365541837991843e-01
-7.043132940593961333e-01
-3.960048376635297296e-01
8.509899170632860554e-02
5.234192206916477019e-01
7.213899135021057951e-01
6.181406666690445473e-01
2.798217662226871183e-01
-1.727233720597843303e-01
-5.925627324811624241e-01
-8.151411084857177469e-01
-7.341080408328851670e-01
-3.849590154864375724e-01
8.160008451714778621e-02
4.936626356748616828e-01
7.183878720295794329e-01
6.876871280072106574e-01
4.083138712184180008e-01
-5.737672547403962348e-02
-5.987741131590673671e-01
-9.923593350899965193e-01
-8.895644035935634797e-01
-1.036205120324111134e-01
9.837353290932185912e-01
1.587033091421726105e+00
1.328359116290337427e+00
6.374725714096625140e-01
1.426001643165301092e-01
-3.827893188660660972e-02
-1.873034148735237547e-01
-4.454914838936996357e-01
-6.434974233675494482e-01
-5.633933191941143948e-01
-1.850517520949131467e-01
3.085378691998020839e-01
6.755298478394895501e-01
7.617686695158398802e-01
5.584080142697058768e-01
1.626788371264060729e-01
-2.895622416363742846e-01
-6.606569373349401308e-01
-8.251101639227312878e-01
-7.032661201047275545e-01
-3.210319032087174951e-01
1.696946196723490008e-01
5.656695348816139779e-01
7.241871820938333704e-01
6.092319533152292799e-01
2.683909445059113885e-01
-1.910473748158223739e-01
-6.168392385162605462e-01
-8.535321882050693754e-01
-7.973942324702928408e-01
-4.353191283124159816e-01
1.246563276472283099e-01
6.588016841038029092e-01
9.268781030518796760e-01
8.184141263080553230e-01
4.073099072628089123e-01
-1.257455297029448638e-01
-5.956937089647599270e-01
-8.576593200878983581e-01
-8.287299436384236717e-01
-5.255769281281553740e-01
-7.311087697700688337e-02
3.554047248269807668e-01
6.170612775536483685e-01
6.332520002772852319e-01
3.913322870905822093e-01
-4.087780697817718079e-02
-5.027805344481275363e-01
-7.946700432106509338e-01
-7.977551430817929612e-01
-5.593230096609183022e-01
-2.321313936358444519e-01
1.179841071638508682e-01
5.963287611777164932e-01
1.211410968694014878e+00
1.561062135085460545e+00
1.138194475177052079e+00
5.532213300924723742e-02
-9.095755295070645507e-01
-1.129242468617331685e+00
-6.809966737640695822e-01
-4.121850467779010485e-02
4.496568236056101564e-01
7.152171829427839134e-01
7.651589283746782488e-01
5.842568587544139103e-01
1.890086293616162483e-01
-3.023797128697923720e-01
-7.095466297996236849e-01
-8.938305640727660650e-01
-8.106003310906053638e-01
-4.919774799635328044e-01
-3.632849581056800392e-02
3.911058155779846834e-01
6.204565750476296326e-01
5.766086430857501055e-01
3.014763043990318359e-01
-1.025478059923754237e-01
-5.085409188639403721e-01
-7.725378606494941458e-01
-7.801260321103707929e-01
-5.131665483719516363e-01
-5.897987797806524685e-02
4.377656253451808754e-01
8.213134520936473670e-01
9.552262168275755805e-01
7.651485099285931790e-01
2.934382991829404541e-01
-2.833233646862926003e-01
-7.210317002736986725e-01
-8.363886968201081906e-01
-6.064707103954304346e-01
-1.651190731035473425e-01
2.873330789882888037e-01
5.799955378316864474e-01
6.250065024939709390e-01
4.304709691577923159e-01
7.355092075898347903e-02
-3.435953918160366549e-01
-7.054764927685097664e-01
-8.798478702888041791e-01
-7.665480175745607028e-01
-3.748799745865974420e-01
1.580261655289408596e-01
6.142734835026554263e-01
7.694567677825016050e-01
5.192572370308234930e-01
3.903477380431998045e-02
-2.510740796000496822e-01
-9.543057450227308836e-02
2.216720517653431033e-01
2.048363260443719636e-01
-1.289945036617482499e-01
-2.461998998178487885e-01
1.413957919432076160e-01
7.020453136966698926e-01
9.238977892689148597e-01
6.339906931340616447e-01
3.953797024363500667e-02
-5.347636787245205747e-01
-8.608507175485407004e-01
-8.613811517282250474e-01
-5.774581358634430783e-01
-1.304346865680015843e-01
3.093047667078322460e-01
5.745793176929652191e-01
5.715220426944190857e-01
3.131424849808509547e-01
-1.054441223966605112e-01
-5.441782552600378242e-01
-8.477390262001955890e-01
-8.966593960747492043e-01
-6.643134128691008389e-01
-2.281359621512629721e-01
2.601912020950022386e-01
6.172191216199798269e-01
6.970888848206976407e-01
4.747212725849114801e-01
6.816016609741426535e-02
-3.350295632475319141e-01
-5.888861854220887038e-01
-6.402588729657097133e-01
-4.920590870590500487e-01
-1.713239315438382926e-01
2.349832401537200188e-01
5.687077466625554134e-01
6.893573448487271271e-01
5.671363433938656495e-01
2.678785120376349083e-01
-1.194784619043145479e-01
-4.954590351268354786e-01
-7.197565140215291812e-01
-6.565842275716785581e-01
-2.972348560771641002e-01
1.941682180164372440e-01
5.920075095091158479e-01
7.515815843928445039e-01
6.493141474108932165e-01
3.414790588375440361e-01
-9.205235638813497046e-02
-5.669440812082527925e-01
-9.320909099481000659e-01
-9.114451182355953751e-01
-2.739681586542361824e-01
7.814452825421699389e-01
1.558004148489104734e+00
1.483075428531975382e+00
7.468364414255366235e-01
3.759018130379493394e-02
-2.674100513382005051e-01
-3.475464958572754282e-01
-4.696529235364018673e-01
-5.994983074438323678e-01
-5.292635516503921833e-01
-1.946519435203672155e-01
2.405546609601731389e-01
5.474531451446429386e-01
6.001587905152978575e-01
4.016686386247741991e-01
2.672305120568522346e-02
-4.047812856143825910e-01
-7.349612659319654240e-01
-8.277683283454998486e-01
-6.429943964314449589e-01
-2.474511888338003507e-01
2.174792368952256916e-01
5.818116655842126006e-01
7.156620503993980087e-01
5.833582431729061879e-01
2.383700973654719335e-01
-2.091960954004205564e-01
-6.136933697068438498e-01
-8.201872000941704544e-01
-7.190618955331501416e-01
-3.166368338195975074e-01
2.315840077369784589e-01
6.865222315543985099e-01
8.637730897017158460e-01
7.199205489844173744e-01
3.309820502334683279e-01
-1.598443010493509342e-01
-5.807467002084473195e-01
-7.878613640038966137e-01
-7.197150282357969164e-01
-4.072632958439981188e-01
3.923021877518435147e-02
4.560539306522354286e-01
6.906594273180916010e-01
6.722876009756327820e-01
4.217900371196320330e-01
1.302550122930595800e-02
-4.461495402609474414e-01
-8.032316833190973338e-01
-8.924312738964957914e-01
-6.549779786974367912e-01
-2.277663813843189555e-01
1.921261265849611433e-01
5.896836214426933731e-01
1.066944154319436233e+00
1.464883558424461274e+00
1.321250158993148460e+00
4.563612073504854649e-01
-6.037742883236364433e-01
-1.094676323947844532e+00
-7.877001572967579079e-01
-8.591945513731776007e-02
5.037249854791072678e-01
7.713233133793457874e-01
7.586842855319958501e-01
5.448088085631421773e-01
1.691906310864447482e-01
-3.011032413848228617e-01
-7.196846679706003780e-01
-9.114246833549999316e-01
-7.832728729186267946e-01
-3.963814215219854109e-01
6.990586306142955453e-02
4.320698616893057786e-01
5.837684428973153317e-01
4.937080021727950907e-01
1.894754052867290428e-01
-2.274974374991447779e-01
-5.943053269281491913e-01
-7.584194749039868677e-01
-6.552940821574561037e-01
-3.353384987507607162e-01
7.744718881099423025e-02
4.600877395488839339e-01
7.266876345879419441e-01
8.110054289405765893e-01
6.603326823620692121e-01
2.829794019576444830e-01
-2.020457371265649837e-01
-5.936198413690193521e-01
-7.120979204087856118e-01
-5.014351888612286201e-01
-6.476748646225616302e-02
3.927777353519653625e-01
6.781131665870224756e-01
6.928862204883226017e-01
4.435475479217475536e-01
1.764738082127041696e-02
-4.391920772106157056e-01
-7.619380294052664482e-01
-8.313367537637282867e-01
-6.234516631625132144e-01
-2.061179975918732699e-01
2.888812409263709080e-01
6.842423385692996129e-01
7.920701164513560544e-01
5.090935409164540904e-01
-3.622080773125582742e-02
-4.452761589430277445e-01
-3.604197677603764305e-01
7.353238428486383316e-02
3.124598687617702875e-01
1.452927680519238984e-01
-8.483555519380674148e-03
2.510002265819231138e-01
7.123636838194833398e-01
8.623927328616919352e-01
5.150927768183655164e-01
-8.380263152974246066e-02
-5.918218298767019547e-01
-8.202906396207391149e-01
-7.475897291700032143e-01
-4.478145169540220794e-01
-3.711031348232170929e-02
3.523396500333799142e-01
5.876594520969175006e-01
5.700386015408448470e-01
2.876092544850316068e-01
-1.622129767312708859e-01
-6.084999131948837237e-01
-8.774174869423250200e-01
-8.660052814496927986e-01
-5.841828044312589174e-01
-1.365321164230636486e-01
3.228036773237994428e-01
6.235527941098750748e-01
6.357741561027372423e-01
3.493806512628327976e-01
-1.048775730855987798e-01
-5.221663269130727425e-01
-7.327656935700709306e-01
-6.891076672329132791e-01
-4.564350786059175324e-01
-1.217415606789541416e-01
2.471239437810698603e-01
5.504227120825180286e-01
6.448673227640471239e-01
4.460958343105068113e-01
2.619374979310667984e-02
-4.237236793328355011e-01
-7.211757568554332254e-01
-7.752530087271571890e-01
-5.854311398620075657e-01
-2.172312581911082785e-01
2.101050380057444267e-01
5.471822173273729328e-01
6.663093604299724637e-01
5.215810157856698437e-01
1.747542886687882269e-01
-2.510032225574387876e-01
-6.576621467274953448e-01
-9.780300157948407236e-01
-1.056782775329056179e+00
-6.253262052433341545e-01
3.743464659485663537e-01
1.419204433715814950e+00
1.718089880668199454e+00
1.081315932936803392e+00
1.441083316588362417e-01
-4.214673538000004993e-01
-5.468621997100943100e-01
-5.210394655104256811e-01
-4.852662301834838043e-01
-3.550914894434336055e-01
-5.760617513491821107e-02
3.196055483923507801e-01
5.919939402855948218e-01
6.147252053698222252e-01
3.597156764492177583e-01
-8.394430165795573051e-02
-5.515550588183261160e-01
-8.641310581363422783e-01
-9.043610460986526434e-01
-6.724968451766908384e-01
-2.661845897712108999e-01
1.854786101276835741e-01
5.481917111847695034e-01
6.907298200574722991e-01
5.427990808250076071e-01
1.555395635167994561e-01
-3.142456366647560229e-01
-6.812834311965352274e-01
-8.086915552268598706e-01
-6.479776399775829532e-01
-2.441686350372568315e-01
2.704396327935407185e-01
6.998177456568048793e-01
8.619059262589592318e-01
6.907037164683066388e-01
2.671702742227766159e-01
-2.379875876237884935e-01
-6.412599785894826931e-01
-8.091039341261546669e-01
-7.005721931332857810e-01
-3.677445201337630198e-01
7.633350502517707858e-02
4.870770870434963928e-01
7.191077438648924014e-01
6.766859423274924623e-01
3.638124937635354161e-01
-1.066590850696932657e-01
-5.566018511742145680e-01
-8.053662773775249750e-01
-7.338584732086885776e-01
-3.686330922785621134e-01
8.322650356533232985e-02
3.948980118108494364e-01
5.917750677789154201e-01
9.311078979149647328e-01
1.435114108581053927e+00
1.596001532991562888e+00
9.194346609957385619e-01
-2.781151895090815396e-01
-1.060625614734644673e+00
-8.993926012741433329e-01
-1.318906181638962449e-01
5.828155159626097204e-01
8.945841803229241940e-01
8.233020843496559049e-01
5.026576781305488462e-01
3.906430845624440928e-02
-4.518304927999279852e-01
-8.143453060614179728e-01
-9.208568258421033770e-01
-7.446887799513912665e-01
-3.545854639625527494e-01
1.189679447843426663e-01
5.065304515488063819e-01
6.591037191634285808e-01
5.291748258820083706e-01
1.799251094641430293e-01
-2.678593315563537747e-01
-6.637173443746424706e-01
-8.482599237380362700e-01
-7.280126379004278059e-01
-3.506113922149242113e-01
1.176039000877670271e-01
5.028140258366663451e-01
7.133132520891471984e-01
7.291816690259453893e-01
5.411745255592317339e-01
1.551523021515970879e-01
-3.254023582632220024e-01
-6.852242239055009732e-01
-7.374300622872462796e-01
-4.704632442030796668e-01
-3.442768121875086629e-02
3.820110494122308520e-01
6.382880169251482494e-01
6.555505550896595368e-01
4.146367566862457221e-01
-2.280707725533263203e-02
-5.009306541732736484e-01
-8.222686204880925720e-01
-8.534155097728803874e-01
-5.921646274976455349e-01
-1.481085346646161538e-01
3.200443152510124567e-01
6.567385907933701583e-01
7.323864461217356459e-01
4.660849814918393008e-01
-7.796438589482679316e-02
-5.759329650800827372e-01
-5.944083904740175006e-01
-6.266672413992271928e-02
5.178637804417506318e-01
6.171567316902693001e-01
3.407644883201359498e-01
2.259235294822707074e-01
4.632299000514870091e-01
6.856943714692774750e-01
5.099076467176895111e-01
-1.770135351086429831e-02
-5.506932475251209436e-01
-8.068581738000411008e-01
-7.245941093811102407e-01
-3.901579797244057457e-01
5.785437101863394327e-02
4.580689296114743292e-01
6.506802044571198262e-01
5.440981850257408103e-01
1.762463050568231493e-01
-3.000910640991876210e-01
-7.005702833203641955e-01
-8.884180315486114310e-01
-8.068218827657545056e-01
-4.850685987375874531e-01
-3.478960406009733858e-02
3.848337807827592605e-01
6.284861234274730091e-01
6.099494429670201390e-01
3.259209857530790400e-01
-1.220310557275226110e-01
-5.424199014608342972e-01
-7.458592147379347059e-01
-6.589188414037544517e-01
-3.529027777596827620e-01
3.513061773240645086e-02
3.881797494328095843e-01
6.169128054102491765e-01
6.450009663386846448e-01
4.471465063289968289e-01
8.724402926634201860e-02
-3.092447465266080497e-01
-6.090409942990954173e-01
-7.060776160259790712e-01
-5.538338780694481711e-01
-1.945705800984878775e-01
2.459583660303337749e-01
6.023977189167867285e-01
7.323594033546307891e-01
5.783881441037461713e-01
2.010660766188261395e-01
-2.481474636206392470e-01
-6.166385613039363500e-01
-8.288974696246361740e-01
-8.328441293533678236e-01
-4.791229327665124105e-01
3.505976884781282776e-01
1.359785817482084269e+00
1.841023387540364098e+00
1.374904172941528779e+00
3.526928098901177533e-01
-4.705321918051090790e-01
-7.518697519139441177e-01
-6.667562277462605325e-01
-4.673853678292092528e-01
-2.124474270266453746e-01
1.269943418407696034e-01
4.887584923896328704e-01
7.146326859718509228e-01
6.786159969811887960e-01
3.771617652469190785e-01
-8.490241987269261936e-02
-5.494038175376442235e-01
-8.534380787171865768e-01
-8.793422405107320650e-01
-6.043514388675479410e-01
-1.285345732346490077e-01
3.467044924154665808e-01
6.131334905125325196e-01
5.851466603407908806e-01
3.374899711213197318e-01
-5.920073469490139129e-03
-3.741000207198819649e-01
-7.003789429800730826e-01
-8.505700350855539549e-01
-6.935479275848979164e-01
-2.406045103055644840e-01
3.169338227758168869e-01
7.159678483902274237e-01
7.906813427760472912e-01
5.612885535911006363e-01
1.628247957794556611e-01
-2.736858839777693841e-01
-6.372226950395092349e-01
-8.082097657610697317e-01
-7.054097354562487432e-01
-3.587882728267424159e-01
9.500163105265718722e-02
4.863983040461393181e-01
6.848243450239926977e-01
6.289714366123929645e-01
3.280444168514831116e-01
-1.307325921074022623e-01
-5.775570388613475714e-01
-8.171464745283479880e-01
-7.398283177524439536e-01
-3.896217402948662367e-01
5.638846439091525775e-02
3.779450246327801244e-01
4.751895858721386645e-01
4.963278728332858325e-01
6.538871818470738395e-01
8.152943998580682861e-01
5.418749191240045393e-01
-2.425302864317119278e-01
-9.346899998119220232e-01
-9.047732949670647118e-01
-2.117386988546001159e-01
5.569130084287341464e-01
9.252928029081189942e-01
8.271210812528430045e-01
4.429546798075088554e-01
-3.931024693945059378e-02
-4.952698962877877809e-01
-8.206923494604149161e-01
-9.130993027414970875e-01
-7.226028072213829256e-01
-3.096950908588404494e-01
1.654660421410398541e-01
5.199112769192347772e-01
6.280384053624384899e-01
4.622604632429054283e-01
9.346398964146754307e-02
-3.394650155478974307e-01
-6.824744305999366212e-01
-8.180928627628981653e-01
-6.946755378330614628e-01
-3.433660733251345243e-01
1.148044709756832482e-01
5.094010300049780504e-01
7.088176263457004467e-01
6.761696718404187623e-01
4.445971333728332420e-01
7.848058589990516976e-02
-3.140670862901441263e-01
-5.786438765604805523e-01
-5.924473430666311602e-01
-3.486410091600928851e-01
5.003497537362805447e-02
4.535362457875774522e-01
7.121733015878919382e-01
7.157336301225563080e-01
4.436325012721453187e-01
-8.026352458319070682e-03
-4.636690338400905054e-01
-7.509231171506117741e-01
-7.702950299171523740e-01
-5.210250283026715001e-01
-9.036552641076497916e-02
3.788555120985442892e-01
7.278547838443463203e-01
8.165083671154584888e-01
5.612347173233908082e-01
7.866126157356524706e-03
-5.723666722475478918e-01
-7.318789316607683393e-01
-2.231183952088933165e-01
5.948348628574499086e-01
1.005561559018431028e+00
7.578649973008744212e-01
3.392333830372700199e-01
2.637207001519613625e-01
4.339576822952162516e-01
4.081469547088056316e-01
1.726575153075673996e-02
-4.914901345048873216e-01
-7.781715084787375059e-01
-7.056625415955830594e-01
-3.579006820967987057e-01
9.066412284721564463e-02
4.677243951116671905e-01
6.325576936890059399e-01
5.061426941725730710e-01
1.186857106838326015e-01
-3.780144789706368913e-01
-7.806405239022672360e-01
-9.422921511257689176e-01
-8.236928434483045125e-01
-4.769867337590560363e-01
-1.903164581313260967e-02
3.983981183683722449e-01
6.376548786550009229e-01
6.163185081283927280e-01
3.276737868083242633e-01
-1.340405444455735062e-01
-5.708962661717716935e-01
-7.708850819032575519e-01
-6.516652063682919493e-01
-3.079452841316964173e-01
9.063625284792919956e-02
4.202480004267344915e-01
6.168912664304205817e-01
6.280552044834292191e-01
4.158395523771063473e-01
1.623982039041661080e-02
-4.364257574069465573e-01
-7.614273569936570452e-01
-8.177029350582631917e-01
-5.747117741771381461e-01
-1.326537909653979774e-01
3.291625440232949229e-01
6.414802973919641049e-01
7.063004527299951985e-01
5.132919198935917970e-01
1.381121388707196029e-01
-2.786245637144199039e-01
-6.000956743414568306e-01
-7.708983427467569483e-01
-7.848202698905588637e-01
-5.441436560085330942e-01
1.251701896016093885e-01
1.127324859702917959e+00
1.854085436226066808e+00
1.654547195346861788e+00
6.201642662946728057e-01
-4.393888697278369726e-01
-8.714759564887039067e-01
-7.195071595543479637e-01
-3.854077744757437030e-01
-1.005477302423770369e-01
1.582716431606228102e-01
4.341111503884738099e-01
6.379398529237122473e-01
6.206785309640961978e-01
3.296920089131471499e-01
-1.313521563881941967e-01
-5.735252705599027667e-01
-8.281485365837125689e-01
-8.093940730515474247e-01
-5.315502720796166924e-01
-9.763277062065528478e-02
3.341324735530440959e-01
6.052221785975715473e-01
6.239718774031334236e-01
4.023792219499340295e-01
2.798346911323040115e-02
-3.834189685041001772e-01
-6.993642459035730452e-01
-7.881910194944691250e-01
-5.866386583120367648e-01
-1.523933545439732917e-01
3.626700042991570783e-01
7.712869120054467453e-01
9.004298348243747752e-01
6.726227829409643366e-01
1.833163761602840947e-01
-3.491086046909785412e-01
-7.280741703214007599e-01
-8.519326486643118423e-01
-6.969060897281420530e-01
-3.155204961798679375e-01
1.502514434575115132e-01
5.170442960071717220e-01
6.509160009795530444e-01
5.161997788070674664e-01
1.663735027748412532e-01
-2.783011715315250600e-01
-6.606535749177349093e-01
-8.409987039629434058e-01
-7.466999312917377285e-01
-3.945687260760770698e-01
8.715750216719889143e-02
4.668908387260529147e-01
5.502034051532612713e-01
4.037106182242498620e-01
3.477465087216375372e-01
5.446995035501273064e-01
6.704663840792695062e-01
3.081996484029595473e-01
-3.607957238118004173e-01
-6.656055906884348339e-01
-2.732338938326094868e-01
4.543488692883765334e-01
9.378892851337170544e-01
9.199522520114569168e-01
5.166410164808040717e-01
-2.515713656303637108e-02
-5.056650156148153608e-01
-7.986902757457255975e-01
-8.361952283466624891e-01
-6.204346116508008269e-01
-2.320620264902112095e-01
1.947879240112580790e-01
5.120501391522073176e-01
6.006553037203405943e-01
4.190284634233618077e-01
3.227287144000287600e-02
-4.104456795750476283e-01
-7.409517567421718409e-01
-8.385827578690062678e-01
-6.716946409483408598e-01
-3.054658426334574406e-01
1.258082595041080387e-01
4.683195313939013671e-01
6.100488723947536940e-01
5.348529261832761783e-01
3.122090575868980977e-01
2.195895058172191161e-02
-2.793501887713687459e-01
-5.107755074439451759e-01
-5.537888087708933149e-01
-3.407027935502022209e-01
5.978669278272688570e-02
4.646398593151861434e-01
6.815065741846839664e-01
6.108169236973987060e-01
2.844903274750395505e-01
-1.613849748251590110e-01
-5.508546268895386788e-01
-7.463348630551633889e-01
-7.029269518031142638e-01
-4.595529683527017628e-01
-9.520157372262885720e-02
2.895138936576991395e-01
5.722052763877382153e-01
6.351015654173844949e-01
4.121794515117471747e-01
-7.226636347294224105e-02
-6.552564233494336809e-01
-9.955044162459992796e-01
-7.241798206453191611e-01
1.401807563852023597e-01
9.963136935954681750e-01
1.211400538528197846e+00
8.498648895311934348e-01
4.919013734961664164e-01
4.031094151959908056e-01
3.146134227836837605e-01
-2.632408842862475964e-02
-4.838458871226132274e-01
-7.379146903893356590e-01
-6.260480749862429306e-01
-2.355830948910924150e-01
2.214606862316918778e-01
5.528627484828483318e-01
6.458995195640340192e-01
4.725728149247406806e-01
9.012961685076403828e-02
-3.715117111518863591e-01
-7.520585306308212870e-01
-9.140226272301381627e-01
-7.913405190723813432e-01
-4.258839687901263549e-01
4.162287280797467154e-02
4.389799335380902834e-01
6.343732362758167653e-01
5.661392671387301956e-01
2.498676038325610138e-01
-2.108297027392732892e-01
-6.314075583342985132e-01
-8.124012298793046316e-01
-6.543216982587027886e-01
-2.321321619950293125e-01
2.536951494155885167e-01
6.142755807851052463e-01
7.641074977922728273e-01
6.973613363345916305e-01
4.326891278872137536e-01
2.156439859831109362e-02
-4.182163886685242860e-01
-7.253564155228765520e-01
-7.705527277230874716e-01
-5.247205545126799597e-01
-7.827271862818943604e-02
3.954747018073821452e-01
7.129241442013881658e-01
7.550016065416581545e-01
5.121835422237835944e-01
8.264035440546958766e-02
-3.685589018846494591e-01
-6.769045444703434278e-01
-7.628257249176719768e-01
-6.638685034220590531e-01
-4.278835457932968489e-01
2.571808916920619026e-02
7.879249208679802718e-01
1.597043726672179975e+00
1.812784706506122001e+00
1.068236991762814503e+00
-1.704483770785464869e-01
-1.026514287475877474e+00
-1.098671103843985808e+00
-6.608483016365186424e-01
-1.462870754443561794e-01
2.497772453037199192e-01
5.104173775557019344e-01
6.116494480706853309e-01
4.977672925254068570e-01
1.647369190207313983e-01
-2.960034749572829638e-01
-7.254767879202892455e-01
-9.593967724552179277e-01
-9.036076481567173468e-01
-5.861546121068186288e-01
-1.350283977530327140e-01
2.951092399056829962e-01
5.728736810751210440e-01
6.082915603481275912e-01
3.833747478347936943e-01
-1.534514604993120895e-02
-4.209308229755733266e-01
-6.711570051239321710e-01
-6.853867246429319326e-01
-4.736487268212307145e-01
-9.789170544301742383e-02
3.464630462591180016e-01
7.206240203927199994e-01
8.685994794122812168e-01
6.992500124892228053e-01
2.602546045495492399e-01
-2.678532962979137122e-01
-6.661159237101316188e-01
-7.883214248086166664e-01
-6.122106372888674874e-01
-2.245842603041131036e-01
2.270362525884260796e-01
5.869980747414653699e-01
7.318851811897645332e-01
6.050836217663800864e-01
2.455096185914045215e-01
-2.174309697705348043e-01
-6.122245800258041548e-01
-7.899056651760699710e-01
-6.797711265523974644e-01
-3.191996489812727322e-01
1.552532292964922123e-01
5.452383440201672427e-01
6.600308440408129140e-01
4.612768027765007384e-01
1.940949386646132202e-01
2.078729274454567677e-01
4.840200162563716990e-01
5.477526672151028508e-01
1.126396966281432155e-01
-4.098664252431633015e-01
-3.858539722512479009e-01
2.204809324164292428e-01
8.275444642552358676e-01
9.305501148262536049e-01
5.317320312267340698e-01
-5.855153327118647888e-02
-5.664493671211682235e-01
-8.443812744265785097e-01
-8.242451888532295046e-01
-5.345099350190646303e-01
-1.207310785689628546e-01
2.339506512059160159e-01
4.182483570056512168e-01
4.142214129982199622e-01
2.367642875652347934e-01
-9.168588871999255874e-02
-4.879540449259208157e-01
-7.913779963632870951e-01
-8.538165715344149254e-01
-6.373769937172939493e-01
-2.217712374331626823e-01
2.461166690551449265e-01
5.984188070420686234e-01
7.007565461098982373e-01
5.259087636260120213e-01
1.779996461899956417e-01
-1.809160792272683227e-01
-4.306939232509264803e-01
-5.197881153675203425e-01
-4.282867511842244901e-01
-1.589031051337929379e-01
2.190982188181656021e-01
5.586508204985145554e-01
7.093344273299602154e-01
6.039469719696236583e-01
2.792309800031073097e-01
-1.512091756718955127e-01
-5.365969509039731911e-01
-7.403765878230178510e-01
-6.912387083627504758e-01
-4.101198258757470239e-01
-6.208868264688048588e-03
3.621403291784200951e-01
5.594035098335399248e-01
5.339445816297736513e-01
3.096491000583894149e-01
-7.335836411455921857e-02
-5.615433546126944453e-01
-9.817750238696373311e-01
-9.852669287700268619e-01
-3.063039484177879634e-01
7.823389286690625166e-01
1.504479483242139981e+00
1.361431931412725671e+00
6.811088334520161158e-01
1.229090010445745562e-01
-9.433010339842169689e-02
-2.024505654672692778e-01
-3.827842393386472475e-01
-5.387383666000610249e-01
-4.798996313063149111e-01
-1.593587788374415948e-01
2.808821857265382249e-01
6.263901394557567226e-01
7.202287420248065786e-01
5.171927185588516274e-01
8.385763230723791706e-02
-4.230697825037768034e-01
-8.152458160186988323e-01
-9.535005310218166441e-01
-7.975279372306769421e-01
-4.105321041040232988e-01
6.738352747499265494e-02
4.706561777606006469e-01
6.627921733915724811e-01
5.746946957209310147e-01
2.331682102184893246e-01
-2.300297556840689706e-01
-6.207360693412421471e-01
-7.728541142163247724e-01
-6.275965861829988501e-01
-2.499324955747350141e-01
2.103922465888179716e-01
5.835560146201284049e-01
7.419625778975076358e-01
6.312791875597930646e-01
2.798536127621283343e-01
-1.953053893349017689e-01
-6.189702423535911047e-01
-8.381560613366351165e-01
-7.916245538098631851e-01
-5.190040031166749390e-01
-1.265671557532864755e-01
2.570514204310892503e-01
5.182456936278905246e-01
5.851083695921042160e-01
4.417627533142614027e-01
1.218314149099423427e-01
-2.944818517371415867e-01
-6.581336241279721611e-01
-7.910148747889249599e-01
-6.363870502041453214e-01
-3.278776541352004803e-01
1.167306074360767443e-03
4.350695153995017828e-01
1.084462523100307996e+00
1.630980719574611104e+00
1.436493645422171506e+00
3.741085119767887379e-01
-8.007029785944316247e-01
-1.230217403593780734e+00
-8.193610808787027411e-01
-1.033360429654570090e-01
4.393655581994103665e-01
6.942227673165609625e-01
7.235567498522045282e-01
5.541932954586967774e-01
1.923928938153787738e-01
-2.743924727806908437e-01
-6.765066702711988178e-01
-8.608288819496364708e-01
-7.733194476890953295e-01
-4.602607090237683662e-01
-2.769825728156850159e-02
3.835286370878334683e-01
6.225489103047096018e-01
5.920224171652687106e-01
3.127119409929202676e-01
-8.765349489921105131e-02
-4.565357503866001032e-01
-6.815431898961638035e-01
-6.961025757495707955e-01
-4.825810501688350129e-01
-1.016365799413128934e-01
3.152826924266604602e-01
6.298738696271414250e-01
7.426256306202656532e-01
5.986143740123900381e-01
2.161521982678720200e-01
-2.729318505221761670e-01
-6.593837789055225773e-01
-7.681704861391519534e-01
-5.539870213481833394e-01
-1.203334994555102094e-01
3.403234461791859178e-01
6.484595994747566206e-01
7.112517439560243071e-01
5.260021196038261460e-01
1.548233982677752751e-01
-2.814664917143994693e-01
-6.243909171909579614e-01
-7.462086624720362105e-01
-6.081508584884367519e-01
-2.569851939499752103e-01
2.007206499344398876e-01
6.025904765180567502e-01
7.523773135908552456e-01
5.304500275416391686e-01
6.664775765779420991e-02
-2.369709022268176035e-01
-5.901754668168307516e-02
3.883038608310613315e-01
5.291749110903604114e-01
1.958909448431694345e-01
-1.077891046297710931e-01
8.793517653119074795e-02
5.948725026106623792e-01
8.590074310294502080e-01
6.081195532989960295e-01
2.617438932619281511e-02
-5.340014142824975885e-01
-8.331948915184477222e-01
-8.109486482627925596e-01
-5.274320707260505836e-01
-1.112014229053068098e-01
2.711421801780802832e-01
4.741631009173349898e-01
4.411749841890927892e-01
2.055431498280313740e-01
-1.547803676599237288e-01
-5.340640871522028821e-01
-8.032076640081453611e-01
-8.540605266982369548e-01
-6.526960439949567316e-01
-2.534860256143888213e-01
2.142915430168504942e-01
5.752280054740789295e-01
6.706670688700739902e-01
4.486655163581290129e-01
1.789845045147052394e-02
-4.034497694012181834e-01
-6.271489723978529440e-01
-6.014417826419937718e-01
-3.868989361196578103e-01
-6.385289784279160608e-02
2.955054092712567915e-01
5.909278491068857830e-01
7.000537022320328928e-01
5.496235456829944299e-01
1.729413977163153093e-01
-2.994292988953016765e-01
-6.940811849913569587e-01
-8.594604988084865171e-01
-7.288518080135401034e-01
-3.604243948065549707e-01
8.558515481312570228e-02
4.356572030197803924e-01
5.859409221226790088e-01
5.156609189836725005e-01
2.615252143583667865e-01
-1.058113017224742158e-01
-5.090520520489772993e-01
-8.538044381953120432e-01
-9.463988765578477125e-01
-5.112544989431486719e-01
4.874046533088007838e-01
1.521652438577915101e+00
1.826801031172895495e+00
1.217508345609763509e+00
2.911322566885531926e-01
-3.014406934942197580e-01
-4.708542797495788856e-01
-4.841150155266674693e-01
-4.752795491176271536e-01
-3.517344375150274760e-01
-3.802222723652300823e-02
3.627187467894034678e-01
6.528686007473585295e-01
7.008646675347355304e-01
4.940653649126723890e-01
1.018839755659519952e-01
-3.529736039913745071e-01
-7.143306043145066786e-01
-8.424804254214673938e-01
-6.785447824105702574e-01
-2.825402550686939573e-01
1.876181152992363599e-01
5.551063710256021189e-01
7.034977171661784823e-01
6.032991809504844039e-01
2.924319098577122800e-01
-1.556024444727747702e-01
-6.316732268971416708e-01
-9.539160587541150038e-01
-9.138031992175754681e-01
-4.619489995064022247e-01
1.864959011228426444e-01
7.040423623563413225e-01
8.856884313328775571e-01
7.266533266597379193e-01
3.432332588092457115e-01
-1.202906458208325285e-01
-5.225111857796843617e-01
-7.382550710406516892e-01
-6.972213441199194284e-01
-4.148128855011263827e-01
1.188402949441259154e-02
4.324427787929314149e-01
6.948174055651465952e-01
7.066908238387294983e-01
4.625424717137305297e-01
3.313385371463886675e-02
-4.419461396391258790e-01
-7.737177420719212328e-01
-8.103421417240613822e-01
-5.525245397669894531e-01
-1.743290764932687587e-01
1.154654849309072889e-01
2.883989880858948140e-01
5.371827215241004039e-01
9.504064348225994552e-01
1.176293957715329297e+00
7.398120180131273482e-01
-2.226295053448756334e-01
-9.406716669403986097e-01
-8.673128312503002313e-01
-2.127196682799274707e-01
4.552421446216734502e-01
7.996092400170903280e-01
8.073179964515908580e-01
5.725745337750540731e-01
1.769061346491550279e-01
-2.844339409662560159e-01
-6.770298566067846080e-01
-8.653032463261405294e-01
-7.769033768409175922e-01
-4.417275668983856596e-01
1.704490323641630334e-02
4.307590524418121736e-01
6.480825980690678723e-01
5.897809513359916211e-01
2.802390953520539907e-01
-1.605313167847998990e-01
-5.666743358019744603e-01
-7.887537657068035557e-01
-7.473535122685909249e-01
-4.679586620654076490e-01
-6.536650067804454511e-02
3.228393872606179493e-01
5.924529793002470957e-01
6.787409137565100226e-01
5.441746057784326851e-01
1.989233026984910113e-01
-2.571998994538610139e-01
-6.453684400509402952e-01
-7.930904759669104021e-01
-6.281229271157168226e-01
-2.214405982258060290e-01
2.404337053651947886e-01
5.493079053429991143e-01
5.853699795223075153e-01
3.652897421929076072e-01
-2.858270499471494974e-03
-3.974156032943265693e-01
-7.080710263936177418e-01
-8.210265141061399152e-01
-6.554201716311345294e-01
-2.475490287939158263e-01
2.364594403726766880e-01
5.961772505747067186e-01
6.917944391419991179e-01
4.709428605840995652e-01
-2.190750962751071562e-03
-4.764038003224516094e-01
-5.736629251408451591e-01
-1.432834695572617889e-01
4.399453723143647577e-01
6.272560791623009724e-01
3.933483265288498787e-01
2.332778729140096707e-01
4.250423473654167394e-01
6.783462011753310650e-01
5.848972337699805957e-01
1.157734667564577491e-01
-4.164846294621622480e-01
-7.057221241766289399e-01
-6.663394738860919375e-01
-3.962919269211772066e-01
-3.867521992983186802e-02
3.006818525996306501e-01
5.357188306801796696e-01
5.683574288626332960e-01
3.411807570575653425e-01
-8.105309027217746931e-02
-5.269363602779014721e-01
-8.193456940280070544e-01
-8.545910228494189020e-01
-6.212556228857178953e-01
-1.940448168800626705e-01
2.791437167142128417e-01
6.168852023948726560e-01
6.765536360160667728e-01
4.294684396459084730e-01
-8.103658623840735709e-03
-4.285481913006417010e-01
-6.515616867396210043e-01
-6.149078525781911386e-01
-3.675052643690865373e-01
-3.257491568823989159e-03
3.750059026839260845e-01
6.522719875724833916e-01
7.256802405419078283e-01
5.581207031551548292e-01
1.958185830009391282e-01
-2.520441273832119689e-01
-6.348760428150620472e-01
-8.016913844462609795e-01
-6.750721484286016372e-01
-3.035649024787804295e-01
1.596742688337734473e-01
5.343979611569951160e-01
6.870281506892691459e-01
5.703261939138002390e-01
2.414160370578108950e-01
-1.578088370797899875e-01
-4.906595458749006822e-01
-7.057596097664781132e-01
-7.690556705811459892e-01
-5.271081270729045531e-01
1.973689162985226286e-01
1.227448267321936459e+00
1.894135172011710777e+00
1.606568266389799771e+00
5.651378996898887008e-01
-4.147635537650570248e-01
-7.882197647130715357e-01
-6.796190788811957706e-01
-4.542647531815408590e-01
-2.512139457737360138e-01
-7.401321078096510797e-03
2.908940150690911275e-01
5.272973196122632267e-01
5.691863006775086387e-01
3.749535908275575813e-01
1.492912642083829566e-03
-4.279734994889728417e-01
-7.565346489232567251e-01
-8.535961031141656719e-01
-6.855747728866269375e-01
-3.299624352035490649e-01
7.872071760803366069e-02
4.086792746442634572e-01
5.530488060645550874e-01
4.460562530507864998e-01
1.100684149582115134e-01
-3.184468452813886685e-01
-6.574719238064029581e-01
-7.874504022692347949e-01
-6.787120549914670287e-01
-3.500818458371210973e-01
1.315976334680775128e-01
6.084874000277341599e-01
8.622546061710805176e-01
7.533965803662048266e-01
3.349361155290352943e-01
-1.879519153834141310e-01
-6.019028299929868320e-01
-7.875028904184729894e-01
-7.205770005798880495e-01
-4.324419709099120990e-01
-2.080186487020158070e-03
4.310306807634591841e-01
6.997500932838751631e-01
6.924834089437809093e-01
4.126738005159351075e-01
-2.985238504312023172e-02
-4.699680098179599419e-01
-7.458629756245048759e-01
-7.516967853160695379e-01
-4.847996415866043241e-01
-7.426260151621766337e-02
2.662871993641017232e-01
3.987427756900114861e-01
4.169016740287528333e-01
5.475254706420907835e-01
7.810173765211189112e-01
7.398726056635480663e-01
1.652865360912113002e-01
-5.799834561233084829e-01
-8.274491515601888336e-01
-3.721114385133612590e-01
3.551377879076987876e-01
8.186261874391563831e-01
8.343253295792647517e-01
5.378510771796907175e-01
1.224071699846282085e-01
-2.970133549512258830e-01
-6.358242204141616449e-01
-7.887073172023597589e-01
-6.831592510284453246e-01
-3.486113562096787577e-01
8.608333939570969595e-02
4.463194132728814933e-01
5.899957312410042398e-01
4.827963629763029063e-01
1.983655110876212380e-01
-1.629942042810607616e-01
-5.199880458447911913e-01
-7.688720137860254322e-01
-7.805858198766958411e-01
-5.083215888454767351e-01
-6.338158047681241580e-02
3.570566112396681424e-01
5.993750832413372587e-01
6.135022967881245126e-01
4.288057761922394739e-01
1.048553174160526957e-01
-2.765933704114485470e-01
-5.847700969489209033e-01
-6.691527751584832595e-01
-4.650653793014269399e-01
-5.920902080902402942e-02
3.607016906400353773e-01
6.148184255740347659e-01
6.161905526544523282e-01
3.866175233229017794e-01
1.181905477446191371e-02
-3.951974009395032295e-01
-6.999032722126856676e-01
-7.813165038197498191e-01
-5.986249502786722410e-01
-2.099882917323898091e-01
2.664143860690275645e-01
6.758248084904541209e-01
8.414083684888621351e-01
6.427816266868258133e-01
1.180199625984027917e-01
-4.950595891487641897e-01
-8.050429277152552077e-01
-5.012283635526242342e-01
2.736425793487120006e-01
9.194000397968360438e-01
9.897595577012988644e-01
6.772712619627464514e-01
4.637029713213069448e-01
4.702310953510086544e-01
4.147296669040254624e-01
8.420449503501549471e-02
-3.935185735802946283e-01
-7.232360886864495075e-01
-7.266321748445604412e-01
-4.298080153703900952e-01
1.608279149554658893e-02
4.236003651090471944e-01
6.288839458440150798e-01
5.519976671275689251e-01
2.310630325136338592e-01
-2.061879418840379397e-01
-6.022998960873342522e-01
-8.149766958692651331e-01
-7.586621367073342892e-01
-4.566470628399723619e-01
-4.150214530923387185e-02
3.341443116942419689e-01
5.768398898938225106e-01
6.330929479757899658e-01
4.543173546821123732e-01
4.939837988671800378e-02
-4.387989984581586733e-01
-7.675876306684534800e-01
-7.498887302640185881e-01
-3.948406064365911905e-01
1.102620097590034376e-01
5.536550849976958899e-01
8.072679788638731369e-01
8.106396431710876094e-01
5.491073826431139837e-01
9.458092243377209940e-02
-3.859422175700475965e-01
-7.138393201946746647e-01
-7.916885041635026710e-01
-6.233801642422923672e-01
-2.828931791004809515e-01
1.188272042219708918e-01
4.556993593273434007e-01
6.069626059695626408e-01
4.996089481638795737e-01
1.664764760296636448e-01
-2.476134499585129212e-01
-5.730498500400983408e-01
-7.266491238277191789e-01
-7.233106667646970189e-01
-5.544444799778946997e-01
-9.678785049030308452e-02
7.089794185881312938e-01
1.521599808571284518e+00
1.690298884227319443e+00
9.519355108913821750e-01
-1.504027535327140952e-01
-8.294642280544324286e-01
-8.511727692417886404e-01
-5.387045900768185902e-01
-2.066640243364413210e-01
1.133161701254030568e-01
4.615761212476159892e-01
7.270641782560829380e-01
7.280959542065397194e-01
4.200323498103372688e-01
-6.044090255906403586e-02
-5.217531461153926964e-01
-8.243592591930833935e-01
-8.920010720702681306e-01
-7.058392075129328314e-01
-3.210991824009850060e-01
1.314677522295963907e-01
4.804127541779583122e-01
5.815048512548139925e-01
3.948332598176523267e-01
1.062533767837761656e-02
-4.061668616263294229e-01
-7.019305232178282283e-01
-7.873601369911353842e-01
-6.410544561461676283e-01
-2.896492715593190215e-01
1.894355025086018052e-01
6.425569942288449354e-01
8.708437648522672214e-01
7.504892502733170323e-01
3.330579120730575715e-01
-1.864527698022425128e-01
-5.948051871490457332e-01
-7.609827703009115485e-01
-6.595075894720111576e-01
-3.474341352919262382e-01
6.390506626008685132e-02
4.390545102640136532e-01
6.544268129644027487e-01
6.280806408129715468e-01
3.499575116325645552e-01
-8.743057569659995476e-02
-5.104856272510226445e-01
-7.552159212488871454e-01
-7.396058209789601046e-01
-4.635540403379786456e-01
-9.098122379970340068e-03
4.316597112581399553e-01
6.255339000515405257e-01
5.182792049151760949e-01
3.642747677718387589e-01
4.529097343607517145e-01
6.464166388339664948e-01
4.652816983044113508e-01
-1.915411658403063655e-01
-7.398819528326784356e-01
-5.918081311063811967e-01
1.292930037017338274e-01
7.900200358198610218e-01
9.399072516697195567e-01
6.059806684755416617e-01
6.510358928497630981e-02
-4.438678956921933705e-01
-7.870134240860890973e-01
-8.837097053389957324e-01
-7.062364642193381670e-01
-3.255914006348534229e-01
1.009012109790635436e-01
4.142526190666844244e-01
5.202080082099052039e-01
3.952296613310519180e-01
8.050381002346190806e-02
-3.146839568911475871e-01
-6.377363812047074365e-01
-7.540707701968736298e-01
-6.080781381155356824e-01
-2.537041187904291450e-01
1.643746469379659680e-01
4.814265846710635843e-01
5.914731275561327939e-01
4.832656828631675672e-01
2.257787386618498038e-01
-8.069723629187042224e-02
-3.547192444255964916e-01
-5.381334501011475480e-01
-5.676196443015834037e-01
-3.918484388893174186e-01
-4.209959720062297212e-02
3.423055402715274864e-01
5.861729023023860563e-01
5.808438215606297472e-01
3.305045383065864373e-01
-7.093300798486963654e-02
-4.848497604492846280e-01
-7.619930810667222554e-01
-7.872039204291175762e-01
-5.430464071291071226e-01
-1.316695032436378254e-01
2.850458456557470877e-01
5.670877417592689040e-01
6.309001813469909958e-01
4.462725403479623210e-01
3.272935025483720423e-02
-5.105251293415759006e-01
-9.265639027813077355e-01
-8.243758950857779100e-01
-2.984525470104164302e-02
