-2.839446257502403759e-01
3.114656324120620434e-01
1.228822907106986939e+00
1.680491645400582490e+00
1.188071515750761975e+00
2.577043410984292127e-01
-2.412702828459972748e-01
-9.397162527565647294e-02
2.429477455734479208e-01
3.525434828347454030e-01
2.221010336030583843e-01
4.912694033444372360e-02
-3.696067150581447414e-02
-4.518936637143367019e-02
-4.388319518932462526e-02
-7.716226725695185529e-02
-1.438771979399035839e-01
-2.239150352366360841e-01
-3.031541953863199912e-01
-3.687320470554371066e-01
-3.953589696082729921e-01
-3.588234102586299046e-01
-2.691687202624961084e-01
-1.759399950563136916e-01
-1.260835452550307934e-01
-1.230504105751886873e-01
-1.411176069717161863e-01
-1.643821846062170633e-01
-1.878413046121090446e-01
-2.003245769301790769e-01
-1.944518995340989154e-01
-1.698515325733122028e-01
-1.013403801118256259e-01
5.919593228963026393e-02
3.025583059920324835e-01
5.027388872806711761e-01
5.018249473284780438e-01
2.792811601268547772e-01
-1.069872461844641881e-02
-1.996155619841901152e-01
-2.518498216324130956e-01
-2.298472804422353744e-01
-1.847724741682099658e-01
-1.328967054065782472e-01
-9.531043967647463699e-02
-9.925764231761580181e-02
-1.409226776882639698e-01
-1.839567709582746458e-01
-2.044151373841588126e-01
-2.141133301850193793e-01
-2.314224204576329769e-01
-2.494145987193342184e-01
-2.424816332818912623e-01
-1.901309484600383903e-01
-9.401123520353767138e-02
-1.607608726083738660e-03
-1.415146179062825443e-02
-1.853119318894688450e-01
-3.378927033738848285e-01
-9.729882632061095937e-02
6.633092306294413598e-01
1.434752806912870327e+00
1.474092405639948922e+00
7.122541987074824110e-01
-9.803059030145025443e-02
-2.804391015406990095e-01
8.016107719137316456e-02
4.499513066264154149e-01
4.899082418535248840e-01
2.583585949913338453e-01
-6.209259637514487340e-03
-1.475074390639329880e-01
-1.706579656735169037e-01
-1.513884532027499896e-01
-1.288038093209740720e-01
-9.722121163206182137e-02
-6.610223209771903807e-02
-7.650354058875734331e-02
-1.444093972565277662e-01
-2.255175380515352657e-01
-2.648348822108034240e-01
-2.565878818726443633e-01
-2.280144892371626375e-01
-1.890339699782437322e-01
-1.329960288439279437e-01
-7.033634897770002503e-02
-2.586837518212277420e-02
-1.297796309784367622e-02
-3.728654981480206826e-02
-1.032781226429175803e-01
-1.813537062484984475e-01
-1.921749303911022555e-01
-6.890669820911238252e-02
1.630415906666560777e-01
3.799100102927172040e-01
4.425736185306827219e-01
3.128493365075613597e-01
8.878811113916557085e-02
-9.673006018870987377e-02
-1.923542152518142589e-01
-2.282307652943208198e-01
-2.419134443291756920e-01
-2.371653366127498275e-01
-2.008134415019918462e-01
-1.347416053519013279e-01
-6.263664240610941625e-02
-1.348253872888613078e-02
-5.281015927213187321e-03
-3.505744414214836263e-02
-8.322300675379315504e-02
-1.399532434321887342e-01
-2.092156369304757901e-01
-2.642199043358070543e-01
-2.397137399610735076e-01
-1.248535936307123007e-01
-3.530627800416528961e-02
-8.875295365194008079e-02
-1.590102278493328858e-01
1.113846409704363910e-01
8.368219553847593417e-01
1.495828022258723244e+00
1.392504565917546344e+00
5.655023480471156327e-01
-1.892093872660309539e-01
-2.786118620914633803e-01
1.200712190040228028e-01
4.837958939121723700e-01
5.415287218601284591e-01
3.636284955679000008e-01
1.161668906315174166e-01
-1.092912043187269366e-01
-2.734849380021677212e-01
-3.381354255626912719e-01
-3.034774422356446011e-01
-2.309947246993548364e-01
-1.767823125819687480e-01
-1.452948636098328750e-01
-1.219277300890110882e-01
-1.082292756804740241e-01
-1.176550836274390388e-01
-1.531232716619919665e-01
-1.932135724122826526e-01
-2.065261866045784434e-01
-1.800070411460112929e-01
-1.260642156180989959e-01
-6.519803187029028779e-02
-1.092323977693091148e-02
2.569285130004004061e-02
2.839337248226170285e-02
-2.033304049576851406e-03
-1.393854624279641623e-02
6.636944362097425831e-02
2.389594151512832443e-01
3.885526287830292635e-01
3.842284677175660246e-01
2.208148858490521782e-01
2.201711916220919565e-02
-9.998754817880478596e-02
-1.420024132654469917e-01
-1.629734767831203246e-01
-1.970766695571446736e-01
-2.366976905443906043e-01
-2.649381878742277374e-01
-2.729785787940401942e-01
-2.526199029943203556e-01
-2.000982900983415969e-01
-1.320793647951650773e-01
-7.517494007031383374e-02
-4.423812106626059254e-02
-4.942671011026125022e-02
-9.804322409610176370e-02
-1.636566609785549686e-01
-1.903583426367961851e-01
-1.699296920188261562e-01
-1.814272045376349451e-01
-2.663401211787200240e-01
-2.447563223894311524e-01
1.893436806205003042e-01
9.988046216291009971e-01
1.561976148055511215e+00
1.278930379750934154e+00
3.821173507937523084e-01
-2.890352344007194318e-01
-2.850671747997979844e-01
9.737571450241704063e-02
3.702213275905981149e-01
3.698321503295683432e-01
2.287253847340454671e-01
1.027503051693558767e-01
2.121913462440319989e-02
-6.934154992228622194e-02
-1.964466144390023816e-01
-3.221073302936062754e-01
-3.907498185342194730e-01
-3.891622353679938251e-01
-3.494583919339300238e-01
-3.024414550827397852e-01
-2.490006639557821311e-01
-1.834639538786358159e-01
-1.258845589891132155e-01
-1.157594626964526113e-01
-1.703488184515362103e-01
-2.533946956622561975e-01
-3.044375061243267955e-01
-2.990824820345297508e-01
-2.548833056585352308e-01
-1.916521752935204381e-01
-1.187467205230291478e-01
-4.052793789577743139e-02
5.590875062083511260e-02
1.948416088307768357e-01
3.554241355694608417e-01
4.265253845677552391e-01
2.828035536069204436e-01
-3.992975261986450586e-02
-3.133035657942080943e-01
-3.530944736382325977e-01
-2.169041770264013014e-01
-8.330400754632336091e-02
-3.657793301386459001e-02
-5.155322968356006175e-02
-9.279443132377840353e-02
-1.500513448151041818e-01
-2.170097836720392137e-01
-2.734269248517409712e-01
-2.872291942046594770e-01
-2.417820883159131629e-01
-1.631927488111461488e-01
-1.027692471888585896e-01
-8.543357073620670705e-02
-8.591018883519516147e-02
-6.793689086757623286e-02
-5.646613065605041865e-02
-1.454122744592365180e-01
-3.477839509122021555e-01
-4.086048894977636348e-01
4.332712613600289697e-02
9.330523291095713656e-01
1.522389062920754599e+00
1.185185543201032532e+00
2.765692636974762530e-01
-2.713687263699113283e-01
-9.650682614584776831e-02
3.419375861656280824e-01
5.149363751786169008e-01
3.660198474652572864e-01
1.432623058151605011e-01
2.421762026712097338e-02
5.392301135368638559e-04
-6.611453800145604062e-03
-3.634998936205301179e-02
-8.562244136922769755e-02
-1.485136848899397954e-01
-2.233437272272148777e-01
-2.958452691489401043e-01
-3.395023885746520365e-01
-3.370264345312298238e-01
-2.932522066197615351e-01
-2.265790157681449313e-01
-1.580449242488174699e-01
-1.119924043097046962e-01
-1.093674452971403893e-01
-1.381648572395537955e-01
-1.444920497162629491e-01
-9.094265517645248875e-02
-1.402498408626394119e-02
2.405139848973743277e-02
3.310805676770856715e-02
9.571034792641669453e-02
2.612781860151568991e-01
4.577757542974569827e-01
5.299239558224543289e-01
3.915589687549714815e-01
1.278156338252081081e-01
-9.231590174015050221e-02
-1.847907722739507153e-01
-1.880964672930664217e-01
-1.652960014089864815e-01
-1.324673934824405208e-01
-8.168423399995472511e-02
-2.817822510360685345e-02
-8.863975612317342295e-03
-4.051331012201381948e-02
-9.810109600190490553e-02
-1.425934800193003893e-01
-1.595358205764915438e-01
-1.596378920631281728e-01
-1.524979975734483684e-01
-1.361601493433796384e-01
-1.037300665172559422e-01
-5.346393546321522028e-02
-2.172428496770960338e-02
-9.402809924272258202e-02
-2.664804191025582636e-01
-2.653879442508942921e-01
2.509852880795383490e-01
1.115690678224936061e+00
1.567432589285179922e+00
1.110471116252464086e+00
2.126592937160990682e-01
-2.619337206027578246e-01
-7.005841478966096103e-02
3.339481677069271459e-01
4.912833127947045520e-01
3.556398535660392213e-01
1.340909612596798417e-01
-1.600224717006006742e-02
-7.980534374181441626e-02
-9.766898719522421057e-02
-9.290258527027508983e-02
-8.000204618659494116e-02
-8.025355058850373868e-02
-1.090655993956460706e-01
-1.652260328965072522e-01
-2.340662200168038831e-01
-2.933678962272226465e-01
-3.211318434522746346e-01
-3.076834750369746296e-01
-2.628352452766419822e-01
-2.072644580691893612e-01
-1.567473919424068607e-01
-1.180055619673885947e-01
-9.501894633282308156e-02
-9.177725416128303115e-02
-1.078543552235966263e-01
-1.280718508559314239e-01
-1.124557560715589294e-01
-9.583361497874861440e-03
1.906774990373478751e-01
4.049655092711003102e-01
4.913498888561325106e-01
3.798962324733509699e-01
1.502079996512958593e-01
-5.780177314033947689e-02
-1.802624803200813253e-01
-2.435765272173922580e-01
-2.838531516567626700e-01
-2.988667511337351756e-01
-2.700611483863337159e-01
-1.996084597123542193e-01
-1.149740570072087797e-01
-5.078786392416463624e-02
-3.151894743074261374e-02
-5.893191221373327709e-02
-1.144024811945784093e-01
-1.789523946272272015e-01
-2.413677938139844048e-01
-2.798867379652438259e-01
-2.568821148417653188e-01
-1.662413185965213869e-01
-8.816232316383557088e-02
-1.340765420911060324e-01
-2.574100966317564576e-01
-1.591765893491717265e-01
4.110419921014006328e-01
1.166552977048544326e+00
1.388459051052295612e+00
7.793310662800121413e-01
-7.506753286459746932e-02
-3.980689237267623914e-01
-8.944750456736240418e-02
3.587306501487748100e-01
5.278584112154292018e-01
3.949103584647776777e-01
1.527625466878014815e-01
-5.317854726513147195e-02
-1.922096084602104016e-01
-2.795697183233769589e-01
-3.240197655254324904e-01
-3.255114193761468599e-01
-2.882297840677374712e-01
-2.298998413038766675e-01
-1.773773881786929463e-01
-1.507652962720968104e-01
-1.560415248799844612e-01
-1.907786979744363620e-01
-2.438687861089083309e-01
-2.878610933080561485e-01
-2.874312445502896773e-01
-2.298178028172457865e-01
-1.441017654661301273e-01
-7.533702455857395341e-02
-4.549956130771175972e-02
-5.765743635736864103e-02
-1.083497117679916855e-01
-1.507990776888882556e-01
-7.834602105636512270e-02
1.682898920279780330e-01
4.559609857198753669e-01
5.282103855981988838e-01
3.030430937230187971e-01
-6.500486097327250190e-03
-1.585805820935036470e-01
-1.389873194465176265e-01
-7.955515878612759439e-02
-6.336972436758962768e-02
-9.270965487674311112e-02
-1.538712931223689129e-01
-2.273917375519743100e-01
-2.681219238245118319e-01
-2.384839531776824229e-01
-1.551376021475000255e-01
-7.019726928049949133e-02
-1.974587090267145711e-02
-1.312985740641071583e-02
-4.794151073107830868e-02
-1.016774642617620933e-01
-1.285620488307711029e-01
-1.130724538652631145e-01
-1.223864067462368671e-01
-2.291982958159465844e-01
-3.215136667568172513e-01
-7.812844650349556885e-02
6.467943523336616707e-01
1.398585188435615745e+00
1.437176482692446911e+00
6.456566843164815994e-01
-2.475215875762826478e-01
-5.294680971146030757e-01
-2.138773880194360100e-01
2.159127404881413526e-01
4.056686879605140850e-01
3.417492179275840036e-01
1.924117213803728799e-01
8.621966512498858981e-02
2.540620142698211958e-02
-4.431865388286829188e-02
-1.398755537565727347e-01
-2.321290065004248671e-01
-2.877589190682980358e-01
-2.926384015325785293e-01
-2.509807303718060156e-01
-1.812302053447751859e-01
-1.131639749774039361e-01
-7.641393909636451376e-02
-8.343949213648048369e-02
-1.260269936698016346e-01
-1.845542902053601553e-01
-2.320582160407073657e-01
-2.375739125624480863e-01
-1.863492558373770758e-01
-1.021123461319852765e-01
-3.201127618788335988e-02
3.398133939401508201e-03
3.936042529563395925e-02
1.367204763803496759e-01
3.082312298238042425e-01
4.636187170156247928e-01
4.603127054643651461e-01
2.537242866905256022e-01
-2.784095569324127051e-02
-2.036123681460964840e-01
-2.097600203641031835e-01
-1.196943549806724766e-01
-3.784862883263562239e-02
-1.368679650843153406e-02
-3.791794601330680109e-02
-8.074336411446783601e-02
-1.216621276898685461e-01
-1.547281202757913032e-01
-1.762969146341500648e-01
-1.750650820647761952e-01
-1.430070933495906638e-01
-9.370271464228348279e-02
-5.502292253372598196e-02
-4.108023219927210701e-02
-4.136580290535179366e-02
-4.263070631396616988e-02
-6.593799153171576999e-02
-1.528418813208096971e-01
-2.241716393802289931e-01
1.562407358163043873e-02
7.513020457689024711e-01
1.551754174152657040e+00
1.633985018063177419e+00
8.611564245604031997e-01
7.471576519362393975e-03
-2.061895185002585451e-01
1.205497644460956225e-01
4.338835035769166293e-01
4.328463050894861830e-01
2.226329409219017785e-01
2.120920607098085442e-02
-8.612670643703033979e-02
-1.441237266005105377e-01
-2.019759104175116171e-01
-2.524821250315317789e-01
-2.756944680011662596e-01
-2.854912151625724759e-01
-3.071405098433364622e-01
-3.338829483869424908e-01
-3.317789667355559580e-01
-2.831448976251205174e-01
-2.099343672923739412e-01
-1.507276231945777201e-01
-1.274045035384094304e-01
-1.385386328798421662e-01
-1.651901920109380972e-01
-1.763270427645279859e-01
-1.554833367447904513e-01
-1.320236325373058128e-01
-1.509655996101782749e-01
-1.940023527910402223e-01
-1.679034460123049188e-01
-4.066378322758051889e-04
2.633649629242965640e-01
4.671067528197413998e-01
4.577988260125140929e-01
2.273851576254676821e-01
-6.559949556742544763e-02
-2.476687009552033525e-01
-2.814804650441723455e-01
-2.429121298218598346e-01
-1.972424187960175046e-01
-1.472555250454735398e-01
-8.266978827098485361e-02
-2.713764654848093566e-02
-1.830632448129694903e-02
-6.709819827926599700e-02
-1.497108726794414701e-01
-2.262177959935776084e-01
-2.644659914992906202e-01
-2.535995235611285259e-01
-2.014848488944649407e-01
-1.259029683205110106e-01
-4.880720195794802097e-02
-7.777137034349236068e-03
-7.087652420320691982e-02
-2.635927378097112639e-01
-4.012537092029694885e-01
-1.160349670469542904e-01
6.869235825074015978e-01
1.441683263828940520e+00
1.401486591857422637e+00
5.919142922046902733e-01
-1.602967424091692183e-01
-2.445235234851041162e-01
1.342434451066573664e-01
4.264371544293822369e-01
3.854370575440881908e-01
1.421275467192185671e-01
-8.392069114134791119e-02
-1.886728773315142771e-01
-1.905865172344897718e-01
-1.557927805638485153e-01
-1.368365756659644661e-01
-1.499444029715139570e-01
-1.863157182068045370e-01
-2.338834446637397535e-01
-2.862354703462636207e-01
-3.374528078915931539e-01
-3.744096141288516533e-01
-3.775640815096962255e-01
-3.343813969817026055e-01
-2.562746792659458261e-01
-1.759443232179278005e-01
-1.177579523120896032e-01
-8.106724209463982145e-02
-6.466573582175323687e-02
-8.590980682060482543e-02
-1.517933596748590463e-01
-2.188671175795162127e-01
-1.972315160001308909e-01
-1.245091323524800953e-02
3.015775227153421612e-01
5.660817772617720012e-01
5.797307728950472638e-01
3.250339514731562240e-01
-2.848485958006789776e-03
-2.080114280007657745e-01
-2.642354086528460044e-01
-2.569515650671794771e-01
-2.473371626218956454e-01
-2.363985672164162777e-01
-2.086208381599905237e-01
-1.620645818440243080e-01
-1.045634434969519022e-01
-4.855562611586429489e-02
-1.347602027518769729e-02
-1.883893114316703699e-02
-6.779923557168349157e-02
-1.400081414480273956e-01
-1.993385160227329755e-01
-2.063811241344186143e-01
-1.446802941204481108e-01
-6.327797190156242424e-02
-6.542409236701447750e-02
-1.700363745873867405e-01
-1.598613137891112257e-01
2.751327882335302677e-01
1.057183957500481553e+00
1.539011410051816853e+00
1.158461225481836276e+00
2.008002964328447215e-01
-4.704947521721892789e-01
-3.866018665071022098e-01
1.446493941060224553e-01
5.474879769609517499e-01
5.677986998730092383e-01
3.428868327893140333e-01
1.066537836117826543e-01
-3.858859055077409200e-02
-1.187774629417332195e-01
-1.804005351811518443e-01
-2.280053578481319454e-01
-2.378272839990159537e-01
-1.967824957876189718e-01
-1.216528275916986812e-01
-5.579368777181115124e-02
-4.757166301092975030e-02
-1.119687491733047102e-01
-2.098156036203868147e-01
-2.784040935191411936e-01
-2.814611631545456127e-01
-2.244663256229799675e-01
-1.363626678495751809e-01
-5.184351890902857973e-02
-3.445886163145414280e-03
-1.094755012253342472e-02
-6.592388445005593900e-02
-1.214132204296237139e-01
-1.055898497300283984e-01
2.173369083829505138e-02
2.046895374244087351e-01
3.112107795611597227e-01
2.569596048597513338e-01
9.839165928068588363e-02
-3.309141378443937465e-02
-7.497106872734660143e-02
-7.188139177075875130e-02
-9.009964833420455732e-02
-1.471600299167374337e-01
-2.205311343213163522e-01
-2.777190204100593585e-01
-2.912490161140838807e-01
-2.517288661878505085e-01
-1.753072392956571135e-01
-9.610759335514049151e-02
-4.819093654947242955e-02
-4.349665706613710381e-02
-6.780743641475212025e-02
-1.017823650275878206e-01
-1.288904005035660105e-01
-1.297866126180906021e-01
-1.137914146233491436e-01
-1.445922419736376252e-01
-2.303467867786556933e-01
-1.583102360975313094e-01
3.532074465525613660e-01
1.153262617408760793e+00
1.555823039126741358e+00
1.093211904447195737e+00
1.794843570142626021e-01
-3.594803585265685664e-01
-2.348136425204409572e-01
1.654631944826414069e-01
3.911961823839713026e-01
3.546166083772978594e-01
2.180471595860715150e-01
1.142401538967087321e-01
4.687109927561800699e-02
-3.270571567925695949e-02
-1.370151315424504024e-01
-2.327391333352823166e-01
-2.854451773399019898e-01
-2.917696717270314988e-01
-2.672183644162071658e-01
-2.197956711225362014e-01
-1.526894292068191883e-01
-8.614640185829769425e-02
-5.195005555521359231e-02
-5.843134747202669010e-02
-8.304624298455624831e-02
-1.110518141950625204e-01
-1.500169650374841568e-01
-1.879575278992610121e-01
-1.812792047187875566e-01
-1.142864369002650482e-01
-2.851808277005468684e-02
3.980300347725382326e-02
1.170580614858831164e-01
2.484747738787354554e-01
4.040407002504174394e-01
4.629482709899130910e-01
3.280449995900345250e-01
5.498446942996745163e-02
-1.762642540232832178e-01
-2.347664328315928195e-01
-1.511176928234250483e-01
-5.013572586821141153e-02
-1.416247307227842811e-02
-3.751958722113430539e-02
-8.022531791256187761e-02
-1.194331638506458820e-01
-1.487606890820024064e-01
-1.585501538326123672e-01
-1.335690276629738216e-01
-7.285327284049708529e-02
-1.066910189243600385e-02
4.781931557156055349e-03
-2.700509932397046273e-02
-4.983668835691375254e-02
-3.725531145945942119e-02
-5.952217472475146431e-02
-2.059868686859423204e-01
-3.965494096613824682e-01
-3.069642329330151131e-01
3.260249445325054118e-01
1.206573874830945581e+00
1.566021057183012877e+00
1.041565642716181905e+00
1.916231881963998684e-01
-1.956392005190634165e-01
-1.391927091099386116e-03
3.175466891115372725e-01
4.022723405122562434e-01
2.669546034957351321e-01
9.049136870260056364e-02
-1.120179294693370714e-02
-2.735318270019997805e-02
-4.220187166601316320e-03
1.655239441542277756e-04
-4.840756240747026012e-02
-1.397259060932050101e-01
-2.355083238362243314e-01
-3.062339259617501419e-01
-3.411421099376268362e-01
-3.296621735864295744e-01
-2.613935391485242565e-01
-1.551009668800380492e-01
-6.681038325631029340e-02
-4.597086812094298980e-02
-8.715084741452493178e-02
-1.418391698946042390e-01
-1.726296620308473140e-01
-1.816922267370277011e-01
-1.935244331007668628e-01
-2.154646198500590470e-01
-2.064997823836744184e-01
-9.683416328427317532e-02
1.321072089430568586e-01
3.821000673028085437e-01
4.838105856971143814e-01
3.450072061675940049e-01
5.048548786848360004e-02
-2.151944331510243780e-01
-3.356548319616719511e-01
-3.267486518764530778e-01
-2.635395824717161606e-01
-1.989763801155522427e-01
-1.523261163240767768e-01
-1.295603630641463389e-01
-1.318822048734006880e-01
-1.564410658888052974e-01
-1.969614228998594341e-01
-2.429453557213962223e-01
-2.811083903496298664e-01
-2.982815294675980056e-01
-2.826474848416724028e-01
-2.248456595648379297e-01
-1.239354823019344770e-01
-1.034379803877185852e-02
2.792934956018933157e-02
-1.027347334273683854e-01
-3.251293590640517150e-01
-2.925779232632114146e-01
2.932573897137483177e-01
1.133065436154164551e+00
1.423812669734511038e+00
8.138562905068426057e-01
-6.526270107197867931e-02
-3.772433367716016006e-01
-4.695458498373749484e-02
3.716790230778574955e-01
4.606641361900636888e-01
2.617768923714838269e-01
2.380468577272561170e-02
-1.114046785687757696e-01
-1.645253062089683804e-01
-1.959177537815124104e-01
-2.174970039185962767e-01
-2.153784460885472818e-01
-2.015679792736137788e-01
-2.092696483364685223e-01
-2.495694037439687152e-01
-3.001997063516679276e-01
-3.348059172696104535e-01
-3.431679711417863765e-01
-3.256739262909280619e-01
-2.841884535380261312e-01
-2.216016834493427790e-01
-1.477820078645666613e-01
-8.391955449172806836e-02
-5.455844835402966220e-02
-7.188117708115013271e-02
-1.263644271550412868e-01
-1.810082702955631839e-01
-1.714573086744024810e-01
-4.064131139286759203e-02
1.943218382121223720e-01
4.135348753949517064e-01
4.702073058096592484e-01
3.264534075528809920e-01
9.803806357284994277e-02
-6.405291308670996164e-02
-1.163365403323305958e-01
-1.236554356931896387e-01
-1.500761716129185297e-01
-1.895398716466477618e-01
-1.980669105274842634e-01
-1.592762900050792296e-01
-1.003288955416696410e-01
-5.842624171564703150e-02
-4.954378067997616125e-02
-6.680428971348950640e-02
-9.836070897569691718e-02
-1.396095036680637669e-01
-1.840993361865027877e-01
-2.065036335677694068e-01
-1.715580852285774061e-01
-8.495949088983267838e-02
-3.399494424990797542e-02
-1.111902170676953155e-01
-2.207029626508726361e-01
-3.031481949158044281e-02
6.531008998589057368e-01
1.417068803134607036e+00
1.507854064384022807e+00
7.601663886657878955e-01
-1.105037376752353862e-01
-3.675640630316727719e-01
-2.767356330252713353e-02
3.945468107358096055e-01
5.397796262005519763e-01
4.121255803722796984e-01
1.788821630500602167e-01
-3.277575708793565440e-02
-1.800504704698010494e-01
-2.603406351291923659e-01
-2.761708895542829278e-01
-2.346397681358522169e-01
-1.582938703914301692e-01
-8.628503490078606730e-02
-5.681095337058321426e-02
-8.193424992817154029e-02
-1.426603733431473231e-01
-2.067694257160335725e-01
-2.468493551411757858e-01
-2.503644728664265462e-01
-2.210006330119783924e-01
-1.693681722397037126e-01
-1.072860579458473629e-01
-5.426650199960900145e-02
-3.449639547479066426e-02
-5.278013681238399174e-02
-7.833921819139341713e-02
-6.127067096831290832e-02
2.987534198056971541e-02
1.727444331259814225e-01
2.833247219236646464e-01
2.690393646199284450e-01
1.256626113187325200e-01
-3.731071883903454289e-02
-1.089641272852130416e-01
-9.298509450923879427e-02
-7.559858381419967688e-02
-1.102371786396971198e-01
-1.759062486947728099e-01
-2.285251905264248928e-01
-2.511656404730830960e-01
-2.489481321944727876e-01
-2.200148264874552118e-01
-1.548598539096138760e-01
-6.660891008353400644e-02
-1.727292021264715746e-03
-2.336521294542498722e-03
-6.318108826294899227e-02
-1.332351483252022517e-01
-1.575475145974477020e-01
-1.341160436721549887e-01
-1.407329944580617831e-01
-2.455184429959494097e-01
-3.190033883402713655e-01
-2.710457623159192794e-02
7.574900838780151968e-01
1.540860681216003725e+00
1.576219235800225160e+00
7.857386977821945173e-01
-7.823930858960587154e-02
-3.383961809291382572e-01
-5.771256226965752745e-02
2.887332678886731507e-01
4.057801892357971729e-01
3.154668187116838607e-01
1.639223199748086335e-01
4.959640850683141866e-02
-1.651774717053689986e-02
-7.044243171771348566e-02
-1.439542102300571391e-01
-2.341321672098628792e-01
-3.011024560968756369e-01
-3.020482716185244887e-01
-2.391145462659561294e-01
-1.629999098446002215e-01
-1.219780492942548755e-01
-1.211020669066604771e-01
-1.363948337649672216e-01
-1.525226569809968180e-01
-1.729034737503931940e-01
-1.976877351607979894e-01
-2.075642632320771064e-01
-1.811926967816137324e-01
-1.255201282500862658e-01
-7.083154281857800827e-02
-2.742677996690644909e-02
3.436717730065231430e-02
1.474995160424266150e-01
2.962616575134227603e-01
3.984199376733130182e-01
3.552950557308335311e-01
1.580590004614507993e-01
-7.310526077835313719e-02
-1.995929549367383982e-01
-1.879164149269626216e-01
-9.512616010875009354e-02
1.284565080194298610e-02
8.221749687899226888e-02
6.452264084867918859e-02
-4.440406442463782494e-02
-1.792951720377423119e-01
-2.616724063991034965e-01
-2.663023323236401452e-01
-2.159072611960282939e-01
-1.338505958166202880e-01
-3.013449591208970657e-02
6.906872561252033749e-02
1.294941633971197492e-01
1.621751080813311763e-01
1.819718224050782540e-01
1.071984191953953003e-01
-1.318588090962503900e-01
-3.318355619583608362e-01
-7.668269335178613810e-02
7.292647403025188657e-01
1.491944544696436559e+00
1.452267308650013078e+00
6.383124981685119881e-01
-1.194526311529521823e-01
-2.113877462323670298e-01
1.517714256021059915e-01
4.217478261525648420e-01
3.720886777771255094e-01
1.615234064469903696e-01
1.151531427779273545e-02
-1.719420433460871339e-02
-2.502664705039021886e-04
-2.008890539406124609e-02
-9.331282957732316141e-02
-1.853503043417477625e-01
-2.554345895009307310e-01
-2.886886120555005597e-01
-3.019338038237930899e-01
-3.197342454486835628e-01
-3.386883302689627784e-01
-3.220395200571367078e-01
-2.444729541637751802e-01
-1.370248694324222860e-01
-6.757372741753815693e-02
-7.839039410810209885e-02
-1.531513623041417804e-01
-2.341717005409179875e-01
-2.654000732836746534e-01
-2.310308961565956942e-01
-1.494531938975756924e-01
-2.705727366495443847e-02
1.441943685150129661e-01
3.227937912340216320e-01
4.025604261332106915e-01
3.084970368332363155e-01
8.545477977104450062e-02
-1.451386172027216703e-01
-3.026141706487386895e-01
-3.815185649928196643e-01
-3.892579101637989036e-01
-3.239008699928521140e-01
-2.179914061066128839e-01
-1.372518563681892623e-01
-1.252065891100236084e-01
-1.776697996073904606e-01
-2.554643291532976979e-01
-3.087521295190750470e-01
-3.143724375851894570e-01
-2.941222056376513461e-01
-2.808911970512841250e-01
-2.760456213889806443e-01
-2.505311330923134516e-01
-1.839083063352504321e-01
-1.117069063147811264e-01
-1.316127145704704127e-01
-2.947021808898362405e-01
-4.221858181615757988e-01
-1.415948922731760373e-01
6.455469964086810730e-01
1.373015822516733042e+00
1.304298812985343003e+00
4.975790188165080674e-01
-1.975437357158956186e-01
-2.009349907328926710e-01
2.217456432659054566e-01
4.985983235923566737e-01
4.157674696756049060e-01
1.429184060647194776e-01
-9.324246008355395465e-02
-2.004762823407782724e-01
-2.007830869591220313e-01
-1.529583071603075606e-01
-1.101864880823038018e-01
-1.037488929303370666e-01
-1.371954769339856495e-01
-1.980983717696663260e-01
-2.719875918112238944e-01
-3.391020553333928267e-01
-3.742451145676220503e-01
-3.621902252292864000e-01
-3.043033194548345199e-01
-2.047650778797875382e-01
-6.655815589187646930e-02
7.479776660896475526e-02
1.393689971569888886e-01
8.156953836621451404e-02
-4.334116672466491876e-02
-1.418584613559407126e-01
-1.671485000581192648e-01
-1.070177480139809095e-01
4.647997545953186371e-02
2.607325320123966006e-01
4.294408522499086889e-01
4.393952195350383505e-01
2.848052544089482718e-01
7.517225328406321183e-02
-8.337506921637097279e-02
-1.735719624196819799e-01
-2.273780965025355982e-01
-2.539254520973839857e-01
-2.374320521412280338e-01
-1.800668858675903983e-01
-1.132359515709563946e-01
-6.868832522236087423e-02
-5.521249656225205721e-02
-6.194094764612771697e-02
-7.775439501986983193e-02
-1.066203406581065355e-01
-1.568472139607287319e-01
-2.120257003061863377e-01
-2.251961697869078738e-01
-1.620537786980573158e-01
-6.447345562300467459e-02
-4.600476525852347648e-02
-1.447074629785572997e-01
-1.506560804642039786e-01
2.645540702966985847e-01
1.054277042242141249e+00
1.578209916425331150e+00
1.244173313040902951e+00
3.138997824006468651e-01
-3.457274274927489843e-01
-2.767496747064573936e-01
1.972924912520454543e-01
5.360054847675830292e-01
5.405744472401299294e-01
3.475215205632453119e-01
1.381968280610487709e-01
-2.315342595014177607e-02
-1.418311172097353745e-01
-2.099567323382287576e-01
-2.135169476604653616e-01
-1.729925425517598037e-01
-1.332853799090532587e-01
-1.204385405962993261e-01
-1.270077181594219118e-01
-1.376346634262694824e-01
-1.525532368481667400e-01
-1.784202390320586418e-01
-2.070213091870018174e-01
-2.169738308968069962e-01
-1.926800170528633060e-01
-1.326513118055984708e-01
-5.113428280775825230e-02
1.771770499186790804e-02
3.455089532373125522e-02
-9.600451365516690996e-03
-7.413703877884142424e-02
-8.886665197479366729e-02
-3.318733585378668208e-03
1.611446643472155826e-01
3.017893021149603006e-01
3.071003173794512042e-01
1.678369753774786588e-01
-5.239430078143099412e-03
-1.023706098935377451e-01
-1.245362213881660435e-01
-1.446245522840416686e-01
-1.984878578699023899e-01
-2.564028186270214671e-01
-2.804381265921067623e-01
-2.667245248839048566e-01
-2.301546308593249435e-01
-1.787458785072146006e-01
-1.176798639443391165e-01
-6.629319908601917499e-02
-5.525270833362519451e-02
-1.020789322471477717e-01
-1.880698465646830631e-01
-2.556808495146809523e-01
-2.496272187827651701e-01
-1.955469866907295073e-01
-2.036960462556053897e-01
-2.972224873067498829e-01
-2.414321480878985349e-01
2.606609374552321667e-01
1.063512349109404065e+00
1.496987399639623906e+00
1.094907913342749506e+00
2.322999846596974227e-01
-3.050221142184855738e-01
-2.134550206985698639e-01
1.768286495426823757e-01
4.460157464982554831e-01
4.698134061231714065e-01
3.502144308430580333e-01
1.986869879899967606e-01
4.885471338023386623e-02
-9.223878508449717684e-02
-1.951180086675118053e-01
-2.349913190727331846e-01
-2.249340555184046742e-01
-1.926507380853414442e-01
-1.520078582415616830e-01
-1.182270040636985708e-01
-1.178826379298933275e-01
-1.537984540077225737e-01
-1.873688002477551517e-01
-1.880304635951661474e-01
-1.750771514728439449e-01
-1.796385527600912191e-01
-1.899913944769383300e-01
-1.671642938491012254e-01
-1.029681607010164979e-01
-3.323134344904972448e-02
9.128392311965834172e-03
3.513866824018811036e-02
8.958408306962900580e-02
2.021760028158105515e-01
3.347221724606889715e-01
3.825625979213638783e-01
2.696585768488663493e-01
5.038618715987946972e-02
-1.261324269347637861e-01
-1.643324803697761571e-01
-1.006318026330369902e-01
-3.442469742948829625e-02
-2.359996407348594061e-02
-6.135542418460615544e-02
-1.190100205984137988e-01
-1.779479221394892896e-01
-2.269398470597975559e-01
-2.519501231914700878e-01
-2.406962577645850310e-01
-1.988419602115728824e-01
-1.529818485071194334e-01
-1.247521203801870565e-01
-1.055757197446432760e-01
-7.213510907077852474e-02
-3.042069611198355492e-02
-3.987308288970968506e-02
-1.686083057886894609e-01
-3.572528770465538406e-01
-3.216615890874302552e-01
2.256452449599818666e-01
1.091939248187618006e+00
1.556787161711671308e+00
1.143748218871429190e+00
2.701816873944410391e-01
-2.454855019170111841e-01
-1.358488383069335059e-01
2.079309681093680084e-01
3.644637486778274926e-01
2.744890750949068314e-01
1.130878459160625515e-01
2.324839591207580880e-02
8.624171155794252419e-03
-5.490863178651977233e-03
-6.902761218539030241e-02
-1.661360631931742549e-01
-2.470131427227822418e-01
-2.818844789951777674e-01
-2.847967572517019486e-01
-2.865912210673615679e-01
-2.898348697613578606e-01
-2.651772494811007186e-01
-1.955469574767881025e-01
-1.073475683576060047e-01
-4.735377467091914094e-02
-3.790488202703591603e-02
-6.469244975982746393e-02
-1.023377649243053106e-01
-1.357871839129876912e-01
-1.522750218519053067e-01
-1.321692640778769634e-01
-6.112683200369632697e-02
6.375695871946694682e-02
2.347827910891524261e-01
4.049387347121998770e-01
4.709518479655170342e-01
3.494113158707736755e-01
8.409416312462358878e-02
-1.747156854792110692e-01
-3.120393439069570340e-01
-3.254724301447443624e-01
-2.680098280218931595e-01
-1.831260193841787731e-01
-1.096610784180959697e-01
-8.956397658829998165e-02
-1.329901044353582751e-01
-1.959532839463514753e-01
-2.226724790566805279e-01
-2.070053398960716717e-01
-1.866837924316654684e-01
-1.839400385555368944e-01
-1.831004481682180218e-01
-1.571457042102457069e-01
-9.201611215687072187e-02
-7.585794473191723522e-03
1.666530259260375763e-02
-1.202801547170867097e-01
-3.765695320250230793e-01
-4.355712780122464323e-01
4.914828845711895211e-02
9.033358229294553565e-01
1.374880222285867371e+00
9.703313639929322942e-01
1.325931467086252646e-01
-3.029023377777594894e-01
-9.707239570756617808e-02
3.112833844732736943e-01
4.704437476870717005e-01
3.225975924421088936e-01
7.204821147417164728e-02
-9.977715752837425234e-02
-1.557740222747470427e-01
-1.479747288362079360e-01
-1.287656497113078558e-01
-1.187760796922397721e-01
-1.174311743391913826e-01
-1.229063509461429810e-01
-1.459836443699334685e-01
-1.993041932199896282e-01
-2.659270915513843314e-01
-2.983639210762237814e-01
-2.694880046408137386e-01
-2.065319552812233395e-01
-1.526733516618670183e-01
-1.173511901413245156e-01
-9.073960409282104400e-02
-8.004552331446408708e-02
-9.778738560254829348e-02
-1.346601855367460798e-01
-1.657318689725718330e-01
-1.603401382684052356e-01
-8.006701577898441002e-02
9.411509785546558204e-02
3.123939726367509495e-01
4.590775425193434067e-01
4.385447147954291691e-01
2.649813937490706484e-01
5.064938852016304116e-02
-9.612376480594743422e-02
-1.480516152069060731e-01
-1.458638175046372554e-01
-1.338595538122068218e-01
-1.176076055440900547e-01
-8.032332545241785415e-02
-2.187166626399596886e-02
3.404370491269283205e-02
5.920162752951534796e-02
3.752971372513022597e-02
-2.279424177284665801e-02
-9.021040235466311341e-02
-1.333855588964397432e-01
-1.379760266549510950e-01
-1.017136201930094325e-01
-4.182969572690735383e-02
-1.583681356727038858e-02
-9.400888277205461663e-02
-2.352285321291792408e-01
-1.759546417709328126e-01
3.635785234599568372e-01
1.175690519899514008e+00
1.523040267155483019e+00
9.721417446814041297e-01
4.069342820021901175e-02
-3.991007786516787004e-01
-1.305955821990738563e-01
3.596067450608601557e-01
5.904256408982865301e-01
4.913048861580973092e-01
2.440150870204105538e-01
1.144913767445821656e-02
-1.473579686427063662e-01
-2.280484403379192115e-01
-2.388488217664282154e-01
-2.047526586774621182e-01
-1.694802310409081469e-01
-1.671945503278932099e-01
-1.962681070036518260e-01
-2.320644730925048860e-01
-2.618365100330940498e-01
-2.917082683816050181e-01
-3.181728467444626673e-01
-3.146679393312705186e-01
-2.629097536217539499e-01
-1.818254488655946799e-01
-1.060678461895571412e-01
-5.254534971560005652e-02
-2.498068449927167561e-02
-2.935405610125021991e-02
-6.115149828975038199e-02
-8.106331809263181420e-02
-2.436090611591701371e-02
1.346291582794464092e-01
3.194453177465212956e-01
3.942815717333377767e-01
3.022873207213625513e-01
1.297582857094013442e-01
3.599440753424092837e-03
-3.901140641385889701e-02
-5.225908237167015136e-02
-9.440802197732592327e-02
-1.725499085912288177e-01
-2.497881991704147264e-01
-2.793155071354438412e-01
-2.393369679374586223e-01
-1.532038860625418164e-01
-7.659537706820525316e-02
-5.153480327165746444e-02
-7.061330407002396059e-02
-1.003713661440983340e-01
-1.318049515727632848e-01
-1.748616374840109844e-01
-2.091582747433572698e-01
-1.948340804066357179e-01
-1.539598495509594545e-01
-1.762609755948991996e-01
-2.483145645834964610e-01
-1.077459119183533098e-01
5.056260446047897705e-01
1.330350992830094503e+00
1.615565914283634497e+00
9.726513055377183914e-01
-6.441166143153553847e-02
-6.342828779768636682e-01
-4.610847098467871219e-01
5.071230468072378261e-02
3.931404296095310502e-01
4.026555943583519093e-01
2.265360676781331406e-01
4.195192870126647489e-02
-9.782678858598740923e-02
-2.059685531634152522e-01
-2.785439279423215231e-01
-3.026242258991879153e-01
-2.901821016424763755e-01
-2.670251747425477773e-01
-2.452586491079201680e-01
-2.199586244222626052e-01
-1.856692068213924851e-01
-1.542989303735188833e-01
-1.560567499763190757e-01
-2.115622917248301260e-01
-2.970551517735008917e-01
-3.506645540092880320e-01
-3.267701178484971325e-01
-2.367943091987446680e-01
-1.305855293735584677e-01
-5.278647293755464598e-02
-1.971538204987115586e-02
-1.022332146661642828e-02
3.275079088871003796e-02
1.524184064276121742e-01
2.979124634199420973e-01
3.364805413398808120e-01
1.991392294083167980e-01
-1.935457312349204290e-02
-1.591973448031661353e-01
-1.614678065883818625e-01
-8.974955697977940461e-02
-2.868202566555723421e-02
-1.781053754721136084e-02
-6.024470143535538141e-02
-1.397411501140858880e-01
-2.201459768487176449e-01
-2.552996838415036995e-01
-2.214429502729917398e-01
-1.402488661904642830e-01
-5.855682406534152423e-02
-5.119357133451314830e-03
2.217654834676789644e-02
3.309347431091588798e-02
3.001664826961725901e-02
6.903494396423636575e-03
-6.466366401761586280e-02
-2.120360219838116900e-01
-3.349350883910296450e-01
-1.414053020177802045e-01
5.571619482497196518e-01
1.398425409247867401e+00
1.637174292182393298e+00
1.006480976250568427e+00
1.117677319072789277e-01
-2.897061728067634734e-01
-1.007374327499072908e-01
2.327589296980029365e-01
3.474022865150003248e-01
2.401133317527111288e-01
8.767579721827001293e-02
3.471285168168754265e-03
-2.065852101052945838e-02
-3.965943591934683460e-02
-8.535427794008883240e-02
-1.554301943470850766e-01
-2.333541604304832373e-01
-2.977375122220083381e-01
-3.238078593279431483e-01
-3.018326099627532400e-01
-2.513858795881298569e-01
-1.987785564568771424e-01
-1.510478031964375134e-01
-1.089988278699857427e-01
-8.605836092750784871e-02
-9.135218547532114597e-02
-1.095624895728916359e-01
-1.184003286369108010e-01
-1.175120002754047738e-01
-1.232404565008488051e-01
-1.318037490179150006e-01
-9.673451647968775435e-02
3.889752422650154945e-02
2.672646581382011610e-01
4.718669199901459610e-01
4.957415503873336404e-01
2.928678899519063794e-01
-6.329324560101552699e-03
-2.185536448083280070e-01
-2.748228287352330601e-01
-2.335466010390057634e-01
-1.716581210210327002e-01
-1.208489931963127595e-01
-9.063761564110144053e-02
-9.234518948207963429e-02
-1.265449757190038327e-01
-1.760847171478319984e-01
-2.190371733012694555e-01
-2.374673524710364803e-01
-2.238751757877138204e-01
-1.909860006100919938e-01
-1.572964677984836079e-01
-1.130673060756773596e-01
-3.313985861759952828e-02
5.397813786527509705e-02
4.299984109261030529e-02
-1.413530343668767120e-01
-3.656803760306810980e-01
-2.652114138727807990e-01
3.913619190971859840e-01
1.223736709585373506e+00
1.450094988512195870e+00
8.250134531167495622e-01
1.567411095748180716e-02
-2.338664668052007622e-01
6.474771457449750300e-02
3.858628284592114377e-01
3.982498929815930788e-01
1.844825435900877553e-01
-2.823960455246617499e-02
-1.265341191162179524e-01
-1.346189140836053233e-01
-1.175248246606442615e-01
-1.156897544642908893e-01
-1.365070705393961192e-01
-1.651328025363270335e-01
-1.847476723478025940e-01
-1.982607154574812514e-01
-2.216336008524741608e-01
-2.560070618157473943e-01
-2.803691833826160718e-01
-2.717418882076251818e-01
-2.255533935362845355e-01
-1.575686524406336997e-01
-9.157743068737314585e-02
-4.875095535848669032e-02
-4.263564611838620289e-02
-7.519152964999949174e-02
-1.342416408604334976e-01
-1.868799141044073797e-01
-1.752835295442060626e-01
-4.512721345951002661e-02
1.929653609102775780e-01
4.278013755902977944e-01
5.052612418023972873e-01
3.615144645876760543e-01
9.098330824281292140e-02
-1.498076051832746280e-01
-2.823477907454783886e-01
-3.245922910721861787e-01
-3.184097194749644921e-01
-2.828247619509740018e-01
-2.210428534390193323e-01
-1.470484337928196217e-01
-9.217399674532943121e-02
-8.100807520492907254e-02
-1.116220714020001448e-01
-1.609900797114046933e-01
-2.002108172838015787e-01
-2.148675352277511497e-01
-2.184143234014315760e-01
-2.236293839975555531e-01
-1.987653805618394276e-01
-1.078106435627118748e-01
-1.959639056532054557e-02
-7.453761698899508126e-02
-2.305449391208849452e-01
-1.341575661302547573e-01
4.978535259610997188e-01
1.314388460253982149e+00
1.510711670755257696e+00
8.208783867900955045e-01
-4.859897640148375109e-02
-2.853696993172127327e-01
1.136656370228126267e-01
5.629652670141837012e-01
6.476066974735226189e-01
4.015838079207047495e-01
7.405859462315061981e-02
-1.456541322878920908e-01
-2.239330407466462447e-01
-2.309971369399077545e-01
-2.348652812964959480e-01
-2.408731298876497506e-01
-2.199990548497158249e-01
-1.710891827241683427e-01
-1.368925674717454688e-01
-1.586841089159165830e-01
-2.292677842542453770e-01
-3.042585369063116607e-01
-3.456063672333549719e-01
-3.363563758603784759e-01
-2.772243768754362736e-01
-1.926950503768533884e-01
-1.187014915318165137e-01
-7.063929626595555344e-02
-4.391484457001317704e-02
-4.340692752640101099e-02
-7.679696622493423219e-02
-1.090510584253956278e-01
-6.074327950584502978e-02
1.062225880165206943e-01
3.040806437600936385e-01
3.736348501203139993e-01
2.535894970432975293e-01
4.982471260632866106e-02
-9.287763102681734217e-02
-1.344804463425380570e-01
-1.321437242961821801e-01
-1.485720290055113912e-01
-2.009964305833675802e-01
-2.655827188517602133e-01
-3.002376322622988258e-01
-2.738062101175327556e-01
-1.924654569347418187e-01
-9.658149408278357551e-02
-2.825188876961931897e-02
-7.636507848999289118e-03
-3.235826333992608550e-02
-8.182483722662393932e-02
-1.234136505584923493e-01
-1.267154710410903773e-01
-9.045365308763379797e-02
-7.301631491363391735e-02
-1.425923754338705440e-01
-1.994706418269640014e-01
7.567219737062448603e-02
8.332679234413271629e-01
1.599741373264078836e+00
1.612769014579464200e+00
7.785156959452346204e-01
-1.176722522627619560e-01
-3.464338349531154715e-01
1.772501821268925026e-02
4.233066235171193403e-01
5.325999591833009417e-01
4.060347626263972054e-01
2.377326680512727719e-01
1.199192736639436985e-01
3.408471584116668646e-02
-5.339521405914786356e-02
-1.387552211151317494e-01
-1.945892183852603874e-01
-2.042487486791669249e-01
-1.781615055864985420e-01
-1.404942110666554667e-01
-1.052441960501341173e-01
-7.523019657967447427e-02
-6.043003605418911794e-02
-7.467532158628813199e-02
-1.099303225842003795e-01
-1.357595140952376489e-01
-1.309063972622537542e-01
-1.005906646407701832e-01
-6.275347145716494990e-02
-3.226128610814178038e-02
-1.726600613910313914e-02
-1.274275063698623173e-02
9.321404800530772028e-03
8.599513980549218506e-02
2.170348831315047078e-01
3.299187203649235900e-01
3.211007856415393769e-01
1.655443984391385959e-01
-3.502191857285193166e-02
-1.493017425164575029e-01
-1.349932961124029607e-01
-4.314766519576335169e-02
3.740365237036042539e-02
2.788870033168410270e-02
-7.861440908387171134e-02
-1.977667406207205825e-01
-2.441730049544788561e-01
-2.184959893113155860e-01
-1.736073486706841140e-01
-1.348386454447680349e-01
-9.023338255700512345e-02
-4.083369410820525403e-02
-2.369086186667111738e-02
-6.573899100986935196e-02
-1.345096794326375855e-01
-1.808567432093956817e-01
-2.291344100244074311e-01
-3.347513635094679363e-01
-3.855620341503787074e-01
-7.079571270420849383e-02
7.155369392974889609e-01
1.475710442106728193e+00
1.490969470166348732e+00
7.147650824780124035e-01
-1.050065102102713532e-01
-3.216193648943104222e-01
-2.618424805287093010e-02
2.909668097221659866e-01
3.432448646127495562e-01
1.851755648646503105e-01
-1.079961282100103115e-02
-1.437637862766364683e-01
-2.050296586952285172e-01
-2.242369546760091814e-01
-2.355779570806879608e-01
-2.670417143254804615e-01
-3.248512495232728781e-01
-3.827424660551201341e-01
-4.035783760394311970e-01
-3.771026694290877113e-01
-3.244045873903658728e-01
-2.668715103409733391e-01
-2.128922593170590738e-01
-1.785422117539691156e-01
-1.905365596599730149e-01
-2.471621302040008239e-01
-2.976901476720715811e-01
-2.919159046181675210e-01
-2.404808702940767207e-01
-1.928360807524424070e-01
-1.590158417103368360e-01
-8.642334490548037040e-02
7.297827491108963005e-02
2.789281775993108781e-01
3.992207255632467255e-01
3.176686692032333337e-01
6.096291602103866281e-02
-2.091404320140999584e-01
-3.479440150500742179e-01
-3.439656729999727158e-01
-2.792308196508927476e-01
-2.229532985744642204e-01
-1.893214127755953324e-01
-1.684559934211125043e-01
-1.606119121937833183e-01
-1.726378517266592139e-01
-1.995704544071937869e-01
-2.265039389917261337e-01
-2.418634994379066372e-01
-2.380364224825598507e-01
-2.097322531614171093e-01
-1.603760247762271440e-01
-9.982778904525926866e-02
-4.246520048505915412e-02
-2.932680598852788201e-02
-1.253226543745693533e-01
-3.114547957017085866e-01
-3.557025685856632924e-01
5.917088283569997553e-02
8.954402834982966297e-01
1.548886958312188034e+00
1.398318009657567362e+00
5.846012230634511919e-01
-1.025216439095714416e-01
-1.536564779886722687e-01
1.959135796339282476e-01
4.381425704246010855e-01
3.677413608159132430e-01
1.245097598309089643e-01
-8.112447921483674496e-02
-1.569947367127450255e-01
-1.312256415381214958e-01
-7.502500699514000337e-02
-4.667568359403673206e-02
-7.007711525395636520e-02
-1.308755131693588314e-01
-1.953411525728230291e-01
-2.422491416812420639e-01
-2.708338841240017225e-01
-2.817502638273458038e-01
-2.661126872579828717e-01
-2.159314475316961024e-01
-1.391736215914378405e-01
-6.181245423694187863e-02
-1.095929186154303257e-02
4.021451783918755102e-03
-9.544116201570231051e-03
-4.000887519864024244e-02
-7.518988023734235471e-02
-9.633988815141143747e-02
-6.814147173167392491e-02
5.687624625680358370e-02
2.855087878234432441e-01
5.152430519135623443e-01
5.758703209243455357e-01
3.997162660318416827e-01
1.115050335900222289e-01
-1.054627025692008863e-01
-1.912374997536127053e-01
-2.103070008807025049e-01
-2.217681532072657558e-01
-2.171752701595501545e-01
-1.714337755545854158e-01
-9.954450493794989030e-02
-5.169197962741123309e-02
-6.611310943459955403e-02
-1.292863371639992598e-01
-1.912612700258790321e-01
-2.234037694085190540e-01
-2.391339428281867019e-01
-2.485493758020608790e-01
-2.206017696147396789e-01
-1.224851693053446156e-01
6.911054551893662523e-04
1.990383811722341509e-02
-1.356933231045951149e-01
-2.838496250118806019e-01
-4.131634632002056939e-02
7.056148630860891169e-01
1.411690430568213417e+00
1.344317703927557117e+00
5.415097173388436769e-01
-1.598629716045717186e-01
-1.667944506409602956e-01
2.786412699860161268e-01
6.089069733118778194e-01
5.719650627879006022e-01
2.884134165154650931e-01
-1.352647771016964734e-02
-1.959176374143101473e-01
-2.509086681500525273e-01
-2.387364366187025577e-01
-2.117948332103004871e-01
-1.888144893432093796e-01
-1.724812605140431665e-01
-1.665744301969844521e-01
-1.806766349261815230e-01
-2.259171513083114702e-01
-2.942693058056578548e-01
-3.491649777169026914e-01
-3.590468005426518117e-01
-3.290078885123454144e-01
-2.793890091892395899e-01
-2.056107998759338917e-01
-8.630473958578642468e-02
5.476696596984647475e-02
1.268801142505206203e-01
6.550216788605861540e-02
-7.052794503150235095e-02
-1.449980982244695460e-01
-6.851259764489203707e-02
1.401384828841261698e-01
3.663022183044100100e-01
4.598241973193762377e-01
3.435451486853680625e-01
8.936330385500890205e-02
-1.373626135316371455e-01
-2.212623327829259245e-01
-1.898671239385557319e-01
-1.597964975823381317e-01
-1.870403035872734432e-01
-2.131439410097826226e-01
-1.743244652532982275e-01
-9.502669922340707676e-02
-4.011492327448624301e-02
-2.673912998915858874e-02
-2.450734476511055512e-02
-2.117619422067396756e-02
-4.556890502779958885e-02
-1.149351650699141081e-01
-1.834731817396456077e-01
-1.727005211998636491e-01
-7.374901618376966672e-02
-3.972046291020572134e-03
-7.992632293147211575e-02
-1.685087574082994866e-01
1.117706852230154202e-01
8.955859236264993584e-01
1.627430042684796518e+00
1.530424640464060904e+00
6.119552084703053785e-01
-2.567261613104827034e-01
-3.840246207585625848e-01
6.572740227823413439e-02
5.028598520672734606e-01
5.963604712670981245e-01
4.231334897358877689e-01
2.054450423462346187e-01
6.065142290848189038e-02
-3.574258007983584923e-02
-1.404293928720765916e-01
-2.553647712832605166e-01
-3.356190346279447900e-01
-3.347516955230864233e-01
-2.339751520764485337e-01
-6.876793430035971211e-02
5.694396455506205157e-02
3.996741664544184447e-02
-1.027510140534015626e-01
-2.420992320167373313e-01
-2.874842823565327832e-01
-2.604067923855579725e-01
-2.152551658525933553e-01
-1.655239882878651869e-01
-1.008990915083033818e-01
-2.938698839683006464e-02
1.822502781239244279e-02
2.420513561254727941e-02
2.000378542098220705e-02
6.595063315355667588e-02
1.750975241547900185e-01
2.709901003866195812e-01
2.533180507308008811e-01
1.114225245340374620e-01
-5.724396683469226699e-02
-1.536242742155272678e-01
-1.707367318172561266e-01
-1.739203245643426154e-01
-2.194784502099878520e-01
-2.932584623515425148e-01
-3.140427388686218291e-01
-2.239126745808732166e-01
-8.967371304795335174e-02
-5.483389563805120270e-02
-1.552636072666846445e-01
-2.615341147835058555e-01
-2.528622939241459977e-01
-1.652248129339072558e-01
-1.156214558314456325e-01
-1.432440346896977079e-01
-1.840627232865073848e-01
-1.897027193619179319e-01
-2.162147285355739967e-01
-3.268695610875212987e-01
-3.818190565065268105e-01
-4.706772870774312417e-02
7.700114387925423021e-01
1.533290909412970526e+00
1.504492983907428361e+00
6.651103009401224675e-01
-1.870907299729709372e-01
-3.839963104781567438e-01
-3.864827291939605669e-02
3.215635845532331949e-01
3.943482049287302948e-01
2.513651647544013490e-01
8.900624977447874064e-02
2.466767154119591139e-03
-3.599521444929924124e-02
-8.317807363144089083e-02
-1.577299511990776781e-01
-2.423680963755193984e-01
-3.100174234480748692e-01
-3.389268608159882734e-01
-3.233568909751338150e-01
-2.779108688343225886e-01
-2.241994233087383770e-01
-1.755412503364703058e-01
-1.399700021117122051e-01
-1.312544448442850287e-01
-1.625797824655838275e-01
-2.222285914246157623e-01
-2.664101078267326339e-01
-2.546618910307153483e-01
-1.936921639407276907e-01
-1.277242336412982293e-01
-7.684208748716614412e-02
-4.296011054375032875e-03
1.348572665720838282e-01
3.165288237868661980e-01
4.317167599892424157e-01
3.685190582053158859e-01
1.340332867230189240e-01
-1.262162246185804526e-01
-2.652089500971511193e-01
-2.650868318121439304e-01
-2.073139079780171035e-01
-1.613808072045242459e-01
-1.485377470475628681e-01
-1.763467212013282992e-01
-2.377378207239047025e-01
-2.859206749234564637e-01
-2.746247757660162936e-01
-2.159905314441971369e-01
-1.576669411384549468e-01
-1.266770194709478659e-01
-1.190350364998025157e-01
-1.152431962381870040e-01
-9.179535674315994487e-02
-4.137666428346203906e-02
-7.381675392219483323e-03
-8.632956241590684920e-02
-3.151646942153084607e-01
-4.912760257514353635e-01
-2.292806943398614239e-01
5.681508413364878551e-01
1.347260341332798372e+00
1.377905637411998230e+00
6.537933218848880346e-01
-7.001785129934806617e-02
-2.048974916847936534e-01
9.985130578123993517e-02
3.552647809393622014e-01
3.277844439831949508e-01
1.312461172575087043e-01
-3.612661071624428261e-02
-9.104016170231346572e-02
-6.815776986567573248e-02
-3.883425165268085399e-02
-4.913447864193445230e-02
-9.978986955649103707e-02
-1.626750050543978310e-01
-2.131712080948929555e-01
-2.495910250580541945e-01
-2.780905872699539483e-01
-2.705109915149158661e-01
-1.704577753423262565e-01
8.966434360981930668e-03
1.425263580940289987e-01
1.299814968910638080e-01
2.094278439997956584e-02
-7.008259245383470504e-02
-1.045593290506074968e-01
-1.216287803298794212e-01
-1.553292484467912737e-01
-1.824454869500966581e-01
-1.309025087266129095e-01
5.576032566275404556e-02
3.350722432307900456e-01
5.498669443281146707e-01
5.385832742977684218e-01
2.928050828903131508e-01
-2.108963931123374741e-02
-2.243934993113303467e-01
-2.753783970161498007e-01
-2.403821503957955519e-01
-1.814306577077756111e-01
-1.208671797436133288e-01
-7.295365332050049445e-02
-4.959320815683979783e-02
-4.814756323404413563e-02
-7.513975726198250660e-02
-1.539366821254079531e-01
-2.612119938387982288e-01
-3.067375507120468359e-01
-2.452489339957109327e-01
-1.498836586222408729e-01
-1.046144270848596985e-01
-8.916861349383138624e-02
-4.676801803366986005e-02
-2.217597810079706064e-02
-1.172570651072692566e-01
-2.417094736120239118e-01
-3.848663602236793851e-02
6.719885183147309426e-01
1.401657432055551045e+00
1.385660565280789847e+00
5.843405915173184306e-01
-1.841659644464472279e-01
-2.639431113448055810e-01
1.595456870770158853e-01
5.086154101501184632e-01
5.000413715787850322e-01
2.485503212257152705e-01
-1.567365152702026448e-02
-1.604610912302177339e-01
-1.820293962261664844e-01
-1.451973715576447277e-01
-1.145994340745213613e-01
-1.136964347206308179e-01
-1.275306753786480118e-01
-1.395286225819116765e-01
-1.572753036511990166e-01
-1.946775632838630976e-01
-2.437057279902691276e-01
-2.798352594416125827e-01
-2.848786459869881438e-01
-2.503406228830243330e-01
-1.665864478503735202e-01
-3.273532233296609639e-02
1.085992894140646314e-01
1.725329533404098004e-01
1.070656081440892610e-01
-4.320956656903689880e-02
-1.701965274334200362e-01
-1.797372601359083222e-01
-3.995501978874576449e-02
1.977210397832188937e-01
4.059742869791182485e-01
4.500785107402598961e-01
2.983773344540924244e-01
5.803377036544049572e-02
-1.332658189840736362e-01
-2.269031691089619940e-01
-2.496758200513769788e-01
-2.340329325708815356e-01
-2.066373819349459628e-01
-1.898122958760203871e-01
-1.763318149684413305e-01
-1.393702008764971245e-01
-8.160562493668044315e-02
-4.304641350479033318e-02
-5.126486797156384889e-02
-9.022108597550818065e-02
-1.306856757285796422e-01
-1.634970861739099002e-01
-1.805536775438838504e-01
-1.541563072320311922e-01
-8.145120294717517195e-02
-4.149296152688819461e-02
-1.245851490303661879e-01
-2.231112159967420516e-01
1.312148653300735518e-02
7.543992807680438561e-01
1.512640045642372311e+00
1.501949987253841767e+00
6.517838378132784216e-01
-1.969634476791059241e-01
-3.178169443653304782e-01
1.334513902057005152e-01
5.349892824052625562e-01
5.568209220788817859e-01
3.196368241441130964e-01
6.729102930152434936e-02
-9.647897199890335951e-02
-1.950075021057797453e-01
-2.608713701617301206e-01
-2.948097837113770048e-01
-2.932212833046889400e-01
-2.655950260797469986e-01
-2.261022509880626641e-01
-1.866664634794072686e-01
-1.595156331116411863e-01
-1.586926393210050801e-01
-1.928944179398184300e-01
-2.507343685242971465e-01
-2.970712466816423092e-01
-2.983667100346800716e-01
-2.542171101450432791e-01
-1.915749192210196294e-01
-1.321740097313612861e-01
-8.568425407223503876e-02
-6.510207713837987131e-02
-7.427333676897550363e-02
-7.556892380831008171e-02
-5.544546367603266426e-03
1.453932525139413623e-01
2.826263670130184091e-01
2.852786886404652389e-01
1.490036311317656237e-01
-1.883411715439261419e-03
-6.892736942899904684e-02
-7.993188883392621236e-02
-1.079291146039442623e-01
-1.680259222244321615e-01
-2.318012246473068749e-01
-2.807227435493168666e-01
-3.077588789786194212e-01
-3.022340998806677947e-01
-2.614916696771465987e-01
-2.034205670727154969e-01
-1.503348306427425007e-01
-1.101611620672431485e-01
-8.766670574004982452e-02
-9.625442124456672077e-02
-1.332186112648488241e-01
-1.599404222137300324e-01
-1.492347918756639358e-01
-1.529126343855026493e-01
-2.414504500322254832e-01
-3.003939148434149886e-01
3.956392756111338886e-03
8.037416615329633363e-01
1.587392785633688908e+00
1.579116209291357764e+00
7.071046123242195058e-01
-2.187810689221161842e-01
-4.632661405098471019e-01
-1.014165635233354873e-01
3.170476352497361705e-01
4.551084805849124892e-01
3.722550500315340294e-01
2.505576588074121536e-01
1.545192280238460725e-01
5.320039436781967557e-02
-6.642946862804958996e-02
-1.833269753661293522e-01
-2.738664826556104215e-01
-3.076589602406974988e-01
-2.564583551977442366e-01
-1.460420091676364607e-01
-6.122018143127357093e-02
-6.058114632182695636e-02
-1.190742314918145361e-01
-1.780668078532284537e-01
-2.072164026516975510e-01
-2.062060809733496647e-01
-1.912707929029946463e-01
-1.811519340972116976e-01
-1.720204100224284605e-01
-1.436283959022929824e-01
-9.680273546821974162e-02
-5.032424917864063152e-02
6.772941079701011620e-03
1.175155383931743708e-01
2.797075580848590870e-01
3.914673414167250676e-01
3.323561166729482319e-01
1.104945543387713947e-01
-1.264941661114292182e-01
-2.443578262103527077e-01
-2.336457895599407808e-01
-1.688897454880526339e-01
-1.181582422679685607e-01
-1.031962030938079339e-01
-1.141856157994937393e-01
-1.420535719111084560e-01
-1.857022790748659447e-01
-2.328837295440996380e-01
-2.560603978599283459e-01
-2.384279832510413644e-01
-1.952708278518844875e-01
-1.580584902723737584e-01
-1.392953569580430984e-01
-1.226782652523717293e-01
-9.283508038953604269e-02
-7.792289464384383191e-02
-1.532912371075217384e-01
-3.473960805510850625e-01
-4.829681288047436016e-01
-1.995982736120706647e-01
6.277332671500058803e-01
1.479726755792576176e+00
1.576054050189703570e+00
8.196048838965928063e-01
-3.009719391285531342e-02
-2.793607038591637282e-01
-2.698149953213671570e-03
2.880945256169588076e-01
2.997298750527342959e-01
1.229602455299232400e-01
-3.222187271557051813e-02
-8.174183380670232979e-02
-7.780642795658303246e-02
-8.887655525089893649e-02
-1.312770506409975668e-01
-1.884593914005271709e-01
-2.388815817137049380e-01
-2.604282513336317328e-01
-2.421415751419692675e-01
-2.071461181498780724e-01
-2.021515578792658641e-01
-2.328064415132814480e-01
-2.330045086511830232e-01
-1.534917698279230358e-01
-4.976518181878825109e-02
-1.592843510299895085e-02
-6.530715507235466954e-02
-1.307405485967514658e-01
-1.549352193784360177e-01
-1.378153070182006890e-01
-9.633442885388310284e-02
-8.917407546802594981e-03
1.648407451961580727e-01
3.998941902369557155e-01
5.683716803287142127e-01
5.305456944530672070e-01
2.829853154146418914e-01
-1.636696262677690000e-02
-1.987683708779565961e-01
-2.291872418247900001e-01
-1.835838835870670371e-01
-1.351688693271842490e-01
-1.037455577838646281e-01
-8.185516471987158704e-02
-6.268875187073813526e-02
-4.932759602794822840e-02
-5.913099862673760337e-02
-1.078897752507144425e-01
-1.796476839519047242e-01
-2.290421126374498906e-01
-2.218305415629211741e-01
-1.621367291886488815e-01
-7.668438348404961469e-02
1.155274455461578406e-02
6.925694502619179904e-02
2.512535168622017506e-02
-1.562236131791060745e-01
-3.059395787381900544e-01
-7.337305856477059629e-02
6.523731099071594652e-01
1.369137066542146730e+00
1.373797481761777073e+00
6.473331254625123155e-01
-6.836326880102928938e-02
-1.824017340268581922e-01
1.594117587683411830e-01
4.560198851103847706e-01
4.395150519661995547e-01
1.983783403116312904e-01
-4.639448649242554346e-02
-1.651184822606442393e-01
-1.741407489190814617e-01
-1.495167270303825457e-01
-1.340778328462214064e-01
-1.287814672987668552e-01
-1.356510474891508555e-01
-1.706842625729161067e-01
-2.336516431224436863e-01
-2.938117269989463654e-01
-3.171274563551533254e-01
-2.934079433919337121e-01
-2.357687435554782773e-01
-1.678429133216360891e-01
-1.094553599440526159e-01
-6.492108782219355168e-02
-2.955504492816574125e-02
-9.436602399654643245e-03
-2.463388491961258572e-02
-8.661059842157776967e-02
-1.679296764569426226e-01
-1.931933307000553435e-01
-8.248289272923146898e-02
1.627945932535607432e-01
4.136007105071568546e-01
4.918881987560502211e-01
3.337591137354218862e-01
5.693793266321572899e-02
-1.618232131730096557e-01
-2.455572745693730685e-01
-2.343130976983061331e-01
-1.984408217087190451e-01
-1.766142019138364772e-01
-1.716724302489811005e-01
-1.691284956211523971e-01
-1.560992769567115246e-01
-1.312023084592480737e-01
-1.006089296612246997e-01
-7.436257890586771280e-02
-7.230788220234102281e-02
-1.162851779679811709e-01
-1.961422038521705991e-01
-2.530487145284638917e-01
-2.240759270523862978e-01
-1.204247855576053849e-01
-5.621884595111457938e-02
-1.420069588904006030e-01
-2.680118120192589437e-01
-6.352856540478622749e-02
6.726755540186364346e-01
1.467007712051871193e+00
1.508119637173701566e+00
6.842712110665331027e-01
-1.739749116721987787e-01
-3.170108473358378420e-01
1.223755100657511613e-01
5.293543375724584221e-01
5.661457104906700843e-01
3.349556770605121025e-01
7.332120683460729982e-02
-9.470171206884551995e-02
-1.738180386898765806e-01
-2.043119095804800944e-01
-2.051294859092593625e-01
-1.891511864153471723e-01
-1.866903051626842280e-01
-2.173574996309239893e-01
-2.585219785073301635e-01
-2.785633168239501356e-01
-2.837989385398117514e-01
-3.034276263903527560e-01
-3.446226064990923210e-01
-3.809622220598727904e-01
-3.772701079166645988e-01
-3.188142355512324500e-01
-2.188491099329965550e-01
-1.100033543336987329e-01
-3.766282843562677313e-02
-4.011371391790803653e-02
-1.055035936110896994e-01
-1.551095031406385660e-01
-9.678654274457641760e-02
8.520950037886206030e-02
2.862418572926541671e-01
3.518725662079439376e-01
2.281884475229097320e-01
2.144460977992641848e-02
-1.242260602229617733e-01
-1.693120959394154301e-01
-1.688230635783478373e-01
-1.749285887920142279e-01
-1.944772169299235909e-01
-2.121343331623054829e-01
-2.160184959246628789e-01
-2.021504276920713661e-01
-1.704976362133724388e-01
-1.222625640570689232e-01
-6.299461250746732355e-02
-1.138695529331739190e-02
3.253651870699322303e-03
-3.348090401340909905e-02
-9.701550983051930588e-02
-1.372696355783967204e-01
-1.348815870932238703e-01
-1.489929837589092365e-01
-2.533323566822190398e-01
-3.479552557722368489e-01
-1.060807261151411052e-01
6.540784843196618681e-01
1.494357483754461535e+00
1.616123427359043907e+00
8.301068582959579834e-01
-1.027312585618555818e-01
-3.755669947600858150e-01
-2.756163491586097192e-03
4.437666853637851627e-01
5.790390546725978638e-01
4.436854064436722145e-01
2.449539928969418079e-01
9.937396738114392947e-02
1.143747870164104480e-03
-8.570533952799236355e-02
-1.665588652176026863e-01
-2.220732128761102597e-01
-2.342511890231102623e-01
-2.048779784052432440e-01
-1.590258542411697729e-01
-1.244856560363546139e-01
-1.086231411190031193e-01
-1.070959768998299561e-01
-1.218166299066256175e-01
-1.508878404579489796e-01
-1.772207600214857071e-01
-1.841439756896588176e-01
-1.685136188436797966e-01
-1.315775887218486040e-01
-7.483589634420580172e-02
-1.347831693857939536e-02
2.922893881276296402e-02
6.195018677732144069e-02
1.346302391919912411e-01
2.681304792081489197e-01
3.855414293808459569e-01
3.656883925348230480e-01
1.842264294736199737e-01
-3.967690765830886312e-02
-1.644546557746213999e-01
-1.588090641925910262e-01
-9.556215172395170210e-02
-5.516067763662865081e-02
-6.337866303742370477e-02
-1.036041740413160966e-01
-1.548727948357403184e-01
-2.009646975463281193e-01
-2.184278370862878238e-01
-1.828376084750428787e-01
-9.707612579826103982e-02
-4.932424460083722345e-03
3.976609054311185110e-02
1.990111895764502814e-02
-3.526621597879431996e-02
-7.931003396286252782e-02
-9.538354540967797224e-02
-1.368630627354945062e-01
-2.720931359757882695e-01
-3.933699487610308188e-01
-1.586283118670967773e-01
6.047140599680496109e-01
1.417086854556734776e+00
1.492499613486081511e+00
7.323592113766255185e-01
-8.592387129892564701e-02
-2.852607028310553128e-01
1.328588877417311714e-02
2.883954287473513012e-01
2.810265633799098328e-01
1.075835447339368728e-01
-2.933948068306760706e-02
-6.854606617332537066e-02
-8.032684866891144637e-02
-1.375166629555660824e-01
-2.362685887524439698e-01
-3.214446202747397452e-01
-3.614145856467211870e-01
-3.778086093784855937e-01
-3.982719000134558041e-01
-4.058485252142157163e-01
-3.527893043493890435e-01
-2.198857947526350887e-01
-6.385163115488812213e-02
9.693259633823765251e-03
-5.075017970181074090e-02
-1.868937744393256994e-01
-3.011009479739618078e-01
-3.457966145212573728e-01
-3.313447153737337225e-01
-2.890779650925022759e-01
-2.336082515647082136e-01
-1.390782582105800635e-01
3.160177616322450839e-02
2.526524616999958894e-01
4.088228700747148503e-01
3.770669902391757811e-01
1.534588503991800024e-01
-1.200957241678183574e-01
-2.860115675678260860e-01
-3.077106005588027826e-01
-2.521029349517001639e-01
-1.831946535258768549e-01
-1.230577443987470598e-01
-8.978618117419667755e-02
-1.108646760078380727e-01
-1.812667858833481305e-01
-2.492894969305008701e-01
-2.718397955897092766e-01
-2.540112379353939853e-01
-2.184203791922818272e-01
-1.734611272233415047e-01
-1.240420372339572919e-01
-7.675914619834048325e-02
-2.695949581194533387e-02
1.678286763303557527e-02
-1.493048056290867572e-02
-1.906568300751632916e-01
-3.816969297531490612e-01
-2.231143750072196452e-01
4.851361977349455401e-01
1.317277859248212613e+00
1.509303036710062607e+00
8.738917211307054567e-01
7.769111425811933702e-02
-1.806135628488747535e-01
8.849992411948720550e-02
4.000583962978347397e-01
4.254330030334426138e-01
2.108757466952109194e-01
-2.460302051328731518e-02
-1.340384907622552413e-01
-1.183266190801019885e-01
-5.694843582037323326e-02
-2.031398481436340331e-02
-3.664143765261115154e-02
-9.452728222624179333e-02
-1.612518297216991026e-01
-2.128142904465813445e-01
-2.454218970832880986e-01
-2.571608928480203504e-01
-2.364173551329046274e-01
-1.785015366256482716e-01
-1.035796270221636672e-01
-4.210702965719381741e-02
-4.110445620588588228e-03
1.725795443362940912e-02
1.504868696939410180e-02
-2.815264224614041563e-02
-1.034138217764188905e-01
-1.642974672956770132e-01
-1.504305018701011798e-01
-1.875599150688406561e-02
2.175927718932493815e-01
4.605911039352611480e-01
5.672413083703818915e-01
4.625367293729975571e-01
2.133189057934697375e-01
-3.707888121681075788e-02
-1.949742759689222504e-01
-2.551440157941515796e-01
-2.519177442572290704e-01
-2.149043134015252154e-01
-1.578103414368454416e-01
-8.671752871088232728e-02
-1.934640535512390652e-02
1.487363908477224578e-02
6.322312795371983624e-03
-2.448567178639189310e-02
-6.369789646930539007e-02
-1.206620751275030295e-01
-1.844026208625585972e-01
-1.975555350239176500e-01
-1.127697977227206938e-01
3.150889460902329964e-02
1.083265124721043693e-01
7.146640776585241536e-03
-1.808113305724208808e-01
-1.042908293244019236e-01
4.939818305184526803e-01
1.267169732662104531e+00
1.443501313029717625e+00
7.716141324193893647e-01
-6.642424679878877747e-02
-2.868634048678171955e-01
1.092187220143278625e-01
5.426332995302995954e-01
6.093528283590122774e-01
3.700956868842574798e-01
8.591438244753139830e-02
-9.351588551950711092e-02
-1.751349459678017417e-01
-2.043722885445493909e-01
-2.023846192812505662e-01
-1.820049234633127067e-01
-1.581526425938421521e-01
-1.442201108724436021e-01
-1.520190146881134907e-01
-1.843111771078075611e-01
-2.276546311102901898e-01
-2.604532500816754692e-01
-2.679869634235145792e-01
-2.518353532355256386e-01
-2.222102728318569309e-01
-1.765183847788207305e-01
-1.009216546671507092e-01
-8.387640625206495976e-03
4.465818575232855664e-02
9.940501733742139120e-03
-8.653020971598369970e-02
-1.499248586550304130e-01
-9.428563124512624738e-02
8.026156917823346060e-02
2.733155295171820209e-01
3.530530612058611073e-01
2.674498247564535136e-01
9.008403682051038808e-02
-6.203979642248898252e-02
-1.438524482788146042e-01
-1.951107153433795371e-01
-2.573709930686563507e-01
-3.142991612007254298e-01
-3.218309030494778122e-01
-2.699032934999519018e-01
-1.929318527047424459e-01
-1.336896396983312252e-01
-1.116924791768626746e-01
-1.160310631544726745e-01
-1.224920937316883868e-01
-1.269199744358765480e-01
-1.553849606503806546e-01
-2.178224666177956126e-01
-2.614367346244950152e-01
-2.243253641519330488e-01
-1.508961702779636482e-01
-1.692141623306468445e-01
-2.572614218636776195e-01
-1.011480403387816918e-01
5.634427715400334158e-01
1.390335202635378797e+00
1.571348589616595293e+00
8.234868164347080022e-01
-1.412480412357720316e-01
-4.652715470081327798e-01
-1.021125898102479695e-01
3.657805707380187288e-01
5.113525087491563870e-01
3.701292586152576947e-01
1.725591976559894269e-01
3.923638981021991545e-02
-5.435888220181014918e-02
-1.488952245674290409e-01
-2.297485765167118499e-01
-2.693628023859345744e-01
-2.768577578698884212e-01
-2.788275992050769925e-01
-2.773273158980533171e-01
-2.571097434769309964e-01
-2.263866553758271949e-01
-2.212212499133322241e-01
-2.625826329747813492e-01
-3.250535994975348175e-01
-3.580604302076147993e-01
-3.318779977229144862e-01
-2.563828243856250966e-01
-1.645072551731444899e-01
-9.004674296246317766e-02
-5.316314634505751868e-02
-4.661015518759739629e-02
-2.980786810886124419e-02
4.983475239265524465e-02
2.040599315515188583e-01
3.554601112276333796e-01
3.744712902329550008e-01
2.157453082391566634e-01
-4.116270413262582140e-03
-1.217175233786793598e-01
-9.991045481387264560e-02
-3.754346796165383693e-02
-3.432343782087752398e-02
-9.989363156970262891e-02
-1.830529484312760635e-01
-2.389673661635510205e-01
-2.539545222617988207e-01
-2.315600552263609446e-01
-1.809668022395665155e-01
-1.186948243908094169e-01
-6.345343561710245495e-02
-2.690866235544431967e-02
-1.991387139934222561e-02
-5.194370415572891614e-02
-1.040553084077436991e-01
-1.356926426561244903e-01
-1.574709365212316470e-01
-2.386166363818933989e-01
-3.336679854025051406e-01
-1.503165901729091314e-01
5.530912633686584368e-01
1.439999858230912810e+00
1.717297075406403417e+00
1.063900616210977645e+00
1.063198622824483019e-01
-3.334908353631740874e-01
-1.302142029357726272e-01
2.514491665570965373e-01
4.154510515705598372e-01
3.314534510906301246e-01
1.714536246470146907e-01
6.863765099378041357e-02
2.744499876819365275e-02
-1.745106184101948010e-02
-1.022817156867954491e-01
-2.020834665439593392e-01
-2.727043856500925290e-01
-2.944164685607842391e-01
-2.769839293153291693e-01
-2.421099194631173568e-01
-2.056287704967710850e-01
-1.720658497803689568e-01
-1.432107008396786563e-01
-1.296208819508886667e-01
-1.471704339376917192e-01
-1.950675754502722015e-01
-2.453437292302830808e-01
-2.647495055961486266e-01
-2.423789541889575516e-01
-1.948612597600085372e-01
-1.440865227572686869e-01
-7.842852031691545378e-02
4.707635742956323144e-02
2.358638097035566095e-01
3.908964945561080873e-01
3.839215079974225842e-01
1.951880733849507554e-01
-5.529041934351951182e-02
-2.316386976267828524e-01
-2.964894883357244715e-01
-2.854593810912141594e-01
-2.277648619736635793e-01
-1.424780133224170520e-01
-7.477790562111141792e-02
-7.428117697142880282e-02
-1.415228169849213902e-01
-2.265764341728215558e-01
-2.758305237915761876e-01
-2.681797136233149415e-01
-2.170560507099752179e-01
-1.515584912974068943e-01
-9.676445827973126357e-02
-6.146504825825113011e-02
-3.383464826764984168e-02
-6.343832498005113479e-03
-2.521336964035789455e-02
-1.565654866671985501e-01
-3.130500186233827198e-01
-1.797513165530053303e-01
4.622281328708420234e-01
1.278681119466408056e+00
1.543612045691602708e+00
9.773588025459254425e-01
1.511315076757092646e-01
-2.010745886092817902e-01
8.191611993750333442e-03
3.313656102143002213e-01
4.138778020387565704e-01
2.652733616100058645e-01
7.813894833239880267e-02
-1.480633625669207538e-02
-1.767516417300809412e-02
-3.537824375448438141e-03
-2.215827604684721813e-02
-7.245607250017938039e-02
-1.300157118441409576e-01
-1.760337227605001664e-01
-2.075882154318521300e-01
-2.308591457690927773e-01
-2.417333560836211204e-01
-2.212012413398536381e-01
-1.629012754371337579e-01
-9.253572373220490810e-02
-4.508923309382077693e-02
-3.599599153870973456e-02
-6.274921988416413965e-02
-1.155619156230116296e-01
-1.738173859905244312e-01
-2.074223146816695229e-01
-1.962747677245868239e-01
-1.342170046199659961e-01
-5.171763035603332143e-03
2.058365054615445555e-01
4.416170488844192166e-01
5.536334351421651201e-01
4.287501648047207237e-01
1.323486374678440602e-01
-1.398901973542631683e-01
-2.575065129061289704e-01
-2.532012847224523466e-01
-2.330808247963013502e-01
-2.447522649184194210e-01
-2.513572434516430087e-01
-2.078125405577356533e-01
-1.317648084268969455e-01
-8.799886505262745351e-02
-1.141264620924961892e-01
-1.796152312379840077e-01
-2.223306091932997219e-01
-2.142416681912434895e-01
-1.768413270635810775e-01
-1.346948522619088318e-01
-8.065450641522013686e-02
-1.151590993439531238e-02
1.172085608664362455e-02
-1.018275677123631762e-01
-3.017159016855681664e-01
-2.860306258208304420e-01
2.340658291334528629e-01
1.030473763101838358e+00
1.380814481641363445e+00
8.951100480202376364e-01
7.804854560694907128e-02
-2.769840164339463229e-01
-9.328662201695675504e-03
4.031266183476573950e-01
5.182338859741062453e-01
3.192477420293302059e-01
4.962181852352150896e-02
-1.143504475539408177e-01
-1.803445696324309788e-01
-2.188873249477444050e-01
-2.346307620710356978e-01
-1.971593304496098153e-01
-1.342139413570745399e-01
-1.166093891870117055e-01
-1.648613367918288775e-01
-2.280252300164105628e-01
-2.559334861569774189e-01
-2.498753726899162197e-01
-2.314480032286481692e-01
-1.970099047840017381e-01
-1.290529295454359293e-01
-4.060924222808830891e-02
1.602147296347046501e-02
-1.365778570357911292e-03
-7.554792194833710728e-02
-1.507207427610079697e-01
-1.925401011033870957e-01
-1.941445838567583682e-01
-1.329812844147791051e-01
2.439044399000149521e-02
2.529480822130302231e-01
4.378551554280307734e-01
4.537167789396376882e-01
2.870694898618762481e-01
5.800251680272281579e-02
-9.676802838108089500e-02
-1.426216534378303424e-01
-1.426182908995990983e-01
-1.721178370536623758e-01
-2.510096338642183733e-01
-3.218779902315265229e-01
-2.944270066433680721e-01
-1.597921920591571232e-01
-3.338703247252314960e-02
-2.069563645819284120e-02
-9.215214072577285198e-02
-1.553524234938627180e-01
-1.836853749239131250e-01
-2.042866604786054974e-01
-2.097638062383397339e-01
-1.595210081712484240e-01
-7.439589918767075538e-02
-6.401135288603758411e-02
-1.652048636930531778e-01
-1.492908210496514954e-01
3.152040650293898016e-01
1.123165673831646449e+00
1.570982092040499545e+00
1.123769023844507053e+00
1.912512698745522932e-01
-3.241815425670644402e-01
-1.047285849495273730e-01
3.905101561086920525e-01
6.308422516395151280e-01
5.133839553006661616e-01
2.448780016245268587e-01
2.370343802631164759e-02
-9.959007382068156555e-02
-1.669904424937453669e-01
-2.141236899828026230e-01
-2.368412799577333250e-01
-2.245679511722449284e-01
-1.926498291383740569e-01
-1.696840059047505234e-01
-1.673872135905783154e-01
-1.782034142682757394e-01
-1.983260956956886256e-01
-2.367498125380845531e-01
-2.932017539711129772e-01
-3.374605061578514476e-01
-3.286978339059273280e-01
-2.580301677681273165e-01
-1.572069747840637022e-01
-6.372156954868325729e-02
1.982773153534623557e-03
2.674917993955779755e-02
1.366682002887799861e-02
1.331962603006064429e-02
9.499117084953807855e-02
2.524488926498547614e-01
3.754731359249577349e-01
3.582657158833080224e-01
2.191796381015921336e-01
7.263508575365741626e-02
-3.813443391951382502e-03
-2.865925907514721427e-02
-5.707421210981428183e-02
-1.160232807724671800e-01
-1.962749310373597400e-01
-2.642937484313374608e-01
-2.784670165444453338e-01
-2.238176034271752157e-01
-1.319690304918518797e-01
-5.174113422710061028e-02
-8.369031754291281211e-03
-6.993192799129369086e-05
-1.915015947776571581e-02
-5.798103962041600140e-02
-9.509260463338210789e-02
-1.012457211226487908e-01
-8.822120483482215336e-02
-1.291489219484686923e-01
-2.402824213970779776e-01
-2.083026081403668295e-01
2.836088920843704564e-01
1.145282012034132713e+00
1.682657150054126749e+00
1.309603730043227499e+00
3.481202529548957925e-01
-3.153268728421266820e-01
-2.659187207612363490e-01
1.466915550290437964e-01
4.153773023382976159e-01
3.923621291530782207e-01
2.322928582190483260e-01
9.752985030325604654e-02
1.682825384978693661e-02
-6.096764288120311986e-02
-1.697083763891087671e-01
-2.896164946456557532e-01
-3.704804874433325068e-01
-3.736830658859466858e-01
-3.072025076550400358e-01
-2.249333446518828328e-01
-1.763733943859717990e-01
-1.665320609398120710e-01
-1.783430293466265748e-01
-2.069628764796743736e-01
-2.539098238302174848e-01
-3.078167473620636585e-01
-3.432636016423655234e-01
-3.354354481848428327e-01
-2.805988982161783940e-01
-2.051630082079029804e-01
-1.440125997397625757e-01
-9.962088189401883953e-02
-3.143640266639267239e-02
9.325695450280688248e-02
2.352844469620188894e-01
2.927558696398194216e-01
1.932953433944772370e-01
-2.430302834030615561e-02
-2.304948741579517513e-01
-3.102477913863874726e-01
-2.518028743752144250e-01
-1.445914666716968111e-01
-9.365028403027976511e-02
-1.306528964050441555e-01
-2.090867638545197138e-01
-2.708360647623949680e-01
-2.935721553185061672e-01
-2.823393798156206280e-01
-2.453355807624383877e-01
-1.925762021804983404e-01
-1.460813474047711891e-01
-1.282312273618434473e-01
-1.353692686316816940e-01
-1.372969241598080981e-01
-1.169007954071759475e-01
-1.183630346000284356e-01
-2.294879710923874994e-01
-4.328458258831029415e-01
-4.510298681995607017e-01
7.037698356600990968e-02
1.017841419220371302e+00
1.642653060770804974e+00
1.328013577426613967e+00
3.977590872125535970e-01
-2.628183266952548447e-01
-2.507536285452899305e-01
9.208600780744304048e-02
2.909746839368887450e-01
2.256697630786525244e-01
6.058326658167326184e-02
-3.906070838723194744e-02
-4.170214861779562854e-02
-4.640791675094031038e-04
2.528433073419567370e-02
-7.672124617401911498e-03
-1.137099808387373595e-01
-2.500987664059441395e-01
-3.380451312122891849e-01
-3.460106327430895190e-01
-3.191053720480998557e-01
-2.966785506020157004e-01
-2.525351310623559775e-01
-1.602047568772144159e-01
-6.269367643201691209e-02
-2.621669649507815322e-02
-6.160208087142678840e-02
-1.245651813592521945e-01
-1.672185600188256516e-01
-1.709269124760404712e-01
-1.425800511461822739e-01
-8.619256703117962604e-02
1.948807772274249728e-02
1.972647140092684270e-01
4.113739718308236371e-01
5.470494888738458572e-01
4.911962223440597963e-01
2.560781234924969230e-01
-1.039957708205029030e-02
-1.645075597047333804e-01
-1.830469838971146845e-01
-1.328148576133383885e-01
-7.985463178001658835e-02
-4.899211704100478459e-02
-3.501774918870191600e-02
-2.734363695859410789e-02
-2.497530008067836912e-02
-3.413719992008487636e-02
-5.741287185983025981e-02
-8.585002384711598600e-02
-1.007813666787657630e-01
-8.888061617483802856e-02
