1.032685823249293255e+00
1.123892836692530484e+00
1.138202676783163891e+00
1.101566000854887317e+00
1.015945294805500776e+00
8.804467210297548529e-01
7.054130477760180984e-01
5.202080790599886706e-01
3.660519682749985293e-01
2.680575567858412556e-01
2.116093728345689873e-01
1.539279313035298580e-01
6.569221682617877589e-02
-3.951999160140691469e-02
-1.244058332353183555e-01
-1.710554660511108271e-01
-1.877348664139633638e-01
-1.830231203921829364e-01
-1.637099749051835751e-01
-1.492784744785918272e-01
-1.534636162362038592e-01
-1.597887733619859085e-01
-1.472887966136384452e-01
-1.266363604357849115e-01
-1.195611841688168225e-01
-1.199499470256919775e-01
-1.049817914803242158e-01
-7.038208444383359241e-02
-3.078251815913169917e-02
3.627820070222761983e-03
2.674260852176990610e-02
2.315301883311721848e-02
-1.482063334855510638e-02
-6.490345497962543564e-02
-9.457710875587881094e-02
-9.090945021898926004e-02
-5.696145259084026136e-02
2.013527193035996241e-03
7.561245412934382293e-02
1.451871509680419947e-01
1.930352019608082836e-01
2.061644817557415355e-01
1.681903256601328112e-01
6.580259054466285062e-02
-7.977534977335833111e-02
-2.018618260470454173e-01
-2.343500676618058831e-01
-1.663416042548831186e-01
-4.828815420882396486e-02
3.337483583590043767e-02
8.331852023775740759e-03
-7.241491243323568139e-02
1.036695942261266906e-02
4.214242962699263906e-01
8.992337487541528507e-01
8.298858439015068811e-01
-1.453113314913154208e-02
-9.846645691065790684e-01
-1.193923516207242574e+00
-5.227552544493685449e-01
3.819905159125777105e-01
9.315882938340149799e-01
1.050554016738637575e+00
9.506078513923176265e-01
7.972360990112602463e-01
6.313290540184484101e-01
4.489467723478791084e-01
2.643153933528936128e-01
1.104126815461808631e-01
9.898811652913376558e-03
-4.509322874848666063e-02
-7.955662490902769279e-02
-1.112745201851469967e-01
-1.497589512856291882e-01
-1.952532380293927061e-01
-2.322239274335930470e-01
-2.528717651858777282e-01
-2.764027597803602188e-01
-3.160597429198640507e-01
-3.451498352139785175e-01
-3.203703796598215692e-01
-2.336967345886505343e-01
-1.317773065695471701e-01
-7.907875794952477777e-02
-1.000324773511221677e-01
-1.644087889902347555e-01
-2.263984989860954866e-01
-2.581097451816423138e-01
-2.496917081887932155e-01
-2.128226313268719028e-01
-1.875745368326443563e-01
-2.075211191576200598e-01
-2.550038068075068942e-01
-2.852105402542542967e-01
-2.863412073666192215e-01
-2.780007833601199074e-01
-2.594998157076497947e-01
-2.028741210487086388e-01
-1.033408010142773670e-01
-4.522572452382629497e-03
3.978838972489187609e-02
1.055142738075823261e-02
-7.708929970250882890e-02
-1.979084479406323094e-01
-3.252562547076613964e-01
-4.298803161462523836e-01
-4.861117689625684690e-01
-4.795633459626075235e-01
-4.147282008779719087e-01
-3.320077977347320464e-01
-3.095105683973007893e-01
-3.968367336283283309e-01
-5.208257359005019627e-01
-5.116285024618020261e-01
-2.681524158173352324e-01
1.298955103923341847e-01
4.906060239661510503e-01
6.694516877518137399e-01
6.686729827302261286e-01
6.062614160810811947e-01
5.972146719812938542e-01
6.621048626860400743e-01
7.364926284044442939e-01
7.473170570598451912e-01
6.723401296839107699e-01
5.392931449995004289e-01
3.892254557765279510e-01
2.495578916390433222e-01
1.341856649262380963e-01
5.222909516284320042e-02
-5.611802462297389542e-04
-4.886000894513056747e-02
-1.101788770691233821e-01
-1.719546876748236641e-01
-2.172687590027791993e-01
-2.524363398567855410e-01
-2.910988577376998343e-01
-3.295761604977945347e-01
-3.526065400011563766e-01
-3.516423216829323017e-01
-3.266851449471715463e-01
-2.827076997601987718e-01
-2.343237847825546116e-01
-1.992268528259983074e-01
-1.774362486431113051e-01
-1.483805809406649467e-01
-9.709133877400567825e-02
-3.934189504063800163e-02
-1.058798017822956336e-02
-2.305333063832785967e-02
-4.223172871712048415e-02
-2.343732146115594384e-02
2.735924219488155076e-02
5.547337034905390485e-02
3.335778243121297754e-02
8.769128609058610135e-04
1.204401300839097987e-02
7.941812837949326076e-02
1.808265946949544345e-01
2.763936461367234032e-01
3.114583282803204956e-01
2.460601085184734305e-01
9.830788392870978831e-02
-5.993124700370097702e-02
-1.571122555194015002e-01
-1.662709084522527303e-01
-1.048115910022613256e-01
-1.872649165681962782e-02
2.378314928837588216e-02
-2.135609004556265900e-02
-6.825327389705827807e-02
1.047429646523496544e-01
5.854184674555065193e-01
1.011736661956249339e+00
7.956958881975227937e-01
-1.112193978382262222e-01
-9.467353285687400977e-01
-9.595751936848549990e-01
-2.542947732885973977e-01
4.908045603556117076e-01
8.611586252330499791e-01
9.355695782438741004e-01
9.097608438178168555e-01
8.319372747286252201e-01
6.726623321004787659e-01
4.522476164935803622e-01
2.438435795976082732e-01
1.002659602445273579e-01
1.158374701953685665e-02
-5.903364152015934396e-02
-1.212463300409599987e-01
-1.641599416663361843e-01
-1.923721603071263386e-01
-2.224716069348447456e-01
-2.579994958506501845e-01
-2.882951946525960651e-01
-3.038976656593542769e-01
-3.081729023299029091e-01
-3.163834927501903427e-01
-3.355474059920482977e-01
-3.488938868548095429e-01
-3.364021033597487387e-01
-3.036040399088397734e-01
-2.735793773617316571e-01
-2.611339272476049800e-01
-2.663668619941089166e-01
-2.776668004612004026e-01
-2.738824579196442732e-01
-2.433428599395497105e-01
-2.059601383008793363e-01
-1.949763471646262236e-01
-2.120888254376055160e-01
-2.238328092574548289e-01
-2.046462289086160569e-01
-1.558217762575951348e-01
-8.596575888529582599e-02
-1.042668128797626624e-02
3.717157432459032573e-02
3.279339523935138195e-02
-1.124247128462124712e-02
-7.625676184773659549e-02
-1.659431151540828320e-01
-2.800411300214651344e-01
-3.873045177312406384e-01
-4.456031477226454207e-01
-4.396959689977494867e-01
-3.931181512247033383e-01
-3.427180881296303938e-01
-3.125977222520972543e-01
-3.296331239364035381e-01
-4.339507565266663147e-01
-6.203532243157413584e-01
-7.913181922700669446e-01
-8.225820003369334055e-01
-6.553560906490399907e-01
-3.104292497871775636e-01
1.277329819028129587e-01
5.371524254887033445e-01
8.319712361594349126e-01
1.010192509575772668e+00
1.109720256080422685e+00
1.149069176997315367e+00
1.124853709867984497e+00
1.039906959386044605e+00
9.133319608006114088e-01
7.659235366425152236e-01
6.095329907748084919e-01
4.535758513490452115e-01
3.098747729080363889e-01
1.852018979749911753e-01
7.791072749595369384e-02
-1.142271988998624921e-02
-7.481812969915765943e-02
-1.092167248416854863e-01
-1.250437171551524729e-01
-1.368689868523441655e-01
-1.517350127270008231e-01
-1.703969009429162074e-01
-1.947575525419161790e-01
-2.247191852005370194e-01
-2.474080344799285403e-01
-2.430487601522032248e-01
-2.095938977293541061e-01
-1.695573083520332258e-01
-1.422076776786739549e-01
-1.204036744144229565e-01
-8.529903397448544700e-02
-3.764600159384540179e-02
-5.734591411334290234e-03
-1.720879455597410651e-02
-6.467389687742466919e-02
-1.080943068453931871e-01
-1.116779549022511309e-01
-7.054909226653649501e-02
-4.974045728935172495e-03
5.983106067542780238e-02
1.065368732740340496e-01
1.335722975838097570e-01
1.716391206219338439e-01
2.713403486342977899e-01
4.188976054146937300e-01
4.927991895788465526e-01
3.893726845255971458e-01
1.596553144594948515e-01
-5.261177357205832489e-02
-1.582500387373407535e-01
-1.605414846440488263e-01
-1.179316117162452077e-01
-1.078963759819838025e-01
-1.483138773682289302e-01
-1.043131006860797683e-01
2.124993712823192160e-01
6.989936012160513634e-01
8.197773301306333638e-01
1.471193124636438754e-01
-9.266728724084070112e-01
-1.436058857800654565e+00
-9.305197178539557079e-01
7.848267889495968985e-02
8.302044148760786557e-01
1.063019006281412659e+00
9.779979804337554095e-01
8.188885797683392864e-01
6.678155354785287878e-01
5.141213741737296061e-01
3.612208984346417795e-01
2.391242753497788698e-01
1.604928900300971739e-01
9.831877925938931062e-02
1.509222890822850549e-02
-8.990875830766453802e-02
-1.783153536711001574e-01
-2.205963099388743853e-01
-2.260780724876274572e-01
-2.216619538384712318e-01
-2.219704509655897051e-01
-2.251848393612089494e-01
-2.257167202817823293e-01
-2.272696686508923203e-01
-2.404847585320101511e-01
-2.653288821264219166e-01
-2.839644479242217079e-01
-2.758147383458496305e-01
-2.380630134410893772e-01
-1.902348406172736928e-01
-1.570274426294450687e-01
-1.487896981787752981e-01
-1.603523508791389052e-01
-1.812142845109981637e-01
-1.994669316971638406e-01
-1.980775026056633414e-01
-1.605805533534192808e-01
-9.839127350726864507e-02
-6.186046612641152298e-02
-8.898953918529423079e-02
-1.514063064324469021e-01
-1.866036246429643164e-01
-1.670625913054848699e-01
-1.060770646322535260e-01
-2.079020730499973879e-02
6.880798520940405172e-02
1.196730965652780948e-01
8.966884056404136882e-02
-2.182453744864922690e-02
-1.775126318708975248e-01
-3.260723648882929426e-01
-4.173128896081723660e-01
-4.222853710886714795e-01
-3.547266257370429998e-01
-2.826971263321494399e-01
-3.073648402088864917e-01
-4.759019425037015472e-01
-6.975883509690848916e-01
-8.027939120818714525e-01
-7.017013883010919661e-01
-4.304664261168613670e-01
-6.412755701929678809e-02
3.268462529104028680e-01
6.628511317515629608e-01
8.900413319385811484e-01
1.016661256840486471e+00
1.071915580172582150e+00
1.055988473308703712e+00
9.600555356942256369e-01
8.113471953612581000e-01
6.623423231658767119e-01
5.348955545012421542e-01
4.067906392305555285e-01
2.657470132803589347e-01
1.391344823470160308e-01
4.934655559892879573e-02
-2.015139957145128252e-02
-9.148736336101839783e-02
-1.560849363654712163e-01
-1.910765502906978941e-01
-1.961200063377350200e-01
-1.958946443967201079e-01
-2.055619039397383330e-01
-2.105189680486672099e-01
-1.946492316106752662e-01
-1.731268024946168438e-01
-1.715939319679213315e-01
-1.851018522678695710e-01
-1.867287492830174700e-01
-1.673596999206676261e-01
-1.399884267912962499e-01
-1.111502234269144684e-01
-7.673691586429073896e-02
-4.888761793107905540e-02
-5.535120619859355828e-02
-9.647566152243938764e-02
-1.313376189369878377e-01
-1.276450926283524689e-01
-1.011136861999250985e-01
-8.825107209826944799e-02
-1.010913456392050075e-01
-1.160508861468587949e-01
-9.475482089642776884e-02
-2.079250895293826076e-02
7.915107831371728797e-02
1.572951003835353911e-01
1.869420117730962172e-01
1.792658163233007973e-01
1.568535773282666301e-01
1.157399256895275119e-01
3.374908181016943870e-02
-7.889157839921630277e-02
-1.687460864148267181e-01
-1.971309222213596390e-01
-1.807152209703478951e-01
-1.582636450267927708e-01
-1.526055845830329993e-01
-1.565485799975321612e-01
-7.522550029543698114e-02
2.577190030526330666e-01
7.950566334433938342e-01
1.056957154255651066e+00
5.700994254384553761e-01
-4.024436804669987988e-01
-9.894467342017586597e-01
-7.039322814378199400e-01
8.228809875649503724e-02
7.261635829117154550e-01
9.739226557094168291e-01
9.548736556083775584e-01
8.476499645123778404e-01
7.188635078047662663e-01
5.697208951979757519e-01
4.074701097476889355e-01
2.549363695724255474e-01
1.269132078832356514e-01
2.329606836310268644e-02
-5.684240853806196703e-02
-1.155330076176436099e-01
-1.676353679483330583e-01
-2.274184061891870723e-01
-2.851483473955053749e-01
-3.175518451203442338e-01
-3.219658832827175798e-01
-3.238238426262594616e-01
-3.415431476646721420e-01
-3.576533072063976526e-01
-3.458012367222438876e-01
-3.158812864667869258e-01
-3.002294152752504885e-01
-3.002993746906028605e-01
-2.846168308223354648e-01
-2.417776638237620901e-01
-2.004286113019535520e-01
-1.869733454755773683e-01
-1.911875131409364881e-01
-1.892645500653380997e-01
-1.803925814987128728e-01
-1.816327258388384935e-01
-1.984021404692908608e-01
-2.153294121922931514e-01
-2.117887683498208273e-01
-1.792849636366069810e-01
-1.281431057296423259e-01
-8.159471430472613196e-02
-5.262956368228956239e-02
-1.894101741666710803e-02
4.961829297561739377e-02
1.097152862401621354e-01
4.256358664991134744e-02
-1.932201122293219497e-01
-4.546537443279771162e-01
-5.564904741015348488e-01
-4.809687742141623423e-01
-3.619914860841612070e-01
-3.066676269055399473e-01
-3.088908828066762591e-01
-3.131504623559265288e-01
-3.038087511851114697e-01
-3.246542808804193103e-01
-4.190626227743099452e-01
-5.368736168313864576e-01
-5.317595526621347046e-01
-3.104179469911298450e-01
4.961699008227074548e-02
3.829276069872536437e-01
5.886551378841451410e-01
6.730151008247369226e-01
7.033041047165814463e-01
7.468686921387632793e-01
8.167135321702683193e-01
8.632571764830669903e-01
8.323414301573404117e-01
7.209480396958688475e-01
5.685643180165532717e-01
4.155933220236888714e-01
2.804956458109859607e-01
1.625647183293147946e-01
5.648426611504458322e-02
-3.531365431861867299e-02
-1.020873613394659291e-01
-1.351356962778141602e-01
-1.390818568299061753e-01
-1.327001607128884542e-01
-1.363673471131958970e-01
-1.554645234599724979e-01
-1.782800891500017637e-01
-1.931452343135539595e-01
-1.988519325861185516e-01
-1.953867900085513309e-01
-1.800949498836609819e-01
-1.595127822397464090e-01
-1.499915410818697947e-01
-1.550361650284682591e-01
-1.535657225258973135e-01
-1.270004704848599064e-01
-8.900334043512962701e-02
-6.887289415645517221e-02
-7.240008007658496614e-02
-8.169321186986709671e-02
-8.933894207185055780e-02
-1.058888392991373523e-01
-1.324221654774796475e-01
-1.493504731929541640e-01
-1.353360267254803406e-01
-8.441296866849570812e-02
-6.133841274748255516e-03
8.551286708404856607e-02
1.823141461365516136e-01
2.697944042862320257e-01
3.018871668358248384e-01
2.235914173294346052e-01
4.704636368196987717e-02
-1.294479386576831981e-01
-2.086715210031658829e-01
-1.720633683473085096e-01
-6.371100598541587501e-02
4.935160427887209239e-02
8.629918815187814785e-02
1.051025549460525392e-03
-1.051976219852999994e-01
2.036354258637779191e-02
5.017718346098085647e-01
9.954466040677334426e-01
8.806253785126955114e-01
2.541320762576058934e-02
-8.630182086579859524e-01
-9.759719928639125630e-01
-2.965418074069418597e-01
5.307479283262824810e-01
9.907692193285094762e-01
1.062148916947326827e+00
9.644513865985281376e-01
8.418380644385589084e-01
7.067172528506020512e-01
5.375377393141703708e-01
3.527588821105151484e-01
2.016615455519147060e-01
1.096645522537918749e-01
5.510015355989580227e-02
2.878744780221348387e-03
-5.935891873418677051e-02
-1.229674954057153047e-01
-1.762590878837249353e-01
-2.105578216137796721e-01
-2.205523952903262752e-01
-2.124868862387630231e-01
-2.052994498948907953e-01
-2.113797024163313609e-01
-2.249612263891336283e-01
-2.395310737664126111e-01
-2.600074429824625333e-01
-2.833143591181144227e-01
-2.866207018390479755e-01
-2.553054100406889626e-01
-2.083049619510112249e-01
-1.757589327192221051e-01
-1.626454980656486804e-01
-1.531680988685797939e-01
-1.398307459363467009e-01
-1.289434632952832227e-01
-1.258055079545984944e-01
-1.304845908462068382e-01
-1.412290104954115333e-01
-1.481455013519300257e-01
-1.310137481282341865e-01
-7.887655287434716667e-02
-7.497862489056868890e-03
5.239565626792803271e-02
7.702061396163878415e-02
5.516701629136338408e-02
-1.548997919413705113e-02
-1.271667921993233641e-01
-2.565751835220271837e-01
-3.675796599271211607e-01
-4.303775654338446999e-01
-4.395534877628238801e-01
-4.096590014881880126e-01
-3.598058331972362467e-01
-3.072956377454712507e-01
-2.696960729232740217e-01
-2.736007971698931618e-01
-3.616233530172158761e-01
-5.559081491443290668e-01
-7.900645970407859098e-01
-9.263189012434650538e-01
-8.680948521432636511e-01
-6.089493096976429376e-01
-1.947186737335990792e-01
2.838814476215257843e-01
7.019828726337220548e-01
9.779034294846142839e-01
1.116390021488397277e+00
1.160661350290016713e+00
1.139617534946467892e+00
1.064941604307852119e+00
9.455293529542696529e-01
7.877032328732577193e-01
5.966516563485617652e-01
3.960842969417163739e-01
2.328594322149574736e-01
1.377398590042230864e-01
8.882364173880921698e-02
3.565624169908084701e-02
-4.371260221016008696e-02
-1.272928435046458140e-01
-1.852286859422331011e-01
-2.085546373451999114e-01
-2.039673620306587665e-01
-1.840672874540777437e-01
-1.651932040243215549e-01
-1.588076461119414806e-01
-1.646770026477064885e-01
-1.794426392716959306e-01
-2.033329752756020681e-01
-2.294297093243969632e-01
-2.365471119105184428e-01
-2.064113034234754673e-01
-1.456681746718803128e-01
-8.387421599833026764e-02
-5.094086271690934781e-02
-5.680130244328523981e-02
-8.739706572570349330e-02
-1.173480325504405453e-01
-1.275369612812791431e-01
-1.134583858403182405e-01
-7.922704498361088365e-02
-2.387421856602749137e-02
5.805052227012263977e-02
1.544464527349911076e-01
2.286836704021674438e-01
2.463883626791459891e-01
1.974528408002229063e-01
9.262959690166765181e-02
-4.015044687155173986e-02
-1.569349844528942217e-01
-2.185539475248892416e-01
-2.159884411808224991e-01
-1.633762954519546451e-01
-7.472934074953588302e-02
2.110205995108268423e-02
4.743491258926275933e-02
-6.025601155516274732e-02
-1.944512123456709762e-01
-6.262925535245186803e-02
4.680200845286280331e-01
9.943952116427837717e-01
8.349698934945641859e-01
-1.228935100337456426e-01
-1.088141796031482755e+00
-1.197839315863731269e+00
-4.662531147361110850e-01
3.996287090651073903e-01
8.679365287738924906e-01
9.413905457751456929e-01
8.542759702559972190e-01
7.392678232882997635e-01
5.983418064708452278e-01
4.264912233750889348e-01
2.608383494156343296e-01
1.324985464403552471e-01
3.811124007797078717e-02
-3.464169354884343716e-02
-9.038399237389224683e-02
-1.313810686934819838e-01
-1.587158951705094911e-01
-1.780807219749546699e-01
-2.058864370845494285e-01
-2.478991609075844038e-01
-2.763641102578903164e-01
-2.613543698332798648e-01
-2.268913771635923393e-01
-2.329989662084878399e-01
-2.872332045628633868e-01
-3.221730124968914533e-01
-2.844253402036293621e-01
-2.007222224241330122e-01
-1.347754635799447709e-01
-1.166182018126948466e-01
-1.289235156204100452e-01
-1.390030174182173006e-01
-1.331833712504538469e-01
-1.222357954219907283e-01
-1.205287038507295849e-01
-1.313466873613573227e-01
-1.484046328438961837e-01
-1.631629505091140020e-01
-1.734798139420643814e-01
-1.787997507098140759e-01
-1.614869547323796173e-01
-9.411094812477810434e-02
1.650613094510961290e-02
1.086410269949319024e-01
1.112849422555499818e-01
8.269459181908692808e-03
-1.488672768251999845e-01
-2.845304174663495500e-01
-3.555926243490005745e-01
-3.731532139990805796e-01
-3.701996741884454600e-01
-3.565530202689918826e-01
-3.241463784315965491e-01
-2.961015939549380138e-01
-3.374967692067314950e-01
-4.755709056831645687e-01
-6.169107368483209841e-01
-6.094830090280293211e-01
-4.022519398427408244e-01
-8.440446609296289870e-02
2.273389504643652526e-01
4.725548198223644691e-01
6.398333640552824608e-01
7.468729273568861515e-01
8.210742639757676598e-01
8.667570596395990368e-01
8.643277545645979831e-01
8.054309055824271368e-01
7.064327123248576035e-01
5.906600699426084455e-01
4.723860040201876553e-01
3.562696602828377412e-01
2.498890721996354647e-01
1.682787951134244731e-01
1.102840403023698929e-01
3.514771297745005602e-02
-1.053178946196123011e-01
-2.844993282098732812e-01
-3.898100657012862347e-01
-3.528056648374903737e-01
-2.411273794408874127e-01
-1.567333136879667244e-01
-1.153639709492176590e-01
-8.676934299980793019e-02
-7.427928219618540329e-02
-9.317944278299380989e-02
-1.257805050354267318e-01
-1.453100263892158628e-01
-1.510910882015346346e-01
-1.557117901654139769e-01
-1.615436752401755438e-01
-1.624866646414032112e-01
-1.549052937484199921e-01
-1.388785444249203416e-01
-1.161101650453728595e-01
-9.167591198068723857e-02
-7.198284862940856899e-02
-6.035880591897227476e-02
-6.009963966008705777e-02
-7.629573548855293763e-02
-1.022763339326110688e-01
-1.052059609452661165e-01
-4.627794080698201251e-02
7.061418827934268228e-02
1.894177247555880739e-01
2.572899710315959543e-01
2.680693300740152885e-01
2.382945074689338250e-01
1.712493831165102509e-01
6.938142222080315169e-02
-3.502827583797778199e-02
-8.787567226136849818e-02
-6.041357239471083912e-02
9.915194953200957839e-03
3.199495796946057874e-02
-4.580217900896905309e-02
-1.094911231903809706e-01
8.916542633464194512e-02
5.990348025791744080e-01
9.684509187826915166e-01
6.085305370242630740e-01
-3.803738369593009372e-01
-1.119991997500191072e+00
-9.366745513766672193e-01
-8.258559385658467700e-02
7.139483316263450785e-01
1.049979790306624139e+00
1.013782926300135445e+00
8.520255642826575215e-01
7.031538621744743978e-01
5.725818417177447328e-01
4.254924783569260516e-01
2.631704822119957377e-01
1.300040904853853041e-01
6.520943244066618183e-02
5.045528845649299710e-02
2.264633269436592058e-02
-4.775615650435023618e-02
-1.257936009000309996e-01
-1.773047018345413062e-01
-2.165845050415866613e-01
-2.656658318114583639e-01
-3.083023522548803963e-01
-3.107528445627857905e-01
-2.716594992072756121e-01
-2.314017536034673472e-01
-2.284498262406604863e-01
-2.600958499195783480e-01
-2.933172151032306108e-01
-2.992948885884532673e-01
-2.738239153623455158e-01
-2.365942998616329673e-01
-2.071294101299317181e-01
-1.797581134566349492e-01
-1.391659680303684032e-01
-9.777878106294453364e-02
-9.218872732410539339e-02
-1.393471336677525596e-01
-2.114153936431223124e-01
-2.571221054099697145e-01
-2.479153619528973451e-01
-2.035238758573833517e-01
-1.661645292699108212e-01
-1.499533368390586485e-01
-1.217348813480780417e-01
-4.198764439119944542e-02
6.536447642126889945e-02
1.071736632141248036e-01
1.784004361376898690e-02
-1.507674980553047051e-01
-2.693458565114428827e-01
-2.723425113190190427e-01
-2.255834715773112342e-01
-2.162534559999908235e-01
-2.381166822828641449e-01
-2.503705509796795292e-01
-2.731914270818118218e-01
-3.620763008118869086e-01
-5.298973384328503622e-01
-7.072720182961976798e-01
-7.720723626954028029e-01
-6.409777015148263590e-01
-3.315323540015020498e-01
6.182791097752148024e-02
4.246885394648119427e-01
6.778580760930513760e-01
8.180236530117874771e-01
8.969998636754286103e-01
9.526567129853854565e-01
9.749410182931192992e-01
9.357057394800800676e-01
8.298896203597778687e-01
6.803284487559725369e-01
5.154903394754498658e-01
3.522729348825355267e-01
1.985329517400270527e-01
7.149057827764263018e-02
6.863287787385180527e-03
2.405610857246788178e-02
6.808421662900812632e-02
3.155057058887238836e-02
-1.163925355083958307e-01
-2.713116616943544446e-01
-3.207992627239740213e-01
-2.760352347153135488e-01
-2.288534988810268234e-01
-2.303913095958824986e-01
-2.530902724306967611e-01
-2.483847848071580044e-01
-2.138348207266927425e-01
-1.942493192747024033e-01
-2.178409526299708299e-01
-2.476081744851792166e-01
-2.165941365984900557e-01
-1.102963317596439702e-01
6.468797737610670548e-03
5.353490939816405586e-02
1.374252634622016508e-02
-6.070546570091551325e-02
-1.070424343968010283e-01
-1.035550637915433336e-01
-7.296032177158172372e-02
-5.121810557638374617e-02
-4.890035879383899248e-02
-3.417758223165695552e-02
3.585945574018362114e-02
1.568671649565760995e-01
2.628541695396273692e-01
2.803977905888329625e-01
1.872380888698322032e-01
2.123792901733023708e-02
-1.446465726382573924e-01
-2.396578428295364216e-01
-2.341025526621943187e-01
-1.499306876720012671e-01
-4.123693846216953951e-02
1.890747027442015588e-02
-3.459182087874462103e-02
-1.658417372828394076e-01
-1.714896392755367038e-01
1.583093901073241161e-01
6.963057679222047769e-01
9.013010427679661873e-01
3.514787016667028641e-01
-6.175512124764502842e-01
-1.135729939923147302e+00
-7.648877108574894113e-01
8.238661610650072076e-02
7.454482198054555031e-01
9.724220838563776281e-01
9.087281015347175028e-01
7.594340397243699581e-01
6.169819543726013933e-01
4.842360751891549020e-01
3.402673306888356897e-01
1.842058343585565305e-01
4.678783299321102873e-02
-3.473582356734325471e-02
-5.429111502363076491e-02
-4.746499429233309864e-02
-5.902466444605782014e-02
-9.759649393081745727e-02
-1.340168033023801109e-01
-1.450986395245695837e-01
-1.388630634590511670e-01
-1.375496602811258628e-01
-1.554539493430459329e-01
-1.907644984729927606e-01
-2.240832498132454553e-01
-2.305338363365732335e-01
-2.071789487294845022e-01
-1.788458555228294167e-01
-1.642587937360694417e-01
-1.541224879074167831e-01
-1.360584261039630705e-01
-1.187474040897849303e-01
-1.150235753666380839e-01
-1.171177725717034851e-01
-1.055301755715460921e-01
-7.990060551835476144e-02
-6.745374848071185314e-02
-9.071968842832697777e-02
-1.315197068081712939e-01
-1.409927402697683241e-01
-9.170992649965056809e-02
-1.006124609786883048e-02
5.275020317636424511e-02
7.142826414052355632e-02
5.496341024934515290e-02
1.095698150183821093e-02
-8.042557732733711384e-02
-2.367215975479439183e-01
-4.125653452597228821e-01
-5.076383097001815337e-01
-4.720174713464028171e-01
-3.666942031004972735e-01
-2.812382048944046531e-01
-2.418640565311632462e-01
-2.412674553008260503e-01
-3.033447370456452963e-01
-4.564309272149815189e-01
-6.596359806329944453e-01
-8.095765725176472527e-01
-8.163900047882182154e-01
-6.330859419455741044e-01
-2.542504516935993331e-01
2.431906183423042656e-01
7.054058664234843512e-01
1.012407670678342697e+00
1.154651135111576021e+00
1.189578263981018180e+00
1.164096117743275371e+00
1.084336737727311872e+00
9.384574260407648749e-01
7.384816184995093291e-01
5.332370374239370214e-01
3.766358113602406021e-01
2.836243337789708385e-01
2.194073765774061657e-01
1.368585890683697848e-01
2.575543034119970320e-02
-7.875624575122885940e-02
-1.366074922960517357e-01
-1.458389234805446133e-01
-1.443077668350634668e-01
-1.700783781226624103e-01
-2.168925639181626952e-01
-2.395663224501682620e-01
-2.160797046786995801e-01
-1.838993020850167859e-01
-1.930888655742360460e-01
-2.386820580241177658e-01
-2.669746349377623007e-01
-2.467749826456977491e-01
-2.001157862165742485e-01
-1.570826167941139218e-01
-1.212875227573381870e-01
-8.849924267195938277e-02
-6.615319005607818437e-02
-6.558946626066344820e-02
-8.528953995007929056e-02
-1.028748195612600447e-01
-8.976478828179623726e-02
-3.899356587387417528e-02
3.100406769584182834e-02
1.006524998741789717e-01
1.589313314815822831e-01
1.826447896320493591e-01
1.351955653195873741e-01
1.928235335757034000e-02
-9.559073089794080380e-02
-1.492485661099646477e-01
-1.684613562164054001e-01
-2.151120109275739267e-01
-2.807312798897053652e-01
-2.843686687594672580e-01
-1.802349148329973894e-01
-3.870952934238397480e-02
9.538163827847306875e-03
-6.705996964996885357e-02
-9.263637554110135119e-02
1.848236943871819360e-01
7.167681387014958050e-01
9.737560653278860556e-01
4.543665237635814425e-01
-5.655825577190363163e-01
-1.175181494745854316e+00
-8.534205207098733981e-01
1.421092284164252040e-02
7.277145832038395268e-01
9.964086922767498855e-01
9.646305792444778149e-01
8.381321447493408350e-01
6.861672718445015473e-01
5.017152979666982260e-01
3.048557554421008065e-01
1.646371570185600208e-01
1.368069301343982913e-01
1.787873695691662990e-01
1.686449745261545952e-01
4.795887853566362102e-02
-1.076257618988517295e-01
-1.977334263987484408e-01
-2.154392192276546880e-01
-2.259067657279957009e-01
-2.737791026618950907e-01
-3.384317504935784870e-01
-3.667050456353013743e-01
-3.328470978518872081e-01
-2.642514238721249686e-01
-2.142256507591076553e-01
-2.089602006329243089e-01
-2.237457168385643957e-01
-2.234188142496592588e-01
-2.250973454441598520e-01
-2.869029182937222755e-01
-4.062396278360895230e-01
-4.775675021481687321e-01
-4.147044171309242633e-01
-2.671484145687081924e-01
-1.499639243585290382e-01
-1.108220346476093410e-01
-1.179087427782068848e-01
-1.293739704693095127e-01
-1.258487439237597205e-01
-9.703413139919307706e-02
-3.914120385153471021e-02
2.703816951911459238e-02
5.674731480193564992e-02
1.363694727236610879e-02
-9.615159580430157615e-02
-2.233393135616240366e-01
-3.166643432153405935e-01
-3.634940864675304528e-01
-3.792930133224608480e-01
-3.710703793749520751e-01
-3.367554428644484177e-01
-2.927483931078810331e-01
-2.762372139835043705e-01
-3.108762762866649765e-01
-3.692653367906933437e-01
-3.698895041627181524e-01
-2.228327073288954852e-01
9.314510594137447030e-02
4.737634150901854357e-01
7.346254342203858423e-01
7.661232876104564493e-01
6.388063435842239457e-01
5.225894264119336219e-01
5.205337333338388994e-01
6.047072545589426973e-01
6.823888169251731695e-01
6.872469032096147901e-01
6.126404378426530961e-01
4.885120981951685537e-01
3.459617107612499298e-01
2.006531385330421191e-01
6.296418425151416309e-02
-4.339883561864409794e-02
-9.250361943976261048e-02
-9.134404189980720179e-02
-7.842755097726443470e-02
-8.019675539349829796e-02
-9.479111685658622721e-02
-1.175287054586887647e-01
-1.513993879081707850e-01
-1.907385584613696394e-01
-2.167974565692325495e-01
-2.150804288985752599e-01
-1.897375370440237408e-01
-1.573060449088776180e-01
-1.290718720546965570e-01
-1.046921266512639143e-01
-8.259561895944467214e-02
-6.971611912889422169e-02
-7.503426435244514581e-02
-9.482797998469677525e-02
-1.117711418209866026e-01
-1.132098346699240143e-01
-1.056305430270442353e-01
-1.028387399302103933e-01
-1.006939618368454248e-01
-7.408036811997760485e-02
-5.983448728673036558e-03
8.569958609545416661e-02
1.602331022525922688e-01
1.900052862631457784e-01
1.752477476017886837e-01
1.296575650676768943e-01
6.471932675823863224e-02
-9.520693581019253754e-03
-7.493058032172313088e-02
-1.073908127435076881e-01
-9.225248822102294355e-02
-3.726360403819752726e-02
1.982866461135516720e-02
2.026664383599813615e-02
-5.509387653331618978e-02
-9.300715076274178317e-02
1.304898413336579854e-01
6.747526691039903435e-01
1.135645047048405409e+00
9.007484419047719904e-01
-5.790521178659106816e-02
-9.314623759691484928e-01
-9.459701917873871713e-01
-2.170462491838709707e-01
5.553604963428104835e-01
9.299016189739827132e-01
9.638669292040821235e-01
8.656255501271119535e-01
7.297435266246734553e-01
5.683162944169092290e-01
4.009659175055613756e-01
2.554419843063242546e-01
1.375107984231593028e-01
3.366044034145917324e-02
-6.204572829247630150e-02
-1.349196637788900033e-01
-1.713067607443241325e-01
-1.843040151363767865e-01
-2.037255783909377727e-01
-2.425068811125683232e-01
-2.819184940007314344e-01
-2.947551757061570576e-01
-2.788903607609493074e-01
-2.631553497825876997e-01
-2.851360505759864550e-01
-3.560340918971549584e-01
-4.316963204895359341e-01
-4.369724418889919249e-01
-3.474233499065670361e-01
-2.261210359711871287e-01
-1.533357660668073219e-01
-1.464099471882409353e-01
-1.683267606688656215e-01
-1.841581143126271303e-01
-1.852204334737633240e-01
-1.797152499761989763e-01
-1.895211750217645208e-01
-2.370739004394508131e-01
-2.983595459244772763e-01
-2.992921454261341929e-01
-2.054398485549888687e-01
-7.864860616657214087e-02
-2.589130916357541314e-03
9.628051043526184710e-03
9.595253371714497492e-04
-7.147306153361482339e-03
-4.525467211959301184e-02
-1.457865061954109198e-01
-2.831322148850389242e-01
-3.884169542093982574e-01
-4.180446720137789285e-01
-3.884404253475585156e-01
-3.529945565914598404e-01
-3.605902112084400923e-01
-4.263534264897788639e-01
-5.292328512408130958e-01
-6.298744688196391550e-01
-6.697217561457591284e-01
-5.558936886810718070e-01
-2.195071228393783436e-01
2.630595871472783398e-01
6.831315452530990484e-01
8.990429930572850781e-01
9.566369235614897715e-01
9.762800416193497810e-01
1.005204531464949813e+00
1.012691353462480626e+00
9.564919868093166855e-01
8.223696481296256522e-01
6.365821390242275557e-01
4.524285163909445573e-01
3.083852979729615473e-01
2.018515698660967583e-01
1.088873674402755232e-01
1.869568712408450559e-02
-5.617038691696246006e-02
-9.900071297259920022e-02
-1.174479773892650181e-01
-1.431562784083021678e-01
-1.887346518881212465e-01
-2.236287244328851453e-01
-2.185807359492698554e-01
-1.930963025228056018e-01
-1.888501023164778914e-01
-2.106715031357846712e-01
-2.240970861488237043e-01
-2.082109388312440301e-01
-1.815324826631108390e-01
-1.689234876322429080e-01
-1.673512151243186086e-01
-1.557946720731088197e-01
-1.247496685426305041e-01
-8.537648085857725555e-02
-5.472548840858487695e-02
-3.999571528752179222e-02
-3.731763881830064966e-02
-4.066467536414776485e-02
-4.760715931942145068e-02
-5.400663224536857154e-02
-4.765612521129963808e-02
-1.828802163212112780e-02
2.745416663696427506e-02
7.725840186534997656e-02
1.372921722866409233e-01
2.151093228863123208e-01
2.726415790313234666e-01
2.401090411379740164e-01
1.014436194876473102e-01
-6.480083932189198426e-02
-1.522586586548734522e-01
-1.280109188913199914e-01
-6.683747137981246866e-02
-7.161629001940394978e-02
-1.243395139081398260e-01
-3.702410396931809372e-02
3.301375219898921021e-01
7.392412363124140073e-01
6.515231284913309828e-01
-1.242146239964248000e-01
-1.000279715152768922e+00
-1.168564972342876596e+00
-5.093405858339509207e-01
3.727802438809246777e-01
8.976754637704082995e-01
9.749940485484538399e-01
8.234904006925076736e-01
6.396541317411432725e-01
4.899503419985765662e-01
3.682629171536762613e-01
2.607100912735217935e-01
1.631036184560339941e-01
7.210297257834756557e-02
-1.360224234604641598e-02
-8.415528901273389151e-02
-1.310188482212742700e-01
-1.635547941335649125e-01
-1.950879760882996972e-01
-2.260090807243303745e-01
-2.540784756949672762e-01
-2.810319741904424573e-01
-2.990116181893111014e-01
-2.930794113798741440e-01
-2.639830088547198139e-01
-2.285319525528934914e-01
-1.992808321842574060e-01
-1.824642034291723003e-01
-1.868168950358064240e-01
-2.150744909657416326e-01
-2.515405631367298445e-01
-2.706602858539813861e-01
-2.591606972291151667e-01
-2.261280786707199897e-01
-1.907538765418624049e-01
-1.652441256939172487e-01
-1.535583140429430116e-01
-1.590406815025131038e-01
-1.824060832506669283e-01
-2.137861594142266286e-01
-2.352612541942130930e-01
-2.330830854906321969e-01
-2.040585737616026907e-01
-1.519685874550440463e-01
-8.429843206435509717e-02
-1.158678351442003589e-02
5.367102509409785172e-02
9.259163105052697906e-02
7.655941680136410521e-02
-1.691804146338650103e-02
-1.787607074864188406e-01
-3.560359546477890325e-01
-4.626146740080089304e-01
-4.310763322399249198e-01
-2.935717162564962512e-01
-1.919244694273962160e-01
-2.560611732581955513e-01
-4.712223205898496969e-01
-6.899197704832937816e-01
-7.652672625395828820e-01
-6.476612166951956073e-01
-3.638849939585555582e-01
2.961247882283633143e-02
4.419886348200823267e-01
7.711630750837731307e-01
9.791911525675236483e-01
1.100397903150972301e+00
1.164463753483284014e+00
1.156482675724032960e+00
1.057465287424483869e+00
8.861351599595878037e-01
6.836031407552317640e-01
4.811326935947399241e-01
3.068721245390540475e-01
1.996227988300600664e-01
1.710128021128299314e-01
1.606437784162298432e-01
8.518926355591467658e-02
-5.554005325603324217e-02
-1.772307224611055221e-01
-2.220922804649224647e-01
-2.129667598588251276e-01
-1.995296353451493643e-01
-2.034037989540274094e-01
-2.172711496714787027e-01
-2.245764845783159436e-01
-2.126543739348264184e-01
-1.806674911249670223e-01
-1.439887176111276645e-01
-1.259167611581513968e-01
-1.336862923256322833e-01
-1.447360980638233152e-01
-1.299704516997682580e-01
-8.959008616672227421e-02
-5.330910988963298569e-02
-4.107413417012339973e-02
-3.494149259028683091e-02
-6.841385327687931651e-03
3.539911649098363700e-02
5.621984545820302159e-02
3.684753311069038223e-02
-9.817949625276224321e-03
-5.475790202541876150e-02
-6.904464884735907193e-02
-3.790487550052443894e-02
2.821024777064345956e-02
1.017244986698755405e-01
1.636523244364915808e-01
2.114346015377027710e-01
2.345843588527362356e-01
2.006746978926540192e-01
9.042200217039984833e-02
-5.373895859002115333e-02
-1.431441194599821221e-01
-1.264260541257246628e-01
-4.951877761051248772e-02
-2.187872204325246733e-02
-9.957209527136255678e-02
-1.614333040180293000e-01
5.284807372503707440e-02
6.170971709361383617e-01
1.101961786305794000e+00
8.769014435080777492e-01
-6.484138970162736659e-02
-8.972275411381165355e-01
-8.745731335396693673e-01
-1.445979268211581292e-01
6.103020570628923114e-01
9.831778157080222069e-01
1.020622032505472898e+00
8.928179883380051862e-01
6.979147266636285263e-01
5.043416808888198100e-01
3.705155222198404097e-01
2.859351394164367233e-01
1.808947625479702115e-01
2.805242663230441552e-02
-1.128842120423690920e-01
-1.768637073081548716e-01
-1.759198538019576541e-01
-1.705631247719084087e-01
-1.948635218796540558e-01
-2.373305489176142924e-01
-2.784605622608572473e-01
-3.215477123163064666e-01
-3.722204202704369469e-01
-4.070218855162855975e-01
-3.989547026378703620e-01
-3.611464730168120196e-01
-3.287673200176307597e-01
-3.103254553482882594e-01
-2.847190640984165189e-01
-2.400090800573695948e-01
-1.948756728130923432e-01
-1.734177523723446357e-01
-1.730159138204909464e-01
-1.742428950855214875e-01
-1.690282538516096333e-01
-1.619253667866300539e-01
-1.555976037771473197e-01
-1.494813412766387573e-01
-1.483980785746798203e-01
-1.605859932075168750e-01
-1.820058188342816852e-01
-1.895080341773665300e-01
-1.602901386175014098e-01
-9.911923730987759473e-02
-3.632739618859873176e-02
1.506854199011647619e-03
3.691841900995081888e-03
-3.746495444426556354e-02
-1.253012538552371324e-01
-2.426174838128351274e-01
-3.553158808585731299e-01
-4.310311688937233376e-01
-4.481278090276141768e-01
-4.025186099120785510e-01
-3.252473350440999722e-01
-2.887670145005731825e-01
-3.654566660266858613e-01
-5.453558524720536482e-01
-6.967674114224539084e-01
-6.579947410976910716e-01
-3.933469634976777818e-01
-2.439718215789913464e-02
2.963385469351512702e-01
5.006969457123879863e-01
6.077812263617269339e-01
6.690019127770566731e-01
7.227773162605187762e-01
7.743415909346320625e-01
7.966145203399074282e-01
7.518038032526515035e-01
6.270004534190514178e-01
4.543114611084532739e-01
2.893575256466619505e-01
1.669833325868066709e-01
8.182654393499096124e-02
1.018353910706248575e-02
-5.870276652476717066e-02
-1.178738897356617632e-01
-1.591102404558534245e-01
-1.741910632756643873e-01
-1.479750509104678924e-01
-9.138202612676657455e-02
-6.918878621807016127e-02
-1.316824242206383888e-01
-2.337241415079843176e-01
-2.856796348952375109e-01
-2.631978320222069789e-01
-2.161777301140431207e-01
-1.916904154077868072e-01
-1.892805806052202944e-01
-1.850606958214817133e-01
-1.687862589303680272e-01
-1.479262950934828180e-01
-1.292964159820314263e-01
-1.101100036232355028e-01
-8.887716083216773422e-02
-7.429132106315473882e-02
-7.554236800154859321e-02
-9.188600083557954545e-02
-1.122870637905168528e-01
-1.144055351503601436e-01
-7.177687846275722372e-02
2.041667558994990708e-02
1.306148661700480273e-01
2.159083086585055211e-01
2.559816910879703089e-01
2.488914740830762140e-01
1.899445663821795194e-01
8.376017269233770879e-02
-3.368768367893646559e-02
-1.160405200720662361e-01
-1.425057362130561500e-01
-1.135722187905514047e-01
-3.585569257294607404e-02
5.387215651109542036e-02
7.609217541593669976e-02
-8.987294002372721649e-05
-2.563851304615077584e-02
2.487394000632656144e-01
7.996246669494464498e-01
1.109318720369512956e+00
6.400500811928261369e-01
-3.851508423079042509e-01
-1.054723275694621432e+00
-7.961308524434971279e-01
3.952097724071007567e-02
7.496938404354983598e-01
1.032016015563168354e+00
1.018880525222934930e+00
9.058156517042585953e-01
7.631781475550641902e-01
5.920716353092843054e-01
4.065260865996738193e-01
2.364003185572686183e-01
9.974912112969874789e-02
4.150169260813175304e-03
-4.797361430435533036e-02
-7.637643993634822548e-02
-1.148294221904361256e-01
-1.687519971442250910e-01
-2.115533144993572146e-01
-2.290495453470892673e-01
-2.372182117376404054e-01
-2.542588218693163649e-01
-2.774825433742397207e-01
-2.889542026357085902e-01
-2.754937975329220801e-01
-2.442545486047126568e-01
-2.143488132841883664e-01
-1.918969273986820545e-01
-1.667910218362453900e-01
-1.364531160872563265e-01
-1.178755536693089356e-01
-1.278021257166407076e-01
-1.587435625062432465e-01
-1.846909247289706124e-01
-1.859563645695138101e-01
-1.631105291849361816e-01
-1.349486473871086001e-01
-1.210909823881294173e-01
-1.171978547168524981e-01
-9.843559370172765000e-02
-5.101500683191700219e-02
2.132455027233153694e-02
1.114010995737057530e-01
1.893111446968591127e-01
1.898746083046664868e-01
7.581351080457005009e-02
-1.024871622528435028e-01
-2.544529318770391013e-01
-3.360723673660581112e-01
-3.648905431359846241e-01
-3.777908460649176958e-01
-3.932353159322676817e-01
-3.962571753383146711e-01
-3.606614456982117911e-01
-3.101828528870927415e-01
-3.367310288721470646e-01
-5.019176319552081100e-01
-7.313748864219371537e-01
-8.692630528996421191e-01
-8.186276628667055189e-01
-5.712766727753773033e-01
-1.641902182502112395e-01
3.098664515629934169e-01
7.158415010861562955e-01
9.751258906456199416e-01
1.109452185461349938e+00
1.167882905055660725e+00
1.160395622006554994e+00
1.073269913000029829e+00
9.132124740597441503e-01
7.207094653823550301e-01
5.433520023191031889e-01
3.969283286316708237e-01
2.639656414476549418e-01
1.363957225743085422e-01
3.844097571215562836e-02
-2.959918619173128318e-03
2.863385136462000963e-03
3.985366677079694997e-03
-5.366801500475791575e-02
-1.638562534870088294e-01
-2.546589397648813535e-01
-2.661507758349853647e-01
-2.149620611278208471e-01
-1.670669020203818800e-01
-1.664822211568361132e-01
-2.013699386423715154e-01
-2.236680307869352013e-01
-1.963986215487342757e-01
-1.322697004781929198e-01
-8.460039996344040358e-02
-9.525286722807974060e-02
-1.526229789616593002e-01
-1.969934348624669540e-01
-1.729997993785744037e-01
-9.020264331651246803e-02
-1.890168257564446216e-02
-1.279338587112954090e-02
-5.669384133867693548e-02
-9.530935565207336591e-02
-8.475443581501554413e-02
-1.843258490728274038e-02
6.786388556227232471e-02
1.200864907138686766e-01
1.140348420367348209e-01
7.259417749249583163e-02
2.762521644889427003e-02
-1.905021324439951438e-02
-8.225810074565803598e-02
-1.516691312020221893e-01
-1.850459459504933957e-01
-1.532077009960797764e-01
-8.751778094821216492e-02
-7.202043236040611696e-02
-1.600795388287869492e-01
-2.566815443970887345e-01
-1.162953728974326223e-01
3.838719859930060929e-01
8.939741575797752748e-01
7.602649420364697708e-01
-1.813870623532193860e-01
-1.185117974523741680e+00
-1.344674446129489942e+00
-6.052027331454916670e-01
3.228501273339944300e-01
8.529866356765034574e-01
9.602958181971875673e-01
8.874668928937433643e-01
7.746138060676306392e-01
6.205262769359738417e-01
4.222795978207343759e-01
2.328760293898300693e-01
1.052605683248837437e-01
4.149258299548574946e-02
3.035111201048750623e-04
-6.085752770069195045e-02
-1.395265357911089910e-01
-1.880844845226057882e-01
-1.764805789238609313e-01
-1.378458485434337910e-01
-1.329601181498955842e-01
-1.849132333612087398e-01
-2.629202512464058339e-01
-3.204287252965126176e-01
-3.349754257765639176e-01
-3.110742241089440863e-01
-2.625164255998775897e-01
-2.057769053409554127e-01
-1.592877172375153916e-01
-1.358451515165830514e-01
-1.387256581623384777e-01
-1.622105560413165115e-01
-1.877838646493686647e-01
-1.921031733196764124e-01
-1.740887037904875756e-01
-1.636601695566109460e-01
-1.840251317228544514e-01
-2.094780384726973865e-01
-1.906141982598942020e-01
-1.268059635439039712e-01
-7.060812341872513276e-02
-5.131653833965779676e-02
-4.433670432341219048e-02
-1.946882655579855459e-02
2.638861019197997343e-02
7.666292289322929054e-02
9.664868279212722457e-02
4.478092600349602853e-02
-8.069626804236151862e-02
-2.237219086773406529e-01
-3.253585376849086885e-01
-3.717124632699395081e-01
-3.744823862645531021e-01
-3.469340972670968970e-01
-3.221216317330451440e-01
-3.541494379748375554e-01
-4.568969218070188520e-01
-5.552517337425485477e-01
-5.395954596412273485e-01
-3.665981956603651115e-01
-8.135488895036238621e-02
2.362062361009754641e-01
5.156879985817541812e-01
7.169370581993220748e-01
8.423370362849035287e-01
9.177427029694469329e-01
9.538145174659724557e-01
9.425460757812965662e-01
8.836785840422477500e-01
7.887206823135484157e-01
6.649758035377207888e-01
5.164376016989210560e-01
3.575690283996378338e-01
2.137727777618280978e-01
1.059177743228836288e-01
3.605815382910225464e-02
-1.278905814397894233e-02
-6.384627629775566082e-02
-1.266500704298971769e-01
-1.833442973179891244e-01
-2.027189602263845258e-01
-1.762122234617550798e-01
-1.361857433295673714e-01
-1.295485870595106115e-01
-1.671134643794004171e-01
-2.093109040635940110e-01
-2.142699558347936351e-01
-1.823358745170942652e-01
-1.391824034467370463e-01
-1.011372412624825246e-01
-7.421315790132002044e-02
-6.625277837471392484e-02
-8.286201613947924427e-02
-1.115193670420898675e-01
-1.125929719406151136e-01
-4.811111665999233400e-02
5.494435464894319859e-02
1.035794460637226716e-01
4.698128833669945603e-02
-5.572216742734362183e-02
-1.153662165237376580e-01
-1.045006730674052642e-01
-4.444224824649085220e-02
3.851406768543651216e-02
1.195384083457526475e-01
1.760859961844299104e-01
2.008973062728538206e-01
1.987239139321328174e-01
1.665407792547072274e-01
9.325320103665983573e-02
-1.301066656133248456e-02
-1.074566402960140665e-01
-1.343343254747439153e-01
-8.360030660656932178e-02
-2.497470457042486394e-02
-5.223155456663303164e-02
-1.371700621095396644e-01
-6.142220658382981785e-02
3.568753540581835471e-01
8.821033554399476673e-01
9.136255930031673689e-01
1.866119468142016236e-01
-7.370538685423424496e-01
-1.027086454617793576e+00
-5.110257052384163945e-01
2.755237740880894792e-01
7.935776789445150303e-01
9.324714489826070318e-01
8.585589209453076132e-01
7.283584504960893824e-01
5.911992221187536423e-01
4.444855411813261048e-01
2.939726963463976661e-01
1.563705852823998044e-01
4.333837781765272762e-02
-4.228209325159121290e-02
-1.086938705348274165e-01
-1.663014950745498599e-01
-2.085203870237100077e-01
-2.220048376726834749e-01
-2.167000979077461642e-01
-2.192299286255218749e-01
-2.421145064983190043e-01
-2.820955025067198307e-01
-3.335252391850235254e-01
-3.817971345392593974e-01
-3.988671018680678970e-01
-3.676543742413350691e-01
-3.095739825700847270e-01
-2.709085998315027832e-01
-2.697546537141747303e-01
-2.710462785333104252e-01
-2.359920261522228668e-01
-1.781880913563347602e-01
-1.430933050575324272e-01
-1.496642402102302538e-01
-1.739098626645781409e-01
-1.764333738179420241e-01
-1.397903137861772060e-01
-9.039232606744786180e-02
-7.477011061580610130e-02
-1.015683672418956490e-01
-1.262829738363197563e-01
-1.092844641334436012e-01
-6.679131820147783671e-02
-4.144379314485006210e-02
-4.074770618387556220e-02
-3.863503146766170127e-02
-2.963565789418869806e-02
-4.615408225689088956e-02
-1.189956472050260616e-01
-2.388434943927285614e-01
-3.608966722522233828e-01
-4.389959360874753913e-01
-4.495866464484490344e-01
-4.037082573232198546e-01
-3.623688920924021950e-01
-4.124269074516739297e-01
-5.714972706691346938e-01
-7.209131998746522996e-01
-6.882582668775194534e-01
-4.128777100283069768e-01
-5.592897897294769188e-03
3.523129949575389275e-01
5.537929555220580946e-01
6.260375667261983690e-01
6.705111565236003823e-01
7.525805999117733958e-01
8.434305150881571400e-01
8.582249736466128764e-01
7.565446073259859405e-01
5.968904857504115924e-01
4.653176118728655219e-01
3.791710765394455951e-01
2.979952456622935175e-01
1.884071754537430254e-01
5.220103609485210461e-02
-7.374143278467429341e-02
-1.428604202486812580e-01
-1.503289926140367883e-01
-1.457677140155647366e-01
-1.761133718623424660e-01
-2.322468787762997089e-01
-2.678745383514646861e-01
-2.613843805106988993e-01
-2.394243451358996078e-01
-2.335784393893115540e-01
-2.355157371089302010e-01
-2.143254204134477092e-01
-1.644010842844959575e-01
-1.162353294149826854e-01
-9.924180184268993621e-02
-1.048132531386366667e-01
-9.845312609643284973e-02
-6.490914330273238331e-02
-2.451025736222441423e-02
-7.183979539055319538e-03
-2.299637243701469977e-02
-5.348223116285074491e-02
-6.682232317089456530e-02
-4.677122559257413520e-02
-7.964746116821163832e-03
2.173941825099646313e-02
3.487782992841129831e-02
4.947683037532614458e-02
7.999450406090577448e-02
1.243487041625707529e-01
1.765268488662865010e-01
2.237980078907296777e-01
2.353647651411945596e-01
1.812260130053525153e-01
6.843159574877717699e-02
-5.273403277388247212e-02
-1.232320407150428038e-01
-1.187100693266870399e-01
-7.649628907844001346e-02
-7.844066738082067225e-02
-1.515095160655864359e-01
-1.512281272217178008e-01
1.612694751168526341e-01
7.657528291625198547e-01
1.145255914350855164e+00
7.234771866767953918e-01
-3.274870464430542638e-01
-1.087025708672657354e+00
-9.112269981943271757e-01
-9.640815150355169783e-02
6.414889165007998661e-01
9.499094805580453604e-01
9.346804969120882101e-01
8.078902417078838161e-01
6.717335812070003298e-01
5.387134346016981823e-01
4.056182256181645185e-01
2.803459787030836980e-01
1.738249313366815041e-01
8.892798967641293850e-02
1.895005373399318363e-02
-4.470421963783031971e-02
-1.048502502815358423e-01
-1.606950765262906700e-01
-2.103827467931612127e-01
-2.467927517485221933e-01
-2.634340907327795689e-01
-2.670126791441219116e-01
-2.705694201742688820e-01
-2.792682607366374081e-01
-2.924775388709658364e-01
-3.046427994264536143e-01
-3.032422188821646269e-01
-2.880435539549045521e-01
-2.800312725464304542e-01
-2.860752059449699347e-01
-2.783593931167091529e-01
-2.344184525342055958e-01
-1.731482117308104918e-01
-1.301726882160890997e-01
-1.155582637869299878e-01
-1.114327135314264472e-01
-1.012938030873643258e-01
-8.809485436284321402e-02
-8.542291743001136084e-02
-9.958474006003346923e-02
-1.198655057327541601e-01
-1.219179502141850696e-01
-8.277376876033910869e-02
7.842747676531326359e-04
1.016456573788902251e-01
1.701970113245132310e-01
1.636937133496560448e-01
7.593857059060818426e-02
-6.169348013121608160e-02
-2.020210471522848883e-01
-3.027483825645504445e-01
-3.448318542584275503e-01
-3.440997145407139191e-01
-3.338888947615751834e-01
-3.294826804312552260e-01
-3.240506800455017489e-01
-3.301512562661304551e-01
-4.014695762219077091e-01
-5.715451743769018877e-01
-7.747872382273173208e-01
-8.755991642968956601e-01
-7.750834601873637375e-01
-4.623977729847821294e-01
-8.953402750918167119e-03
4.516238313803923043e-01
7.978428864011058996e-01
1.001641981239973500e+00
1.105116229256726257e+00
1.142700013186860097e+00
1.121646591570264917e+00
1.046611833905533029e+00
9.273048307125697498e-01
7.705008909458309629e-01
5.855593971245883766e-01
3.975058221016067317e-01
2.361325482184393199e-01
1.097515640022812822e-01
6.687420061160383525e-03
-7.749578293814321506e-02
-1.291939004559365944e-01
-1.362703607690401164e-01
-1.133119974481202885e-01
-9.875326675905538032e-02
-1.202496587977226750e-01
-1.688365386205379626e-01
-2.121991678319074814e-01
-2.279750567069189771e-01
-2.203278863564041290e-01
-2.084988232486629511e-01
-2.044370505417704154e-01
-2.002731212074160827e-01
-1.789017976454241876e-01
-1.388552805689840797e-01
-1.002031503385850952e-01
-8.476492142161830279e-02
-9.650809406345267627e-02
-1.130414745540546662e-01
-1.005359482264627513e-01
-5.684051790663243592e-02
-2.135309270292792827e-02
-1.877948061123902931e-02
-2.615851699402968467e-02
-1.289809891761006626e-02
2.490954497136357165e-02
7.791573581986865893e-02
1.382787962961636030e-01
1.915586415069339132e-01
2.119612722993936826e-01
1.799272113306548682e-01
9.950158639902906277e-02
-6.108532463505133431e-03
-1.056137618260938049e-01
-1.691632231732701497e-01
-1.801472979444365130e-01
-1.389265780251833782e-01
-7.139795280871277794e-02
-4.196524328577459773e-02
-9.631962009091431243e-02
-1.362465459235650544e-01
7.627709705757558523e-02
6.263423602260886902e-01
1.115039285641323374e+00
8.880970923477088386e-01
-1.386728378051457766e-01
-1.138055830944537217e+00
-1.230496610866001372e+00
-4.523688608371917996e-01
4.562456472457778744e-01
9.397399521404171674e-01
9.905486781528431983e-01
8.594238489956962379e-01
7.138728856869122064e-01
5.698180176618766746e-01
4.043557537515287681e-01
2.415426517924304517e-01
1.235498144683717103e-01
4.725733896215350560e-02
-2.926342088888669521e-02
-1.198076260064370457e-01
-1.866288554852763293e-01
-2.026415529588495579e-01
-1.977627716955137060e-01
-2.160024904729088979e-01
-2.602861691877972894e-01
-2.964007827345042090e-01
-2.938802581043438722e-01
-2.650174533346055794e-01
-2.586892806998297156e-01
-2.986092876776769156e-01
-3.466469965640876505e-01
-3.501939616680005418e-01
-3.075827714178979155e-01
-2.638897993324121893e-01
-2.530029450704229244e-01
-2.661585148668767498e-01
-2.729128605694107201e-01
-2.544371584340611170e-01
-2.201580690957602171e-01
-2.000974499732447731e-01
-2.107020285633642021e-01
-2.331047124965508199e-01
-2.423998368278224291e-01
-2.388209185402920542e-01
-2.270089508145102519e-01
-1.930430942511797698e-01
-1.284380967589894285e-01
-5.242997984493890512e-02
9.349148505254662594e-03
4.365226061829677318e-02
3.222453338526723443e-02
-5.071307391442939072e-02
-1.985111517849745821e-01
-3.532225463362256290e-01
-4.482408976482686325e-01
-4.617425213139636497e-01
-4.235357581409608940e-01
-3.784238439366144346e-01
-3.574784481020588101e-01
-3.864785185357701991e-01
-4.778914219297636379e-01
-5.788882845192304671e-01
-5.755939579108182436e-01
-3.988471910510126284e-01
-9.502543439525094893e-02
2.284051289060505252e-01
4.878403932585312908e-01
6.526101865387432532e-01
7.385432258869014666e-01
7.848496947701435467e-01
8.182824700067644619e-01
8.339436822537849014e-01
8.092196411444068094e-01
7.338397608416625806e-01
6.249249389025086643e-01
5.104962220684809981e-01
4.041005271065366000e-01
3.022780982241487502e-01
2.023353639480369726e-01
1.136139141766581567e-01
4.596454445202908384e-02
-8.146070045068997192e-03
-6.625523344800325620e-02
-1.276100965082093697e-01
-1.695516831111910927e-01
-1.823980795380301112e-01
-1.870742079750635223e-01
-2.015147376013200209e-01
-2.129382687952398601e-01
-2.017299592291085242e-01
-1.719210377225059427e-01
-1.437503207877464939e-01
-1.287268269193894143e-01
-1.206864513095066149e-01
-1.074173954761806909e-01
-8.416281738697216352e-02
-5.625408768451951869e-02
-3.886108069398502840e-02
-5.041584813660785619e-02
-8.861062638405700631e-02
-1.208781706347702850e-01
-1.196220791603708061e-01
-9.508333025088452906e-02
-7.476535716474444482e-02
-6.295730175436821396e-02
-3.574257587308400652e-02
2.648469045118042459e-02
1.096086625355921773e-01
1.790098168418859104e-01
2.173108671944653514e-01
2.290623074120491098e-01
2.144919533742136453e-01
1.655283182915802120e-01
8.782765057857060131e-02
5.445574179613372687e-03
-5.799595958129195178e-02
-8.603031385480278126e-02
-6.872888210452489377e-02
-3.015812804923529572e-02
-3.816452707400047606e-02
-1.132919107165327038e-01
-1.121956701315698079e-01
1.834507372696038696e-01
7.226547334498201192e-01
1.008053887522048386e+00
5.645835278727524553e-01
-3.579941177319774237e-01
-9.177932531769014135e-01
-6.393551239667503161e-01
1.230042670529000182e-01
7.455315903553192403e-01
9.733637180710549286e-01
9.259474225832585725e-01
7.857966612466003031e-01
6.363280335750010064e-01
4.906240101757012306e-01
3.521560046276338007e-01
2.275704445737878057e-01
1.177061688614036150e-01
2.007614861230795633e-02
-6.484406853647707580e-02
-1.357386168957840644e-01
-1.933110186772579453e-01
-2.387456249657158580e-01
-2.716058705824144215e-01
-2.904830155343715581e-01
-3.002492653540314582e-01
-3.144392493209929862e-01
-3.365336587909637522e-01
-3.465036122418242992e-01
-3.256243487579492668e-01
-2.860943033659578139e-01
-2.577937961020523305e-01
-2.526065192578098584e-01
-2.536180235356004231e-01
-2.389920472077609048e-01
-2.119662129464397471e-01
-1.949241652237563016e-01
-1.924114884969245209e-01
-1.832331122775913423e-01
-1.538773330423926222e-01
-1.206987694577660170e-01
-1.162365857943878922e-01
-1.551263743824774222e-01
-2.101527852719833056e-01
-2.323279432834501057e-01
-1.956457013275321455e-01
-1.124130498278243795e-01
-1.684797490645873960e-02
5.871429301013256913e-02
1.013244544856206075e-01
1.038550825715363890e-01
4.117552454980867582e-02
-9.746070434179311681e-02
-2.555893987194137185e-01
-3.447894805191595857e-01
-3.387803242592564157e-01
-2.927647949304948982e-01
-2.692906913696675453e-01
-2.787556138413157525e-01
-3.067216797144373119e-01
-3.691809555236926776e-01
-4.853201844734597592e-01
-5.972549174659905757e-01
-5.891579769960364477e-01
-4.054356369396975301e-01
-9.797808324518184064e-02
2.379294276092079330e-01
5.233968295029119977e-01
7.106328533304033801e-01
7.947010075829792353e-01
8.185873550203645044e-01
8.377519989813627665e-01
8.611870461663916343e-01
8.376511401056889738e-01
7.210960118616409620e-01
5.432212415663415506e-01
3.889058605037772898e-01
2.978754834229240256e-01
2.312013127850452987e-01
1.433369622840726387e-01
4.255932460002279788e-02
-3.660526492994724962e-02
-8.550345179393356587e-02
-1.233497993402391524e-01
-1.640232705021021642e-01
-1.986119539586072014e-01
-2.081087278058224299e-01
-1.924725907715109929e-01
-1.835542560073525620e-01
-2.074718509041240111e-01
-2.396712144833083313e-01
-2.342721233596591623e-01
-1.910976434780584099e-01
-1.528193257887518752e-01
-1.417503594511740905e-01
-1.385833694944362260e-01
-1.228714926266361585e-01
-9.906750507898119673e-02
-7.670963623637447326e-02
-5.451111963845781810e-02
-3.555082765195113903e-02
-3.742316399847368802e-02
-7.135673593620450728e-02
-1.193465561504734873e-01
-1.457098728526265430e-01
-1.307350165583952561e-01
-8.451864920019369620e-02
-2.905368343743732276e-02
2.599875017571013497e-02
8.860652189714214588e-02
1.649054924539490319e-01
2.350520056909444488e-01
2.580955386379839012e-01
2.063209506203365073e-01
9.256658802744981152e-02
-3.175521414606305437e-02
-1.074203666172300620e-01
-1.166402804137750687e-01
-1.093780651683079058e-01
-1.466943670736449434e-01
-1.746138945917061758e-01
5.173958435251810491e-03
4.882396610948714355e-01
9.394474408716607661e-01
7.690343624205455697e-01
-1.187447763995852085e-01
-9.955781081273855637e-01
-1.066054962872404532e+00
-3.485909414781513949e-01
4.922201645858153007e-01
9.473672216197992491e-01
1.006112349943143469e+00
8.897374720673936199e-01
7.445416561358801921e-01
5.954147304159231879e-01
4.340735796985739081e-01
2.738117034189004873e-01
1.437852649183108400e-01
6.347754195964842860e-02
2.778686609025022083e-02
9.845136011292769662e-03
-2.232974654179804494e-02
-8.345053747076357220e-02
-1.578435504245119803e-01
-2.107025609478788142e-01
-2.211223550073252719e-01
-2.029533930048776913e-01
-1.836854943764467674e-01
-1.730042306115005257e-01
-1.692230110497542905e-01
-1.781868788769779277e-01
-1.973396529471863614e-01
-2.026562472953429284e-01
-1.850348249424012548e-01
-1.740204299983745262e-01
-1.954622406223160413e-01
-2.327339275851892098e-01
-2.494474035380311039e-01
-2.293447877247597466e-01
-1.850701571633258657e-01
-1.431660711490877480e-01
-1.281590845636987330e-01
-1.492728115691380475e-01
-1.909265610786656797e-01
-2.252013898624874444e-01
-2.402609765855138746e-01
-2.450294226540399578e-01
-2.486006305820715467e-01
-2.477817214352552588e-01
-2.272013841495429953e-01
-1.699716473884185786e-01
-8.335029545896474601e-02
-6.550337169282089041e-03
2.309324036808101457e-02
3.555398349901657540e-04
-6.272124213218163713e-02
-1.637027696304974855e-01
-2.985309932308223835e-01
-4.308861042427407639e-01
-5.027184276073741742e-01
-4.853853938928911482e-01
-4.151160599113904448e-01
-3.850244472629870129e-01
-4.856373526431996268e-01
-7.091749193938463591e-01
-9.194068442658218654e-01
-9.533336817606986591e-01
-7.390974616959105070e-01
-3.187888416731601282e-01
1.834141189732611810e-01
6.204960941410440078e-01
9.093827041081411489e-01
1.061402012494732761e+00
1.121526114900678106e+00
1.110073065257005887e+00
1.029892541700503150e+00
8.969917669070011090e-01
7.398886090449839914e-01
5.790441702829955961e-01
4.267310875148700999e-01
2.980375143774494640e-01
2.023459678004776996e-01
1.314527201680193991e-01
6.918101509785216929e-02
6.494723641904667430e-03
-5.622642754743673033e-02
-1.129553527841422739e-01
-1.545379524533002924e-01
-1.722288227194108678e-01
-1.652348158521416976e-01
-1.488001305406769781e-01
-1.469874816632029402e-01
-1.636395625858260428e-01
-1.676512236652437926e-01
-1.288224801373603623e-01
-6.679104943438478326e-02
-4.366752893657151191e-02
-9.652231375267669722e-02
-1.784666893423943745e-01
-1.871377294960892002e-01
-7.651227203688013012e-02
7.674917631045580224e-02
1.524752043670365154e-01
1.166195615484989789e-01
3.735106135299039870e-02
-1.311016751946118310e-02
-2.946779781352025507e-02
-4.280556549796656063e-02
-6.225564180375552092e-02
-7.058608455011243510e-02
-5.015893012790689082e-02
7.036815725769844480e-03
9.647319525071727797e-02
1.956583519112101432e-01
2.687342852168191354e-01
2.818621887872976295e-01
2.237923158753386543e-01
1.173981147794673913e-01
3.509437002086971888e-03
-8.536351536687443453e-02
-1.332158549506695377e-01
-1.375744858682459992e-01
-1.127304307868690902e-01
-9.758170366836432796e-02
-1.218865009584891579e-01
-9.985975819007297805e-02
1.773680427188696618e-01
7.302920178004752572e-01
1.080264278308241899e+00
6.369067810115041084e-01
-4.406462263448520100e-01
-1.203634572110430456e+00
-9.849650823944163802e-01
-1.045709941223179895e-01
6.802066502168395701e-01
1.002550125283565574e+00
9.815854280405924559e-01
8.402257293354160606e-01
6.762469184120497578e-01
5.032851589611886389e-01
3.405373842857495337e-01
2.161229647819850885e-01
1.293987860869275641e-01
5.057339459224428208e-02
-4.372054945112602287e-02
-1.454572566649949272e-01
-2.255936720226287551e-01
-2.669357560114148931e-01
-2.830610719985715562e-01
-3.005376704681280708e-01
-3.252611227636453273e-01
-3.357783373903789892e-01
-3.159925675566897518e-01
-2.832068526973732236e-01
-2.668569587280924527e-01
-2.687582975906812610e-01
-2.669193925258686595e-01
-2.549004166651254177e-01
-2.519209324551451856e-01
-2.658064096312391933e-01
-2.709472521006884294e-01
-2.424473880854293995e-01
-1.940111812137542413e-01
-1.630567408104099947e-01
-1.682446867331273410e-01
-1.940111378609058745e-01
-2.132406720996291305e-01
-2.149641739190695511e-01
-2.069655842286705627e-01
-2.026280103609994498e-01
-2.108947679042272594e-01
-2.238323415768703195e-01
-2.085274389584668153e-01
-1.313965348382332698e-01
-3.783829714300964570e-03
1.080561931614895804e-01
1.318440423568134068e-01
4.480085393747943595e-02
-1.154405724485168261e-01
-2.756369271093857543e-01
-3.705118544411334369e-01
-3.873508729495209191e-01
-3.644218449173636798e-01
-3.394739011086044811e-01
-3.204444778684010231e-01
-3.176870034859501368e-01
-3.757594840585999352e-01
-5.274054134745495004e-01
-7.064683430027072220e-01
-7.592163253385733057e-01
-5.882194949683863250e-01
-2.494603403761726512e-01
1.221272376175788071e-01
4.281682766057848810e-01
6.328002015559103244e-01
7.428522884087284117e-01
7.917027109791670014e-01
8.193349640089506725e-01
8.494090937189192614e-01
8.687953620247945707e-01
8.330020699147788754e-01
7.151372768930467361e-01
5.450289583481409128e-01
3.828109312346218429e-01
2.632375264097863710e-01
1.801136028161974267e-01
1.152678566096212859e-01
6.124324109976161945e-02
1.579138412658307594e-02
-2.372687559684585890e-02
-5.635648111722747766e-02
-8.398067169061901316e-02
-1.174306326223594071e-01
-1.570849703862067237e-01
-1.755558441472282460e-01
-1.479442645659732325e-01
-9.638683414627072232e-02
-7.270400624239274634e-02
-9.521753662367217486e-02
-1.306576719951028920e-01
-1.400909192925916535e-01
-1.191533464946338688e-01
-8.891161102836994679e-02
-6.696202130218764648e-02
-6.011654862729365334e-02
-7.238584370586297057e-02
-9.731537075753664279e-02
-1.081429257174859326e-01
-8.676755304629893417e-02
-5.707646669929684891e-02
-5.019802915195259452e-02
-4.827742849930045238e-02
-8.044630815108842065e-03
7.529868427390397356e-02
1.675098551389758439e-01
2.378744476687085774e-01
2.704929335573404980e-01
2.532411282084712223e-01
1.818895866023866603e-01
7.115184218337247679e-02
-4.605773357433504134e-02
-1.317911714063790263e-01
-1.595829896940699211e-01
-1.229795585960082177e-01
-3.532106548975964821e-02
6.445970256942626375e-02
1.034336644391062876e-01
2.174154633524410726e-02
-1.011518815207270022e-01
-7.490859114279186694e-03
4.691775741038523573e-01
1.017407453022574737e+00
9.841081448788732144e-01
1.627728855832118460e-01
-7.717737702618466811e-01
-9.671352651290824332e-01
-3.454781272393794289e-01
4.670817198641581403e-01
9.364419639135652673e-01
1.018309244625962728e+00
9.191582078462587901e-01
7.749593291809757645e-01
6.033969210629490654e-01
4.153773691997881823e-01
2.534782663645383516e-01
1.359537307342223167e-01
4.393772001546532302e-02
-3.065737267420963127e-02
-8.052373920674243957e-02
-1.159982674889034615e-01
-1.552269036979755379e-01
-1.982753853272271605e-01
-2.405896179886843345e-01
-2.867097466805574868e-01
-3.313299196425518733e-01
-3.510948495380415424e-01
-3.317712727043984344e-01
-2.908308176436507630e-01
-2.605161940439232882e-01
-2.543221521303873356e-01
-2.619844522809581799e-01
-2.724612135910097765e-01
-2.839826109263249299e-01
-2.898054249966388052e-01
-2.728553488553976947e-01
-2.271880431929867439e-01
-1.785303914971794192e-01
-1.668041668537816047e-01
-1.982942639917762429e-01
-2.326129484563138339e-01
-2.337918508223109926e-01
-2.053245990396811438e-01
-1.604486872144778031e-01
-1.026892111049062806e-01
-4.314330247866610818e-02
4.669485529588008124e-03
3.738062317108153954e-02
4.214192433657906744e-02
-8.079230867065790439e-03
-1.160851374427077087e-01
-2.432415770566555835e-01
-3.490273644641878059e-01
-4.199057011705804587e-01
-4.455899223512622132e-01
-4.101056343626545142e-01
-3.302843878271405909e-01
-2.712411206693087218e-01
-3.023773110352394600e-01
-4.338267571075564710e-01
-5.894295055819778195e-01
-6.605797859463614641e-01
-5.958363822294145962e-01
-4.095209012852467634e-01
-1.246808553187837287e-01
2.225561680893113903e-01
5.432250527057731482e-01
7.428763692929789553e-01
8.089293730731572651e-01
8.098101275227430618e-01
8.148092076344982670e-01
8.272657265978091701e-01
7.912738152069360709e-01
6.656977978407653262e-01
4.811619972988415705e-01
3.102617263568913097e-01
1.985585957524004241e-01
1.409779788545130474e-01
1.068919456995111317e-01
6.784124167123094240e-02
7.449002885655507840e-03
-7.636734757752806912e-02
-1.634383488387206040e-01
-2.138975970869969878e-01
-2.074793169759437672e-01
-1.781560826660075481e-01
-1.771993387988624047e-01
-2.063028765965192191e-01
-2.220135021520969754e-01
-2.011036584004673999e-01
-1.657119584652034516e-01
-1.450370204352610104e-01
-1.438902507887043769e-01
-1.509351550947535259e-01
-1.551241659624493230e-01
-1.499775104656786984e-01
-1.326449466088054085e-01
-1.045547505147324530e-01
-7.239986809313204985e-02
-4.683845909188492224e-02
-3.966680365345998105e-02
-5.507964819969832920e-02
-7.486486144138553012e-02
-6.162412342083507105e-02
7.188625552684657291e-03
1.117405757705955405e-01
2.046167470471156047e-01
2.466990125956527447e-01
2.243021810739275479e-01
1.443603145305230040e-01
2.948696727012847102e-02
-8.599390559009613411e-02
-1.717047897238399567e-01
-2.129021188713448587e-01
-2.043871525489633079e-01
-1.528888935334115351e-01
-9.675884247350460821e-02
-9.020045023365277914e-02
-1.105566381671942572e-01
1.134023932835913698e-02
4.245849570913357574e-01
9.061569469329762150e-01
8.696201198973129154e-01
4.150157492839394446e-02
-9.889757693647721615e-01
-1.300825696804022602e+00
-6.739840842299058554e-01
2.645923639163494379e-01
8.364938363311097413e-01
9.131374617978952335e-01
7.750752663270583653e-01
6.690259904510318378e-01
6.113025760068275805e-01
5.157913333516056520e-01
3.628034737093252526e-01
2.052658522273800579e-01
8.754128061539274974e-02
1.114311163546102650e-02
-4.412857122761180972e-02
-9.351619288270257568e-02
-1.369828332730183840e-01
-1.664753098654646601e-01
-1.824667071315174693e-01
-1.982171662949215318e-01
-2.225922478539040794e-01
-2.444649017628070797e-01
-2.442253275470407936e-01
-2.212148440422538054e-01
-1.979342102647941304e-01
-1.917479030938279705e-01
-1.962913217045881842e-01
-1.970229714614060712e-01
-1.898069869015087952e-01
-1.799476760594655445e-01
-1.743308981133453450e-01
-1.735864996274752159e-01
-1.682512044075308022e-01
-1.498021096206393066e-01
-1.247719349889106766e-01
-1.107793311906477007e-01
-1.192112902336443375e-01
-1.407773675263149782e-01
-1.463992538603894333e-01
-1.111618284482135677e-01
-4.188567280110134378e-02
2.928580521103044468e-02
7.776556373905058051e-02
9.441666006584210902e-02
6.575741177426326634e-02
-2.046007273926356979e-02
-1.420311687187247318e-01
-2.428067741531526047e-01
-2.828365015952857275e-01
-2.778460537046630319e-01
-2.836023118183708114e-01
-3.427238990494119730e-01
-4.376137718105816976e-01
-5.057872449919971203e-01
-5.206766963180043950e-01
-5.226094713319493490e-01
-5.451995440969995554e-01
-5.523451737406281925e-01
-4.565009561001628913e-01
-1.876443870685261250e-01
2.213875190689714167e-01
6.302852870532511531e-01
9.155320415557900438e-01
1.065481453903300624e+00
1.130947537790966351e+00
1.140017964962853014e+00
1.081759251588100046e+00
9.389510206270047510e-01
7.324316442825442586e-01
5.306592715563726026e-01
3.911365886397866198e-01
3.084250272762268930e-01
2.411817040722576411e-01
1.602661145976818080e-01
6.402954077876395200e-02
-2.043992723797672870e-02
-5.996435192221775956e-02
-6.309563961695670298e-02
-7.964028975265136090e-02
-1.311211680100055343e-01
-1.788516104370841409e-01
-1.848391919681963980e-01
-1.636479401452803906e-01
-1.543054392246801798e-01
-1.797410178306296791e-01
-2.407826884814955049e-01
-3.088059300704777410e-01
-3.257513287249664269e-01
-2.571023204812220020e-01
-1.439530737051956388e-01
-6.653528908413253173e-02
-6.220136317817907823e-02
-9.949677463450196102e-02
-1.195339560682138896e-01
-9.130382150016386200e-02
-3.817372896637099416e-02
-1.390502532598330947e-02
-4.101382725339514784e-02
-7.489508116144628913e-02
-4.618450034439851304e-02
5.914010542072711124e-02
1.797824265972284286e-01
2.463846516759493344e-01
2.458117033080812197e-01
2.000021374846146505e-01
1.111088376055496263e-01
-2.604237653517609691e-02
-1.662749403909664914e-01
-2.238113969191006525e-01
-1.604631247779877423e-01
-3.804388395682652135e-02
3.297064213203878408e-02
-9.280809852723748490e-03
-1.143655428409430658e-01
-1.070229377723716652e-01
2.046749330868296024e-01
7.242794376392465150e-01
9.153732293657594887e-01
3.250821875635884761e-01
-6.891525599058039298e-01
-1.203046801213192074e+00
-7.899542978383775615e-01
8.033405014609851236e-02
7.294163063483284359e-01
9.318620370897414684e-01
8.557597683419683188e-01
7.052404053218196411e-01
5.635745646888097315e-01
4.340430460494184017e-01
3.035585249487873782e-01
1.676353811150813333e-01
3.222513208379278182e-02
-8.665483733187041848e-02
-1.676003677767241296e-01
-2.062055173155151466e-01
-2.277383853648799472e-01
-2.588737161303497070e-01
-2.979583423746986481e-01
-3.271620473094314363e-01
-3.364499079247263991e-01
-3.281928062261986190e-01
-3.162356076698993324e-01
-3.189908254298385870e-01
-3.368026533009889079e-01
-3.423604081687159906e-01
-3.098692353889230811e-01
-2.496465985003594734e-01
-1.989178676706156168e-01
-1.805059727687842730e-01
-1.851255339903982999e-01
-1.931927754822172494e-01
-1.968274922031077179e-01
-1.959457239879704438e-01
-1.894052397478513117e-01
-1.779078664418534961e-01
-1.654869908522125233e-01
-1.569135370460389700e-01
-1.543455619712104099e-01
-1.471019894777841897e-01
-1.137075264097080068e-01
-5.211097230905212957e-02
6.740969218299516785e-03
3.547564092856867607e-02
3.800465396188670852e-02
2.183736758344604484e-02
-2.712086618263213206e-02
-1.219648685475850924e-01
-2.453313478741740161e-01
-3.543618976395834785e-01
-4.113745094798303970e-01
-4.078641738544714901e-01
-3.692729661985824641e-01
-3.475344727022539049e-01
-3.878492277369929853e-01
-4.723650377729780581e-01
-5.006088279018859888e-01
-3.492901116102232195e-01
1.767412626487864166e-02
4.717593183399627632e-01
7.826976560400124017e-01
8.174870142755836788e-01
6.648482674274993620e-01
5.250088977193215767e-01
5.086300500538011304e-01
5.760791977646301243e-01
6.295482751843817226e-01
6.131468780796853757e-01
5.319106715992304446e-01
4.129788825265569563e-01
2.748097912725203651e-01
1.339548534410626157e-01
1.747413802896613522e-02
-5.146798166880139913e-02
-7.656712999503333117e-02
-8.871045557326862063e-02
-1.182458681821354080e-01
-1.654155986623718211e-01
-2.073417306795508064e-01
-2.292562723381286194e-01
-2.315264999213642316e-01
-2.184890988958427260e-01
-2.000437114966330809e-01
-1.905641767728297742e-01
-1.925617839960724054e-01
-1.907474572862378481e-01
-1.696594237890991508e-01
-1.348878721669438674e-01
-1.113750303540886333e-01
-1.163721302665224611e-01
-1.358512779534775949e-01
-1.282673666086268371e-01
-5.760030644090371327e-02
5.601480634964909472e-02
1.253788013679819624e-01
7.731660991604299982e-02
-5.606176838588954048e-02
-1.588160174381994527e-01
-1.429676254774124577e-01
-3.243188526229325713e-02
6.989399092573314598e-02
1.040445999108038644e-01
1.075664687428890959e-01
1.373366637338222229e-01
1.924257301185701152e-01
2.301881998281810338e-01
2.121041597481104213e-01
1.271761537890667426e-01
8.816342140571946026e-03
-7.129905264675143184e-02
-6.338381585205417335e-02
-4.171648559512162319e-03
5.456047807672215894e-04
-9.820801374449361631e-02
-1.531074958946751496e-01
1.049082384071534785e-01
6.867795284517921317e-01
1.085605496800882808e+00
7.191011381290065563e-01
-2.606849134302914872e-01
-9.691309076748709783e-01
-7.874981490134183026e-01
-9.207660710527365566e-04
7.020920076717580560e-01
9.831658068328101852e-01
9.501514640587852556e-01
8.098719866718089300e-01
6.488215482490862218e-01
4.716404632409273434e-01
2.982972692152013883e-01
1.716190639962021924e-01
1.051042827737474344e-01
6.384442817046684371e-02
4.507856769212271325e-03
-7.813178685620229824e-02
-1.554163202019448742e-01
-2.072843592467049079e-01
-2.407395720953276197e-01
-2.642293763362344450e-01
-2.622887822732951069e-01
-2.139120086111828412e-01
-1.389758300244382516e-01
-9.983974749227836343e-02
-1.313765141559163629e-01
-1.973798084734917913e-01
-2.437578632894844555e-01
-2.610245536009153655e-01
-2.708968752717227368e-01
-2.795722671528451109e-01
-2.678409393118784121e-01
-2.238075983559787430e-01
-1.692304011236626382e-01
-1.401260434088495987e-01
-1.487196313434756278e-01
-1.763751613806934238e-01
-1.961515848193568778e-01
-1.950130962665675149e-01
-1.807669060340679756e-01
-1.701900955511371771e-01
-1.675971669735950020e-01
-1.559630439234694355e-01
-1.138200936672243424e-01
-4.282506938917525485e-02
2.742617000763552734e-02
6.206771181962533052e-02
3.960583441555333428e-02
-4.472346280410981895e-02
-1.739408821031913910e-01
-3.064238763515525488e-01
-3.952320033826923762e-01
-4.185524172215642769e-01
-3.889826294183856836e-01
-3.389317222773427507e-01
-3.065248861817239101e-01
-3.306810918139212463e-01
-4.343996430383012530e-01
-5.884878042062896553e-01
-7.050329551673544248e-01
-6.915608411362090813e-01
-5.048974519904519953e-01
-1.648489383234229277e-01
2.469323533983323882e-01
6.188699436996482062e-01
8.718740337613141156e-01
9.875822770006709161e-01
9.995219228801693889e-01
9.696866089011960677e-01
9.321518288871072366e-01
8.606258873528849218e-01
7.258057612482068377e-01
5.565204905165612725e-01
4.098579448230745825e-01
3.070465888752821337e-01
2.270320705720285936e-01
1.472862749349957423e-01
6.335520470947324234e-02
-2.447851687901020715e-02
-1.146426781530350547e-01
-1.958334389107095619e-01
-2.553014086096835333e-01
-2.894471892944576741e-01
-2.976994887817816515e-01
-2.799334531144329619e-01
-2.432430050213126860e-01
-1.999001436161051137e-01
-1.593209856546672076e-01
-1.246159079491172411e-01
-9.088524886695689697e-02
-4.998203002800052919e-02
-5.829343593587610339e-03
2.096348126577690651e-02
1.324904609773905687e-02
-1.830471527170707616e-02
-3.712338249038180105e-02
-1.821517010782013057e-02
1.937248537466513404e-02
3.384585938390061166e-02
5.155069707844267546e-03
-5.468812121253619624e-02
-1.136051904424072445e-01
-1.298838493175649422e-01
-7.666239040471165000e-02
3.100608201142876497e-02
1.438974208071380767e-01
2.137281543747485413e-01
2.208299022093646868e-01
1.763147541221642689e-01
1.020050887980361587e-01
1.197096008172493162e-02
-8.336516871441021492e-02
-1.579566436607076074e-01
-1.719944969515422306e-01
-1.243585813693397907e-01
-9.484242015431398887e-02
-1.512294866158479523e-01
-1.679612967181806915e-01
1.308165937643649135e-01
7.471389040139047033e-01
1.106078386326030394e+00
5.681294830030694243e-01
-6.427241539355930122e-01
-1.469478878906543606e+00
-1.200127493820695168e+00
-1.992829852586883999e-01
6.951850093126087371e-01
1.063127085343404721e+00
1.025532240937569339e+00
8.489343682361358834e-01
6.727995928402473735e-01
5.130156326831799563e-01
3.603391925809137364e-01
2.264702621616724587e-01
1.253415281009027937e-01
4.951868572514656064e-02
-1.286276167894457104e-02
-4.847806127407396082e-02
-4.472877421249589480e-02
-4.794780266337963365e-02
-1.348087679743514566e-01
-2.958124906762216733e-01
-4.122194739776935957e-01
-4.000823579100957206e-01
-3.132520984913682027e-01
-2.490879773415565213e-01
-2.266482568216592053e-01
-2.156572743815211302e-01
-2.145910803404656453e-01
-2.369394049553058823e-01
-2.616563993239941488e-01
-2.514069885524290449e-01
-2.044541506476094117e-01
-1.565457026357404136e-01
-1.435003633567666081e-01
-1.735721534711974212e-01
-2.169059730362799809e-01
