-9.565052679775286337e-02
-9.645295341541422485e-02
-4.016598199119502527e-02
7.414472283328218949e-02
1.585697642997026813e-01
1.307759127159814905e-01
2.789066574071610155e-02
-4.540458555982371247e-02
-4.559244680144389911e-02
-1.109087404120510587e-02
1.092800326105856923e-02
6.525949805205983993e-03
-1.844656076769879763e-02
-4.259058237405716207e-02
-2.336673263434409925e-02
5.483237014930802261e-02
1.075146267092135927e-01
-1.346131436892482672e-03
-2.369492200601900078e-01
-2.543542127420432286e-01
2.896571355971196970e-01
1.137602627753458995e+00
1.420224176849359754e+00
6.380953016274035772e-01
-5.387285174217956163e-01
-9.619625466685999271e-01
-3.693281071432328866e-01
4.449067698053642550e-01
7.066271195522069171e-01
4.158343506994560679e-01
4.266111140784603628e-02
-1.066333015242851429e-01
-7.220513350222407256e-02
-1.865930826568115014e-02
-3.429341965988303570e-02
-1.145517724937505089e-01
-2.100358010225873984e-01
-2.574900444297908431e-01
-2.265864802116571430e-01
-1.539309609087428088e-01
-1.015212768803899768e-01
-9.867335215778212654e-02
-1.373677637193787826e-01
-1.807905464525084438e-01
-1.646192907280453477e-01
-4.049780008593342751e-02
1.554676495838265005e-01
3.106169411161391891e-01
3.338248628256036410e-01
2.256009409028909563e-01
6.134309638894969857e-02
-6.068417536167705628e-02
-8.189001015227714841e-02
-3.236465879698344206e-02
3.575658736232931179e-03
-1.957736996912108965e-02
-7.781732753770942423e-02
-1.283159734358549076e-01
-1.480581353640927078e-01
-1.283397810283346541e-01
-7.563688118642858393e-02
-2.452085924738755737e-02
-1.554182832535043468e-02
-5.029557873545686258e-02
-9.076060181196213272e-02
-1.034997520333522103e-01
-8.102421355472202991e-02
-2.845579164740362141e-02
2.909948350345635190e-02
1.905752861702850187e-02
-1.303281555837318417e-01
-3.208082684336167056e-01
-2.049749164131776935e-01
4.693381576877035388e-01
1.306527720729005582e+00
1.419664461951149814e+00
5.081449324076046103e-01
-5.647703146149654074e-01
-7.516635270248663847e-01
-6.962588262904387260e-02
6.005522477997612407e-01
6.655468590230588788e-01
3.015632491309873098e-01
-3.323402246519065878e-02
-1.444690755669943427e-01
-1.360501745024489395e-01
-1.523406981582745290e-01
-2.189447564533142654e-01
-2.803477149839648797e-01
-2.982276539607647270e-01
-2.841765641335539661e-01
-2.653229003418573484e-01
-2.526028734893606686e-01
-2.475741921755428565e-01
-2.562602079930981769e-01
-2.757678087076335105e-01
-2.735967746756072794e-01
-2.026350959757584058e-01
-5.137936170279858855e-02
1.259033667813322377e-01
2.393944718571386077e-01
2.279047157074788055e-01
1.057166481532985092e-01
-4.402226071234008331e-02
-1.360808476500473541e-01
-1.511743054396602060e-01
-1.293901783183726284e-01
-1.102332917414721586e-01
-1.023822018432730546e-01
-9.930747926061005149e-02
-9.618910908980068952e-02
-9.095105076566636915e-02
-8.405144316225152124e-02
-7.999317594681130961e-02
-8.307483924162802069e-02
-9.173404547198843462e-02
-1.006606387589708135e-01
-1.085304467654873012e-01
-1.166669345218970533e-01
-1.110170121406873489e-01
-6.373820252715726997e-02
4.835814444360250763e-03
-1.259611535550256983e-02
-1.646242319150656996e-01
-2.109633378528157355e-01
2.387415040201410765e-01
1.106096831018093196e+00
1.582639337842461913e+00
9.754106747396432686e-01
-2.693273855318793486e-01
-9.601971495709984428e-01
-5.768794589111784221e-01
2.560349119006300467e-01
7.021067028611074345e-01
5.800197675466949310e-01
2.296944024466401335e-01
-3.561686172254568961e-02
-1.457537686189627479e-01
-1.671989749470671194e-01
-1.718776753646063249e-01
-1.874666282804396678e-01
-2.061232808112622161e-01
-2.161264977819692956e-01
-2.204093580185594869e-01
-2.297230516046716853e-01
-2.470914912053267243e-01
-2.632971246981226643e-01
-2.684061217785639886e-01
-2.549046047758891653e-01
-1.970864157514876647e-01
-5.876855054811395973e-02
1.409513947709117032e-01
2.995792407074251984e-01
3.159315006198107900e-01
1.924820370986306539e-01
3.066270899027957741e-02
-6.644908672753921386e-02
-7.846257750345099480e-02
-6.148155353973203119e-02
-6.842214078670859345e-02
-9.314206737441398098e-02
-9.911522655293908413e-02
-7.607913142469015233e-02
-4.414563223681655657e-02
-1.827212159070707234e-02
3.386857572494250419e-03
1.755159856828346007e-02
6.987714911840030470e-03
-3.393506539934329491e-02
-7.849594118635951079e-02
-8.505640492352792292e-02
-3.689933811896302374e-02
2.411805368106798020e-02
7.137865456087620977e-03
-1.458598369849993526e-01
-3.621203259988101109e-01
-4.173434173148364845e-01
-5.223557673206672552e-02
7.141379644856673536e-01
1.314610247123649600e+00
1.031712283058433322e+00
-6.444950071220632848e-02
-9.597374614740838972e-01
-8.292342119850858451e-01
2.120625570075201916e-02
6.629372333975306342e-01
6.453562430490967783e-01
2.550904153781415329e-01
-5.704929616541494497e-02
-1.416247901999517778e-01
-1.088579316724656021e-01
-8.827376929336536171e-02
-1.137863779669499725e-01
-1.552436555924656958e-01
-1.781974979069515241e-01
-1.685467294344183409e-01
-1.326350736834726873e-01
-9.191226259404157439e-02
-7.583596794038130473e-02
-1.069612968517929391e-01
-1.719381742041119210e-01
-2.032725755127295642e-01
-1.215963810111875126e-01
7.566305374155631036e-02
2.849906047101399276e-01
3.786947761682267766e-01
3.067820123531161958e-01
1.248143062832067496e-01
-5.078651684922917686e-02
-1.257881650241033100e-01
-9.637458974434527648e-02
-3.625318953682622747e-02
-1.371310813617817280e-02
-3.430489127452707870e-02
-6.406840118567018461e-02
-8.016989713095615255e-02
-8.367720765850550357e-02
-8.579511574347062353e-02
-9.533348621319276406e-02
-1.080510842411709221e-01
-1.099337594567953158e-01
-9.558041101980242760e-02
-7.475100126522492283e-02
-5.917136213696192609e-02
-4.249394261153836144e-02
-3.690722103614932186e-03
3.540227110015920636e-02
-2.246308844803732857e-02
-2.073619552321146753e-01
-2.650185457434642289e-01
1.959327086801260498e-01
1.081693053214895173e+00
1.560643633058475421e+00
9.468664096008125863e-01
-2.661477983899684374e-01
-8.717313423398819205e-01
-4.188444229577078515e-01
3.835813184932649333e-01
7.039919140383094076e-01
4.609312289929976547e-01
9.060290013713281909e-02
-1.012167846826404760e-01
-1.377290454861974656e-01
-1.440635146181451220e-01
-1.596659456030141699e-01
-1.636812094138352658e-01
-1.591636958938697499e-01
-1.753262623163377720e-01
-2.158674488307401329e-01
-2.485186472634492161e-01
-2.487836264215093907e-01
-2.314839302644407237e-01
-2.318313528318207417e-01
-2.551240354253723197e-01
-2.449832260812939422e-01
-1.267449956006015677e-01
9.332359994515937451e-02
2.962592068311795113e-01
3.497351377529399619e-01
2.306364260605616723e-01
3.871147992901896595e-02
-9.944295071544845266e-02
-1.339742520424890282e-01
-1.052143870050526175e-01
-7.229468030979108173e-02
-5.555579677282778545e-02
-4.684403139293969592e-02
-4.322503091236993417e-02
-5.242309958009756798e-02
-7.423107363313508067e-02
-9.379057642645274862e-02
-9.936788168935405119e-02
-9.578400932798020184e-02
-9.479782453030272116e-02
-1.012519162813455831e-01
-1.083172759577651079e-01
-9.556863737106383039e-02
-4.067381914480130284e-02
3.346290528175146356e-02
2.581328691182735446e-02
-1.358193934931410662e-01
-2.763152329702449062e-01
-1.825292714397707718e-03
7.738741280342912310e-01
1.397122980127140979e+00
1.058723993549197884e+00
-8.090260997252635145e-02
-9.057750835933217060e-01
-6.808431064615882988e-01
1.471268044521233387e-01
6.727626733945274440e-01
5.730515502826809549e-01
1.889561689131202260e-01
-7.526756201521386802e-02
-1.287390566150105609e-01
-9.617301462485028374e-02
-8.698196957925138917e-02
-1.131780399822396588e-01
-1.467093394631477088e-01
-1.786968282141772613e-01
-2.150453116912733886e-01
-2.521093340482387646e-01
-2.773927528218597671e-01
-2.819816485365411740e-01
-2.675041121631848706e-01
-2.487918745180878466e-01
-2.361575466989102867e-01
-2.016954426911368170e-01
-9.286408149855790439e-02
9.131351057169512231e-02
2.619466383402871412e-01
3.107386376113166482e-01
2.137225455804983576e-01
5.238732876477712047e-02
-6.626050482195094959e-02
-1.026519960630655620e-01
-9.272999226781997173e-02
-8.134998017345479449e-02
-7.611054287320717648e-02
-6.417326172823949182e-02
-4.948893228461728744e-02
-5.652941712655922685e-02
-9.733333633714003064e-02
-1.521135502958471941e-01
-1.892851557273974861e-01
-1.906172757248660032e-01
-1.610870701105459046e-01
-1.288270430055769022e-01
-1.195486839345151348e-01
-1.172759475357064568e-01
-8.150000656758923934e-02
-3.221331685395557171e-02
-7.113823449453142433e-02
-2.212074449244986196e-01
-2.453808641472940699e-01
1.745302960583050012e-01
9.076063016538767902e-01
1.261530930437746889e+00
7.707269525159978762e-01
-1.160267641153421569e-01
-5.733467728477377179e-01
-3.860786335990996632e-01
-9.861110930542010822e-04
1.448044197281870005e-01
1.166394791112365312e-02
-1.808094833692376613e-01
-2.542724952233779701e-01
-2.088578462400060842e-01
-1.420037553512036310e-01
-1.090216381563855336e-01
-7.523712747714052240e-02
1.876846146416850589e-02
1.641484352652679279e-01
2.759634075622589555e-01
2.784830312170734068e-01
1.786464421395320135e-01
5.450622254196465372e-02
-1.628311990612211352e-02
-1.941439525293660665e-02
-2.744972364742926003e-03
-1.403850974064753745e-02
-5.109564255154500079e-02
-8.105935303502566358e-02
-8.626634326235452233e-02
-6.456440272693773907e-02
-7.928721157018593993e-03
7.290840857846669909e-02
1.248432053781614454e-01
1.069790707155570952e-01
4.085719798141733416e-02
-3.111409894630786169e-02
-8.897853435132649369e-02
-1.143865967043429938e-01
-8.898224879709114299e-02
-5.094712990306683037e-02
-1.046425036714478396e-01
-2.702819325301970554e-01
-2.901184019459336350e-01
2.078299317952973790e-01
1.100713085671249480e+00
1.550738737919515220e+00
9.039522318515883503e-01
-3.108611079735551508e-01
-8.959780045087442080e-01
-4.419371034141042487e-01
3.300501758331760849e-01
6.367264183589412818e-01
4.538789709629327263e-01
1.943306174871842207e-01
6.255169475625592390e-02
-1.767869834870371831e-02
-1.076604774897135519e-01
-1.669066777057713613e-01
-1.795571769917450322e-01
-1.925661383361800816e-01
-2.356589016347627186e-01
-2.821132026792790293e-01
-2.978321240751364285e-01
-2.932370050809710582e-01
-2.990212458746160373e-01
-2.967962628440881656e-01
-2.183245336371815171e-01
-4.683399928656488409e-02
1.263392585827691206e-01
2.053243004664438431e-01
2.002737668967352058e-01
1.722409567433110522e-01
1.307372358907664400e-01
5.280959749490525545e-02
-4.304069692251721868e-02
-1.037224620753840615e-01
-1.101363026497377273e-01
-9.765108539235817231e-02
-1.042787784498030446e-01
-1.294291517727002572e-01
-1.514284833682653097e-01
-1.552270571557072543e-01
-1.353289689903815762e-01
-9.816746590983550791e-02
-6.386112774500096734e-02
-4.854486139671104761e-02
-5.086374452221833348e-02
-6.311092277994938271e-02
-7.928932558830489863e-02
-8.180694490206635860e-02
-4.595485008691450879e-02
5.587174211727016435e-03
-2.689227847596188312e-02
-1.980843582779368839e-01
-3.068053196269777683e-01
3.876364435150529003e-02
8.726861163827330792e-01
1.478794103526510195e+00
1.053009576409467352e+00
-1.594329334284945721e-01
-9.734311706271467912e-01
-6.834126957034170058e-01
1.810197287280848333e-01
6.815905464929524760e-01
5.347070850096244943e-01
1.285182234265012380e-01
-1.299971051913112186e-01
-1.762572006583901785e-01
-1.473539714503051545e-01
-1.421007600266629423e-01
-1.601340101226246260e-01
-1.726826010998610550e-01
-1.835204350768233628e-01
-2.172646327448449766e-01
-2.705065138276392944e-01
-2.976944707198408979e-01
-2.573038363979606169e-01
-1.721010643959910158e-01
-1.210070369607241791e-01
-1.382874684916821362e-01
-1.434594323061622601e-01
-3.338157001094130272e-02
1.667094030743267730e-01
3.093533868677468823e-01
2.816968140016822275e-01
1.146186035918245749e-01
-5.879104477227180270e-02
-1.290387142394726905e-01
-9.595907954893820313e-02
-4.064794356356747629e-02
-2.946064325985804644e-02
-6.064035060703675678e-02
-9.201867922565598601e-02
-9.382457754701134522e-02
-7.033486356016120655e-02
-4.598581847912515397e-02
-3.928799646717852367e-02
-4.731087658265830526e-02
-5.272048425530566351e-02
-4.714989546310641849e-02
-4.626822784395589333e-02
-6.897290979201313454e-02
-9.522722936482899692e-02
-7.981608404497006481e-02
-4.336390519810918998e-02
-9.221881836472824168e-02
-2.366271914882598637e-01
-2.069619609533325244e-01
3.176735084286336219e-01
1.123958001702963561e+00
1.383409632094140029e+00
5.896723370547622967e-01
-6.047191840177686961e-01
-1.036439554326340717e+00
-4.212591982653507983e-01
4.303093990853383288e-01
7.092511300005824859e-01
4.109428030222708750e-01
2.793602459807147109e-02
-1.247985476254744874e-01
-1.050265718405932885e-01
-8.777648901994537789e-02
-1.304517029349687718e-01
-1.805333083893299606e-01
-1.919827730298804269e-01
-1.710066017642866143e-01
-1.470885850525268657e-01
-1.460472286621622984e-01
-1.753548194430528673e-01
-2.154082560886751430e-01
-2.361564492149083871e-01
-2.159454808362839817e-01
-1.407034744433211804e-01
-1.546196856925412949e-02
1.232157891998826027e-01
2.354621175131546562e-01
3.013243039850944105e-01
2.985701187600092177e-01
2.081415901612188035e-01
6.639806697082130393e-02
-4.764190918919190137e-02
-9.768356945764840316e-02
-1.102416450584527141e-01
-1.108675452067996170e-01
-9.692078095671215199e-02
-7.107251099920189330e-02
-5.137436445244759203e-02
-4.234765461371180206e-02
-2.897331292415579115e-02
-5.546883996423748915e-03
8.274205169610244007e-03
-1.066780354285592342e-02
-5.275655149247748810e-02
-7.350686091131716782e-02
-4.117569359043433963e-02
2.091944284759256895e-02
4.064702484614916844e-02
-6.143520309594494716e-02
-2.709367333277324374e-01
-3.431369873347745458e-01
8.319807638120339799e-02
9.579016915703618684e-01
1.522999813849615247e+00
1.036991114953416337e+00
-1.735724306316792920e-01
-9.362270517310088414e-01
-6.138970939031190843e-01
2.454672448902882609e-01
7.373117808322857680e-01
5.970490237989901638e-01
2.004020330672680872e-01
-6.011115276885753422e-02
-1.202971623803788664e-01
-1.105203847924558641e-01
-1.250805332121480429e-01
-1.615014373975728057e-01
-1.865771840193115871e-01
-1.948830906795763485e-01
-2.024700399945514873e-01
-2.151860015543171356e-01
-2.272799064338374142e-01
-2.411860391773742451e-01
-2.646035665727612396e-01
-2.816952748551147523e-01
-2.446469675313231729e-01
-1.175161295485074170e-01
7.108165604588176367e-02
2.322141140571414297e-01
2.756628935919863133e-01
1.788241748406970699e-01
1.576405560191010413e-02
-1.013013446014857516e-01
-1.279969552835764635e-01
-1.116996938643079057e-01
-1.077261961620645386e-01
-1.161318616884176314e-01
-1.103742071354475024e-01
-8.454198485180121347e-02
-5.261143394128131590e-02
-2.684417538224779035e-02
-1.591504043646595201e-02
-2.815241965049155790e-02
-5.822740961937657861e-02
-8.616936268977562485e-02
-1.038366290279272158e-01
-1.158370661487247988e-01
-1.032314307117768171e-01
-3.655011911386412543e-02
3.821269912405343000e-02
-1.118196993093780248e-02
-2.060994860689516206e-01
-2.450901424346194346e-01
2.691829880031058608e-01
1.171477230100040456e+00
1.571462854659226194e+00
8.345009824878670823e-01
-4.393419755526576376e-01
-1.012075356260792480e+00
-4.921967566270905592e-01
3.518129448641047485e-01
6.800224723444522335e-01
4.322641372229757417e-01
6.610680737164290055e-02
-1.036693277410000447e-01
-1.107682065841950197e-01
-1.062525775794236210e-01
-1.484597939303748393e-01
-2.043025539439651539e-01
-2.334070868032065982e-01
-2.282894146571442795e-01
-2.055382115819509303e-01
-1.837300036472620801e-01
-1.750296369226697069e-01
-1.905027320533435320e-01
-2.314751812026573929e-01
-2.654951910714946073e-01
-2.318568473378225525e-01
-9.932826810452248523e-02
8.093521350983520768e-02
2.068563351015427487e-01
2.181031147916457635e-01
1.367607126266263962e-01
2.531678705132128088e-02
-6.242615898038265249e-02
-1.011708192401223616e-01
-9.714569758172660052e-02
-7.205917994114312275e-02
-4.326184458475183098e-02
-2.287897347430981054e-02
-1.777797072442202642e-02
-2.005118961457535987e-02
-1.503657151169781811e-02
-4.234783104241513635e-03
-4.214383360631698480e-03
-2.137590905560512317e-02
-4.398524289558771588e-02
-6.273831146658467861e-02
-8.173555318187494811e-02
-9.576931464306442932e-02
-7.528256804048553963e-02
-9.966863203989314440e-03
2.887841380290318699e-02
-6.854264143512608931e-02
-2.525990206362713764e-01
-1.922106997082453361e-01
4.008287505673866491e-01
1.189631129579190372e+00
1.303844726411650612e+00
3.924613283470750336e-01
-7.248768138593076893e-01
-9.593607841822314741e-01
-2.551004073003445560e-01
5.038418056539866186e-01
6.536583216803127927e-01
3.249801571178680959e-01
-1.288424273956601668e-02
-1.312907164410853644e-01
-1.060727761809069220e-01
-7.493834052039152760e-02
-8.271645733497462460e-02
-1.049917386515065026e-01
-1.277272619638122886e-01
-1.632056071131569863e-01
-2.032000878277858413e-01
-2.102522101678869770e-01
-1.798884457509047075e-01
-1.639666776761046774e-01
-1.933705765141407740e-01
-2.152598199719713279e-01
-1.474614748930924701e-01
2.195776465333542510e-02
2.108139181672504803e-01
3.090742812851809962e-01
2.630766266804784315e-01
1.131263767050441488e-01
-3.808939134244085367e-02
-1.088283236698409373e-01
-9.899843782060205322e-02
-6.152668368149240979e-02
-3.420545232682336428e-02
-2.274221644800049347e-02
-2.428641502348925438e-02
-3.684500733903416092e-02
-5.806058361674022728e-02
-8.886014154029769907e-02
-1.249620472725539583e-01
-1.437412472479340231e-01
-1.269886727044926000e-01
-9.780183628194109857e-02
-9.781068626119251985e-02
-1.227824557357843072e-01
-1.168320590938166093e-01
-4.486992738582011586e-02
3.886545096166892782e-02
9.273641383486123935e-03
-1.774805099493678984e-01
-2.889022595764029755e-01
7.353705070022933943e-02
8.976761791138763158e-01
1.433338487355846791e+00
9.498564137385447914e-01
-1.984437164710273760e-01
-8.648555861030157166e-01
-5.112808764397590577e-01
2.649359234441067135e-01
6.408822792452006922e-01
4.600776427899264664e-01
1.061230079711090318e-01
-9.467392536357835398e-02
-1.223670695358783644e-01
-1.032022680494900230e-01
-1.140271803108843240e-01
-1.483863154035001686e-01
-1.776963898634724148e-01
-1.931257660867443104e-01
-2.001674337626550004e-01
-2.040931858983843772e-01
-2.103940183699177235e-01
-2.247185045030716255e-01
-2.424770809683030326e-01
-2.447565404838731862e-01
-2.106689976591960001e-01
-1.345821833744169083e-01
-2.937588609578040827e-02
9.425430019113742452e-02
2.338000764858352010e-01
3.448422737178228337e-01
3.334975240800334140e-01
1.795456096510736343e-01
4.956611961091251378e-03
-6.642837747662548586e-02
-4.837506578950029335e-02
-3.114372027793314499e-02
-5.234731741055383136e-02
-8.196998701737852333e-02
-9.003800271120281085e-02
-7.861021318688608817e-02
-6.433400745286223243e-02
-6.266718700242121520e-02
-7.618149514217169294e-02
-8.510607790434743247e-02
-7.064852512708812149e-02
-4.668501534638815759e-02
-3.751881341699921796e-02
-3.079612785558545271e-02
-1.264709980792942667e-03
6.159729713411040385e-03
-1.054372696615608479e-01
-2.829666663896462375e-01
-1.892761683402743866e-01
4.704373657594784208e-01
1.349984659663164166e+00
1.538092778216464396e+00
6.321615536304433514e-01
-5.587384189382822441e-01
-8.960195242761130885e-01
-2.545070142892335574e-01
5.072827786641155301e-01
6.875176804285766385e-01
3.667031627536152527e-01
6.288052868100482695e-03
-1.439494217902102802e-01
-1.488679143892594481e-01
-1.470907562894788467e-01
-1.798877301354636082e-01
-2.140399427538315358e-01
-2.287927531614749876e-01
-2.426263256404032898e-01
-2.727657717903124168e-01
-2.967625200691353382e-01
-2.750980104008005633e-01
-2.128277456544729607e-01
-1.755073310620295646e-01
-2.177339221038899209e-01
-2.925365647685182480e-01
-2.685873897211061290e-01
-7.905801309350822537e-02
1.746149786941697535e-01
3.150075503054605153e-01
2.587696889525515909e-01
7.339364633462658327e-02
-9.673197069031819195e-02
-1.505608606744648081e-01
-1.022598518474271689e-01
-4.174597444781743411e-02
-3.309429636666670616e-02
-6.387160452758176843e-02
-8.363332741637298506e-02
-6.862054255428011451e-02
-3.630269530336800027e-02
-1.029863841970538561e-02
2.887269690044337242e-03
2.867523862097578514e-03
-1.409227979916594098e-02
-4.551720727044855641e-02
-7.701010295104522563e-02
-8.924236667964569047e-02
-6.355045548478222006e-02
1.876800323456750399e-04
4.230926116957858807e-02
-3.816077681521323067e-02
-2.184294281401499838e-01
-2.065781917039278270e-01
3.135317002686751064e-01
1.111169744123705616e+00
1.357736661029372405e+00
5.722552675450992554e-01
-5.800266523268881036e-01
-9.711524103897087867e-01
-3.635652318886679613e-01
4.399043501244898624e-01
6.840728144677707956e-01
3.955827921569501360e-01
4.464884261025090645e-02
-9.113258985772006160e-02
-7.372239719287025650e-02
-5.498822774020221960e-02
-8.269349149826141221e-02
-1.212587492204212775e-01
-1.464353840439111265e-01
-1.674315358952423172e-01
-1.851623073636789740e-01
-1.803907921336761200e-01
-1.546975447158456529e-01
-1.481937505033590619e-01
-1.867321607125272120e-01
-2.251922987493284178e-01
-1.772331244882534573e-01
-1.341083711947242164e-02
1.882561623678455642e-01
3.064827168023209203e-01
2.825910973199537435e-01
1.584902190541567224e-01
3.128109987070097631e-02
-2.631791751845096936e-02
-1.801744133141140042e-02
2.535480335860884789e-03
-2.072876327431790421e-04
-2.288654095479069825e-02
-4.924512898633653241e-02
-6.747755628169678499e-02
-7.476271006423947096e-02
-7.849769724758226541e-02
-8.232499081473314273e-02
-7.373164845511111232e-02
-4.535794923500166553e-02
-2.235501307174045382e-02
-3.935382284068387332e-02
-9.130906233159041818e-02
-1.306918162607824119e-01
-1.130615289617820790e-01
-5.152782476040070059e-02
-4.519809028028427128e-02
-1.896999447389917104e-01
-3.531555477505987639e-01
-1.391191602070646349e-01
6.285793819412393013e-01
1.377814635541993127e+00
1.224845414582532710e+00
1.460330571966401147e-01
-8.039074385877940099e-01
-7.458594781017126030e-01
3.339793415242048313e-02
6.274679648994123671e-01
6.029423408603169499e-01
2.328692017714528717e-01
-5.863928740947751267e-02
-1.373804107279381626e-01
-1.141111466350049342e-01
-1.125733493041076172e-01
-1.619394860843636486e-01
-2.265613363606143460e-01
-2.653024050567561742e-01
-2.668984294238780364e-01
-2.522363455960698886e-01
-2.461117902424602155e-01
-2.502678381420775366e-01
-2.537704580813670008e-01
-2.555621505782277869e-01
-2.485863231611920854e-01
-1.929298319678311446e-01
-4.990596099078475206e-02
1.464608991373497204e-01
2.879849294435083418e-01
2.835518008653175048e-01
1.437596430818303406e-01
-2.638899012676739278e-02
-1.178794244613780018e-01
-1.061566670853164723e-01
-5.127028505999249586e-02
-2.356969996325233158e-02
-4.328498148465206863e-02
-7.956213075614906871e-02
-9.403437698550251578e-02
-8.214947044790209263e-02
-6.374456371291126189e-02
-4.699923701278055366e-02
-2.996177235191003346e-02
-2.231833072308718469e-02
-3.484658406261689073e-02
-5.897491960346471634e-02
-7.408410780593147060e-02
-6.224690695442766653e-02
-1.708752890902978661e-02
2.696023301171566328e-02
-1.850446433003869254e-02
-1.823783415067164737e-01
-2.512153448591350480e-01
1.288158235003514229e-01
9.143106248278504156e-01
1.372885226176273621e+00
8.172993804372943316e-01
-3.690581925365128413e-01
-1.020956051410977450e+00
-5.940740549669294435e-01
2.757151882081798622e-01
7.004604951607581453e-01
4.974678609515224559e-01
7.640798750590371835e-02
-1.881304697512125312e-01
-2.268977218504142634e-01
-1.533417789309916013e-01
-9.321266316634381488e-02
-9.629179452941606654e-02
-1.335049088811429974e-01
-1.597431374976102658e-01
-1.623200947755901735e-01
-1.526939167712222656e-01
-1.439212441420809341e-01
-1.462986096279441650e-01
-1.678103596954240162e-01
-2.022189235638217342e-01
-2.127813920848613816e-01
-1.459529064344932403e-01
1.211020110782160680e-02
1.965022637542499784e-01
3.044741643089379224e-01
2.783877195744325905e-01
1.476145334213018467e-01
-3.089667236539500594e-05
-8.795231909442391416e-02
-9.672809587146304067e-02
-5.088057184623781537e-02
6.392255447457808985e-03
1.351178360773037240e-02
-7.949175833493631049e-02
-2.295557560245682083e-01
-2.990921013802529949e-01
-2.104415121440932901e-01
-5.245710836320630066e-02
3.473028521853797901e-02
1.785391441440507820e-02
-3.640870616191653475e-02
-6.293149272365958224e-02
-5.280989618031901173e-02
-3.183406460442455427e-02
-1.182514641432619480e-02
5.362907483075269113e-03
-2.206384412290365166e-02
-1.291538848890881885e-01
-1.745760671821020016e-01
1.419313840469241805e-01
8.321460856928188932e-01
1.273238499573376314e+00
7.863298849324195094e-01
-3.538662548471233071e-01
-1.033169180165501411e+00
-6.134297597345433894e-01
3.477612859573337989e-01
8.785954350262841217e-01
6.752895783032417665e-01
1.766052355793006901e-01
-1.277392201155268803e-01
-1.488423354417920397e-01
-7.020469837372822486e-02
-4.422284057035023863e-02
-7.989792644798678067e-02
-1.178927894919648695e-01
-1.293420098971343746e-01
-1.347603874960694170e-01
-1.590042184139618120e-01
-1.957339042045110333e-01
-2.160468993044004637e-01
-2.029880607243123025e-01
-1.707261038191398850e-01
-1.348812865686379869e-01
-7.342094538210811039e-02
4.513653299568529814e-02
1.971076494490918429e-01
3.038157356113231344e-01
3.049617486282100720e-01
2.230734000898230707e-01
1.402958657800096320e-01
1.015881662588901807e-01
7.431169996344860751e-02
2.052330424500733649e-02
-4.118252517454758233e-02
-7.019216521411589249e-02
-6.243877446587305785e-02
-5.086323524712105248e-02
-5.988306704694765226e-02
-7.928686711578949997e-02
-8.771005616163116136e-02
-8.166586942846250363e-02
-7.064393270764944555e-02
-6.342054809726162257e-02
-6.650019724921371611e-02
-7.937463599558226834e-02
-8.592622724241651133e-02
-6.420295840021869593e-02
-3.175226224696699184e-02
-7.660379804241444768e-02
-2.514426920538074817e-01
-3.656135531660761329e-01
-2.916621167414304439e-02
8.227313629804875461e-01
1.510413357402165868e+00
1.196881939707254983e+00
2.565526477119112192e-02
-8.687453872326513782e-01
-7.047730121855408925e-01
1.060539814883948717e-01
6.566126531230432883e-01
5.911532652899454954e-01
2.127425945745446967e-01
-8.911309336624938238e-02
-1.982156535377627427e-01
-1.896792682976051747e-01
-1.514264080157846359e-01
-1.283916336365363009e-01
-1.351809967087483910e-01
-1.662149753969399957e-01
-2.036001026073453457e-01
-2.316783761443841350e-01
-2.506249366581833060e-01
-2.726111239875618764e-01
-2.982441877368829375e-01
-2.983636470327675760e-01
-2.274671205305387189e-01
-6.961897138598335810e-02
1.212984721459284682e-01
2.498485212933785060e-01
2.640540902853802940e-01
1.893048176196500676e-01
8.124972552860752761e-02
-1.727623772947249961e-02
-8.321789818235693359e-02
-1.118021261313748571e-01
-1.060677692065557648e-01
-7.031701586116931302e-02
-3.405842666226940180e-02
-5.573090883349431091e-02
-1.466176529322283928e-01
-2.192930176671686604e-01
-1.888830473306662983e-01
-9.191303523661518982e-02
-2.773902221030237480e-02
-2.553758989657260725e-02
-3.683416553497600998e-02
-2.302803651861175596e-02
9.109820094657071488e-03
4.386084707318939346e-02
6.642683221564849028e-02
2.373941821151921011e-02
-1.344719752471185970e-01
-2.787932794946308412e-01
-6.423444080610513085e-02
6.469706767611201892e-01
1.309539091799346799e+00
1.097628979286226603e+00
9.702531215955351174e-03
-9.106879230732085606e-01
-7.934318182042952028e-01
5.376079397276875560e-02
6.828157768600271460e-01
6.424146557656085221e-01
2.319085501129380666e-01
-8.905554608725743670e-02
-1.706134168255008798e-01
-1.261575430619883420e-01
-8.934602517414610978e-02
-9.997175765675135606e-02
-1.352247367651239485e-01
-1.687693908170555812e-01
-1.909215485342445895e-01
-1.994629883966350103e-01
-1.944172087752329692e-01
-1.854787287812792451e-01
-1.893548228687829682e-01
-2.042275286271596768e-01
-1.921519566111739574e-01
-1.077323730310573435e-01
4.561271300713090615e-02
2.014755654132526774e-01
2.800305093790027566e-01
2.409350584959009667e-01
1.040145702627387758e-01
-5.312564052983334562e-02
-1.411927337849663011e-01
-1.346201161118703027e-01
-8.560073429553428925e-02
-5.485384540629661271e-02
-5.270291775486030117e-02
-5.357359378740251393e-02
-4.455813282205890041e-02
-4.081229296724910027e-02
-5.747995848573515809e-02
-8.765200309243662002e-02
-1.145571348665695433e-01
-1.298713342690244466e-01
-1.349532330247745215e-01
-1.326977446280755424e-01
-1.199902606987151704e-01
-8.488821019657115385e-02
-2.048020018193331612e-02
3.467956433236923236e-02
-1.622139469687105748e-02
-2.086547686292497539e-01
-3.253715276749887253e-01
1.489321309718832746e-02
8.148685284173733390e-01
1.360954980613828358e+00
9.176460298806122795e-01
-2.086696890088241829e-01
-8.787708569583190243e-01
-5.051551642504567008e-01
3.321857801747135630e-01
7.567463567788526024e-01
5.560696969206445628e-01
1.192829994519378628e-01
-1.680329363547091170e-01
-2.235495719639536694e-01
-1.634096157338072730e-01
-1.157377793692929840e-01
-1.283571829028115896e-01
-1.763693055137382781e-01
-2.156376042255847558e-01
-2.193079264204110812e-01
-1.854438702799553473e-01
-1.378297815887197242e-01
-1.194760677125989712e-01
-1.588090731251955434e-01
-2.240455446842543885e-01
-2.310655355533418054e-01
-1.216370342427372658e-01
7.112388864369122154e-02
2.413050332263015907e-01
2.893212550990911236e-01
1.943039003240651375e-01
2.814464006890019659e-02
-1.032155648082327543e-01
-1.440519868783572410e-01
-1.159305135570441181e-01
-7.070908395049638195e-02
-4.122724708266774923e-02
-3.723183906615080974e-02
-5.587588249421409498e-02
-8.039657264988125940e-02
-8.715888305951138837e-02
-6.913554383041350948e-02
-4.598953755695348034e-02
-4.042263035153775830e-02
-4.990819903197374341e-02
-5.554524994053346848e-02
-4.986044661663569660e-02
-3.533975015575446105e-02
-6.512379020270561703e-03
3.485542756317355773e-02
3.713892493761373342e-02
-8.368184159912105125e-02
-2.841763249882502951e-01
-2.471403141076882748e-01
3.552944042671158376e-01
1.250447470550634321e+00
1.537154095629940320e+00
7.220265265913188291e-01
-4.695248648673246983e-01
-8.731476797179423821e-01
-2.797073290560102010e-01
4.827684989250549119e-01
6.750638141135077985e-01
3.391138446872110634e-01
-5.544975519607065612e-02
-2.161905681554592284e-01
-1.867568113120702811e-01
-1.403707758854557397e-01
-1.670541271350881041e-01
-2.313438078607246429e-01
-2.642128488480073312e-01
-2.518222441590362570e-01
-2.293407063344154451e-01
-2.238547519070368530e-01
-2.324260825148727616e-01
-2.401948711175821982e-01
-2.338357446465761935e-01
-1.980366905893197194e-01
-1.160288584567010783e-01
1.277491201996262468e-02
1.528692531289136680e-01
2.403361050603866900e-01
2.267878749713541364e-01
1.257441451698935453e-01
8.453973824073972299e-03
-6.043306302772654542e-02
-7.652096553862146322e-02
-7.481219233692090742e-02
-7.759203552956342453e-02
-8.400349049603847429e-02
-9.128059720132444821e-02
-1.010268039862202705e-01
-1.102392955924807877e-01
-1.112400243623584556e-01
-1.015386294521852667e-01
-8.826581762259923247e-02
-7.958108683320805343e-02
-7.555772361110887902e-02
-7.281730740050060269e-02
-6.715235214881143389e-02
-4.427607162687613451e-02
3.524345047482920282e-03
2.696778119356240538e-02
-6.459015565405167025e-02
-2.367124476430720881e-01
-1.885478731137630315e-01
3.904974231559189546e-01
1.240290544653483096e+00
1.491083488007154623e+00
6.474817285685959822e-01
-5.840316850065349064e-01
-1.010793496743616515e+00
-3.771255949371024596e-01
4.709625659201900350e-01
7.314380844052330577e-01
4.277998690139463989e-01
6.036458003426842245e-02
-6.998394044203634645e-02
-3.107643941700439713e-02
5.249585589612380809e-03
-1.969361994703793667e-02
-7.005644313374700949e-02
-1.147009043828379482e-01
-1.518647151780230797e-01
-1.774559916411326543e-01
-1.768306622796940175e-01
-1.515856525852393721e-01
-1.299457786953145400e-01
-1.347993148529656460e-01
-1.485430988691380239e-01
-1.165477465305139043e-01
5.592313216161883330e-03
1.886439434283443684e-01
3.243672085690666451e-01
3.194811824838300063e-01
1.942892103079640054e-01
6.113436038992319660e-02
2.788748078172789170e-03
-1.420654060291965358e-03
-1.513790967137060642e-02
-5.200240856991506649e-02
-8.102014657557402022e-02
-8.548181998127393766e-02
-7.433464976514556066e-02
-6.019080393851891642e-02
-5.271952657339312731e-02
-5.703591123775293009e-02
-6.409346280890507175e-02
-5.750976602219731726e-02
-4.287540735528527075e-02
-6.217398658807739981e-02
-1.581638048931099938e-01
-3.001179764301832309e-01
-3.689074445644610623e-01
-2.987934654029608672e-01
-2.189494757848737816e-01
-2.794257136948014586e-01
-2.914460319413907929e-01
1.657461314744666514e-01
1.031352953760740654e+00
1.470221479512741514e+00
8.116914699240741493e-01
-4.042769248200766552e-01
-9.579754323828006957e-01
-4.419586796973615228e-01
3.901546702985007609e-01
7.025790509843841125e-01
4.351558054855098612e-01
5.105537085575433121e-02
-1.130819665918702255e-01
-6.829273176546968305e-02
1.495456001556185605e-02
1.690457571111159824e-02
-6.565617741472062896e-02
-1.631183872008024061e-01
-2.145395911662179855e-01
-2.157188057186005814e-01
-2.038164192235679129e-01
-2.099104566449795650e-01
-2.334611775064853734e-01
-2.603647803546321748e-01
-2.830004242473936338e-01
-2.828546002350857957e-01
-2.204110568209702581e-01
-7.860520869752891937e-02
9.605523209858705946e-02
2.153735636473814719e-01
2.109148567444783240e-01
9.293873498164689773e-02
-4.346511444854683770e-02
-1.050281737515372793e-01
-9.297836782330955174e-02
-7.405102676374045179e-02
-8.095542756495065218e-02
-9.073984344350934095e-02
-8.395024158396142966e-02
-7.313261463754469616e-02
-7.254857861080418746e-02
-7.783668155733670935e-02
-8.405801674954936631e-02
-9.441113651626047154e-02
-1.021576474628016762e-01
-9.488368989327396197e-02
-8.037659465027365002e-02
-7.129990279883105520e-02
-5.024227972839820366e-02
-2.647135440456163842e-03
1.031947127719558092e-02
-1.078784830625942603e-01
-2.827988977918667879e-01
-1.628851633265770427e-01
5.119393662248661325e-01
1.328102693342126495e+00
1.385180240966786380e+00
4.139203190940557997e-01
-6.813050252055189437e-01
-8.521036889681583570e-01
-1.358840906010865823e-01
5.722627886054436619e-01
6.608505703920527496e-01
2.924919857393770695e-01
-5.749343983477089859e-02
-1.633085987494831137e-01
-1.242959210930586200e-01
-1.062512068846854507e-01
-1.491897315163878135e-01
-1.996733950440563177e-01
-2.264278684696830468e-01
-2.449683026659934260e-01
-2.627918569787578429e-01
-2.617435521609501881e-01
-2.377465787159710464e-01
-2.173983033436666101e-01
-2.211552367990282375e-01
-2.269661277874834848e-01
-1.804758070766947220e-01
-4.578553416670571447e-02
1.489876309119277931e-01
3.189878586027439233e-01
3.778173647755062592e-01
2.966608146335217855e-01
1.295477859487037531e-01
-2.233842742086495151e-02
-8.955541216595355736e-02
-8.111663903659842301e-02
-5.627778955512717507e-02
-6.131815230680346535e-02
-9.098848363308773002e-02
-1.008385622985483038e-01
-5.880915347491873918e-02
1.414778303563747446e-02
6.333563460789315425e-02
5.768271966514634808e-02
1.621682266933593616e-02
-2.112393317727899802e-02
-3.807954820157836984e-02
-4.672451621557976303e-02
-4.847757653910268749e-02
-2.318647966611636982e-02
1.199642399608422463e-02
-2.735175643276941196e-02
-1.682265894422261820e-01
-2.029803066670239631e-01
1.862571732191994345e-01
9.091361318558668358e-01
1.247254584249168463e+00
6.134063470329099710e-01
-5.251704104945832396e-01
-1.050580184681289220e+00
-5.452259938641283998e-01
3.064799562909685249e-01
6.860868992496671481e-01
4.954229921343167309e-01
1.578192809381133432e-01
-1.247272146242977761e-02
-2.776641174872680751e-02
-2.243445004994396030e-02
-5.714862436004908286e-02
-1.110756871820191005e-01
-1.504741391317315768e-01
-1.618393505489890694e-01
-1.479841069922371299e-01
-1.222023147986302100e-01
-1.059741292008339608e-01
-1.211926284597076575e-01
-1.755290058558723609e-01
-2.434724496455676346e-01
-2.648737182246165833e-01
-1.836851036194136477e-01
-2.237534468548001837e-03
2.031924588000085241e-01
3.286481966960503320e-01
3.139804547020470515e-01
1.829945870439436684e-01
2.603014885015004012e-02
-6.748564668141759926e-02
-7.684919452657396066e-02
-5.184594269095789409e-02
-4.758902293137960704e-02
-6.661535474786613176e-02
-7.080291706485396241e-02
-4.018768948834706978e-02
-4.042111555231132913e-05
1.189343081747857439e-02
-1.333425422152515784e-02
-5.340526917674926627e-02
-8.242444138989915570e-02
-9.347221093612170795e-02
-9.498026846235421705e-02
-9.056813941202282447e-02
-6.780919560947855362e-02
-1.632645140062985445e-02
2.701611227355102396e-02
-2.828730420064428860e-02
-1.968712935706169453e-01
-2.390988356006089610e-01
2.004162002065211223e-01
1.030545261736482976e+00
1.473985983834634750e+00
8.751482190818735685e-01
-3.090396003688952731e-01
-9.067173599249906957e-01
-4.486201951431482149e-01
3.720577279870875831e-01
6.958567115785943002e-01
4.218878988837618804e-01
1.829000976994834410e-02
-1.640829037654150391e-01
-1.463362048310465346e-01
-9.924735542836381208e-02
-1.106909653979933628e-01
-1.609654495101631722e-01
-2.030477344259032368e-01
-2.189573580826602306e-01
-2.210884555674291763e-01
-2.243130032667970120e-01
-2.275883860178504470e-01
-2.269853864777508501e-01
-2.326096356267075282e-01
-2.456262708817726070e-01
-2.265705496030963328e-01
-1.272724781632588176e-01
4.040409910891325923e-02
1.957702071981657910e-01
2.518616352595765551e-01
1.821701736240967651e-01
4.175168536601296665e-02
-7.639274258283634822e-02
-1.185631528815807578e-01
-1.014417905618393567e-01
-7.096658894985057031e-02
-5.129975044154401476e-02
-3.832792326691641938e-02
-2.683614992563762569e-02
-2.751000491837293088e-02
-4.943314154309672720e-02
-7.778576665627953690e-02
-8.964041812104017737e-02
-8.302873274283006921e-02
-6.955370574583308318e-02
-5.471311099324923516e-02
-4.465758769639179004e-02
-4.562452312158882944e-02
-3.998273659272853081e-02
-9.081587507024611872e-03
-7.178640519810148071e-03
-1.243528658668011516e-01
-2.666025251145180963e-01
-7.104782989410465821e-02
6.658583439665105574e-01
1.437236626700779007e+00
1.356286730515652739e+00
3.050854701305278915e-01
-7.139156102265894477e-01
-7.540785650610534185e-01
-2.168182748348494726e-02
5.749395704274568031e-01
5.649393754292917347e-01
2.085368925162575937e-01
-7.015582080577134616e-02
-1.457594663962907544e-01
-1.370292696678543365e-01
-1.573662158384973864e-01
-2.113507058264326999e-01
-2.530352424449167081e-01
-2.634103344677892755e-01
-2.602835515405783617e-01
-2.619771990628841363e-01
-2.655797098096207010e-01
-2.615069333939402663e-01
-2.563899926515973982e-01
-2.650366788592748990e-01
-2.724835830603282161e-01
-2.235208019794292789e-01
-7.951786191205909016e-02
1.158310750842063697e-01
2.530068063744266849e-01
2.489549472732296986e-01
1.213164433426843214e-01
-2.895190162790734628e-02
-1.118043316680989441e-01
-1.212590465427742237e-01
-1.106504902841617399e-01
-1.136665357720472169e-01
-1.143254443074933624e-01
-9.074362535447519362e-02
-5.673223082296934006e-02
-4.266742857195492816e-02
-5.461184549022084223e-02
-7.219138444445431790e-02
-7.855740730906841940e-02
-7.741280997143568099e-02
-8.121335819652447663e-02
-9.054178942652969797e-02
-8.569364473218053779e-02
-4.268605694106315102e-02
2.592064965026145279e-02
4.450667342428543671e-02
-7.137927383870923403e-02
-2.647372874181513902e-01
-2.367337126865479424e-01
3.121419899224338601e-01
1.139420330475512388e+00
1.401065748379953124e+00
5.935135952023053996e-01
-6.089422862405818870e-01
-1.031406210315590322e+00
-4.095298965979972117e-01
4.317675731408973649e-01
7.059255978722318581e-01
4.295300746079790399e-01
7.470088190845064480e-02
-7.493422494654473909e-02
-6.974084381388748199e-02
-5.175269519750573533e-02
-7.167755518196951281e-02
-1.061136085579494764e-01
-1.330564127661941765e-01
-1.518929662587401586e-01
-1.683177011022426450e-01
-1.828824546374427928e-01
-1.863129783218669122e-01
-1.711310218516718940e-01
-1.532871054405660349e-01
-1.588029288482481205e-01
-1.703300595848778742e-01
-1.171552062314763637e-01
4.083746165929359739e-02
2.386536312615690769e-01
3.535750619019806806e-01
3.159521317243844662e-01
1.661615414462498386e-01
1.862778495206742629e-02
-4.117119880498511936e-02
-2.798683060342378737e-02
-1.170168243352815406e-02
-2.649002886858042513e-02
-5.211442208548260069e-02
-6.232161216647597035e-02
-6.194889733426510448e-02
-7.200547791355080274e-02
-8.977062259672434485e-02
-8.589194833340557667e-02
-4.950933144967626515e-02
-1.336894011641762137e-02
-1.497430655381244008e-02
-4.704191638485612920e-02
-6.352786029881553331e-02
-2.843890400204303337e-02
3.864557513612298240e-02
4.808737814634098107e-02
-9.279637412570841681e-02
-3.008504209723138478e-01
-2.203552308162926576e-01
4.378816323328409421e-01
1.303140675199167653e+00
1.456328360023593671e+00
5.342359710189374944e-01
-6.135763617135234771e-01
-8.730614768147031413e-01
-1.821615837904914381e-01
5.760743587044945269e-01
7.249653784916338939e-01
3.713401682043957486e-01
-1.782487837343393888e-02
-1.877605442841093486e-01
-1.872750938976289747e-01
-1.477842849719775975e-01
-1.335763970353102958e-01
-1.489832820143358327e-01
-1.797377165765158546e-01
-2.078861824131383595e-01
-2.301878499650120424e-01
-2.674980032425832155e-01
-3.238357135941473119e-01
-3.574787946171832376e-01
-3.380902412470789820e-01
-2.904042966709043383e-01
-2.312590112615197646e-01
-1.237266990257020194e-01
5.504643991237123668e-02
2.469656334278766407e-01
3.443595516573554893e-01
2.785496438113675977e-01
9.430550595004513759e-02
-7.043158309120063632e-02
-1.182395496006242580e-01
-8.366879310992582364e-02
-5.696991847611276860e-02
-6.590373038470395683e-02
-7.795633728600476209e-02
-7.592574368833096554e-02
-7.814943511908814533e-02
-9.421677142790411963e-02
-1.019915411172517133e-01
-8.231162666390566540e-02
-5.152506742377828408e-02
-4.038083659986538981e-02
-5.787180102495145806e-02
-9.076194841432498606e-02
-1.172162300367244059e-01
-1.074560958484283568e-01
-4.902789355285099016e-02
-4.886400028570795848e-03
-8.145806333095842455e-02
-2.207314174341430402e-01
-8.121024728579939733e-02
5.800311353714161511e-01
1.323637571953270031e+00
1.272537862664040009e+00
2.482322665763408154e-01
-7.892390597826444143e-01
-8.512913960324161033e-01
-7.565506152288349606e-02
6.177315289823696043e-01
6.730035934618319171e-01
3.067394972265180542e-01
-1.185647763443578584e-02
-9.749037679359633113e-02
-6.107405738445194354e-02
-4.652959061241700861e-02
-8.845547614449696117e-02
-1.529031681562185996e-01
-2.092250957741890460e-01
-2.448029150822262912e-01
-2.528735685105817921e-01
-2.346124078239925081e-01
-2.088579530404738593e-01
-2.047985136117869698e-01
-2.327617738547315962e-01
-2.578341912375610168e-01
-2.120939332855924508e-01
-5.654041993149233614e-02
1.575975718274012782e-01
3.126607793537088953e-01
3.251626427695171184e-01
2.084933182969890275e-01
4.818786957807201510e-02
-6.145573228876771710e-02
-8.014073621335758568e-02
-4.597765425478413104e-02
-2.731070058931104466e-02
-5.039680257570280930e-02
-8.601727850558314736e-02
-9.610842778359741934e-02
-7.494643667064714021e-02
-4.597724081953621922e-02
-3.266468205387697971e-02
-4.029715205063783001e-02
-5.821339169906360189e-02
-6.882558040013396494e-02
-6.180428521641384565e-02
-4.858741193204384884e-02
-4.724613881600583931e-02
-4.645634573458630456e-02
-2.278003876433471950e-02
-1.508454253040207235e-02
-1.104421715965613476e-01
-2.586725392672244994e-01
-1.558304850634550376e-01
4.422288364441424036e-01
1.181736630003290989e+00
1.233755684125407370e+00
3.100430524049872516e-01
-7.560782419084848271e-01
-9.223970748344009207e-01
-1.797399494052617785e-01
5.811504633608983728e-01
7.105734973717398040e-01
3.534277204318056476e-01
-4.559262835119148871e-03
-1.252084385026584756e-01
-9.682467679764009127e-02
-7.889321417297572026e-02
-1.180747540693681819e-01
-1.640787218862574115e-01
-1.740932612632488663e-01
-1.625479173272113831e-01
-1.577373009457633812e-01
-1.544192930457939927e-01
-1.367701428592320578e-01
-1.155721321392126633e-01
-1.140989444032082523e-01
-1.320207039309223007e-01
-1.303805868340103535e-01
-5.554763132497823885e-02
1.011964952894601061e-01
2.676829315720151148e-01
3.342154167222531891e-01
2.485929916790557692e-01
7.452545790157828753e-02
-6.519633592150118895e-02
-1.148320102115024943e-01
-1.212080551979523857e-01
-1.409657821791333310e-01
-1.649842790442912488e-01
-1.523211533309787868e-01
-1.011140708674194283e-01
-5.598689423132116594e-02
-5.198466087445016703e-02
-7.410672588489565504e-02
-8.484347494718363913e-02
-7.730933474204872147e-02
-7.609516701163342167e-02
-9.389419565842491155e-02
-1.168241189267369418e-01
-1.232003604525200302e-01
-9.089726290102376205e-02
-1.912795070792875501e-02
1.565153112370830379e-02
-9.926585311843941217e-02
-2.907486899770217459e-01
-1.871639431996680591e-01
4.876246895521337277e-01
1.320343008990158662e+00
1.407096494334046044e+00
4.703291419989986677e-01
-6.018390865600027340e-01
-7.710681537501986593e-01
-7.319597129157325022e-02
6.022402309912679996e-01
6.588345497192099609e-01
2.816652629707389055e-01
-5.707184766717558061e-02
-1.653055030598530040e-01
-1.562400917201770545e-01
-1.675442830812249317e-01
-2.122005293349107924e-01
-2.432071759284984702e-01
-2.488100030307057453e-01
-2.522026532348860539e-01
-2.628954830801005782e-01
-2.679262811527737265e-01
-2.603239293341766958e-01
-2.507373592103204762e-01
-2.503459094755543513e-01
-2.498583978064745637e-01
-2.141511351139711583e-01
-1.073634565173919309e-01
6.316945857272142362e-02
2.344954959433394048e-01
3.251008000560345335e-01
2.865087038880444470e-01
1.434307730533243286e-01
-9.821628021270199793e-03
-8.790505940942569540e-02
-9.267884381490011647e-02
-8.267851176724551332e-02
-8.519415233607058324e-02
-8.102386907782878345e-02
-5.785705573505436211e-02
-3.483250896428827237e-02
-3.292279072955172498e-02
-4.604691767145600162e-02
-5.153704509095855674e-02
-3.999849521509526301e-02
-2.503671102623196421e-02
-2.627384420515234409e-02
-4.747620191618749652e-02
-6.384662684045092074e-02
-3.573876703299919133e-02
3.024044637784050957e-02
3.548244746048982712e-02
-1.072855053884746723e-01
-2.535672593847130840e-01
-2.510256614532947392e-02
7.117632183670298263e-01
1.374749370528890458e+00
1.129223134728732481e+00
1.845343634410551159e-02
-8.820512456449256522e-01
-7.401328017279040772e-01
8.641150636971048349e-02
6.646617266528754842e-01
5.953926896238691535e-01
1.943047161963288028e-01
-1.063732566490125653e-01
-1.831612339957405244e-01
-1.455817771583577946e-01
-1.053932115299491407e-01
-9.301979503254986792e-02
-1.007156403268192058e-01
-1.236631765649568726e-01
-1.582101949706007371e-01
-1.931902649968298136e-01
-2.170560179754831009e-01
-2.271261233880801644e-01
-2.315280278033409189e-01
-2.404940432815864948e-01
-2.406030339058811973e-01
-1.849946633348707736e-01
-4.193680174012971718e-02
1.455468224239586938e-01
2.770654826407498716e-01
2.784560913674968274e-01
1.625783252017597991e-01
1.751952640352668830e-02
-6.592066542821085895e-02
-6.986995815834762258e-02
-4.809667383331511781e-02
-4.852740667137433322e-02
-6.681474615164889608e-02
-8.302232349052406091e-02
-9.940699771815962593e-02
-1.182599730550727979e-01
-1.192968740080546930e-01
-8.977033582209857643e-02
-5.450818360513551980e-02
-4.578383035042155047e-02
-5.880383313773655113e-02
-6.696865507168789367e-02
-6.058274565239202269e-02
-3.886110193476378233e-02
6.544491447572345008e-03
5.765593201288755215e-02
3.741613959179256044e-02
-1.168203604381887473e-01
-2.789160604694203016e-01
-1.045213380675752007e-01
5.796649668439166625e-01
1.294197471538226063e+00
1.205745682269655505e+00
1.899869867434739734e-01
-8.013814296880666932e-01
-8.262868520578376952e-01
-5.304736457943372285e-02
6.029488289297157966e-01
6.177108395793403650e-01
2.371689628041827036e-01
-7.089910396289567096e-02
-1.384439151999899142e-01
-8.095618920105722427e-02
-4.299623608938318853e-02
-6.838382312491175785e-02
-1.229527989429725909e-01
-1.624714295608464532e-01
-1.751304037891080467e-01
-1.739253005872273827e-01
-1.689771720924414800e-01
-1.648225200512670185e-01
-1.714028596931053972e-01
-1.941601101551748143e-01
-2.122947986040622237e-01
-1.802969671049518274e-01
-6.476644950967822001e-02
1.114977347567622512e-01
2.643194381059877363e-01
3.035968855012936007e-01
2.118573796031847367e-01
6.322911670093914194e-02
-4.767391589355741977e-02
-8.648571676499784699e-02
-8.393304085166643225e-02
-8.385312739680465810e-02
-1.022174582411199406e-01
-1.219349857369888546e-01
-1.167000567040134551e-01
-8.610925900474228345e-02
-5.871376293904514987e-02
-5.169583581361612834e-02
-5.054084753664586649e-02
-4.185943223485062009e-02
-4.022352876082618822e-02
-6.557377621023684211e-02
-1.078887404902670044e-01
-1.253865367782873164e-01
-8.402765861743173581e-02
-1.786740541086790160e-02
-4.121649515456434626e-02
-2.098412601244890874e-01
-3.018275860132159649e-01
9.070551161050233180e-02
9.672947183695740359e-01
1.556387023614090426e+00
1.070749741377571063e+00
-1.620279155903363577e-01
-9.306299343015628223e-01
-5.979226089287026369e-01
2.495942589353810914e-01
7.020876117278161965e-01
5.358763702419745423e-01
1.570701268519802962e-01
-5.630048776900792307e-02
-7.880850085531128368e-02
-6.328255808449682884e-02
-9.620367438539895177e-02
-1.591858581935646777e-01
-2.110072516236826956e-01
-2.382301019893469096e-01
-2.483354735210465958e-01
-2.492898929225008109e-01
-2.453117490305594672e-01
-2.422650359066468584e-01
-2.470071758105043258e-01
-2.566190221985892306e-01
-2.408123623474744956e-01
-1.498033689553141534e-01
2.736106001833871204e-02
2.189905307484966701e-01
3.160413096110927245e-01
2.645638069061994058e-01
1.117764321331982252e-01
-3.368412933557983491e-02
-9.505897611433614114e-02
-8.455216253087211031e-02
-6.617253110075542455e-02
-8.033124539865180158e-02
-1.144483150963765405e-01
-1.277353920639260898e-01
-9.733869505757196394e-02
-5.218859152447254124e-02
-5.123963844739973933e-02
-1.081988932845307644e-01
-1.569683308647694675e-01
-1.265298391186122084e-01
-3.652663999227902941e-02
2.236281376629309370e-02
2.440540013609654793e-03
-4.378562460016093699e-02
-4.410496978031821363e-02
-2.871167601524957438e-02
-1.055993381438041362e-01
-2.382813145511876451e-01
-1.132551342970615216e-01
5.121002894027343322e-01
1.240966732679171125e+00
1.219826275841625174e+00
2.210785573516375058e-01
-8.511083954074896152e-01
-9.823365900998939360e-01
-2.383400673386327773e-01
4.871793121286843165e-01
6.035477777591278237e-01
2.795380917224036255e-01
-3.555142143870788918e-02
-1.390253802019258966e-01
-1.106697890864443840e-01
-8.340883480029395725e-02
-1.047258828103645734e-01
-1.530948088401477281e-01
-1.953359675318996902e-01
-2.030542784898469733e-01
-1.526437982772446134e-01
-6.099694140246811336e-02
-1.862934907329675052e-03
-2.997452358746349049e-02
-1.121309659838820999e-01
-1.705910340143956816e-01
-1.495068084614010473e-01
-3.089410911648742680e-02
1.495393603742389277e-01
3.018585203809907580e-01
3.429286702974853052e-01
2.580278411149518059e-01
1.013642481111008409e-01
-4.357126597848314659e-02
-1.119690007560662365e-01
-9.298490959175657877e-02
-3.080411474442178166e-02
9.368136451884534130e-03
-9.002143268128138393e-03
-6.283874022112061197e-02
-9.616406208167979641e-02
-8.493528581431801505e-02
-5.587149074965528511e-02
-3.773316200074100513e-02
-2.742529476876141500e-02
-1.588172631653683720e-02
-1.708591657501181207e-02
-4.677620398542709640e-02
-8.086776427993559724e-02
-6.926966495301786764e-02
-2.154620140232438308e-02
-4.888379189588235724e-02
-2.149128023210494232e-01
-2.983660608103547718e-01
1.022716787296022029e-01
9.655703452353509020e-01
1.516573690563587373e+00
1.005224023457970794e+00
-2.061592998882840200e-01
-9.268686663168628215e-01
-5.703355308289340675e-01
2.621571805179549464e-01
6.887470402715288875e-01
5.079620178629269400e-01
1.180182116031707890e-01
-1.132058345565119667e-01
-1.459961424186886070e-01
-1.159443458010252226e-01
-1.218455685178444770e-01
-1.729518919309564196e-01
-2.278723896931526549e-01
-2.394059781159736944e-01
-2.016938467635805143e-01
-1.654840823800898808e-01
-1.756142815432569226e-01
-2.149567525113914024e-01
-2.466758346053289919e-01
-2.649655468789656187e-01
-2.650996994113911653e-01
-2.128070824334293842e-01
-8.242189445323086505e-02
9.413917201320601280e-02
2.347057396061122403e-01
2.645485604759900689e-01
1.766345646265692904e-01
4.044381769033379703e-02
-6.035838236401000478e-02
-9.749714438128329053e-02
-9.434360088874446659e-02
-7.703300429008465289e-02
-5.872770758811876601e-02
-4.955208230304059686e-02
-5.544791408548961631e-02
-7.761412423595127896e-02
-1.086920479865876726e-01
-1.220913823548022831e-01
-9.613430790014636240e-02
-5.528745603632170824e-02
-5.047782861998642567e-02
-9.329708037035629176e-02
-1.331894720362054585e-01
-1.050794592720555726e-01
-8.454437876271848895e-03
4.770651021615820997e-02
-6.752206025664139744e-02
-2.742101934574754374e-01
-1.857222919225907098e-01
4.838992337599062887e-01
1.314686033909150176e+00
1.384793544600477766e+00
4.129758080119174668e-01
-6.982215920380675511e-01
-8.979876052852592272e-01
-2.115638072082420829e-01
4.887627672500552967e-01
6.068402892533231174e-01
2.892218304257759831e-01
-3.486065587423113621e-02
-1.695276838761885785e-01
-1.825529742081183349e-01
-1.770574692234075931e-01
-1.760027039778565838e-01
-1.692370205791279558e-01
-1.681042956256954546e-01
-1.869082335655989080e-01
-2.133531377422960007e-01
-2.289274747888947470e-01
-2.361587302331110971e-01
-2.453167127224947786e-01
-2.546507561789222440e-01
-2.485024748293023222e-01
-1.951340745538112931e-01
-6.639818048810940121e-02
1.128886976430369810e-01
2.624295724870426838e-01
3.109288793296724474e-01
2.434085887825971906e-01
1.025821743142022319e-01
-3.243297300951610007e-02
-9.982736035943109987e-02
-1.042726884923924485e-01
-9.199194104745117562e-02
-8.810891526882549951e-02
-8.345578834639436061e-02
-6.496874789577679332e-02
-3.418655343443444128e-02
-6.683595374702562021e-03
-2.934015231942861939e-03
-2.745490949559996341e-02
-5.524743131967751325e-02
-5.557204485427303525e-02
-3.461571050357455104e-02
-3.066797208184498039e-02
-5.062889916972859033e-02
-4.403328810595804471e-02
2.135914574915940417e-02
7.387979428637021784e-02
-7.590582664511760953e-03
-1.820153609268496675e-01
-1.266409596070225130e-01
4.407161563810690907e-01
1.191059354870193765e+00
1.278054460167135753e+00
3.736417063960143503e-01
-7.092613999182512119e-01
-9.199567396950930620e-01
-2.248062148882119249e-01
5.149355261900040448e-01
6.628089045882592512e-01
3.453819379883896201e-01
1.882350673021133264e-02
-9.335495924141928858e-02
-7.578693435977844339e-02
-6.696372208979664564e-02
-8.837416985165734429e-02
-9.623303795956364426e-02
-8.630161214371495637e-02
-8.928870452110701517e-02
-1.100592027359318659e-01
-1.288364806413854757e-01
-1.442460494111728331e-01
-1.722978346193947963e-01
-2.053895698495342148e-01
-1.983617304288435579e-01
-1.074609901375610105e-01
5.844096000495259402e-02
2.334176207288110871e-01
3.365104760047616939e-01
3.127066984631328150e-01
1.694962468928059296e-01
-1.413026064906015844e-03
-8.658658913050981676e-02
-6.488288949901499514e-02
-2.049165181034111674e-02
-2.698112561910477603e-02
-5.888278524793705282e-02
-5.019949429328797452e-02
-1.771120205200580819e-02
-6.111865581928299651e-02
-2.079539555904500181e-01
-3.307442342955602133e-01
-3.015277602289547776e-01
-1.645561063060842488e-01
-6.221609540037327524e-02
-5.202021605560547268e-02
-7.689587157619792723e-02
-6.683554186250637019e-02
-1.466325744578834619e-02
1.351725382576578031e-02
-7.697928973517177698e-02
-2.658849922815740840e-01
-2.715826106314502830e-01
2.451681225409209075e-01
1.101554395427937427e+00
1.465913530160192879e+00
7.800994347841261334e-01
-3.586031283670614855e-01
-8.083792881738401936e-01
-2.678083910432637049e-01
4.997329008445128284e-01
7.279620390137597763e-01
4.137045357785444355e-01
2.099336380927203233e-02
-1.516666766862941051e-01
-1.482358905003332561e-01
-1.237548451776994546e-01
-1.424124463039728172e-01
-1.779626147956467896e-01
-1.982159341341216685e-01
-2.091153399248525946e-01
-2.349929889740961508e-01
-2.753085774744106762e-01
-3.002881795655697461e-01
-2.948970620280573773e-01
-2.777418062341261429e-01
-2.540225019805769091e-01
-1.814632512762107963e-01
-2.453881788303115957e-02
1.722626146193066976e-01
3.015669902099161748e-01
2.861946868718732162e-01
1.494694861523903628e-01
-1.040734504897832674e-02
-1.227002326060144671e-01
-1.965526322214945221e-01
-2.524250885234939901e-01
-2.609337423124994948e-01
-2.031926372958915983e-01
-1.310850124434272401e-01
-1.036888992373845020e-01
-1.117811132329646628e-01
-1.131326058184085881e-01
-1.004712612704691393e-01
-9.437197855863850571e-02
-9.607910523512454282e-02
-8.542331690828935953e-02
-5.913155718139677386e-02
-3.812265329914789336e-02
-2.799662562941146113e-02
-1.181916967169685875e-02
-1.750318034773420267e-02
-1.292440064527730914e-01
-3.034780065105422975e-01
-2.082145036181817233e-01
4.599321513434184716e-01
1.349341626637034608e+00
1.532539358762587067e+00
6.111421832562249357e-01
-5.899919192189161388e-01
-9.364073299515235371e-01
-3.188852884207341032e-01
4.118139230503875536e-01
5.852594477288473040e-01
2.922074255567199130e-01
-3.525570305916383290e-02
-1.729444769143224092e-01
-1.715677721708735448e-01
-1.421933489765891956e-01
-1.281949356154162556e-01
-1.287223546984558598e-01
-1.484460853205421260e-01
-1.928149076354232216e-01
-2.402236964048076184e-01
-2.548425395987998776e-01
-2.334967065864378688e-01
-2.147414385324011854e-01
-2.239530767281927015e-01
-2.240861046686438707e-01
-1.471368773587762024e-01
1.830763646267001554e-02
1.941924177533765616e-01
2.846233235242671133e-01
2.572506887272077436e-01
1.488413041753235411e-01
2.886866688464862288e-02
-4.187521844111020269e-02
-5.078408325476901908e-02
-3.164443801245689358e-02
-1.743041081731194417e-02
-1.189499613453051489e-02
-8.057782700231988157e-03
-1.181161852806774173e-02
-3.405855396185764744e-02
-6.738708696629487627e-02
-8.698880091624186517e-02
-7.859047473252889215e-02
-5.604557044669791765e-02
-4.881910789701229825e-02
-6.819588463079365170e-02
-7.211426977424448270e-02
1.482773554503139489e-02
1.931626848463226243e-01
3.181833507938512384e-01
2.229719861294273964e-01
-5.703795448063626872e-02
-2.070358756373167908e-01
1.298307949315731791e-01
8.622538340921768185e-01
1.265710826737395989e+00
6.958655471743130372e-01
-4.674974164744942762e-01
-1.094729425903271824e+00
-6.419178160763271412e-01
2.722492345940715208e-01
7.401749517398703571e-01
5.563982949654983079e-01
1.574471103482694145e-01
-6.032773567684227012e-02
-7.595201919633864929e-02
-5.169340997969763818e-02
-7.385769894604445052e-02
-1.183907302230768621e-01
-1.447952898129165611e-01
-1.504535529869746868e-01
-1.558157888534141278e-01
-1.702416389063097502e-01
-1.821235373922751033e-01
-1.850707889994806232e-01
-1.950751538302101240e-01
-2.104210206671707772e-01
-1.726620819603294776e-01
-2.337094241444035922e-02
1.943229954935487835e-01
3.381178192007722183e-01
2.979984052533157235e-01
1.157790745845818925e-01
-4.620868737840042040e-02
-6.708024414485103115e-02
1.667862242846092011e-02
7.646661140596838768e-02
4.599665580265282355e-02
-2.927479607231409445e-02
-7.605883844889954615e-02
-7.617633926425594615e-02
-6.140331079082978621e-02
-5.791435535796546352e-02
-5.828544738152292848e-02
-4.680123280142976794e-02
-3.124969212757779807e-02
-3.189407867446539951e-02
-4.905575310618340290e-02
-6.041019020648909221e-02
-4.471702569989792486e-02
5.304323441840523047e-04
4.162695320402558935e-02
-8.394827187989753210e-04
-1.668932768100279684e-01
-2.789496506422668998e-01
2.503057516011819583e-02
7.986425499387207472e-01
1.388499976302234540e+00
1.023511512521424471e+00
-9.667987565782421022e-02
-8.656282800405197264e-01
-6.010493844812792030e-01
2.156400229746215369e-01
6.911108844903529613e-01
5.334686961515440196e-01
1.105618915975284389e-01
-1.603808018431541749e-01
-2.017265041653336644e-01
-1.649054987169867315e-01
-1.683772933957674023e-01
-2.134673012882001841e-01
-2.610011944208638912e-01
-2.932094632920673738e-01
-3.038185776132115712e-01
-2.843831487776639078e-01
-2.428043045125321819e-01
-2.150704658295679028e-01
-2.340739146791064595e-01
-2.770797795196206503e-01
-2.614314619823355779e-01
-1.243356436282788274e-01
9.117007030139923085e-02
2.535714488384196441e-01
2.527609202971967672e-01
9.479350136391770376e-02
-9.971511201593147300e-02
-1.985653851812602122e-01
-1.736003293253414737e-01
-1.030625040540238957e-01
-6.476757643955063926e-02
-6.553666201372743139e-02
-7.547647373121177394e-02
-8.213218417903361823e-02
-9.190748016175541435e-02
-1.055677211411798627e-01
-1.131469579575760248e-01
-1.070859815803618109e-01
-8.982020505670491872e-02
-7.125774217776009722e-02
-6.339695612601348174e-02
-6.893326364376664572e-02
-6.865933378493324635e-02
-3.912115875584825514e-02
-1.127070120822298155e-02
-8.331972517423541502e-02
-2.686368369370412124e-01
-2.999656730532344606e-01
1.927376098576606411e-01
1.069500100891625172e+00
1.487409193644083194e+00
8.137618286070178453e-01
-4.050442455644974737e-01
-9.798341509742268807e-01
-5.094210177800572170e-01
2.897318601282086736e-01
6.120451323438192981e-01
3.884994740402387681e-01
5.053310563315892290e-02
-1.074735789247474732e-01
-1.298773572220409955e-01
-1.527399596535782278e-01
-1.795066631477401919e-01
-1.290760248319804682e-01
-1.348652740472207692e-02
3.197430223940875282e-02
-7.114042969814617090e-02
-2.254291074129652073e-01
-2.928710018150583738e-01
-2.674449006492278791e-01
-2.408580062898691698e-01
-2.511691826012218964e-01
-2.229395762821968219e-01
-6.362277572105201617e-02
1.910661016423245429e-01
3.697150072921338571e-01
3.370389626840936126e-01
1.377908518028311824e-01
-5.524149338431665057e-02
-1.041471148306680056e-01
-2.049681970930698066e-02
6.279373891209918956e-02
4.819735191497741961e-02
-2.718308073947316161e-02
-7.634495734950214052e-02
-7.865303498880751865e-02
-6.816612154736363671e-02
-6.551449861030629596e-02
-6.493843130611652581e-02
-5.879309748061468943e-02
-4.792479560384497322e-02
-3.770831550153166262e-02
-3.169011617271751124e-02
-2.908497581408091628e-02
-2.678315667011764087e-02
-1.509445690266245262e-02
1.258988897954257426e-02
1.628162395275640356e-02
-8.077965526707674149e-02
-2.356873046472414968e-01
-1.630457332866258602e-01
3.932955964804468185e-01
1.128277973349296914e+00
1.234011157183306784e+00
3.689743080773277284e-01
-6.968867309953800104e-01
-9.092236363258500154e-01
-1.981999932467350956e-01
5.723333309300012717e-01
7.284224154991448819e-01
3.813939135429629257e-01
1.042583053814000876e-02
-1.246244549270264235e-01
-8.890876608721437480e-02
-4.344229458371862140e-02
-6.163079427653334746e-02
-1.189876107584096759e-01
-1.647254220751908915e-01
-1.682366045314991065e-01
-1.270014280314026023e-01
-7.472023112375668352e-02
-7.107594832212270342e-02
-1.386276842059999403e-01
-2.191019537099602454e-01
-2.242458689123222604e-01
-1.169168760883481095e-01
6.583005301765683381e-02
2.478102151264513220e-01
3.605855793593932268e-01
3.601641811147966443e-01
2.347362786677680835e-01
4.192368680897969047e-02
-9.773745905367479947e-02
-1.111937477067829194e-01
-5.245192822088007301e-02
-2.236636057802469588e-02
-4.451596505335977255e-02
-7.053188313922595376e-02
-7.228087933304065682e-02
-7.045411362600020877e-02
-8.719914279784038436e-02
-1.137226166722789672e-01
-1.223762364626651139e-01
-9.460682135543968529e-02
-4.587230213721030930e-02
-2.244839585469723953e-02
-5.164465190155171498e-02
-9.591699275431356253e-02
-8.793900597526269070e-02
-3.168768653218996534e-02
-3.783771656305773279e-02
-1.743301381448759402e-01
-2.445611501114353104e-01
1.239460806384656000e-01
9.302394990949416353e-01
1.466413553498888245e+00
1.004659691350490824e+00
-1.546254295914596399e-01
-8.774402373613500172e-01
-5.580139353157158588e-01
2.468256052404196321e-01
6.631617124124146168e-01
4.749848153153810593e-01
7.663037475640038787e-02
-1.567573253155929436e-01
-1.845402043954648685e-01
-1.515750060354459638e-01
-1.568393355214288687e-01
-1.952631079501867262e-01
-2.302428778906282780e-01
-2.508127578647705302e-01
-2.620177957530840374e-01
-2.650532240201141643e-01
-2.638025944625362329e-01
-2.685356945523560412e-01
-2.816779220913157578e-01
-2.874782099094796428e-01
-2.538589105289785763e-01
-1.503285751011464999e-01
1.075019176907509623e-02
1.520776315987240612e-01
1.832045508314340820e-01
8.826226758016221530e-02
-4.941590976329618412e-02
-1.226845325506001061e-01
-1.015386410158679587e-01
-4.731659043871198206e-02
-2.905111199733922955e-02
-5.227550644438806043e-02
-7.898633812949934496e-02
-8.902690550158275096e-02
-9.440446419357008401e-02
-1.040170037874347531e-01
-1.062354408792651611e-01
-9.176155807660278663e-02
-7.133102009560300660e-02
-6.291924459132118563e-02
-7.272215999647563267e-02
-8.865375061737679196e-02
-8.275427696228533636e-02
-3.107961137802153079e-02
3.803187876154330571e-02
2.392087072047400370e-02
-1.274577501777637012e-01
-2.185274709931734338e-01
1.299617536943313834e-01
9.340484820007680655e-01
1.481289785019041405e+00
1.008975763556903438e+00
-2.021048165098643101e-01
-9.871860127182106037e-01
-6.887118965213326893e-01
1.549732317880403165e-01
6.415080489219766591e-01
5.153314556659058798e-01
1.560754463459078645e-01
-5.619956070387985281e-02
-8.230713451286389426e-02
-7.427378319116823002e-02
-1.181479233382953659e-01
-1.749084307507054181e-01
-1.905223201542626255e-01
-1.769197560396951752e-01
-1.778321444442053645e-01
-2.060929025670963644e-01
-2.369750853152565728e-01
-2.456575308070449160e-01
-2.349757790219497156e-01
-2.197059309309769282e-01
-1.873982123065563721e-01
-9.661385098809646688e-02
6.480534896399134381e-02
2.337903327791453489e-01
3.130414237097502994e-01
2.570604010284218699e-01
1.128739957950162520e-01
-1.672368743530783936e-02
-5.925785455447299399e-02
-2.903272711058636074e-02
7.911686824474040494e-03
1.134540690714111108e-02
-7.038214591479072420e-03
-2.038284500302088229e-02
-2.253724887370547880e-02
-2.276239333460870762e-02
-2.589236404424950094e-02
-2.926379358028993738e-02
-2.586028102506057053e-02
-7.720308559962925365e-03
1.797533968289473372e-02
2.260952728278458473e-02
-6.799671376110349649e-03
-3.085492153899054013e-02
-3.415326642344445641e-03
3.165729229913155640e-02
-4.915974924441714883e-02
-2.472458159236829434e-01
-2.620713250484030254e-01
2.587435064074747326e-01
1.102494817147664952e+00
1.407687758142777801e+00
6.399543606532998030e-01
-5.490785557417126039e-01
-9.926033588135400043e-01
-4.059572769843169393e-01
4.257178230930251939e-01
7.302873717744593485e-01
4.882245932363294405e-01
1.219683474491207037e-01
-8.815564188488508868e-02
-1.399362836529472465e-01
-1.258393801970401626e-01
-1.075371739011571903e-01
-1.140455776176390046e-01
-1.499926255384253782e-01
-1.911166143145886509e-01
-2.078331500028038625e-01
-1.957372088441428903e-01
-1.733123946938964766e-01
-1.624180602803365070e-01
-1.712416038935585250e-01
-1.784675291071678160e-01
-1.366443917505741346e-01
-1.347567421450421125e-02
1.605196859410315258e-01
3.011540155645488492e-01
3.355028799684243168e-01
2.504257131160629313e-01
9.826811706439285421e-02
-2.896054389318879208e-02
-6.768556706795061939e-02
-3.863853859911157984e-02
-6.827276048274693449e-03
-3.759931379843372678e-03
-2.220675560512596139e-02
-5.473865719680610226e-02
-9.693399216802296714e-02
-1.316081240178578471e-01
-1.376403285522535269e-01
-1.135346969776115655e-01
-8.565301160821893467e-02
-8.530511564775977718e-02
-1.158016242968206710e-01
-1.529042739319747823e-01
-1.715592554391917879e-01
-1.529902655857704463e-01
-8.749921121418155479e-02
-2.087467467183590566e-02
-6.906645328206847956e-02
-2.576718384800982808e-01
-3.156418071461808972e-01
1.392731971636759492e-01
9.821252497337737974e-01
1.390833680400874739e+00
7.451025967686647489e-01
-4.188426084338212618e-01
-9.310760425987379962e-01
-4.076429525125329079e-01
4.161033558833976964e-01
7.229921017674261208e-01
4.511987706433599477e-01
5.564039759672258223e-02
-1.348304008208091043e-01
-1.398871699199654983e-01
-1.202790768195524107e-01
-1.572572803368900984e-01
-2.281132921581011108e-01
-2.854621712669337952e-01
-3.052321019391874279e-01
-2.908311883310462087e-01
-2.681195441451669215e-01
-2.675170601594455966e-01
-2.969549174015669868e-01
-3.333830349875195331e-01
-3.321711591755759918e-01
-2.461132479057079880e-01
-6.713879896639371458e-02
1.404735106336936212e-01
2.729838290810575607e-01
2.623347120034352775e-01
1.260118161801364600e-01
-4.132529299494568098e-02
-1.395377942147324191e-01
-1.417184003350080157e-01
-9.464083679242923930e-02
-5.610281952432207009e-02
-5.118432847532416313e-02
-6.873544226432541648e-02
-7.347172713802875565e-02
-3.219381384185243666e-02
4.481693306992717146e-02
9.583042462633423186e-02
7.264502645366040234e-02
1.096823562771791216e-03
-5.677844537324163582e-02
-7.684126057147271094e-02
-7.317697151135342526e-02
-4.947209388922577111e-02
3.458580912233827701e-03
5.188529086836740634e-02
1.862601618886102275e-03
-1.770920481232166055e-01
-2.683679429797495297e-01
9.238349037069923386e-02
8.814129834083087589e-01
1.376474785758491803e+00
8.684039443814107750e-01
-3.004630254329726524e-01
-9.801869392473917530e-01
-5.937564862064255156e-01
2.664980936710774628e-01
7.151160295295194702e-01
5.417041438856703417e-01
1.477453536918216515e-01
-9.045697118708551088e-02
-1.325755874589362449e-01
-1.143790006468074216e-01
-1.221366531509601033e-01
-1.518873877223720359e-01
-1.785350938880106153e-01
-1.966459496700734277e-01
-2.093534479015883576e-01
-2.088838870971085337e-01
-1.819303221307681517e-01
-1.409755294250536195e-01
-1.358578042321771928e-01
-1.986266729816150434e-01
-2.682986546345695333e-01
-2.103152288038230289e-01
4.063978243946311103e-02
3.592764895401022174e-01
5.127420320555632349e-01
3.967572010044039810e-01
1.387192040617413191e-01
-5.665330663537120059e-02
-1.029252019499432291e-01
-5.399626110018497516e-02
-2.749356404591113759e-03
-6.138775907761359965e-03
-6.934981821644900513e-02
-1.461514749619066966e-01
-1.687554655356514888e-01
-1.182182005357447913e-01
-4.844427944980941869e-02
-1.942337826763472497e-02
-3.800791792357553767e-02
-7.293788340249016122e-02
-9.143080767500844086e-02
-7.765451958943064836e-02
-3.965592741371175289e-02
3.736532811587683651e-03
3.585501386725058887e-02
1.879920194475908149e-02
-8.691352702128098129e-02
-1.766726102154882738e-01
4.469896739336543662e-02
6.908308814384302998e-01
1.254893650375923375e+00
9.817142252582234940e-01
-9.578566545774365448e-02
-9.564606639264350285e-01
-7.729297675544968271e-01
1.143219106396534956e-01
7.406287014149057768e-01
6.630912688630652418e-01
2.176677327134600715e-01
-1.007215475716680131e-01
-1.471779050547825096e-01
-7.510673283295028757e-02
-4.695128497928358069e-02
-9.203560399833717043e-02
-1.551555005210631666e-01
-1.898418676944232109e-01
-1.948357887585784876e-01
-1.902895998414871337e-01
-1.848953940107696814e-01
-1.782602325155412393e-01
-1.802540761282828696e-01
-1.955097529273164825e-01
-1.860020425616757400e-01
-9.025164152459802525e-02
9.420581374080538861e-02
2.745685807332770567e-01
3.348062114865378858e-01
2.378339017398931610e-01
5.922602368971581488e-02
-7.448580881364180728e-02
-9.490028153104207442e-02
-3.897135787144844626e-02
1.320524955771630767e-02
1.846373933553935309e-02
-1.324045167198956673e-02
-4.627447190413876837e-02
-5.440241449378369065e-02
-4.362645350076528594e-02
-4.145972046287889345e-02
-5.853689282280390843e-02
-6.901200330132560568e-02
-4.780715371634352423e-02
-1.837314919806570801e-02
-2.573021456204901622e-02
-6.545867302025627776e-02
-8.129721379724690056e-02
-4.177735640654644395e-02
-6.440666465179906153e-03
-9.523943381100624661e-02
-3.104480252346794034e-01
-3.522609222432525611e-01
1.713435983440114718e-01
1.104126733435254692e+00
1.562231638591826677e+00
8.924062482607194591e-01
-3.444785062745049364e-01
-9.370374945689760038e-01
-4.753790252848631437e-01
3.212835398010726040e-01
6.365825737963071163e-01
3.852582954112807601e-01
-2.219009638238442217e-03
-1.950734454438826648e-01
-1.915426615850693293e-01
-1.423723750277580136e-01
-1.456115549975089130e-01
-1.984993004362594071e-01
-2.511503502295050483e-01
-2.717383565232718290e-01
-2.725364158682132554e-01
-2.822786737872845508e-01
-3.053148913653330188e-01
-3.239976353264691356e-01
-3.313618035260174621e-01
-3.313946541517024946e-01
-3.029403506448496430e-01
-2.001295410870775893e-01
-1.843936085048778969e-02
1.616369859154871413e-01
2.316723516652922643e-01
1.588749196959270971e-01
2.833397646635078121e-02
-3.085005712835888619e-02
1.614924994129734656e-02
7.410846019077789448e-02
5.231397877694585197e-02
-2.451953811454512383e-02
-7.940331749842702291e-02
-8.490373682291099677e-02
-6.288792362579923023e-02
-3.729884640898381565e-02
-1.627804862153616611e-02
1.379926496534956450e-03
1.543782233134610542e-02
1.689624380718527177e-02
-5.522278121592308527e-03
-4.235486826452374703e-02
-5.389490721030167769e-02
-7.094956813939162950e-03
6.829664487374349779e-02
7.229488282350320094e-02
-7.563183455044833470e-02
-2.680463911997996163e-01
-1.563590728749512104e-01
5.019322753614137156e-01
1.309986186652208229e+00
1.389223369604941194e+00
4.354968744454320029e-01
-6.980987851771401909e-01
-9.418486521840339076e-01
-2.627313109932986612e-01
4.699575159575159478e-01
6.118591339263308448e-01
2.873166769224418382e-01
-4.671141335697226449e-02
-1.626029112228042084e-01
-1.339342887996067821e-01
-1.013399369296345415e-01
-1.168257582821685958e-01
-1.558580819490155422e-01
-1.848193384129048766e-01
-1.937536231338130022e-01
-1.881042017746265560e-01
-1.770012666312479055e-01
-1.743917278575259910e-01
-1.947817633963531136e-01
-2.355496379069841328e-01
-2.612161847489380406e-01
-2.130518423468307221e-01
-6.036286029631587891e-02
1.459841916476774248e-01
2.985742099628196367e-01
3.251827609232228466e-01
2.402553472285623715e-01
1.171308277995524172e-01
2.589130137301606099e-02
-1.525202210006011347e-02
-3.146847070598685764e-02
-4.224237981354213300e-02
-4.663617648035555535e-02
-4.423201625496722689e-02
-4.064142168386784826e-02
-4.043909302597448185e-02
-4.551327780666372669e-02
-5.619451834869333695e-02
-7.309290478359012355e-02
-9.175506987664672209e-02
-9.765434627708599602e-02
-8.170734826561042163e-02
-5.363465616628011745e-02
-2.332522108253319917e-02
1.477180978698565059e-02
4.854426521014301027e-02
8.360484946818926705e-03
-1.622500790709135998e-01
-3.154076542718580178e-01
-8.512732699256650437e-02
6.532613818249648485e-01
1.315565225129949223e+00
1.068645558401209783e+00
-4.715619060006345786e-02
-9.534729510737401936e-01
-7.960620192155251074e-01
7.641374087482838418e-02
6.984678033510816064e-01
6.413030488104387583e-01
2.402088821432834531e-01
-4.202834186863399490e-02
-9.722627504442521440e-02
-7.620707649610071466e-02
-9.838559323835817383e-02
-1.596769547062950045e-01
-2.146306501189478855e-01
-2.398995844824498846e-01
-2.315670789873649216e-01
-2.013566782574910952e-01
-1.787414389583893148e-01
-1.871077228637315348e-01
-2.202684514240789426e-01
-2.499541006518704589e-01
-2.368977704399000961e-01
-1.392585376848717582e-01
4.524810366400996986e-02
2.410525172523305670e-01
3.400523131434013968e-01
2.903878061173607028e-01
1.311686421863342555e-01
-3.891554969693387933e-02
-1.302855288524741861e-01
-1.263829478477579982e-01
-7.931979585094989238e-02
-4.694408823004714293e-02
-5.269640621647018325e-02
-9.040928663374513119e-02
-1.339755077457741028e-01
-1.487326740881199927e-01
-1.218635369004258118e-01
-7.798584420344484291e-02
-4.842066489839157162e-02
-3.801684090336043820e-02
-3.674248884144337701e-02
-4.664507188006026400e-02
-7.426834945276226951e-02
-9.955225207802312348e-02
-8.237868787282594252e-02
-2.766745299658227367e-02
-2.129912520523947334e-02
-1.229975577131996040e-01
-1.771850362228836462e-01
1.498592513793937653e-01
9.062877204487639338e-01
1.469862108913499332e+00
1.083571639692145538e+00
-7.876468580465226244e-02
-9.134349718535598184e-01
-6.933472583895927688e-01
1.299108597632373518e-01
6.486068566299433291e-01
5.469007828828861273e-01
1.706951520738992367e-01
-8.828900885116061636e-02
-1.517002410994626183e-01
-1.341451125156669366e-01
-1.362565894406186640e-01
-1.838338888396452986e-01
-2.367028961646944207e-01
-2.227598324475506542e-01
-1.284336450241502781e-01
-4.537668535726821495e-02
-6.461361136441688691e-02
-1.639661467700440911e-01
-2.606576801137291954e-01
-3.089183705803686952e-01
-2.904734975058767543e-01
-1.838432660264951446e-01
-1.044943225710942558e-03
1.847124106454239023e-01
2.808424254927628372e-01
2.404350607579668342e-01
9.871697203513168928e-02
-4.801969250589152582e-02
-1.225790568500830929e-01
-1.262240420670449337e-01
-1.038435692290564927e-01
-7.292897177458239344e-02
-1.851659938710746925e-02
4.855771694629084506e-02
7.414933489321448579e-02
3.115288056232708852e-02
-3.432061835002922501e-02
-6.562610626999330898e-02
-6.187061055923120251e-02
-5.310392744055737052e-02
-5.375395742278565175e-02
-6.292007829028463395e-02
-7.372851319235416978e-02
