4.476982922632873896e-01
-4.530731840726608117e-02
-4.590042710096551848e-01
-7.183722758991964996e-01
-7.610427419987525477e-01
-5.669260710799173264e-01
-1.975847256645302252e-01
2.071699498439626419e-01
4.919992293325383681e-01
5.541519435981412389e-01
3.728004673588337092e-01
1.117272074113479820e-02
-3.961566556362297042e-01
-6.873017371218514970e-01
-7.518848431943723210e-01
-6.038454984318686325e-01
-3.620113646753287395e-01
-9.225131732902989989e-02
3.012319308093777126e-01
8.525424934933253374e-01
1.219612870409430672e+00
9.277527046589851834e-01
1.602257658879759072e-02
-8.921853834301031183e-01
-1.246147984611627679e+00
-1.026578231469563285e+00
-5.488926293339204676e-01
-7.970548112102787686e-02
2.788565726763532204e-01
4.863474493219601125e-01
4.893364085515248818e-01
2.608678446485684921e-01
-1.367924341049785719e-01
-5.494259184298366794e-01
-7.964331204310574064e-01
-7.701749846171019875e-01
-4.917022226606449498e-01
-7.740139746644235375e-02
3.248948953786450211e-01
5.747990453422217039e-01
5.774832922207824293e-01
3.329043429529216502e-01
-5.422729273613721701e-02
-4.345605895415705633e-01
-6.875100175071969799e-01
-7.396672507082080461e-01
-5.569503732317550027e-01
-1.723428067463035895e-01
2.766305579211458254e-01
5.808746342286088549e-01
5.813026527856197667e-01
2.835442045232116626e-01
-1.546543189786194761e-01
-5.477768130309766947e-01
-7.808625856733197867e-01
-8.114231435265328862e-01
-6.353905457647914812e-01
-2.868927108886974997e-01
1.391540402500042184e-01
4.949799510680711334e-01
6.400324824376416588e-01
5.174792619629052792e-01
1.838499711121446833e-01
-2.288318495021513799e-01
-5.746412630029178459e-01
-7.380569862202688292e-01
-6.601228296657617456e-01
-3.581953597242647502e-01
6.466632986206240219e-02
4.458830055510005774e-01
6.341052666140961636e-01
5.661183324395111516e-01
2.960491916247983135e-01
-5.260304805009977103e-02
-3.818184050564149556e-01
-6.501785019566685975e-01
-7.681412474702703497e-01
-5.271528496755476523e-01
1.660822259664018197e-01
9.557370754120348977e-01
1.233161014052365667e+00
7.968833939775860076e-01
5.490047898018071693e-02
-4.991251059996651973e-01
-7.368384480475698162e-01
-7.847802132263912434e-01
-7.254113976728698843e-01
-5.271049047022847711e-01
-1.699736631880656990e-01
2.573095814690943839e-01
5.888366890964731315e-01
6.863557749702094979e-01
5.234966425688091229e-01
1.873627610906525298e-01
-1.905828506202867367e-01
-4.927635202931008873e-01
-6.224529280967636691e-01
-5.181664536647714314e-01
-2.043166814576861945e-01
1.951637223351577188e-01
5.202835487049368712e-01
6.533933563172973358e-01
5.527672509494554465e-01
2.494548183656282447e-01
-1.581513245599339701e-01
-5.144728159987742577e-01
-6.633296382308087047e-01
-5.467884589698585041e-01
-2.507874874709525304e-01
7.328672528508754780e-02
3.233861742927692795e-01
4.581642303224024437e-01
4.375666002858287218e-01
2.314948143986114704e-01
-1.101715843336897871e-01
-4.496575998610668479e-01
-6.411684236644269452e-01
-6.111349110770992743e-01
-3.747391351053120934e-01
-4.820948834487734369e-03
3.943155752943059977e-01
6.898312344543082730e-01
7.492163231919806154e-01
5.249144452822416262e-01
1.098157999166085169e-01
-3.169189942552506078e-01
-5.928187771414239471e-01
-6.324997910149912084e-01
-4.406077662247112059e-01
-9.685441310659799463e-02
2.880832359442039858e-01
6.163764782560503530e-01
7.900602154944873501e-01
6.788658993185328061e-01
2.131615518636567619e-01
-4.095716651172354172e-01
-7.297098919634580350e-01
-4.593792507226537314e-01
1.139431139382605929e-01
4.254474933029285255e-01
3.197593485448865236e-01
1.329518001282164463e-01
1.299496019127394097e-01
1.942489605730349789e-01
8.198553860418128503e-02
-2.568438989272699979e-01
-6.385404968395441694e-01
-8.099899932629914812e-01
-6.503922472722420967e-01
-2.594338272118413280e-01
1.546247639048016764e-01
4.519844825083823014e-01
5.933823771785426970e-01
5.552981770487630531e-01
3.150722071486061759e-01
-7.033122271296005090e-02
-4.443223477874478355e-01
-6.457806715294182043e-01
-6.007063046312210997e-01
-3.302462120499435327e-01
7.167647234580518112e-02
4.575564969874190702e-01
6.777005542782641445e-01
6.519089567928264550e-01
4.031566281906547311e-01
3.325253291228291719e-02
-3.378789511500277509e-01
-6.191030425554763239e-01
-7.402332808802135622e-01
-6.358984259371274206e-01
-2.955729647094638701e-01
1.660378638995432810e-01
5.391811094412863881e-01
6.545264779389982079e-01
4.883840669093966191e-01
1.433472776333824805e-01
-2.389819141550638959e-01
-5.326016213048848646e-01
-6.388159953637904120e-01
-5.039214501347865083e-01
-1.547353512443584156e-01
2.826731382549209637e-01
6.207282041525770122e-01
7.079998443669895947e-01
5.224185071868001629e-01
1.708781352709254631e-01
-2.018128865885558676e-01
-4.865027586635642942e-01
-6.096018666550158116e-01
-5.196425766842031058e-01
-2.121488082118325735e-01
2.265212813070948961e-01
6.042822439468858997e-01
7.064151556763292872e-01
4.996365434220349511e-01
2.476360888329603438e-01
2.348574218177841844e-01
3.407836374086113951e-01
1.760119834047359777e-01
-2.929367884280687506e-01
-6.136614283147212578e-01
-4.369635163215256912e-01
8.067232718413530623e-02
5.298565911669165240e-01
6.547828800225935497e-01
4.527910542580819153e-01
6.131250743397748115e-02
-3.411813506735282830e-01
-5.912844543760867877e-01
-5.985982461094541129e-01
-3.784131738718954918e-01
-2.490431438565867545e-02
3.412292820246353164e-01
6.027453704960924474e-01
6.629502368641768673e-01
4.820180038033228254e-01
1.149141891094970225e-01
-2.978447081257459828e-01
-5.954051882290333220e-01
-6.735197639479022502e-01
-5.210188729543108188e-01
-2.018643602590299568e-01
1.825621408046467775e-01
5.111545014384119012e-01
6.543043901579265187e-01
5.254999081362037305e-01
1.530008849951402516e-01
-3.179575022397680417e-01
-7.061582409733963006e-01
-8.716166201095421062e-01
-7.507265985704763001e-01
-3.809887795105429964e-01
9.600610734459441575e-02
4.929798465743154279e-01
6.699643802386473501e-01
5.892292207564806539e-01
3.048688381393489522e-01
-7.729156662966668589e-02
-4.312354725456857274e-01
-6.345848512411575992e-01
-6.055954500175390054e-01
-3.474953539142149883e-01
4.418862885519976580e-02
4.303819572779972180e-01
6.824298472265099003e-01
7.030848318797716656e-01
4.531875327452485336e-01
1.222897929081930013e-03
-4.710790099452207280e-01
-7.504575595300890800e-01
-7.148532499591930822e-01
-4.181284136000312235e-01
-5.461419487812638196e-02
2.322237210127187645e-01
5.166460659984600801e-01
9.153197178369275600e-01
1.209198435932121063e+00
9.429137955557149731e-01
6.550606840598226233e-02
-8.441770383776070474e-01
-1.180601802160488711e+00
-8.829784176001402862e-01
-3.050175021781073581e-01
2.229329703676776187e-01
5.658329860090955954e-01
6.873147270377477636e-01
5.706624415731782474e-01
2.511268685505528286e-01
-1.546160264262375905e-01
-4.902356526640649359e-01
-6.232799759007554563e-01
-4.906150146837054415e-01
-1.346455912380667974e-01
2.970712086035736110e-01
6.258866982811703839e-01
7.342483884756755286e-01
5.999339115341091322e-01
2.807258548754693606e-01
-1.180720055776244420e-01
-4.804273061609553030e-01
-7.024579605091066936e-01
-7.043607570593972689e-01
-4.600621276795275327e-01
-3.798923622680754064e-02
3.981260374790955847e-01
6.515183127518741069e-01
5.882536838694749637e-01
2.226441658709277238e-01
-2.732611601746329222e-01
-6.756522799328844586e-01
-8.414351336161765005e-01
-7.477826949553197933e-01
-4.531831167605434585e-01
-5.665538219668459635e-02
3.272620468791866410e-01
5.901184065498634723e-01
6.528769543307881840e-01
4.918414269128021932e-01
1.522771153482105622e-01
-2.591992573423417268e-01
-5.930405674782018854e-01
-6.994727690537594356e-01
-5.129228981896978290e-01
-1.159690844942933702e-01
3.102422072534984920e-01
6.083083120046689496e-01
6.992711726182299081e-01
5.578452838877762110e-01
2.172953284017881126e-01
-1.997691749817712137e-01
-5.369776991078178963e-01
-7.158258191972297624e-01
-7.150227491595890772e-01
-4.299242498972841720e-01
2.523311200775356089e-01
1.098165605590299743e+00
1.495583746162457262e+00
1.068971496470919158e+00
1.502822103070800275e-01
-6.056205500846193468e-01
-8.828527604146323426e-01
-8.060060087688547537e-01
-5.918359975442616383e-01
-3.145302488527444429e-01
3.404136934721258695e-02
4.011929196040246448e-01
6.547152991113731613e-01
6.766006218110582893e-01
4.449743115389376835e-01
4.545702547695673612e-02
-3.628779904120656430e-01
-6.001310553429569650e-01
-5.462732424248902818e-01
-2.318638739968499063e-01
1.681103713059771687e-01
4.813573061549344945e-01
6.481023947227524395e-01
6.565266933964863938e-01
4.698812441009586616e-01
9.723064213948927337e-02
-3.352820101365289185e-01
-6.507580776644733556e-01
-7.275461819173908440e-01
-5.416839682524431376e-01
-1.733622855039765598e-01
2.175310474946817174e-01
4.737114583905303600e-01
5.183206665454458406e-01
3.575011638183742124e-01
4.819015589017025536e-02
-3.117305882183264987e-01
-5.959972653170085843e-01
-6.958698547074469998e-01
-5.681211922466856690e-01
-2.499768755478725402e-01
1.539750472832666639e-01
5.034129513902011466e-01
6.715006250442019375e-01
5.939610255649703241e-01
2.962836753072767837e-01
-1.090673844325645570e-01
-4.651313326302129458e-01
-6.430768980556621495e-01
-5.951107777466216886e-01
-3.526796869186896166e-01
5.960247832800961987e-03
3.744612920537998546e-01
6.273836860261595705e-01
6.601429166942975879e-01
4.407903677720239610e-01
1.885360662336690168e-02
-4.665785148430807161e-01
-7.434995004102727956e-01
-5.196409313774649208e-01
1.513881039027141218e-01
7.476235366363529478e-01
8.102105226602720478e-01
4.627207708799054298e-01
1.387097792712682076e-01
-2.961188081577279668e-04
-1.123029570113503045e-01
-3.211824472879807879e-01
-5.526741264731604986e-01
-6.547927766637029467e-01
-5.348451017162156873e-01
-2.011229946088431420e-01
2.337806890868033283e-01
5.917503224350502133e-01
7.263082309185453500e-01
5.940285084976681951e-01
2.486499098709746003e-01
-1.854041559172693587e-01
-5.410784032294654322e-01
-6.766431026353640910e-01
-5.504375948737966207e-01
-2.314032706496188807e-01
1.503505741360513237e-01
4.592437136490646887e-01
5.905008803246383220e-01
4.963471494863149758e-01
2.064210894402377927e-01
-1.771012236499594494e-01
-5.229075117385073579e-01
-7.267951950602103972e-01
-7.360454882052033243e-01
-5.400695536076680625e-01
-1.773262697464735860e-01
2.348612864076442264e-01
5.230568077214369227e-01
5.592857691801647047e-01
3.439787121631470712e-01
-1.326464693911585946e-02
-3.703258543858765628e-01
-6.018470929023833627e-01
-6.187732824960283651e-01
-4.010684625966182137e-01
-2.793014598791061787e-02
3.485616189403169529e-01
5.835756510162769528e-01
6.041361329293682969e-01
4.128787450989935270e-01
6.810873364483985282e-02
-3.219463687304832678e-01
-6.210349786193096744e-01
-7.175932514652508809e-01
-5.653971070593812875e-01
-1.938977239834163424e-01
2.840150858434883352e-01
6.685586788691688653e-01
7.414342496606969313e-01
4.455908039050681113e-01
2.986121893542240113e-02
-1.277807356669379002e-01
2.499328098772520684e-02
1.097935509886924094e-01
-1.307794038560672056e-01
-4.181899409747240060e-01
-3.363799409660517270e-01
9.674796492362139344e-02
4.955608725260098324e-01
5.594027178572361647e-01
2.894362343602761012e-01
-1.218071491314314803e-01
-4.690629178660687959e-01
-6.234396566856669208e-01
-5.449041611137454000e-01
-2.710326039002276532e-01
1.009142943470240777e-01
4.441899021453445395e-01
6.416128691505764703e-01
6.227764565098667937e-01
3.918371332220425551e-01
3.131744443757841778e-02
-3.290942896149171570e-01
-5.610588241754224104e-01
-5.790132828546997734e-01
-3.700678727239006260e-01
-6.878015605598704341e-03
3.752621337653379574e-01
6.372239035499832616e-01
6.922615128800096995e-01
5.223498663656689356e-01
1.645104577471060425e-01
-2.931155006332937796e-01
-6.984809405348619826e-01
-8.667509636067456391e-01
-6.940801691649589600e-01
-2.533147150584055818e-01
2.508707869487033504e-01
6.165567606973617609e-01
7.322985496164302610e-01
5.838459012643999468e-01
2.341545371505183160e-01
-1.908771805415960532e-01
-5.320649239507738715e-01
-6.583180010747096134e-01
-5.239529874629612616e-01
-1.838875782749032073e-01
2.275625939449675283e-01
5.502069339053027308e-01
6.761627183747180858e-01
5.892859892306048231e-01
3.331752192196414941e-01
-2.492024745311925693e-02
-3.869791284390003971e-01
-6.189935263214512151e-01
-6.038803922185687068e-01
-3.394897654550091959e-01
1.987297805344048068e-02
2.893744543471829522e-01
4.679141338385877091e-01
7.140602218584288785e-01
9.811740606937265907e-01
8.750716928036406106e-01
1.619150112746075565e-01
-7.661605009000203026e-01
-1.245720361287398381e+00
-1.015387770011565216e+00
-3.458655293978533107e-01
3.156225814631306581e-01
6.677946775684703296e-01
6.499001306887618457e-01
3.794765252272759293e-01
2.216564063032066406e-02
-3.030639592811473770e-01
-5.176137799692226427e-01
-5.492445674567821845e-01
-3.616644757628186824e-01
-8.917275224443139969e-03
3.732900218551634119e-01
6.416410049759709855e-01
7.131166490242148992e-01
5.777659305247657695e-01
2.754966882480950896e-01
-1.126690150630694776e-01
-4.584801288992633728e-01
-6.220420260598470419e-01
-5.297787726290448251e-01
-2.170358454714584606e-01
1.979453337914957589e-01
5.642420650694371931e-01
7.363105780081874441e-01
6.157477006507073858e-01
2.177979575609231278e-01
-2.931739104951316399e-01
-6.873732663576954671e-01
-8.199615503584997134e-01
-6.882481559057239684e-01
-3.722166606509298981e-01
2.322788145464006748e-02
3.772023198280473610e-01
5.673453698546840895e-01
5.216466813934009794e-01
2.670553966924447131e-01
-8.833146085114851331e-02
-4.254916823802433190e-01
-6.482971315221977004e-01
-6.743863120749644668e-01
-4.653765774022091684e-01
-8.285698164361615659e-02
3.213835055989436862e-01
5.811088355801528049e-01
5.912039045938864978e-01
3.512727377624599856e-01
-3.346229657983173372e-02
-4.034692397972574063e-01
-6.333193054156875945e-01
-6.984329364737329460e-01
-6.299900468007724186e-01
-3.701197866464345232e-01
2.155522285909943769e-01
1.004119266672678812e+00
1.443578318064949073e+00
1.071415244639809972e+00
1.217214357473317965e-01
-7.199559048343314727e-01
-1.043539902098185479e+00
-9.300216105024252666e-01
-6.201020011488168615e-01
-2.469662897215584851e-01
1.437411433676876182e-01
4.852057286063444219e-01
6.652693036172172558e-01
5.961097019849589396e-01
2.985739065620474086e-01
-9.244380651125927439e-02
-4.134689095246235624e-01
-5.575415038859109496e-01
-4.935202895564183012e-01
-2.480577421938207072e-01
1.056834762938231725e-01
4.524055456427128474e-01
6.582010967189385608e-01
6.264917690824491903e-01
3.591482782829719111e-01
-3.496806186002857086e-02
-4.053466892792214615e-01
-6.324298334793475584e-01
-6.428385712038502398e-01
-4.132848836753496569e-01
-1.532476194102157241e-02
3.754333704722004894e-01
5.816435700343997039e-01
5.409725634623069324e-01
3.032906148519571854e-01
-4.448596094249730043e-02
-4.057645021357379478e-01
-6.655741261688450372e-01
-7.181553106062896763e-01
-5.243497220788267965e-01
-1.439339369278248293e-01
2.841095655008650800e-01
6.012552735396989867e-01
6.983415613949168765e-01
5.557129995894674046e-01
2.330831411384139962e-01
-1.642163699529387011e-01
-5.054036917090797276e-01
-6.586963333524171738e-01
-5.541506156468368749e-01
-2.409111218059088455e-01
1.410187778194169905e-01
4.503224977018879249e-01
5.978457185015301212e-01
5.464717032281602993e-01
3.013865785261322650e-01
-9.812395378987931460e-02
-5.586602113975024375e-01
-8.591883607340475848e-01
-6.876581274388761100e-01
2.673190221825537394e-02
8.359987784687609169e-01
1.131900590460457989e+00
8.072933891606625112e-01
2.772083935101663510e-01
-1.038928014015048085e-01
-3.330419145821670868e-01
-5.187410984754805554e-01
-6.418456248600065139e-01
-6.028431714303038591e-01
-3.615122908789488720e-01
1.906289918409107692e-02
4.104054563743320672e-01
6.765637704502873717e-01
7.241876419873023440e-01
5.318792634923559248e-01
1.597914376859463359e-01
-2.598697931675112982e-01
-5.663127439735381463e-01
-6.429918473412683522e-01
-4.692438714141374811e-01
-1.114748676833074853e-01
3.127295846287891923e-01
6.495216565915514773e-01
7.336931618863465898e-01
4.867853986686562773e-01
2.260208880389685815e-02
-4.120337737570036740e-01
-6.376223706879596831e-01
-6.346472131516439630e-01
-4.629015227833463975e-01
-1.874707553434657448e-01
1.203364343853720042e-01
3.800508449379386144e-01
5.152927733466863280e-01
4.711920949140207537e-01
2.448462836622511962e-01
-8.916019170203735855e-02
-3.964557722969105913e-01
-5.487767265871087430e-01
-4.881491086001097379e-01
-2.390796091003637991e-01
1.146227121189930531e-01
4.513551030302999090e-01
6.436050901956598125e-01
6.146867154858665083e-01
3.784161034568283566e-01
2.118438900672722086e-02
-3.422314728689095920e-01
-5.958225245838251194e-01
-6.466625759591951850e-01
-4.632722078679599176e-01
-1.022503612515116844e-01
3.049535366724672736e-01
6.034519146757311159e-01
6.714771833743404805e-01
4.516409728786981992e-01
-6.299685788150731491e-03
-4.629676937360514000e-01
-5.501039728591676781e-01
-1.440049706845042965e-01
3.714142011036683511e-01
5.146735587595546724e-01
3.093227578320495441e-01
1.529716943570508803e-01
2.097602033331258942e-01
2.634232576416265514e-01
9.210027152818092699e-02
-2.625504718775153457e-01
-5.874586387833318213e-01
-7.072117220717966113e-01
-5.757065673852971299e-01
-2.551542686301332408e-01
1.338385192793659362e-01
4.610706285462657372e-01
6.211031802131877777e-01
5.524356837315183011e-01
2.665872917694678823e-01
-1.307626500264885971e-01
-4.773395100927469437e-01
-6.362548484106718139e-01
-5.567324937823119324e-01
-2.804474777883536052e-01
9.066019161385591163e-02
4.336387846112378930e-01
6.335639917203527149e-01
6.098907192129421340e-01
3.550584204274799816e-01
-3.885607384023443550e-02
-4.201628467764383368e-01
-6.656377301603051411e-01
-7.193869329326016970e-01
-5.671953566462260010e-01
-2.362015774322391293e-01
1.676919034757681781e-01
4.756592577722854598e-01
5.481852587630176021e-01
3.584080898945187776e-01
-3.129516864633120898e-03
-3.838158493921026149e-01
-6.333534399773853574e-01
-6.601579562857492478e-01
-4.667265135517347785e-01
-1.334907631887876367e-01
2.292170761371581933e-01
5.044565242772753866e-01
5.827383708211733016e-01
4.151590362608693074e-01
6.520592042334416583e-02
-3.165227985439856839e-01
-5.844879741236066462e-01
-6.666281953832053908e-01
-5.518767478211390465e-01
-2.575182918579129732e-01
1.490137250719591189e-01
5.228461090384389776e-01
6.935027409094505213e-01
5.923316025301087473e-01
3.575048889646552652e-01
2.253080022357593637e-01
2.073665843481539151e-01
4.353087177759741577e-02
-3.413150411019672537e-01
-5.965123819800789429e-01
-3.965452820016374114e-01
1.199584864430496556e-01
5.413856931982182763e-01
6.104759859190265203e-01
3.547086894723696093e-01
-4.697638473170270140e-02
-4.072976217286626843e-01
-5.960133865361346706e-01
-5.579945576856244482e-01
-3.092579871059513708e-01
7.117731629329705767e-02
4.508451727313127488e-01
6.834693043792401390e-01
6.796772469863300303e-01
4.495593341004077148e-01
8.166372651835027141e-02
-3.007815627110781986e-01
-5.711564213333570894e-01
-6.348477278986652816e-01
-4.676844200893188197e-01
-1.268684158451467703e-01
2.676811400117257156e-01
5.712937298926272778e-01
6.709497057756067528e-01
5.300821267044589780e-01
1.877114823700389568e-01
-2.640752319915312674e-01
-6.837352209470186626e-01
-8.926734286529796059e-01
-7.622845282436255809e-01
-3.341628815052880008e-01
1.812741593759282788e-01
5.566249730765389092e-01
6.776463718879816023e-01
5.444842791796882242e-01
2.248678567671164585e-01
-1.666935380190296134e-01
-4.922664548445736532e-01
-6.357711504389039758e-01
-5.436620883089119394e-01
-2.445353698162876510e-01
1.560453889450031939e-01
5.072497393251773623e-01
6.692967651846642996e-01
5.832152704190565196e-01
3.002969154708399202e-01
-6.875104203659138102e-02
-4.142874699008582406e-01
-6.281457002414438939e-01
-6.079609357347357523e-01
-3.326471467478797628e-01
6.626209399739549366e-02
3.761087138435947885e-01
5.219739690598139692e-01
6.628508065549187922e-01
8.988562806414933659e-01
9.480221051931377874e-01
4.518084166657115874e-01
-4.071598153288267241e-01
-9.845333353729487369e-01
-8.898550752090208515e-01
-3.149065662406974608e-01
3.022524327415215262e-01
6.666128760195145775e-01
7.049197755735772120e-01
4.824677301320882128e-01
1.261935152369165203e-01
-2.330427574585669515e-01
-4.936206185903178056e-01
-5.803117697055497626e-01
-4.482295243994416367e-01
-1.207047897288053007e-01
2.859509178041151900e-01
6.049917884931055312e-01
7.076150096566573566e-01
5.600173177906656585e-01
2.181612521047336939e-01
-2.027094636783002279e-01
-5.592808426867861282e-01
-7.236961386491087556e-01
-6.374895946980978501e-01
-3.417034164224792558e-01
4.738889459257420583e-02
3.975992306886924621e-01
5.994293309182445739e-01
5.684093455899246194e-01
2.641171940158986153e-01
-2.411337809450517788e-01
-7.298388433646980644e-01
-9.558867187107018548e-01
-8.320338660738889613e-01
-4.720239630884868198e-01
-5.320378150346052881e-02
3.055373173730080993e-01
5.355457332816044858e-01
5.761015453146373089e-01
3.957474107423871734e-01
3.931388099916218598e-02
-3.667448541955916630e-01
-6.617981157138785875e-01
-7.247333679491745340e-01
-5.288893086946392375e-01
-1.497276019615903508e-01
2.678100802311818018e-01
5.656182338396378295e-01
6.304720540731064693e-01
4.335280807549856674e-01
4.650262208447599604e-02
-3.757411884101382049e-01
-6.619424229951114125e-01
-7.211761048320082246e-01
-5.915224437472609287e-01
-3.568795980506327403e-01
2.656565003948393316e-03
5.651907298589463613e-01
1.162672901102224321e+00
1.311726418267810779e+00
7.234135086062678521e-01
-2.563411084239858306e-01
-9.779846023006465439e-01
-1.118811757639442517e+00
-8.081283172720743480e-01
-3.223118100488239213e-01
1.428988696329670793e-01
4.869888597300203736e-01
6.541484688522550828e-01
6.138302167298507195e-01
3.762208820960608602e-01
1.493661222252096188e-02
-3.392760039399422278e-01
-5.514921815228538415e-01
-5.504017155981498766e-01
-3.462716705514682913e-01
8.626290908312593542e-03
4.330822025263881270e-01
7.761687705916164859e-01
8.479381657815123763e-01
5.746875363993778629e-01
8.862286839296656948e-02
-3.831892577264275901e-01
-6.730118543982461787e-01
-7.088806122156851020e-01
-4.915051230457396780e-01
-9.609943191639053195e-02
3.233860457478391903e-01
5.787205162943602765e-01
5.510358619607446107e-01
2.755022911581060940e-01
-1.018207675805359175e-01
-4.459167467369732907e-01
-6.774022076658272606e-01
-7.359813596904287714e-01
-5.778062582670491221e-01
-2.242737285112670342e-01
2.104067482421735913e-01
5.593429844874410195e-01
6.900950075462799482e-01
5.654378031740037169e-01
2.384530377393560274e-01
-1.742847081435035250e-01
-5.155411306262648319e-01
-6.427338268012290357e-01
-5.071694037982951153e-01
-1.800068156323129942e-01
2.063961897324566863e-01
5.355328447601589437e-01
7.277898405251816971e-01
7.230634029985333333e-01
4.979929185655946888e-01
1.094482443984435144e-01
-3.252118218462345389e-01
-6.811825631191573693e-01
-7.855758674663493313e-01
-4.140641877574729457e-01
4.194312850725766539e-01
1.205440358720553551e+00
1.330830000596555873e+00
7.620277814110242298e-01
2.696919572482397998e-02
-4.376889905913517453e-01
-6.188058239692513229e-01
-6.740402154012510305e-01
-6.394342743564606080e-01
-4.443745761165895924e-01
-7.538869212624868532e-02
3.574687902935211326e-01
6.875703821239131930e-01
7.862979215255965215e-01
6.119400203612915812e-01
2.226068470067700256e-01
-2.322989855299412709e-01
-5.685578528335361037e-01
-6.607568264275394121e-01
-4.934475065896579693e-01
-1.388967664273315639e-01
2.772283668375079557e-01
5.972271832122377777e-01
6.878478545713736514e-01
5.178082824352151503e-01
1.695372522031500240e-01
-2.220960994284756629e-01
-5.259817693313223463e-01
-6.413351993146889640e-01
-5.303922810760831608e-01
-2.476610333219124160e-01
8.571553552840904810e-02
3.519097259158820434e-01
4.768658184115420196e-01
4.264507702595490835e-01
2.105525018255628988e-01
-1.047988580970812406e-01
-4.138641850500167640e-01
-6.029134668716471523e-01
-5.824233251090419339e-01
-3.342664701577411912e-01
5.573025260602009617e-02
4.334480200769527114e-01
6.575455814725619241e-01
6.543386457463256090e-01
4.293784601856442951e-01
6.124538836155159899e-02
-3.203920732552500428e-01
-5.769309238614076518e-01
-6.092649118381148199e-01
-4.007887809938719403e-01
-3.492441379700752385e-02
3.431069565531508769e-01
6.019994535547329439e-01
6.672868284485147239e-01
5.036069085789675048e-01
1.063447998409904893e-01
-4.151999911604470350e-01
-7.549028204749003157e-01
-5.931283120415440369e-01
-7.192715074269412368e-03
4.919091171818555930e-01
5.386237925072818733e-01
3.123053486776663501e-01
1.707846371783978412e-01
1.517951030293523684e-01
3.438725590951438593e-02
-2.941718905308394194e-01
-6.852068947375727914e-01
-8.771950191991018109e-01
-7.312689018899751758e-01
-3.223178885716265762e-01
1.617545412817182893e-01
5.505671900106721139e-01
7.299661589909617332e-01
6.419736996608343960e-01
3.116231851178561940e-01
-1.322179954323710327e-01
-5.030786405897123004e-01
-6.628289827846078897e-01
-5.997542854880899554e-01
-3.990087890515823243e-01
-1.347182002417887381e-01
1.669244218793213552e-01
4.218279320087287565e-01
4.514617115354940813e-01
1.804529187742675012e-01
-2.224774551737614958e-01
-5.254991670434362439e-01
-6.524473368642567106e-01
-6.376040068956516649e-01
-4.900561437391997566e-01
-2.003042363463349296e-01
1.715980267165019002e-01
4.794659124596674649e-01
5.776748067182020385e-01
4.198743863586412162e-01
7.609238188339421949e-02
-3.171868934136496954e-01
-6.087239867622353806e-01
-6.809515968515267303e-01
-5.043389915915219568e-01
-1.537683091748051623e-01
2.385093087624609309e-01
5.456254199675428795e-01
6.719864646505274708e-01
5.614280553061489210e-01
2.338565544910928551e-01
-1.868134693640530475e-01
-5.257871118388784959e-01
-6.548770163009332013e-01
-5.413348773275736825e-01
-2.342338120846594873e-01
1.666459985291258161e-01
5.222813973106930074e-01
6.636338841492273044e-01
4.902925637028082151e-01
1.473858257550938466e-01
-1.103843104610355286e-02
1.570055704276684949e-01
3.118217877709120178e-01
9.306410622292969614e-02
-2.944915908672484095e-01
-3.407772652079388287e-01
6.534764895614912639e-02
5.397716094665115927e-01
6.938632379396730832e-01
4.683684851327674092e-01
5.348318176223836040e-02
-3.303983682640607711e-01
-5.475774595171869485e-01
-5.439405972207967954e-01
-3.182900829317066305e-01
7.053994968476312577e-02
4.868903663012295047e-01
7.613219266997004464e-01
7.839754538532205386e-01
5.563776587806231744e-01
1.691717480204868451e-01
-2.460714381416180541e-01
-5.561251668717073215e-01
-6.571261833995649670e-01
-5.090427486984847594e-01
-1.655701774035661100e-01
2.366088675453200119e-01
5.396364908016517692e-01
6.369752402127689672e-01
5.085982728916145224e-01
2.046242738332161859e-01
-1.894845880794198967e-01
-5.604240993468510013e-01
-7.666974932011453303e-01
-6.977164586078253850e-01
-3.673669275078584318e-01
7.290064194548759313e-02
4.252686859588562518e-01
5.497426121332406046e-01
4.216254845806988727e-01
1.407837656396069004e-01
-1.306927348983040471e-01
-2.991099427478551842e-01
-3.956846256396513994e-01
-4.516735558206096401e-01
-3.838722488913756670e-01
-1.065004014390146525e-01
2.986864657607495310e-01
6.171716267065895378e-01
6.721051758852187863e-01
4.248655258667329848e-01
-2.898346597024231003e-02
-5.061976036872981588e-01
-8.054188890343648710e-01
-7.964788953662329529e-01
-4.964177944628151984e-01
-7.838796988688036260e-02
2.466492066551297380e-01
4.404662662385623872e-01
6.732984252692623128e-01
9.866386002961853308e-01
1.026391088772306448e+00
4.438904454728579974e-01
-5.010184151187966339e-01
-1.118182492091779334e+00
-1.033739210651764884e+00
-4.662233854984810799e-01
1.504376470375650698e-01
5.453408319472344834e-01
6.494552680684091417e-01
4.892449164411406537e-01
1.401989171400567780e-01
-2.700590010180223266e-01
-5.833389945255774700e-01
-6.717213199661647982e-01
-4.989166953788617409e-01
-1.365499218903833967e-01
2.758570275990741005e-01
5.948716109592898649e-01
7.214361066312361404e-01
6.214913464756804951e-01
3.248814056401757577e-01
-8.722289678967296012e-02
-4.930187554194746524e-01
-7.487198413721565249e-01
-7.443734710796230392e-01
-4.761515942585162753e-01
-5.552122062577500433e-02
3.701296457325233824e-01
6.830458045262162159e-01
7.691357873875387385e-01
5.271392839894141202e-01
1.017581154223160672e-02
-5.207300035195799870e-01
-7.976552887817744963e-01
-7.486724474095785009e-01
-4.653474016526215618e-01
-7.083421719901990266e-02
3.253149885025826138e-01
6.094912571427170134e-01
6.776457334307577351e-01
4.890096689613394609e-01
1.008640870718329752e-01
-3.472981981243583594e-01
-6.822834544607820906e-01
-7.645039045341149864e-01
-5.588208189965104822e-01
-1.579559381053086131e-01
2.716209936422090410e-01
5.745475491381263344e-01
6.574159270256891840e-01
4.992540380052726823e-01
1.554869288896204571e-01
-2.448668709478150352e-01
-5.497982421400264830e-01
-6.733256637539219991e-01
-6.283376058539149600e-01
-4.358752809247978255e-01
-2.411002012042906539e-02
6.395759393040586493e-01
1.258080400667496823e+00
1.304748394609067219e+00
6.200971073722135740e-01
-3.218967225745850147e-01
-9.234749688633916431e-01
-1.009245824709843919e+00
-7.604437198676140541e-01
-3.697708085894950703e-01
7.226213341173093330e-02
4.793297884755151061e-01
7.216594300984439103e-01
6.991874126635452269e-01
4.229415882793136072e-01
1.624667950903248975e-02
-3.571058461007361462e-01
-5.786403659886930617e-01
-6.070999118992298493e-01
-4.418709707145263565e-01
-9.974215318669665820e-02
3.333208161965163785e-01
6.731498380316434105e-01
7.397399551848525823e-01
4.970163339638278277e-01
7.093612132545923377e-02
-3.505527300155020787e-01
-6.218648280131647832e-01
-6.742004278745292734e-01
-4.957866968735672453e-01
-1.287997330525805506e-01
3.005667939494395813e-01
6.015156931192875422e-01
6.301436024304946093e-01
3.892667699057506536e-01
6.373919576835904155e-03
-3.655766308450840718e-01
-6.122381036399406895e-01
-6.645564692990035827e-01
-4.997557465803493804e-01
-1.596222812432934735e-01
2.443041910199277578e-01
5.654694029688481782e-01
6.834712494953354422e-01
5.576955525600895136e-01
2.428339580127926722e-01
-1.424480341548395312e-01
-4.665863199217394341e-01
-6.221749049172267121e-01
-5.488620675943104432e-01
-2.570200972497939107e-01
1.578138215333976802e-01
5.372558747624841535e-01
7.273615822576489087e-01
6.590813662396967088e-01
3.821164578333083317e-01
1.058289533978800517e-02
-3.679145727540143462e-01
-6.788975828287131531e-01
-7.368608865206730529e-01
-3.015086863825037211e-01
5.406350204804342141e-01
1.211515952677847174e+00
1.189256146291468585e+00
6.026970409908518622e-01
-1.451835462570644220e-02
-3.731555276256572351e-01
-5.545235680617811580e-01
-6.738846217205466393e-01
-6.894855978858067669e-01
-5.141505938337296300e-01
-1.655564787273177130e-01
2.327169317378307567e-01
5.383737354641515704e-01
6.397981541252815152e-01
4.740247448074193515e-01
8.136434619222873699e-02
-3.647625280643013168e-01
-6.576384745926937558e-01
-6.994952115056293218e-01
-5.208007149329512142e-01
-2.006759704474478101e-01
1.781947997495181291e-01
5.152551830591629578e-01
6.910294781040832168e-01
6.191588173961729558e-01
3.102805694858369878e-01
-1.159886617037499401e-01
-4.839596477669631525e-01
-6.453270846548471162e-01
-5.546477745705866713e-01
-2.910417685983434644e-01
9.574350068866643859e-03
2.540510952514061782e-01
4.124373512565355782e-01
4.579546142028896871e-01
3.375213485141033143e-01
3.371668158514565944e-02
-3.585258208479468189e-01
-6.539352473499586704e-01
-6.917058458216358563e-01
-4.397247998016727277e-01
-1.372349012163999460e-02
3.966769238767533512e-01
6.366638450471827637e-01
6.422730648859062974e-01
4.290273866532993696e-01
7.130927911003326347e-02
-3.083875241891414487e-01
-5.732561221122732809e-01
-6.279052735691629250e-01
-4.548030509375603492e-01
-1.126037260065705092e-01
2.892484610734222805e-01
6.195416996739198101e-01
7.476502764117757271e-01
5.730558293641073719e-01
1.065687775950879129e-01
-4.133059326625886376e-01
-5.873254208425386924e-01
-2.575337034982588813e-01
2.144036563284333341e-01
3.574855014154801336e-01
1.918450599082390240e-01
9.643144067006907683e-02
2.137845054938968536e-01
3.178641965387221657e-01
1.845275179666125143e-01
-1.539835081818053120e-01
-4.957919441606271072e-01
-6.582365461926635852e-01
-5.695993517808124462e-01
-2.668921527357370760e-01
1.404668359906526276e-01
5.117107262371225485e-01
7.164458106518736269e-01
6.804507661361360871e-01
4.192427446335724728e-01
3.077995515958247691e-02
-3.485544553597839101e-01
-5.919235061893095562e-01
-6.194057068743513694e-01
-4.228270221669643836e-01
-6.841930962744852129e-02
3.184843480097199753e-01
5.836191775761382372e-01
6.059055840652597391e-01
3.708538336364812227e-01
-1.680733607660950951e-02
-4.060435404724432318e-01
-6.812643174906247712e-01
-7.756946748703800187e-01
-6.521169772701707057e-01
-3.269261365435657818e-01
9.083771477505681036e-02
4.322316177808003812e-01
5.635287849260203208e-01
4.478802765913694750e-01
1.358500166747351467e-01
-2.642345316865185589e-01
-6.067774507809302609e-01
-7.501273493592294228e-01
-6.224155145235245046e-01
-2.636901217826591592e-01
1.872245814004577236e-01
5.530368126686643349e-01
6.956811566394550672e-01
5.642236633653620048e-01
2.014583456053007926e-01
-2.573531635088103231e-01
-6.212382082003836681e-01
-7.516352672954829117e-01
-6.326554452402437523e-01
-3.209250028009357214e-01
9.594165359211352662e-02
4.559637269659589376e-01
5.633796761242351181e-01
4.077338504373444472e-01
2.653612940195161363e-01
3.544824890151300201e-01
4.324342713418544704e-01
9.120546930063963553e-02
-5.543256138477504757e-01
-9.038799999376566641e-01
-6.210241035115748875e-01
1.970743266011008854e-02
5.256698311564663717e-01
6.420046291732753874e-01
4.188917292764354761e-01
4.640081249168424155e-02
-2.912090130515322950e-01
-4.829562003037438100e-01
-4.951020735507370985e-01
-3.295653054409558580e-01
-1.331233106401612243e-02
3.595998286543528599e-01
6.406509395468831247e-01
7.170427889879888994e-01
5.633282495701941173e-01
2.238325144023425028e-01
-2.009873721036735950e-01
-5.587754269929712247e-01
-6.972755723939664252e-01
-5.549564140170656357e-01
-2.038368049804068771e-01
2.028294436631194464e-01
5.198890627550836196e-01
6.548779663810710971e-01
5.647839380734697157e-01
2.556258599576171076e-01
-1.966527008753684302e-01
-6.359053924287410009e-01
-8.719321890817479659e-01
-7.864395341164591713e-01
-4.185248832310649592e-01
5.983084993595046142e-02
4.563479589139585735e-01
6.528941398175673871e-01
6.223563172951105393e-01
3.992291265424254276e-01
5.547547704432062576e-02
-3.045913319248811368e-01
-5.523686417067574794e-01
-5.791319955202418601e-01
-3.641738604944237401e-01
3.129872581510095841e-03
3.750266330667915704e-01
6.155832541942768410e-01
6.443938362707283263e-01
4.538301611256730927e-01
1.011445978181841898e-01
-3.059755554749011841e-01
-6.131786795644080801e-01
-6.700006824367233937e-01
-4.500833554058259467e-01
-9.488456576465571779e-02
2.405719477685799856e-01
5.704395506478104894e-01
9.700755258101833034e-01
1.248286392835434855e+00
9.919515114092987140e-01
1.345930558992451953e-01
-7.849552459628976742e-01
-1.156028802083908236e+00
-8.708571169664849343e-01
-2.607824396890807139e-01
3.022701019657759169e-01
6.350435131601072092e-01
7.198710150285621001e-01
5.918062834207096223e-01
2.898159593422819369e-01
-1.131725942378626892e-01
-4.887630373681423057e-01
-6.884742862013593090e-01
-6.158152621337295018e-01
-2.882081938340870231e-01
1.619220225508564148e-01
5.557050168824805292e-01
7.504339014064101976e-01
6.838480494694775258e-01
3.861599810971501623e-01
-2.712222519298113088e-02
-4.009204047569678853e-01
-6.116015815322036753e-01
-6.027456639528122606e-01
-3.768220026209359586e-01
6.416311233049212803e-03
4.189121285949635731e-01
6.881779358960503634e-01
6.762402832957822296e-01
3.687908841308245589e-01
-1.039413771782001228e-01
-5.403280606656127860e-01
-7.710162752877045556e-01
-7.238057288864587768e-01
-4.418471377723037774e-01
-6.682306370622802250e-02
2.329540599698039505e-01
3.744130261352722755e-01
3.874317657348487765e-01
3.042820123833768209e-01
9.291877255019780069e-02
-2.405912307525702731e-01
-5.614627427876554000e-01
-6.911612412609188238e-01
-5.496388487630300412e-01
-1.949170927163852707e-01
2.288240998775283308e-01
5.588067816078671202e-01
6.717769858210353995e-01
5.326665366456375672e-01
2.148636811723808604e-01
-1.416644254549791759e-01
-4.257744176042178030e-01
-6.089556058853456966e-01
-6.665446764369249433e-01
-4.587630443701014027e-01
1.590600078449499744e-01
9.863079521726363375e-01
1.433359827542767917e+00
1.096321726690194565e+00
2.373162880094868421e-01
-5.347181080501763883e-01
-8.883118762814998792e-01
-8.953809979196803992e-01
-7.291706292111983512e-01
-4.519961580018900804e-01
-6.633986772869558679e-02
3.512813564331742633e-01
6.337937319523895274e-01
6.395542255044408542e-01
3.640072084807088326e-01
-5.882368677665558709e-02
-4.469060684618205159e-01
-6.642457284552839569e-01
-6.546854433021541686e-01
-4.300724730237644455e-01
-5.748970505893552518e-02
3.472098262365537202e-01
6.412175630222440859e-01
7.063685798389667259e-01
5.108713275403781173e-01
1.314324878692697818e-01
-2.862263143859419823e-01
-5.916460220864083741e-01
-6.772106998556624013e-01
-5.088668561004209279e-01
-1.499732423246575574e-01
2.463184045222016616e-01
5.116921367469030590e-01
5.631888924574435240e-01
4.226583169415276675e-01
1.483220917600596989e-01
-2.019647920453095935e-01
-5.348486024850416243e-01
-7.149431403499320048e-01
-6.432128142699518047e-01
-3.346601385392343198e-01
9.063755646404386690e-02
4.748187711710580294e-01
6.797930101534549463e-01
6.276617804527960809e-01
3.383301261954853034e-01
-6.927735573634147270e-02
-4.351561610034998528e-01
-6.285919708337458500e-01
-5.864644304819336407e-01
-3.257141008212915967e-01
5.955560631489807688e-02
4.276804702099736843e-01
6.486975833335806296e-01
6.575835328520398537e-01
4.530529968763135074e-01
5.590912829394015238e-02
-4.663900492600850378e-01
-8.722666418558850943e-01
-7.815584592008436582e-01
-1.028757164658787027e-01
6.609393626863958593e-01
8.992169431914873723e-01
6.057954675487616791e-01
2.430547796817865147e-01
5.624177256412479786e-02
-9.324152192479469303e-02
-3.399157053931866623e-01
-5.917335729826789237e-01
-6.741022045999525147e-01
-5.088707193406117879e-01
-1.454551755052260753e-01
2.835769576963334537e-01
6.235316658052765248e-01
7.624401514766092625e-01
6.619352403506673088e-01
3.531107210724575562e-01
-6.553949017855598136e-02
-4.416806457081935977e-01
-6.287659414892775578e-01
-5.617660855460994140e-01
-2.810941171894829615e-01
1.043419861622083833e-01
4.591236561955199247e-01
6.513298735078200119e-01
6.014866260025099054e-01
3.294861214004895511e-01
-5.426889506335159236e-02
-4.073553112518134567e-01
-6.166899854986436225e-01
-6.304175708036805492e-01
-4.507545734978072316e-01
-1.199697911808362133e-01
2.639423329917875982e-01
5.487135478972334779e-01
6.013351326181644030e-01
3.943621168126246745e-01
1.954711286431895512e-02
-3.700721321700023436e-01
-6.339627379235037719e-01
-6.870935791458498976e-01
-5.131773044648395565e-01
-1.707942071994386635e-01
2.193205626865222524e-01
5.171717748442066220e-01
6.120222431372569494e-01
4.612907525111058504e-01
1.160551940324255071e-01
-2.900161858569119122e-01
-5.973112900120379765e-01
-6.892945154805310004e-01
-5.332339413018780672e-01
-1.804860944783621135e-01
2.555361075965494333e-01
6.173329502544536718e-01
7.286103398355703309e-01
4.933908245957061567e-01
5.775731332921878181e-02
-2.150000681172642980e-01
-1.337682209750936657e-01
2.787739724986028345e-02
-8.829618067941566451e-02
-3.665264342111723694e-01
-3.875245590592182876e-01
-3.636200836386230262e-02
3.753607364668136714e-01
5.057188753834352957e-01
2.881500509044696012e-01
-1.034602184880048653e-01
-4.434055966140365568e-01
-5.894477315026230846e-01
-5.115179721123982448e-01
-2.550054692142910140e-01
1.021264177470246753e-01
4.613910291898444260e-01
7.024468571895373659e-01
7.193238181145499288e-01
4.880533921879510184e-01
9.074258986758929058e-02
-3.301173096010857066e-01
-6.297367070468874450e-01
-6.977853381529648402e-01
-4.972361432009860804e-01
-1.007820752448915086e-01
3.255347035111557097e-01
6.040227310474256539e-01
6.374788240546511719e-01
4.437032657734735763e-01
1.091059114157485188e-01
-2.764173225711861193e-01
-6.185407174546955211e-01
-7.918222697231791507e-01
-6.967242912184049564e-01
-3.575009374449834021e-01
8.213849501558799504e-02
4.556159538193580438e-01
6.359451547131355076e-01
5.517911341177295093e-01
2.258127034821386658e-01
-2.027233798174760127e-01
-5.496202040790678645e-01
-6.919920460133784923e-01
-6.009557341327180779e-01
-3.156263184840585878e-01
7.416525040511684486e-02
4.384146040791646604e-01
6.432367807143959393e-01
6.070573601794577723e-01
3.425689922507784146e-01
-4.628020170890644741e-02
-4.145513547951443778e-01
-6.311149362988900391e-01
-6.058454645263501304e-01
-3.276711715586465568e-01
7.709059416800859155e-02
3.901989341547530410e-01
5.176219772973367217e-01
6.154683986813538343e-01
8.176146087595539402e-01
8.845996835166801686e-01
4.453741663364184644e-01
-3.855880099879628875e-01
-9.937650877592325571e-01
-9.408535515219589307e-01
-3.778577229383680569e-01
2.388258508156106408e-01
5.952890527025281875e-01
6.354171225899043485e-01
4.303258884159274489e-01
7.980441156867468244e-02
-2.950482558232088715e-01
-5.620390195487203755e-01
-6.241118378695411639e-01
-4.603980111858286817e-01
-1.317661825266615572e-01
2.483453070871810275e-01
5.552571279806953752e-01
6.858057589655661701e-01
5.880515018875384081e-01
2.873777101437425818e-01
-1.179634489058480340e-01
-4.937422475165025304e-01
-7.056974779032391121e-01
-6.546666849839893887e-01
-3.355398470896114871e-01
1.259872016336887057e-01
5.312338902144895236e-01
7.178344971862514745e-01
6.181819735080612555e-01
2.648124895285045022e-01
-2.097111616006002155e-01
-6.091075688079091721e-01
-7.751695431161731431e-01
-6.706442863128398990e-01
-3.636285104513564681e-01
3.293794735003666846e-02
3.920509427315099771e-01
5.951328526169379352e-01
5.742277809915837805e-01
3.369620591951634769e-01
-4.171372699023568470e-02
-4.321548120617414446e-01
-6.797765509114042093e-01
-6.770949412528972644e-01
-4.233888130048552578e-01
-1.401303358368095886e-02
4.056134627449546892e-01
6.824813555457752701e-01
7.129970937898404415e-01
4.970374031239567225e-01
1.317272907481775723e-01
-2.438615054954765826e-01
-5.002006556397839976e-01
-5.684074013402808934e-01
-4.736516594633399246e-01
-2.555275999526848141e-01
1.528023178861425135e-01
7.917508701443904950e-01
1.360603860150759514e+00
1.330778273011486323e+00
5.689692579976111109e-01
-4.097568811546333234e-01
-9.843403212330577023e-01
-9.955865721719392436e-01
-6.821682508723998506e-01
-2.983858454574087604e-01
6.318966638027279092e-02
3.869275318713161216e-01
6.101105329455276394e-01
6.200795486198188433e-01
3.610665916179719992e-01
-7.498345218401736290e-02
-4.823008771835167185e-01
-6.800010546453572058e-01
-6.178189625730660106e-01
-3.557802181904035077e-01
1.295062584846765757e-02
3.873464679464584393e-01
6.446764719962605472e-01
6.615612311801319922e-01
3.842068789476385526e-01
-9.810679086040258179e-02
-5.631862362749602280e-01
-7.947132668185531434e-01
-7.232742130496505606e-01
-4.226270199589579613e-01
-2.278423035041279160e-02
3.364144399401781671e-01
5.277684566846680969e-01
4.868543398542456990e-01
2.469550371599802674e-01
-9.367228978389262328e-02
-4.291930078334447729e-01
-6.644677071215417952e-01
-7.136870637095222847e-01
-5.317264973654223237e-01
-1.640772801386994884e-01
2.541238897881801240e-01
5.686208395578703501e-01
6.771228636510483456e-01
5.504922312425751807e-01
2.309832689595087141e-01
-1.718012707218130319e-01
-5.085709731439835846e-01
-6.451677647546411043e-01
-5.206567931803205429e-01
-1.827331150646713531e-01
2.300559400028958090e-01
5.610013191508594899e-01
7.057409522574197291e-01
6.342754791772750034e-01
3.788125945468928668e-01
7.276409727198146493e-03
-4.004294273344081168e-01
-7.220879130508660593e-01
-7.345511625297546088e-01
-2.329021043541488201e-01
6.253093781567383713e-01
1.247020287157277973e+00
1.164208206377780330e+00
5.532762862444958740e-01
-5.479845164738493535e-02
-3.919410232267590555e-01
-5.458422476287132508e-01
-6.317669686482800806e-01
-6.129538998334636002e-01
-4.034002153971402715e-01
-2.043771437402398111e-02
3.943351325573746236e-01
6.719113747155026628e-01
7.151444160846915921e-01
5.280415734171001185e-01
1.874414147244574946e-01
-1.968049425382322748e-01
-5.035157353231165533e-01
-6.186027700825472708e-01
-4.799680927581163603e-01
-1.272942368793929802e-01
2.997125146002436180e-01
6.264339594235768249e-01
7.230549093493029433e-01
5.519254907387357578e-01
1.768941046469589273e-01
-2.602397664382060105e-01
-5.958006757232764405e-01
-7.123438346009128841e-01
-5.854677586626263475e-01
-2.872635236647883006e-01
5.939168812956873572e-02
3.438390333819648093e-01
4.902371164391773894e-01
4.438977371285098839e-01
1.882044451477607183e-01
-2.058871436577083269e-01
-5.806752074769959693e-01
-7.743878891722298929e-01
-7.088169222240086054e-01
-4.101602105504951190e-01
1.850034619463737651e-02
4.328969579405433921e-01
6.900107187898447680e-01
6.963366104832282577e-01
4.439444828944690280e-01
2.303185440694273389e-02
-4.000068043726716094e-01
-6.517039896771010810e-01
-6.399165606973604703e-01
-3.932929276105320837e-01
-2.435542714403989700e-02
3.397770211185002776e-01
6.006121886477155947e-01
6.781894456093606749e-01
4.898696322488942934e-01
2.470321422242863219e-02
-4.951317947878642323e-01
-6.500823280812081384e-01
-2.547979011854382136e-01
3.063701718863549028e-01
4.919508106729336694e-01
2.834685574256618490e-01
9.838415012997336895e-02
1.424495050267513552e-01
2.137678156562312082e-01
7.160830753590692599e-02
-2.698705028050341070e-01
-6.003666464807203562e-01
-7.223619412003239315e-01
-5.851812794749058355e-01
-2.772394014457590372e-01
7.460934698388138608e-02
3.852848663293124698e-01
5.898079611048939741e-01
5.961889809005764818e-01
3.476333635905853869e-01
-7.127522691351073636e-02
-4.624985972845903071e-01
-6.533823920211233593e-01
-5.843455145436838860e-01
-3.014910650132032188e-01
8.583848387464496077e-02
4.431406977086350119e-01
6.439785653185237102e-01
6.110663485205544143e-01
3.573191036926897657e-01
-1.588972715738302260e-02
-3.803141852396096367e-01
-6.405949503619385865e-01
-7.312209533520364069e-01
-5.957771086512283487e-01
-2.327746445633823713e-01
2.295268621792074526e-01
5.673630517459936629e-01
6.232820749302759866e-01
4.241616624612695174e-01
1.201711161630938107e-01
-1.666278773370644395e-01
-3.915968550397177506e-01
-5.097229638193643275e-01
-4.436589690633468974e-01
-1.698443110588310212e-01
2.163804996448632778e-01
5.472203314927738260e-01
6.778936633338862316e-01
5.547798019952192572e-01
2.265968341500804728e-01
-1.900100836030810814e-01
-5.523546474595552036e-01
-7.264662783289751458e-01
-6.287249989329545263e-01
-2.706413993112636862e-01
2.153927385480976786e-01
5.959325584906149942e-01
6.546096705309687458e-01
4.027431720148819672e-01
1.450089389729108669e-01
1.467032038617858691e-01
2.397557289692526517e-01
4.579805547069012994e-02
-4.082044885263433898e-01
-6.699427076764878919e-01
-4.734515533061679493e-01
-1.683160312840040196e-02
3.648445717973318736e-01
5.017115224790001937e-01
3.759178510510191584e-01
5.327385797840995113e-02
-3.228808396257478730e-01
-5.804009199158424170e-01
-6.072132621264667574e-01
-3.956522928838425712e-01
-2.866321223972854298e-02
3.608525782139192506e-01
6.373695861401484919e-01
7.033088008750484343e-01
5.269599914057991885e-01
1.597361661127577326e-01
-2.683621465959808994e-01
-5.924910644073447807e-01
-6.847181688666592603e-01
-5.120935624153295507e-01
-1.476332257667160308e-01
2.626488985614397476e-01
5.568852513235978963e-01
6.244991756556699247e-01
4.498599488637101129e-01
9.622525695294019410e-02
-3.343169894426127331e-01
-7.077075941324851849e-01
-8.723799404444270156e-01
-7.380292259059476612e-01
-3.529849935213457135e-01
1.154717116793592124e-01
4.825286306391137758e-01
6.348603176200922071e-01
5.481313120861640575e-01
2.648609417365141994e-01
-1.184202245967939382e-01
-4.702332680432905754e-01
-6.665394832016666715e-01
-6.302327691942813948e-01
-3.600526976737680185e-01
5.276883743486866785e-02
4.547593494217510579e-01
7.003777809535000065e-01
7.009350860977191511e-01
4.435856156062161215e-01
1.210802040819396186e-02
-4.164050565048416086e-01
-6.446847162079332172e-01
-5.740463797406748503e-01
-2.813173791800116508e-01
3.770952188673564603e-02
2.612390982768212355e-01
4.829191962911345559e-01
8.368457368125302720e-01
1.130881193517608407e+00
9.074239984115505253e-01
6.426407159865592245e-02
-8.523628893987106325e-01
-1.205612135070702973e+00
-8.912100492330865542e-01
-2.643569351465758777e-01
3.023455324855577886e-01
6.325266558129176708e-01
6.931029225728387866e-01
5.203473715557745960e-01
1.998822362529011076e-01
-1.583365428861991664e-01
-4.486958069184582287e-01
-5.765478118495844795e-01
-4.792029491372490901e-01
-1.731232754947513164e-01
2.312585888132810130e-01
5.741364826970758450e-01
7.167909852487773792e-01
6.034016364758695294e-01
2.862586578340703403e-01
-1.063718867395345297e-01
-4.334619030286494534e-01
-5.866906046894481142e-01
-5.157758077866995139e-01
-2.465903874618310954e-01
1.267336715927995239e-01
4.770906703832151763e-01
6.769366300210308829e-01
6.268640468306209135e-01
3.081924247692466867e-01
-1.671597367631458830e-01
-5.952837024336632421e-01
-8.047285637274063097e-01
-7.417923506897180497e-01
-4.562552136477911469e-01
-5.453946306959369522e-02
3.323182709540802859e-01
5.836469134948191195e-01
6.272848850429558754e-01
4.533606283437897067e-01
1.020493323926297269e-01
-3.348004704927914355e-01
-6.917803422884813980e-01
-7.813965179202356781e-01
-5.445236815138355668e-01
-1.153316824718108868e-01
3.056745806400534837e-01
5.888640304467243070e-01
6.728865419981996387e-01
5.246842059133766112e-01
1.735705259804080081e-01
-2.482358028305533815e-01
-5.670113891175523335e-01
-6.925371141323933832e-01
-6.321330181568967088e-01
-3.447923064214902800e-01
2.739661119805700262e-01
1.076179373722908172e+00
1.510251635523913727e+00
1.140597144497294879e+00
2.144941398440163016e-01
-6.079310395492317776e-01
-9.534380843224328217e-01
-9.101446611180310509e-01
-6.830338199819901979e-01
-3.563605719409796979e-01
4.077546245727829005e-02
4.222733586253001881e-01
6.602841313967765524e-01
6.646511054061530199e-01
4.312761226352859745e-01
4.426448616164668087e-02
-3.549220011105481132e-01
-6.168814594327836076e-01
-6.360834978107769988e-01
-3.979193771193918483e-01
3.679420509854758325e-03
4.106727724869178031e-01
6.772749553281340873e-01
7.155927398856477550e-01
5.082647084958766825e-01
1.175270004880912822e-01
-3.210232847025255576e-01
-6.420820316064483890e-01
-7.145813830882631335e-01
-4.988900946768300426e-01
-8.040763261089162173e-02
3.528594064894491344e-01
6.071047833861804577e-01
5.937019264047783684e-01
3.562745943014971606e-01
4.821892672778084477e-03
-3.534227553298305846e-01
-6.287930631690098471e-01
-7.381799953636460909e-01
-6.187640197522332741e-01
-2.788247931185970363e-01
1.638882727780148207e-01
5.244375467353195042e-01
6.597498089125497511e-01
5.413093771215038430e-01
2.338927823005985396e-01
-1.595801939156002436e-01
-5.191321148902423577e-01
-7.175949455181627190e-01
-6.650970467654536700e-01
-3.669453064988659197e-01
6.060388854720936275e-02
4.417345206982487005e-01
6.359800672642341723e-01
6.016775520254236120e-01
3.681011574080986781e-01
-2.805503389914550810e-02
-5.181638217318424999e-01
-8.839779283845718982e-01
-7.806217715679604208e-01
-9.947278309604654090e-02
7.181320424301913530e-01
1.044219288432773007e+00
7.607611157508108457e-01
2.854673631336920869e-01
-4.036905622705174584e-02
-2.485288497351370585e-01
-4.736797313313098612e-01
-6.849766185036890720e-01
-7.328067609308341890e-01
-5.264668475789229252e-01
-1.224171403976761496e-01
3.171869450208093522e-01
6.224449793303415968e-01
6.905141732207750183e-01
5.133200418758234740e-01
1.667729620725650341e-01
-2.264023463983150242e-01
-5.350260195802389873e-01
-6.485530739309532944e-01
-5.150601290905884033e-01
-1.783070820070642160e-01
2.288824127985027990e-01
5.451762603596966850e-01
6.556283527287870561e-01
5.338010324006671192e-01
2.349581188427287415e-01
-1.376628702499044232e-01
-4.597475133226993638e-01
-6.128762029960921343e-01
-5.420245319784642302e-01
-2.965513225883739112e-01
1.691973322821112291e-02
3.072558465420455187e-01
4.974257944390588770e-01
5.006252074519114137e-01
2.718734747574239052e-01
-1.129747429952213666e-01
-4.736888372459045482e-01
-6.411503201463152335e-01
-5.562507397137786969e-01
-2.759951269019486064e-01
8.457977197993105101e-02
4.092364040531608071e-01
6.068263657285811741e-01
6.209009472838878940e-01
4.396372103278687882e-01
1.062871071472595436e-01
-2.766703394061399979e-01
-5.681190573134209387e-01
-6.479389629486117519e-01
-4.824650706900687203e-01
-1.392230594690330725e-01
2.576687783226485062e-01
5.788009596877063956e-01
6.994193581418923777e-01
5.157477661438888417e-01
6.247472737534886383e-02
-3.669382806502475836e-01
-4.055190499516452274e-01
-6.235699161105739269e-02
2.220157725458806464e-01
1.612176142282344959e-01
-4.867238959272317256e-03
6.938038338037584574e-02
3.345583498454289817e-01
4.699742567903685275e-01
2.958784817366111874e-01
-9.004169906095918496e-02
-4.654723499003597942e-01
-6.546925863665544743e-01
-5.902971304161794830e-01
-3.065453640076338249e-01
8.252072931268034095e-02
4.285137644803010404e-01
6.256150093532001355e-01
6.500223862484406645e-01
5.077205728836741150e-01
1.955411948360289143e-01
-2.208801725657175696e-01
-5.545315573764860728e-01
-6.225379576264122861e-01
-4.002273551178818223e-01
-1.072774964012584986e-02
3.821417738388547813e-01
6.353064353837928335e-01
6.493379390030100673e-01
4.125915071519624111e-01
2.552810162298382868e-02
-3.639907337234639662e-01
-6.512708371456562562e-01
-7.754756399245941179e-01
-6.769953225839652200e-01
-3.408989245161995751e-01
1.209156891595598582e-01
5.011001485979541537e-01
6.313820243977289470e-01
4.798688722894547398e-01
1.429565859552920093e-01
-2.308268122748997342e-01
-5.135706885755679796e-01
-6.246017750330160601e-01
-5.293133151396607339e-01
-2.472579183913839740e-01
1.353460049038006929e-01
4.829056893521475602e-01
6.636410838744006835e-01
6.052101101737520361e-01
3.221266463085608600e-01
-9.238703841035078579e-02
-4.995324557559045475e-01
-7.483172407468682286e-01
-7.104173209307653725e-01
-3.559100460572307001e-01
1.616348249022626637e-01
5.493854269000241208e-01
6.029210636952301305e-01
4.290405828572843583e-01
3.458639375501826874e-01
4.371900675023829286e-01
3.568421734782732391e-01
-1.630492465346843611e-01
-7.967212900394469166e-01
-9.634223650919716553e-01
-5.236496006002010484e-01
1.380797105219019050e-01
5.767019678751872380e-01
6.279173801108325348e-01
3.871419647596310853e-01
3.146870796575627904e-02
-3.015400006475467687e-01
-5.316834779988643955e-01
-6.043306955689637938e-01
-4.733867991151646804e-01
-1.374821631039132019e-01
3.025060784224080090e-01
6.578665540389806443e-01
7.620645984619714985e-01
5.747107455768656337e-01
1.869913510881593133e-01
-2.476783718431903314e-01
-5.825741767081518141e-01
-7.152823910484836789e-01
-6.060971119725255818e-01
-2.895892030291739028e-01
1.247595402971582168e-01
4.811712912503971484e-01
6.393607849263089893e-01
5.327089181634929727e-01
1.865631005395981257e-01
-2.921145190908495115e-01
-7.340473710898000048e-01
-9.565530920811955440e-01
-8.556847462523639036e-01
-4.786905162434502703e-01
4.818399333733555667e-03
4.105034000106790315e-01
6.221612346896164825e-01
6.034686737227763498e-01
3.787462413339040546e-01
2.030842429361007923e-02
-3.614805929961568687e-01
-6.343046717249948285e-01
-6.741032597593719089e-01
-4.299114515549646853e-01
1.040733556632240930e-02
4.534122503122398617e-01
7.270204857653019825e-01
7.590349152597919424e-01
5.561280715237689742e-01
1.775775942841322230e-01
-2.492960428963160446e-01
-5.444151237971116553e-01
-5.792809955801164756e-01
-3.862669165316202635e-01
-1.111366060601171046e-01
1.916053997034925516e-01
6.246133407168114049e-01
1.144801609262998232e+00
1.321151842803256260e+00
7.621126251081675740e-01
-2.656857703859750730e-01
-1.040360785924595355e+00
-1.150739829883927534e+00
-7.525218262437164407e-01
-2.023871368933754522e-01
2.665471666735305112e-01
5.646860177109078727e-01
6.604935505473977786e-01
5.509227782679980701e-01
2.758639642834805894e-01
-7.872511820681261929e-02
-3.959483929005863656e-01
-5.555519991308843775e-01
-4.820291019080299444e-01
-1.885881885183033901e-01
2.198008902816959986e-01
5.804900508595963737e-01
7.383433822624581033e-01
6.312265645456216490e-01
3.232500589139419289e-01
-5.714004498628492273e-02
-3.943571002996780761e-01
-6.021971244966862757e-01
-6.134147702204665320e-01
-3.987784742739846622e-01
-9.154639307454165431e-03
4.091834880838776112e-01
6.625678635858098797e-01
6.142837103830527390e-01
2.847961288375256972e-01
-1.535604891237333236e-01
-5.104833233548903282e-01
-6.970315381475999938e-01
-7.038683052845942090e-01
-5.242340819066686475e-01
-1.692347719230626879e-01
2.583350367168602557e-01
5.776630754438556448e-01
6.496122215520807597e-01
4.689530095562932099e-01
1.359916565981405256e-01
-2.317238567854336406e-01
-5.344914290948641344e-01
-6.724188957179098036e-01
-5.690705552601722506e-01
-2.422611649281414536e-01
1.820396204183836464e-01
5.378489555399261768e-01
6.873701220646500909e-01
5.629083005055584010e-01
2.103005017531023868e-01
-2.138225758719489722e-01
-5.492704287397660590e-01
-7.355924491501382168e-01
-7.353306569820277083e-01
-4.046680141151265953e-01
3.261730437594673182e-01
1.106523730721882925e+00
1.335048097478535700e+00
8.272786247860928199e-01
2.521091289416062253e-02
-5.546175368792628513e-01
-7.893280077718470844e-01
-8.082033197658257118e-01
-6.807078727234721072e-01
-3.923477239603290201e-01
1.255148385398157512e-02
4.001257722794832605e-01
6.311054363875809869e-01
6.263349152175911039e-01
3.943323200441815612e-01
3.698492811005691522e-02
-3.045538133241268430e-01
-5.271013349860067532e-01
-5.756476024372830791e-01
-4.221454287561166030e-01
-9.141758933480823024e-02
3.098701808618078979e-01
6.257350361787052950e-01
7.219076729109248358e-01
5.478306398779773101e-01
1.632842523946052837e-01
-2.829950629974586351e-01
-6.166512021876866534e-01
-7.117979818158667316e-01
-5.405565857880774150e-01
-1.852956954687194902e-01
1.954004090338867239e-01
4.494304537563701407e-01
5.045604249565086574e-01
3.672948459008247846e-01
8.466957733564858812e-02
-2.625599085731662452e-01
-5.602296791261190956e-01
-7.001228174467676313e-01
-6.245464884195567334e-01
-3.394251829334757886e-01
7.967740744736227787e-02
4.859049576409691928e-01
7.088414846641292177e-01
6.487506719785904874e-01
3.398327080866581640e-01
-7.886808776215961658e-02
-4.495357753503539944e-01
-6.534033121891089646e-01
-6.250175612273676240e-01
-3.700144170541340705e-01
1.596968625180310297e-02
3.789087636222444044e-01
5.884181358039898280e-01
5.944137935741606871e-01
4.024964970704805189e-01
2.810777191643670792e-02
-4.474424565427961298e-01
-7.601250504640540973e-01
-5.810872933635528037e-01
6.278103905870305312e-02
6.568032855086072264e-01
7.523211269043670324e-01
4.705492125212272780e-01
2.055745635335957944e-01
7.207196610273228221e-02
-9.198894846377664303e-02
-3.683856825936255852e-01
-6.329314515360571214e-01
-7.133720229115312339e-01
-5.412333319934274911e-01
-1.709145101776223530e-01
2.672257923331567420e-01
6.205466521249319856e-01
7.661007205993435321e-01
6.535210440549866773e-01
3.258152665778012436e-01
-9.302728707421270560e-02
-4.439653017587302242e-01
-5.958538850715703328e-01
-4.995040203220607600e-01
-2.047558706873857937e-01
1.689845196577282604e-01
4.844904664511022196e-01
6.323014351113029896e-01
5.613666882916945600e-01
2.939360919690458540e-01
-7.660609250689175143e-02
-4.126181569836112617e-01
-5.909560814297046827e-01
-5.641310780235723188e-01
-3.657157130625806607e-01
-6.113703226833195475e-02
2.755346807786105412e-01
5.344928643149799985e-01
5.850187699953874887e-01
3.719342351315785833e-01
-1.824919475035637756e-02
-4.105709688621214104e-01
-6.473540811424094432e-01
-6.487195703352643950e-01
-4.198570812420435172e-01
-3.728118441492161983e-02
3.749715750747150689e-01
6.825529594929033994e-01
7.822952721901322848e-01
6.306873543421774864e-01
2.643786001830682464e-01
-1.884626111594008280e-01
-5.463329178806175523e-01
-6.665155106913301930e-01
-5.168253718196080815e-01
-1.696426942867283183e-01
2.511779138108429232e-01
6.011444119169220279e-01
7.163838484764879500e-01
4.832110187329186068e-01
1.751883676363940462e-02
-2.995113352113297767e-01
-2.033417821109089474e-01
5.981121900365822530e-02
4.340776405937414595e-02
-2.341603945157993416e-01
-3.298081303984855550e-01
-3.613463301234072500e-02
3.698295965560448595e-01
5.127042408363400305e-01
2.892338399267296856e-01
-1.406407199216284931e-01
-5.466048384474156974e-01
-7.563238447304350132e-01
-6.942277800820259026e-01
-3.937817560908158931e-01
2.176143265481593481e-02
4.075122700190090264e-01
6.546414959694979441e-01
6.882811131183205200e-01
4.686572501711825378e-01
4.972468190500426571e-02
-3.946713966106951688e-01
-6.639168173817834306e-01
-6.567749485914695651e-01
-4.047386816960821809e-01
-2.252503893351193165e-02
3.497835184802395858e-01
5.889957217381787125e-01
6.213173563417800915e-01
4.402852258176513933e-01
9.969521431839839520e-02
-3.115773448056036177e-01
-6.812897006187783600e-01
-8.740110343770283174e-01
-7.794714631549785055e-01
-4.089235431025196599e-01
7.411543528930381042e-02
4.517477173309641936e-01
5.837137002792823770e-01
4.585826793416114544e-01
1.605170155816796618e-01
-1.888979523810579708e-01
-4.731563545328366094e-01
-6.015888849482220468e-01
-5.247509004087846929e-01
-2.540027980541566532e-01
1.304476889314902244e-01
4.998381301525119946e-01
7.176897001972446510e-01
6.851187591754915873e-01
3.879896730110466430e-01
-7.567289824445655455e-02
-5.278667725829592205e-01
-7.863970234628399059e-01
-7.373423248170243305e-01
-3.977773420808767835e-01
5.873810369677263249e-02
3.904677134079871936e-01
4.899066462365566643e-01
5.107126498828642447e-01
6.579694455406943643e-01
7.941204471140976828e-01
5.146734000141610643e-01
-2.232617172930774219e-01
-8.725767055375626136e-01
-9.106406959346500241e-01
-3.978003362599814019e-01
2.241061236420828218e-01
6.187244186443844329e-01
7.040289029909349017e-01
5.256759513023796515e-01
1.715324002787314284e-01
-2.247376517900185888e-01
-5.093118065492819868e-01
-5.761798774323051431e-01
-4.062699282543190682e-01
-6.243796055915804694e-02
3.361917759806338779e-01
6.535681621815984110e-01
7.773149160473575847e-01
6.490945947728130605e-01
2.947321350660787598e-01
-1.587997343565847874e-01
-5.284618965722972517e-01
-6.757752929615921111e-01
-5.702414667289732453e-01
-2.697120389104055160e-01
1.214285414745356895e-01
4.748502802972200953e-01
6.660286871407152809e-01
6.102462365599296001e-01
2.924003112617004074e-01
-1.996932166950897425e-01
-6.709250970494881061e-01
-9.110555830348432416e-01
-8.323012656916579655e-01
-5.054909728289608273e-01
-7.713820669802054497e-02
3.126871663607965202e-01
5.535563947050100575e-01
5.712514294759275524e-01
3.563412518296161235e-01
-7.710408461757189968e-03
-3.721320547895545783e-01
-6.008535318020185034e-01
-6.230110989587539505e-01
-4.315856768251095099e-01
-7.565256201315950779e-02
3.332448094227088986e-01
6.398236762657881771e-01
7.113000096603976363e-01
5.090936722173688977e-01
1.103441498366781459e-01
-3.249546533745044652e-01
-6.193935275015176600e-01
-6.692427073089873835e-01
-5.101611098634486474e-01
-2.468217268120028729e-01
1.229969468153627732e-01
6.907326720321735891e-01
1.300935354694318313e+00
1.436533678282783555e+00
7.743469412941097474e-01
-2.932249400060019662e-01
-1.032926979887084817e+00
-1.121336000449384862e+00
-7.715311335218151267e-01
-3.123857100851631374e-01
9.753141826850197926e-02
4.233149890686909167e-01
6.224433363403765185e-01
6.198701903695101878e-01
3.824043405266207563e-01
-1.186954138782485291e-02
-3.939855151731180838e-01
-5.993680623833306242e-01
-5.508123295769811190e-01
-2.777574307182069102e-01
1.095958111061110241e-01
4.648565879872219031e-01
6.602411478248192411e-01
6.306006593018607109e-01
3.863176692728978456e-01
5.468978767170028232e-03
-3.839926230968365162e-01
-6.433688019383901890e-01
-6.787372910526763281e-01
-4.767753749426545395e-01
-1.034928193517641176e-01
3.112309719568425725e-01
5.978757983472116067e-01
6.143082384010921659e-01
3.426672082864518076e-01
-8.293560414832981675e-02
-4.718328351929345077e-01
-6.984761024786770855e-01
-7.271372848179339377e-01
-5.609238191637757609e-01
-2.261684940926298459e-01
1.914750396276676536e-01
5.462823924964829159e-01
6.951229763386562732e-01
5.663617723469195342e-01
1.989166218047251355e-01
-2.614323135654403885e-01
-6.235543603938590307e-01
-7.448031433997555073e-01
-5.970070436521206503e-01
-2.603630683275232061e-01
1.408908452855231197e-01
4.879287685037646538e-01
6.719799366162968468e-01
6.145536497161687706e-01
3.255844293245765964e-01
-7.578105304098053940e-02
-4.338006559129888862e-01
-6.597667634325721231e-01
-7.250311356541605523e-01
-5.314868917824565608e-01
6.372206020705120655e-02
9.109118888744617282e-01
1.429252115585433192e+00
1.152560675499794129e+00
3.043168140982460690e-01
-4.793061278112922263e-01
-8.397562119043076034e-01
-8.559165006608109305e-01
-7.083859869155323397e-01
-4.521657571602913928e-01
-8.195083831003711905e-02
3.323515216886374080e-01
6.311660478461875723e-01
6.732396927747389404e-01
4.436390815502856411e-01
5.459813588059580364e-02
-3.406887547284844220e-01
-6.189235027257972144e-01
-7.004148775906111624e-01
-5.521826921548266265e-01
-2.100017209460776080e-01
2.143807940958756264e-01
5.676748968543633422e-01
7.138268772451754618e-01
5.911919817068530536e-01
2.438583868799684973e-01
-1.937269717878317421e-01
-5.522925998111317680e-01
-6.949383019623204261e-01
-5.694062590987841732e-01
-2.309893398231864237e-01
1.725348464872661081e-01
4.672223192325865027e-01
5.476841204976289346e-01
4.171343874573752442e-01
1.415994790155761240e-01
-1.989986862785274313e-01
-5.088002360202501517e-01
-6.752627647304011438e-01
-6.138680540389513940e-01
-3.246198341299551537e-01
9.411186721919717613e-02
4.869270539484007454e-01
7.081468087002139589e-01
6.807886844102990498e-01
4.256062210868802875e-01
4.371032052071485013e-02
-3.336861601337618999e-01
-5.857650066106996345e-01
-6.247699514554617695e-01
-4.283844808777790281e-01
-6.702796426185569922e-02
3.204070298833688879e-01
5.974105737428364593e-01
6.880173570245592396e-01
5.756175495037108014e-01
2.652761545628574136e-01
-2.043399351096524819e-01
-6.602824869874108771e-01
-7.605088364311901605e-01
-2.666920708751977509e-01
5.579345123072159129e-01
1.072741607688713072e+00
9.446386237432528032e-01
4.630545337970151110e-01
6.411830722180328346e-02
-1.573901086604937161e-01
-3.443775524055385784e-01
-5.474893387261599020e-01
-6.527510863755068282e-01
-5.333190400123868358e-01
-1.862581589771226398e-01
2.471329462418180301e-01
5.680360380344681159e-01
6.513521047513602946e-01
4.995546334761636897e-01
1.817055919707065703e-01
-2.079001670786929934e-01
-5.315974988574373450e-01
-6.612093249472937861e-01
-5.665792799200706220e-01
-2.964826069587672697e-01
7.734610290061044724e-02
4.482163811811966658e-01
6.735507519594234882e-01
6.473069455329476529e-01
3.741351955890809822e-01
-2.617975388293431599e-02
-3.828247512135287134e-01
-5.640260107100635301e-01
-5.349035092109819534e-01
-3.445815152013835814e-01
-6.814964996513794837e-02
2.274124222057245237e-01
4.670637077923956992e-01
5.556612902345740013e-01
4.221644506282737908e-01
8.780097838932110488e-02
-3.157236590125583886e-01
-6.093461955829312382e-01
-6.678028937063371639e-01
-4.772854884470232872e-01
-1.182585906699982758e-01
2.835726018824486494e-01
5.942753184553311030e-01
6.986187738790528012e-01
5.402636502550941522e-01
1.687522060956189451e-01
-2.608971013303701403e-01
-5.676569705257746845e-01
-6.443136576762445999e-01
-4.924020330195006956e-01
-1.839573072906069418e-01
1.902490144889519008e-01
5.357853151962551630e-01
7.364577174994408892e-01
6.598474587610281272e-01
2.530361065263671549e-01
-3.001977099309348640e-01
-5.907502795774408622e-01
-3.659767516279571198e-01
9.961559201740043112e-02
2.974885344530384668e-01
1.430866547587823778e-01
1.271898729031729902e-02
1.478414786710430529e-01
3.414838095328567302e-01
2.497209617699477913e-01
-1.763904009863224431e-01
-6.461548231417308941e-01
-8.511798837582601474e-01
-7.309569296422511187e-01
-4.156752122734376775e-01
-3.721835723917787248e-02
3.264054261004035729e-01
5.959727512863253196e-01
6.740288725122655089e-01
5.044544925512168820e-01
1.357956926006610165e-01
-2.886833810269066047e-01
-6.051027934375622364e-01
-6.988439019483221326e-01
-5.399938233996728343e-01
-1.905564303759956224e-01
2.175095660740899439e-01
5.281628210302885540e-01
6.214658006232576248e-01
4.696366394189253057e-01
1.457228576360018457e-01
-2.249397636102594134e-01
-5.233300080046184855e-01
-6.701538081157184523e-01
-6.290467055532857898e-01
-3.954078082106245451e-01
-1.136582221267132264e-02
3.977613545700418585e-01
6.466003499613013350e-01
6.025260568357835300e-01
2.838100479348255045e-01
-1.585513863873941887e-01
-5.361492576646329500e-01
-7.056695674348958391e-01
-6.160403761032937631e-01
-3.207094663246587984e-01
6.079492817013486955e-02
4.057179528054291051e-01
6.149363471258210145e-01
6.140926056416384782e-01
3.867519709792825999e-01
1.109098133334916747e-02
-3.686056354114804479e-01
-6.118645478763948820e-01
-6.282414367692678026e-01
-3.940708048692350696e-01
2.946354752029928248e-02
4.761035980690792035e-01
7.127532167346051217e-01
6.033558166930534927e-01
2.976492762166926820e-01
1.325820769521578457e-01
1.958378782184455047e-01
1.592274998046974144e-01
-2.143953861867421151e-01
-6.290634355605184691e-01
-6.221318001255855545e-01
-1.606301349136379231e-01
3.766605728398050301e-01
6.407698345903156678e-01
5.555724536896423649e-01
2.347686449691165633e-01
-1.642497466838172826e-01
-4.894874814075431124e-01
-6.123981409069795268e-01
-4.791458774925673181e-01
-1.410278500953839331e-01
2.753456789765351131e-01
6.195682835210676309e-01
7.630528193497218004e-01
6.451852962584165851e-01
3.073883423064885934e-01
-1.182709919728596459e-01
-4.720113038808743666e-01
-6.347996858157710642e-01
-5.586641780666280477e-01
-2.734009817966665534e-01
1.147549834684313957e-01
4.625134119150110523e-01
6.587649008230406222e-01
6.524943587902507502e-01
4.326996167831184681e-01
3.537102074010604197e-02
-4.178935694743213802e-01
-7.387886521285632613e-01
-7.780570802874858805e-01
-5.234820221138027918e-01
-9.567749007741423173e-02
3.352137043478601308e-01
6.229740782347057415e-01
6.700447552787577310e-01
4.433860517903315257e-01
1.617933158304760144e-02
-4.277548247731832176e-01
-6.945150553619592326e-01
-6.973950033039643115e-01
-4.662521479446408712e-01
-9.020976660463365937e-02
3.116746798683941444e-01
6.080106464215180306e-01
6.964675630607507495e-01
5.418506876809994210e-01
1.898426144903216650e-01
-2.395007198565070328e-01
-5.833517439388486991e-01
-6.965715172144855138e-01
-5.297330439263113755e-01
-1.832578790538056668e-01
1.505559288690349329e-01
3.849629191209800738e-01
6.424097275267010021e-01
9.832741602357324417e-01
1.088853119025449123e+00
5.705739617540482866e-01
-3.910343567223941719e-01
-1.113438987273953185e+00
-1.151682007174132938e+00
-6.574909792161763855e-01
-4.652826441294272142e-02
3.972269073201897260e-01
5.897126619395526292e-01
5.466088077680841817e-01
3.165169754993442108e-01
-2.577803813456436971e-02
-3.692332519606640884e-01
-5.828920866599913708e-01
-5.704186908709336645e-01
-3.251960128193983612e-01
6.071593262707421224e-02
4.419961284541047974e-01
6.831883858810749999e-01
6.976800559524688472e-01
4.661741077627447050e-01
5.794698887376246998e-02
-3.644476741287765442e-01
-6.075776990369528008e-01
-5.762351538568605269e-01
-3.436377196975942683e-01
-4.732744677879002770e-02
2.492962406565086830e-01
5.189531925592978379e-01
6.540443950373086013e-01
5.090125623826668999e-01
7.714553957293551756e-02
-4.417734445830706624e-01
-7.930045659185690488e-01
-8.554345954280332398e-01
-6.617474048514834228e-01
-3.044628794198890320e-01
1.142058335938607311e-01
4.743236499136747608e-01
6.460969070192168484e-01
5.445356180381489830e-01
1.985122160862935192e-01
-2.414408862630327557e-01
-5.922101944240416582e-01
-7.391564577557157012e-01
-6.548800621239181385e-01
-3.714536242949885159e-01
2.613273424543138129e-02
4.071688728643416133e-01
6.355639373796841962e-01
6.198188028090296786e-01
3.519337628269101348e-01
-7.005556545588909056e-02
-4.691689196557766173e-01
-6.884146069769969678e-01
-6.897520008875509534e-01
-5.219643151499011591e-01
-1.699006233595572457e-01
4.382286062537689153e-01
1.129370936378903734e+00
1.382502645296453725e+00
8.510327050490111844e-01
-1.406682042575279346e-01
-9.221263356640818643e-01
-1.146630516873056171e+00
-9.275537561259803443e-01
-5.207402241317463654e-01
-9.571142444296766583e-02
2.715851506878669275e-01
5.359440556926274857e-01
6.464714665763314771e-01
5.549042836111665045e-01
2.571368695274566241e-01
-1.626749147667737594e-01
-5.330876953307593924e-01
-6.718903885796047026e-01
-4.976872052045641648e-01
-8.954970709691112418e-02
3.598628896371581232e-01
6.660715002624308934e-01
7.421580170044972391e-01
5.930783185293018178e-01
2.732162343676360350e-01
-1.285144292206116534e-01
-4.927888809960949135e-01
-6.935268378861687566e-01
-6.419967047098922297e-01
-3.391618636887557825e-01
9.537045309561137385e-02
4.658277070458953228e-01
6.168997247757824764e-01
5.237661719050993314e-01
2.591349694661681524e-01
-8.897467121720345484e-02
-4.267484477911219765e-01
-6.333599700414139777e-01
-6.020649793011662032e-01
-3.168159059711088688e-01
1.142852244432537162e-01
5.066499856485270348e-01
7.023499937422726935e-01
6.445790893025941104e-01
3.746395370335551811e-01
-7.918522595198922154e-03
-3.787556841465001822e-01
-6.159933850993880577e-01
-6.313885943631357689e-01
-4.091644744682850776e-01
-2.777651904472164951e-02
3.716019772776735786e-01
6.516497432705732340e-01
7.270240448896931884e-01
5.793874218624655015e-01
2.521175231131929650e-01
-1.768861571690227286e-01
-6.081724523802298776e-01
-8.568050633594396226e-01
-6.468863808855130904e-01
9.313007451322866115e-02
9.202334596307439885e-01
1.198155288297290122e+00
8.020189653827387577e-01
1.916905221471787990e-01
-2.137259183935816820e-01
-4.081000459159402904e-01
-5.554788153761290870e-01
-6.687028244210265759e-01
-6.175173795549888656e-01
-3.298351579811855672e-01
1.007997733474064878e-01
4.858608861871302476e-01
6.740826956664273117e-01
6.186624328329849432e-01
3.667567890017459087e-01
2.045132886411469425e-02
-3.069804124331628747e-01
-5.241834393918719526e-01
-5.680956263679500795e-01
-4.108678607304581121e-01
-8.891764858066461552e-02
2.861464486215162251e-01
5.671068858698566917e-01
6.352711970580567913e-01
4.468496176653073415e-01
5.368096010314040573e-02
-3.940857721258439472e-01
-6.992583958997833360e-01
-7.364764086211078586e-01
-5.355374743612310029e-01
-2.268013487187847121e-01
8.618272544658038548e-02
3.596975369695931124e-01
5.243382600492888512e-01
4.656494471157320847e-01
1.559082352002049143e-01
-2.598303318895543446e-01
-5.700727550174115033e-01
-6.517281836581729770e-01
-5.058202460981785498e-01
-2.052065674934142048e-01
1.521291295247820252e-01
4.612236667361178655e-01
6.187222556343674462e-01
5.493305674159929541e-01
2.547668682286249875e-01
-1.600851698807864709e-01
-5.262321711006857639e-01
-6.952949848962395318e-01
-6.087348079055842076e-01
-3.115544688025070896e-01
8.352364087863364817e-02
4.514290114692492417e-01
6.806424476189086858e-01
6.572450252537637150e-01
3.090464030100636972e-01
-2.343543145809838524e-01
-5.870058519334608871e-01
-4.230594025853807727e-01
9.342721953696946080e-02
4.277489428853549769e-01
3.311710043672991821e-01
1.086368833415269630e-01
1.168141024439241504e-01
2.947420845159603453e-01
3.350139332083471033e-01
9.503583010810554010e-02
-2.924622915511610466e-01
-5.910271992059192847e-01
-6.439079882345604133e-01
-4.413928422180826705e-01
-8.068924651681544380e-02
3.119404946942844759e-01
