-1.085094452019400579e-01
-5.144191149863722168e-02
-2.963821770210084069e-02
-1.486571541555744280e-01
-3.846423463600280312e-01
-3.828620074018854180e-01
2.888796407969546065e-01
1.420758312718908289e+00
2.021595314173822988e+00
1.420272869689190198e+00
2.287664914020179630e-01
-3.807479451796665915e-01
-6.667457536510787430e-02
5.468175226855040982e-01
8.071124225338170977e-01
6.177395334978106334e-01
2.601861131518219405e-01
1.634800220651811548e-03
-9.085626470231306095e-02
-1.027197447012116183e-01
-1.268890330102171449e-01
-1.756283758514325943e-01
-2.145961474134987224e-01
-2.337448170770139444e-01
-2.508964552252526126e-01
-2.711385980485728764e-01
-2.773740794272190335e-01
-2.559772965023704439e-01
-2.179987364953415996e-01
-1.944073400447539346e-01
-2.077399655224722308e-01
-2.479562813326114390e-01
-2.742571474019826483e-01
-2.323462016782048556e-01
-8.889267021136790237e-02
1.185725865371902998e-01
2.862180979743970122e-01
3.347499287700347326e-01
2.675175290767384251e-01
1.185871218110975261e-01
-9.048299759584951807e-02
-3.047768251828369412e-01
-4.235849888710988553e-01
-4.010838998874846073e-01
-3.116446909106391772e-01
-2.602693125943972285e-01
-2.702319482208310752e-01
-2.948857325975521304e-01
-2.971235313478876039e-01
-2.810454393062412626e-01
-2.632486823658804487e-01
-2.462307379980528954e-01
-2.294036390851775520e-01
-2.254491798110062339e-01
-2.450579349038789490e-01
-2.669919513507104658e-01
-2.462240998029249228e-01
-1.849231286839825017e-01
-1.877111820131956155e-01
-3.543488471354666047e-01
-5.264958186711695687e-01
-2.509853373776362306e-01
6.942873107581475356e-01
1.709729637604819885e+00
1.819016366216293035e+00
9.206907325159111588e-01
1.435503318133343753e-02
-6.371841419824381125e-02
4.686303617854683523e-01
8.907170175595787720e-01
8.634914923734746672e-01
5.574992266401521679e-01
2.561359253851682727e-01
7.600561665438658465e-02
-1.436762836020390351e-02
-7.097759824906416104e-02
-1.149355269882539887e-01
-1.451341064459561458e-01
-1.642507827235662188e-01
-1.780764562814312058e-01
-1.818378422150385698e-01
-1.677702584787545137e-01
-1.438789353496855439e-01
-1.313161994303922719e-01
-1.423657106709275422e-01
-1.700237858619298992e-01
-1.987755343834657629e-01
-2.128153545195007601e-01
-1.969991966382051984e-01
-1.451184752192026250e-01
-6.390847652979572691e-02
3.507460127161406149e-02
1.357946595132871470e-01
2.066472729862147695e-01
2.014407909476006453e-01
9.294474055906047638e-02
-8.159381140090521400e-02
-2.309691413847609898e-01
-2.905853785489685426e-01
-2.778226422203762813e-01
-2.568475738418931065e-01
-2.687646722126217358e-01
-3.046297328808808547e-01
-3.326014057685106051e-01
-3.363413240890841815e-01
-3.202260007963907418e-01
-2.919966703865575774e-01
-2.624886278622722835e-01
-2.492066392322509205e-01
-2.553322670236738423e-01
-2.579228170426509092e-01
-2.307887865747509093e-01
-1.703178016743965018e-01
-1.159712160980591739e-01
-1.563789666884675689e-01
-3.330147831815229442e-01
-4.416571411318845897e-01
-4.682821058559079319e-02
9.802535232668535548e-01
1.929821547656461966e+00
1.819148081873551037e+00
6.940776748295685028e-01
-2.793591990722201768e-01
-2.541124538663054877e-01
4.174892967631845808e-01
8.937348680718373295e-01
8.278828708823056104e-01
4.616973278660229107e-01
1.421771981555735032e-01
-1.059110132802733480e-02
-7.250902566195099874e-02
-1.341330761770697377e-01
-2.002305694445403739e-01
-2.205921305920470754e-01
-1.725247081027769802e-01
-1.041705701627742842e-01
-9.575247876099979294e-02
-1.724508749643001715e-01
-2.723059601822738207e-01
-3.186909160339370661e-01
-3.015990101102082321e-01
-2.665083327927661450e-01
-2.483687734765619992e-01
-2.411187118424380771e-01
-2.177531786647444179e-01
-1.558617645102793325e-01
-5.179391339929761279e-02
6.240776074390120415e-02
1.268437968565352403e-01
1.059411690297756142e-01
1.865366582926250918e-02
-9.055913406436781610e-02
-1.840340285858879099e-01
-2.393345772703734942e-01
-2.534384336353093792e-01
-2.409459883697948057e-01
-2.245069677090615334e-01
-2.254940176531153584e-01
-2.524204357457773829e-01
-2.919132288574176060e-01
-3.175625055021208398e-01
-3.142222532298773463e-01
-2.885925760991995825e-01
-2.532798026527334767e-01
-2.159462357642877861e-01
-1.865598570578684556e-01
-1.713924036110474058e-01
-1.568941665715577749e-01
-1.304892989807280579e-01
-1.359520878323336179e-01
-2.614577602036162740e-01
-4.593779680173510349e-01
-3.696709993663826466e-01
3.948765807439901798e-01
1.549120185427227847e+00
2.087004729938652492e+00
1.424860498874914505e+00
2.568144465952515443e-01
-2.785958153445743379e-01
6.442872295637001867e-02
6.241001061604308786e-01
7.995545132252213083e-01
5.739595910829923264e-01
2.525316511596715774e-01
4.722713994846972768e-02
-3.465385699320967794e-02
-6.869493568956699936e-02
-1.050777811469206513e-01
-1.566745369874937843e-01
-2.186430116287321479e-01
-2.750681876698177764e-01
-3.032629059886462475e-01
-2.892169542075549438e-01
-2.445649209036457605e-01
-2.010602306067231504e-01
-1.829385794711431146e-01
-1.901334386901496476e-01
-2.081239969353198271e-01
-2.243777450521642070e-01
-2.310754391372543126e-01
-2.140301242021099837e-01
-1.476453651161253877e-01
-1.916292570731191122e-02
1.347527141541406404e-01
2.312689612083747570e-01
2.003186095831421265e-01
5.083252012101668188e-02
-1.250037540179580187e-01
-2.302175123128658019e-01
-2.486660583501641986e-01
-2.386035108447585040e-01
-2.507074785853831700e-01
-2.805720032404808162e-01
-3.019293058225032689e-01
-3.195766758427445731e-01
-3.632210336804633233e-01
-4.236561302006259799e-01
-4.349486299139034839e-01
-3.583321651900281957e-01
-2.481096355320514812e-01
-1.919960044640050822e-01
-2.122821467164879017e-01
-2.464813232651817676e-01
-2.121764558835358971e-01
-1.143159526943844650e-01
-9.884850752968760146e-02
-2.894599958922727256e-01
-4.649829450210626880e-01
-8.301859076607258359e-02
1.013692792053050740e+00
2.017139858096903104e+00
1.889937180017461804e+00
7.416012928543871396e-01
-2.149731389050577868e-01
-1.682708413016349158e-01
4.990791294769143516e-01
9.650353818830451624e-01
9.007303454983064395e-01
5.258738754391805159e-01
1.582801998626594542e-01
-6.458737545387788215e-02
-1.621552269176225747e-01
-1.839373222177724254e-01
-1.388971347857299310e-01
-4.268525544013979794e-02
1.373762978874299573e-02
-5.841060428557547091e-02
-2.122963180809890882e-01
-3.081891987679374889e-01
-2.788282195070979075e-01
-1.895832567259408963e-01
-1.474451288674971661e-01
-1.852842795093991024e-01
-2.438064914168243946e-01
-2.546727709097927339e-01
-2.095026172262623998e-01
-1.354344409507522440e-01
-3.846263976356772279e-02
8.777498993379481695e-02
2.059433257758373215e-01
2.396968701607528618e-01
1.550044628427654503e-01
3.805276566425448009e-03
-1.268203357932226050e-01
-1.856590099424620388e-01
-1.823653334369928769e-01
-1.681473129694104063e-01
-1.881997337066606268e-01
-2.420971021007075619e-01
-2.986622487220108035e-01
-3.411924635601346623e-01
-3.759181224070826111e-01
-4.070874108236862687e-01
-4.211436784441623393e-01
-3.884610537266582342e-01
-2.940151529357686866e-01
-1.786920700290942077e-01
-1.117894278653276119e-01
-1.043882754157946235e-01
-1.023020805698182240e-01
-1.007871724348301801e-01
-2.013212740502326736e-01
-4.263680361785310291e-01
-4.600998129733382958e-01
1.646150137728657203e-01
1.336819798438475759e+00
2.098257509864120518e+00
1.665053190104021752e+00
5.285592586039482565e-01
-1.151081633402479820e-01
1.627188342039541658e-01
7.484926535698538386e-01
9.591853004345339828e-01
7.169658982467985719e-01
3.514646262328884330e-01
1.370797037804366292e-01
9.075855936031941573e-02
6.944429611417425596e-02
-2.361576334485989900e-02
-1.486797099038562053e-01
-2.216072810836809404e-01
-2.303270524335426228e-01
-2.312040142190910363e-01
-2.654274267683763844e-01
-3.135092738569825177e-01
-3.316621924396771504e-01
-3.083024433445609724e-01
-2.667281963921765975e-01
-2.276052683253233233e-01
-1.957423938333324176e-01
-1.752996977961373548e-01
-1.655623360129842292e-01
-1.426541687619562182e-01
-7.425032603192951997e-02
4.067734394725500136e-02
1.529244849596277100e-01
1.832244611144845658e-01
8.138436564256687489e-02
-1.105363739559537678e-01
-2.755231596910826530e-01
-3.297851481174047250e-01
-2.971023489099339776e-01
-2.615680906359341140e-01
-2.708314622087747425e-01
-3.057018175349910383e-01
-3.275104748368028451e-01
-3.237881579856584091e-01
-3.031736298306934585e-01
-2.727604821809197500e-01
-2.380865125622220468e-01
-2.128813396132906433e-01
-2.144414731952834496e-01
-2.464589992284122177e-01
-2.824554193174890204e-01
-2.745203539915465063e-01
-2.112200792482596678e-01
-1.781149806294305693e-01
-2.816370380747951208e-01
-3.982098864086729972e-01
-9.244043697213620570e-02
8.706558076528381207e-01
1.887540544900102146e+00
1.943371744255548039e+00
9.173912766393165219e-01
-1.477819635088924999e-01
-3.380866769186754994e-01
1.792725382672274437e-01
6.701886176624340941e-01
7.331308581553200865e-01
4.787415130058401691e-01
1.745137008055820671e-01
-3.768781284348293736e-02
-1.525596322871631272e-01
-2.004395845303076906e-01
-2.047089796306565401e-01
-2.004746293319238926e-01
-2.272642842479071501e-01
-2.829148498937096301e-01
-3.180662565562669686e-01
-2.999110313690444563e-01
-2.573879893250632378e-01
-2.400164939190413960e-01
-2.560084014259996210e-01
-2.771018373571930149e-01
-2.852742206383232504e-01
-2.869799366992337730e-01
-2.841751999056646438e-01
-2.477696747436336777e-01
-1.342558804622712432e-01
5.485448407780722097e-02
2.334600655522572621e-01
2.853836148415692664e-01
1.732287291792770079e-01
-2.726944794945966935e-02
-1.993926075070338866e-01
-2.751544573825395745e-01
-2.674941783033041864e-01
-2.365136174439565198e-01
-2.325379713569824813e-01
-2.689060574449974594e-01
-3.263085925951568211e-01
-3.600535070826888506e-01
-3.261341345005602244e-01
-2.395263969540786242e-01
-1.810672644771709194e-01
-2.055885142040439761e-01
-2.778722286416412945e-01
-3.252749202758536962e-01
-3.109306351557710180e-01
-2.460911487454219837e-01
-1.755028710164043826e-01
-1.690349496484506442e-01
-2.846163507016682970e-01
-4.421774173622530224e-01
-3.159806064812966664e-01
3.987241979924565638e-01
1.389267312857084491e+00
1.758343635362065616e+00
1.107064665121201497e+00
1.874003955755726147e-01
-4.103913850493111359e-02
4.318429286539127165e-01
9.033149669264041171e-01
9.224463069008445038e-01
6.156439123139255676e-01
3.059485946120436006e-01
1.372322053487844973e-01
5.467617531942563225e-02
-2.205274625751353634e-02
-1.001710488935261406e-01
-1.530931658972671250e-01
-1.815785830141595780e-01
-2.062150072583164018e-01
-2.275141951618330771e-01
-2.246311684129280173e-01
-1.902826810052137274e-01
-1.510349261769913798e-01
-1.449026880771840109e-01
-1.762350229673362301e-01
-2.049275415590259275e-01
-1.931535197850908769e-01
-1.469757934025728574e-01
-9.528715879243467024e-02
-4.392720537139862408e-02
2.797718250944526697e-02
1.267498987108048036e-01
2.132671610950884478e-01
2.274911201363553070e-01
1.474274629196596909e-01
1.452050246218347489e-02
-1.055562165348370857e-01
-1.787345389977944010e-01
-2.128645246252049983e-01
-2.308537311361937294e-01
-2.537469502246214037e-01
-2.912655442140110740e-01
-3.209613400849976594e-01
-2.952365148260516214e-01
-1.998437762911834670e-01
-8.925864898010560378e-02
-3.680738835814272025e-02
-6.529929358849739796e-02
-1.449089633481643602e-01
-2.330915834735117209e-01
-2.860282615916986959e-01
-2.548020771630646331e-01
-1.399582532141612490e-01
-6.711196390113030597e-02
-1.946061305847670564e-01
-4.114932651034781674e-01
-2.212237398209177530e-01
7.250816449985484358e-01
1.883280753305914379e+00
2.127949967695454081e+00
1.149650326950371060e+00
-2.624035193536522481e-02
-3.142432536062628179e-01
2.245226251634571124e-01
7.831106243753861440e-01
8.537197286514807137e-01
5.437346492713626134e-01
1.990324350652487584e-01
1.808286487664031300e-02
-2.306313119218361685e-02
-3.801108580636806955e-02
-9.743637038421841534e-02
-1.925598023303741746e-01
-2.718585651074153509e-01
-2.947412140889763554e-01
-2.652508917503724195e-01
-2.267934574306302298e-01
-2.198712166519443956e-01
-2.477566371893667740e-01
-2.861649408138471906e-01
-3.100653559194316844e-01
-3.069849383175999868e-01
-2.802772145303828455e-01
-2.409682246172126785e-01
-1.885642947927433921e-01
-1.070053468610097092e-01
1.057091976494738822e-02
1.349699049998576705e-01
2.045807117440917866e-01
1.658066207533261671e-01
2.550371198726401889e-02
-1.383561346437399420e-01
-2.412213320491372326e-01
-2.687256059923844309e-01
-2.680669774066415934e-01
-2.774175827417299511e-01
-2.954492714599250558e-01
-3.043937705584990328e-01
-2.944537637855174639e-01
-2.734151662239175384e-01
-2.590826822135723906e-01
-2.535152163113230661e-01
-2.351637944210903663e-01
-1.936981392626613008e-01
-1.579376662246652907e-01
-1.589875963085756461e-01
-1.736190748446717613e-01
-1.511696169433380255e-01
-1.159829362506160783e-01
-1.862779589230991739e-01
-3.840937389456895446e-01
-4.074805722308471045e-01
1.807910693098537525e-01
1.279346348586160698e+00
1.996703257888639449e+00
1.585425071555487841e+00
4.798167765548161379e-01
-1.926100114129455643e-01
1.833130766346651244e-02
5.767870453915375784e-01
8.312901377348751453e-01
6.584252226513958028e-01
3.131708931344886482e-01
3.210696097005713567e-02
-1.220914800839963538e-01
-1.900335829540819310e-01
-2.207016598391057793e-01
-2.383956143081735757e-01
-2.453146399819748913e-01
-2.396209214858149861e-01
-2.357692054407906634e-01
-2.551536340278451331e-01
-2.968052423058973321e-01
-3.354132853891877986e-01
-3.465802487644975560e-01
-3.239806369331738045e-01
-2.808608637253938722e-01
-2.423293923545966899e-01
-2.271807082398829558e-01
-2.268403126135663250e-01
-1.989751066236415955e-01
-9.402833630471962856e-02
8.542674200283459363e-02
2.448359297670986978e-01
2.540045098119369515e-01
7.959509936190241330e-02
-1.630334269560219096e-01
-3.227820845592392907e-01
-3.470871918560999303e-01
-2.867551489861513980e-01
-2.199996391968072618e-01
-2.015329920885163550e-01
-2.462215032146517490e-01
-3.257356819287742788e-01
-3.892697184179118031e-01
-4.022447293713912742e-01
-3.659839492831591934e-01
-3.057968655210001052e-01
-2.502483566393332026e-01
-2.207480400179796798e-01
-2.255837792026769428e-01
-2.458119994085115334e-01
-2.352231587581316563e-01
-1.784876651160928196e-01
-1.630415274600831854e-01
-3.042695375581508377e-01
-4.884853211914755855e-01
-2.757981780083124113e-01
6.251361129946225725e-01
1.697405580061046138e+00
1.920184166228482647e+00
1.048258901394038212e+00
4.070045352597703725e-02
-1.514288655154014118e-01
3.570964976517759237e-01
8.353984284992275189e-01
8.778128260128419402e-01
6.027257824189321544e-01
2.815489986051560867e-01
5.754986434034540382e-02
-6.283261601635925508e-02
-1.180059708887142289e-01
-1.416331707678878393e-01
-1.609689771253420831e-01
-1.920852046811241109e-01
-2.255864747854224583e-01
-2.396412168106662743e-01
-2.302390162755532099e-01
-2.109855956201294180e-01
-1.900391158644003653e-01
-1.653459937573560079e-01
-1.382966075189356325e-01
-1.209136296034277747e-01
-1.263002349395074830e-01
-1.508494401923872741e-01
-1.685291140324110259e-01
-1.460165981645945021e-01
-6.457426775578872791e-02
6.029615119893712988e-02
1.669907518066075514e-01
1.767880688341426088e-01
6.817071271257453546e-02
-9.034404387895819677e-02
-2.090670115062487344e-01
-2.625609903729783090e-01
-2.876714956127342515e-01
-3.179697199768449778e-01
-3.429579459004230002e-01
-3.315826929860209993e-01
-2.839025212680040822e-01
-2.416426863883990306e-01
-2.417817136593505278e-01
-2.746172831215649146e-01
-2.981383104701653131e-01
-2.878187060591467228e-01
-2.613628481733406561e-01
-2.463920235187107288e-01
-2.309568187917000193e-01
-1.751533313393447699e-01
-9.643497056838931658e-02
-1.161229641128856960e-01
-3.196489157733731212e-01
-4.899775947301774348e-01
-1.312649307779110708e-01
9.124546859059614601e-01
1.907923627632660768e+00
1.861682945182476789e+00
8.257572841212901249e-01
-6.513701588698059264e-02
-2.102203609214411614e-02
5.887922157058703698e-01
9.694931103660782146e-01
8.421493343621698768e-01
4.725358178149726696e-01
1.720731988114845845e-01
1.770729329752133985e-02
-6.617266953803349616e-02
-1.373533265448725060e-01
-1.866526767407227227e-01
-1.965218554066644752e-01
-1.888092056925358697e-01
-1.992810511561859121e-01
-2.280069914926022845e-01
-2.436880976565797274e-01
-2.325202343462366983e-01
-2.125890370926761530e-01
-1.978341442588912313e-01
-1.824521273861177406e-01
-1.678272096336141661e-01
-1.661811515302651920e-01
-1.656707129118166200e-01
-1.231208240081783367e-01
-7.424454218339066047e-03
1.537106252408594886e-01
2.756069884081849830e-01
2.802853072351319530e-01
1.670440972474930563e-01
1.170536563741559483e-02
-1.047963546180036565e-01
-1.598735033544010919e-01
-1.852893095496535303e-01
-2.116452356430648662e-01
-2.305337549211093351e-01
-2.203046818829863529e-01
-1.932448527153296236e-01
-1.876002650037369990e-01
-2.156808043418275700e-01
-2.488360693078144614e-01
-2.529932790525726283e-01
-2.186520749992229007e-01
-1.648302548820336499e-01
-1.277140857014037179e-01
-1.267884051857600114e-01
-1.308527881787523994e-01
-9.591874090503220429e-02
-6.671256450781010150e-02
-1.736892357745008775e-01
-4.030074458388971381e-01
-3.784801769092587254e-01
3.423338728491220895e-01
1.517399197887020268e+00
2.113443993705334201e+00
1.461098092688950301e+00
2.170821357252731565e-01
-4.088504093996788713e-01
-7.791293264674857555e-02
5.535535645371201241e-01
8.104806981534081745e-01
6.108803275928595955e-01
2.606779766057543690e-01
1.943661890458283845e-02
-6.806464808354223406e-02
-8.405454420990070286e-02
-1.061531608428608886e-01
-1.543338135308366110e-01
-2.126592552855748608e-01
-2.623713387514313711e-01
-2.949898600068832089e-01
-3.180494910182929402e-01
-3.420582883246317540e-01
-3.530128776834856597e-01
-3.260834126029453772e-01
-2.713907204354690794e-01
-2.340745283332787696e-01
-2.483927866834290399e-01
-3.047776431808235653e-01
-3.450076925171607911e-01
-2.945960179181738581e-01
-1.362434288985168718e-01
5.302885000987642150e-02
1.635136994650935316e-01
1.411273055458300008e-01
1.430835028066346562e-02
-1.354209112933955073e-01
-2.319245367601119878e-01
-2.640262673454565334e-01
-2.849718939975024457e-01
-3.371671056256814736e-01
-3.953563552572247897e-01
-4.076192053546723870e-01
-3.670106434707955945e-01
-3.056707409768274486e-01
-2.450623369531098605e-01
-1.942847165172131574e-01
-1.716087829813641719e-01
-1.887278772079014899e-01
-2.291348155027267408e-01
-2.608622786345376476e-01
-2.571314905029377096e-01
-2.095964773653968827e-01
-1.588351010648957340e-01
-2.068195436564418677e-01
-4.019553918400679549e-01
-5.231245169371631087e-01
-1.145098962382097990e-01
9.383881261677352592e-01
1.901376015911398598e+00
1.820371885532336087e+00
7.818211126019688484e-01
-9.820952515171019193e-02
-6.837897971123058083e-02
5.210067856912010686e-01
9.282242935602447176e-01
8.702675567585672622e-01
5.524585396807984994e-01
2.503443945554736927e-01
6.341471624422440057e-02
-4.510589968477241030e-02
-1.232944810885722303e-01
-1.745541090103279458e-01
-1.833718616853101113e-01
-1.603466607791851628e-01
-1.454148433833206133e-01
-1.681868323275614585e-01
-2.174359606585702653e-01
-2.554165549383951017e-01
-2.569968911391420363e-01
-2.291831201377928784e-01
-1.993308259669259175e-01
-1.935319859350523031e-01
-2.146865851966566763e-01
-2.324704026164037818e-01
-2.067940028963548837e-01
-1.184441615269443970e-01
2.650695288250691506e-02
1.898063433889953244e-01
2.882308231447333058e-01
2.378335676230926010e-01
4.552170942564984224e-02
-1.710345623825499650e-01
-2.877243611332691575e-01
-2.880099806377123262e-01
-2.535454278981737475e-01
-2.579414998742071696e-01
-2.983764375614803566e-01
-3.259665585029187795e-01
-3.136947566716759561e-01
-2.830010468218948638e-01
-2.743428407502223054e-01
-2.976018325478007598e-01
-3.140027679855285081e-01
-2.846057397996837879e-01
-2.317456889600307268e-01
-2.053606777180094767e-01
-1.942174112055074509e-01
-1.485708846914636505e-01
-1.040920086509191378e-01
-1.935885358441934434e-01
-4.319541055376976413e-01
-4.781775481229144642e-01
1.592821329536983355e-01
1.382927261456437185e+00
2.201262572498498216e+00
1.753789404567302812e+00
5.050663536957040733e-01
-2.706348175452678029e-01
-4.336000175932927525e-02
5.973983737078701894e-01
9.135709640625522265e-01
7.466708246890780831e-01
3.650576441377217929e-01
4.152810858672116578e-02
-1.235420119766432179e-01
-1.607721286089997537e-01
-1.474842512014673535e-01
-1.443416646843574958e-01
-1.645723793361871801e-01
-1.891469852103229432e-01
-2.024372964377220696e-01
-2.075552296007386888e-01
-2.169858580962483741e-01
-2.355751770857730243e-01
-2.524585740214563834e-01
-2.492718001782335546e-01
-2.176366947674513164e-01
-1.733792804054536951e-01
-1.472792533354516376e-01
-1.461525064033542542e-01
-1.298645955234901950e-01
-4.922387334054832003e-02
9.204248090011080130e-02
2.238509119744885589e-01
2.587335582076916718e-01
1.634714466607613825e-01
-2.819010017994751788e-03
-1.350873211154922093e-01
-1.837728345172629230e-01
-1.922686974146566585e-01
-2.227219654224521228e-01
-2.774421581929022995e-01
-3.159191718553845396e-01
-3.197864615404654165e-01
-3.089121296566635366e-01
-3.021671337381794387e-01
-2.883428684893387106e-01
-2.470299865773570858e-01
-1.869581374829997200e-01
-1.454690789189764244e-01
-1.482755486346938878e-01
-1.779989700508010919e-01
-1.868335237121769854e-01
-1.581495004921143477e-01
-1.695704658214345906e-01
-3.226457565150785411e-01
-4.907347492101350461e-01
-2.260063630057412010e-01
7.340356964007757057e-01
1.802308879443702549e+00
1.931744762869914034e+00
9.487161315539403006e-01
-1.079961869103533978e-01
-2.879830888414405821e-01
2.519706770160242137e-01
7.552466436136877626e-01
8.067729631862111672e-01
5.322303991142930402e-01
2.318981682892905516e-01
6.454891952778241127e-02
-2.798002440710083832e-04
-6.035123900687902609e-02
-1.552502002468241216e-01
-2.474711949137817224e-01
-2.918014876261478263e-01
-2.875276763010722325e-01
-2.626644725035651162e-01
-2.397702773011377020e-01
-2.288212061585075119e-01
-2.288474019107593904e-01
-2.247878841651732018e-01
-2.033732682037069084e-01
-1.814942480402492453e-01
-1.931857916385111007e-01
-2.308273142268624512e-01
-2.273683828824960007e-01
-1.265279853659209142e-01
4.628319962681245320e-02
2.007413510825501179e-01
2.507311427087058897e-01
1.644672900552866524e-01
-1.846608276211146593e-02
-2.031837657691403509e-01
-2.994697647811974672e-01
-2.911996180998149830e-01
-2.429763303876826819e-01
-2.304378643215836131e-01
-2.672654649026902640e-01
-3.040611897777253381e-01
-2.934329539253694441e-01
-2.418331484877859761e-01
-1.927523205602552359e-01
-1.784973791065136706e-01
-2.009328731360939813e-01
-2.415261675659981233e-01
-2.746751966146910862e-01
-2.761639180908043167e-01
-2.283585096516585478e-01
-1.380274324511834017e-01
-7.458912788278788952e-02
-1.565107596288580760e-01
-3.795820613476756367e-01
-4.141613764531857367e-01
1.846672409317238472e-01
1.285328783988344492e+00
1.960000813737496017e+00
1.481751655561054815e+00
3.455590225431000029e-01
-2.991016528208775282e-01
-2.721786449011668468e-02
5.982090399437942629e-01
9.040778178343110705e-01
7.497102177251997457e-01
3.956577807857554197e-01
1.017906733537055630e-01
-5.307776825308633400e-02
-1.075356075973381703e-01
-1.184032215613244760e-01
-1.282848371705326007e-01
-1.597293305141433695e-01
-2.061947998473552257e-01
-2.400981380294889833e-01
-2.427845125328084996e-01
-2.246040423009212084e-01
-2.085155267278527846e-01
-1.999236965396531673e-01
-1.902788754180011754e-01
-1.872597349906340303e-01
-2.097454328572697924e-01
-2.430712985952704630e-01
-2.326957142436926196e-01
-1.393866202251655417e-01
2.017271760078440460e-02
1.847227682402928228e-01
2.732006876536213213e-01
2.208188880325203662e-01
3.961222023449125634e-02
-1.684095473518635033e-01
-2.967078632845929209e-01
-3.241318612883442585e-01
-3.043599347672072963e-01
-2.915787202101138287e-01
-3.023988178774197899e-01
-3.304052006405148734e-01
-3.596921252765621912e-01
-3.692281136365131444e-01
-3.531168746872007658e-01
-3.299846882319903418e-01
-3.176858511943916330e-01
-3.130730758581294904e-01
-3.024460029017289608e-01
-2.791689974066702828e-01
-2.449920600207317889e-01
-1.951588681418492677e-01
-1.304214137486418290e-01
-1.178422478104331761e-01
-2.681108965963149848e-01
-5.016701680538266928e-01
-3.826526385534965158e-01
4.636148633693508159e-01
1.612161875285872403e+00
2.003770941950668405e+00
1.238181214195440027e+00
1.904978801987716741e-01
-1.067452361914070780e-01
3.442681536809913401e-01
8.250064946169280988e-01
8.859570751848453440e-01
6.269507724999818787e-01
3.205112916062918815e-01
1.019955082541568608e-01
-2.864507749597829112e-02
-1.028466187416548633e-01
-1.448445253589740189e-01
-1.701506214437771003e-01
-1.794642438502144222e-01
-1.756938689375954210e-01
-1.861627946296747493e-01
-2.357933595796022352e-01
-3.036335426115104319e-01
-3.343741064722833833e-01
-2.955613747125557245e-01
-2.134396327882409905e-01
-1.502262963732330925e-01
-1.489650485552784231e-01
-1.986858447664680560e-01
-2.373849056785295453e-01
-1.871996485180030534e-01
-2.213181359816029578e-02
1.826469538471052478e-01
3.006653129712936190e-01
2.662414439817930023e-01
1.177048846641875479e-01
-5.997020249058726549e-02
-2.041860302022361628e-01
-2.943831234487859771e-01
-3.384219045172874307e-01
-3.539572796170661340e-01
-3.542931582220485986e-01
-3.427483403671995887e-01
-3.174294052984811820e-01
-2.796752589806690836e-01
-2.377277867357205088e-01
-2.075260089869670477e-01
-2.060333595237465454e-01
-2.299725550998916457e-01
-2.494118846713352378e-01
-2.377622721411322970e-01
-1.916027005146095086e-01
-1.161573936025465659e-01
-4.105887380779293938e-02
-6.177019552295463789e-02
-2.443122099969484151e-01
-3.763475492072941853e-01
2.096740757771313468e-02
1.076602979454717612e+00
2.023718219426987819e+00
1.866965735524923398e+00
7.118200034790643782e-01
-2.530067600966301455e-01
-2.296343051503663690e-01
4.098523218009562097e-01
8.711076420920548236e-01
8.386954029739197569e-01
5.194407051758457294e-01
2.086417031371147757e-01
2.374233975593080526e-02
-6.639128521067805266e-02
-1.215796707710854463e-01
-1.710705371386292972e-01
-2.144243850438210530e-01
-2.404172279818186930e-01
-2.437120575019605107e-01
-2.326254191868461496e-01
-2.259197194764065997e-01
-2.362875118502838490e-01
-2.545869546542737227e-01
-2.639560085138745182e-01
-2.678842016727647213e-01
-2.805626739689854876e-01
-2.905227973759725302e-01
-2.610944827695304005e-01
-1.709461061520027303e-01
-3.638085681469927640e-02
1.029263915099438154e-01
2.036527796814189273e-01
2.300289298507046110e-01
1.625536853420646854e-01
1.047046347012274559e-02
-1.749087750573382338e-01
-3.178564382854689452e-01
-3.754067451707740477e-01
-3.689207343756426560e-01
-3.459258362433645373e-01
-3.293063595974436431e-01
-3.172836317520487670e-01
-3.066054682832655143e-01
-2.936569143793795189e-01
-2.722252705244962434e-01
-2.455558410027152971e-01
-2.265855088360490543e-01
-2.210337673183189744e-01
-2.209782264183858258e-01
-2.127393505348186831e-01
-1.816046621517565796e-01
-1.283467861042135172e-01
-1.126201471804238602e-01
-2.335605695173209595e-01
-4.413216751843483943e-01
-3.720327605851504460e-01
3.464161769632781440e-01
1.424117582262348192e+00
1.913900071032303973e+00
1.315625166305165461e+00
3.077118231578240826e-01
-1.071916247483610390e-01
2.151808696822719580e-01
6.645033147273453622e-01
7.606358177233546458e-01
5.328383552571352988e-01
2.427981148069782713e-01
5.184779609589978272e-02
-4.052252018022883123e-02
-9.078946364797091384e-02
-1.295951204757535558e-01
-1.588198312845952309e-01
-1.788962559057925006e-01
-1.991874147613220125e-01
-2.259725268801522080e-01
-2.506110420790627069e-01
-2.562882124145015039e-01
-2.368196570242946941e-01
-2.031944728156612201e-01
-1.691853507559109016e-01
-1.413450108292882701e-01
-1.291122798690217399e-01
-1.456914939023193079e-01
-1.790521094526658918e-01
-1.743324145215210397e-01
-7.685424823804530570e-02
9.459211311450954618e-02
2.369595196372247525e-01
2.518042918464613589e-01
1.429624913136003928e-01
2.791107430395001893e-03
-9.314977105048684314e-02
-1.466676153357150125e-01
-1.963487645969232420e-01
-2.542967318869502336e-01
-2.994756889568919167e-01
-3.155869521808083444e-01
-3.103618330672611170e-01
-2.944449762014232364e-01
-2.654541034879207007e-01
-2.257274230769112933e-01
-1.957702975915975308e-01
-1.970589404984227910e-01
-2.306201639530637282e-01
-2.708338560141824725e-01
-2.737893498017093807e-01
-2.097511794778156302e-01
-1.155427943520060119e-01
-1.115949464278147563e-01
-2.885749416015968571e-01
-4.675673108047709303e-01
-1.644206231625955084e-01
8.585606673358179286e-01
1.949388847912178147e+00
2.028281917394842537e+00
9.574630365115810449e-01
-1.531212921203474464e-01
-3.086853587394508547e-01
3.050787762881371767e-01
8.526663492810109268e-01
8.763045104448062839e-01
5.332336295743359544e-01
1.785896912998102826e-01
4.874721367026076460e-03
-3.930151532077225812e-03
3.402044665530971901e-02
1.142268388250999855e-02
-8.614014487980511947e-02
-1.880006715660046401e-01
-2.370722281174058588e-01
-2.502168367401640392e-01
-2.681141900230857300e-01
-2.866495799525220489e-01
-2.739411460896652994e-01
-2.340093312549258453e-01
-2.041183017446200065e-01
-1.962177085722234260e-01
-1.914444141670149369e-01
-1.827237594802118559e-01
-1.704748442593886637e-01
-1.256182808654037197e-01
-1.193680755648898577e-02
1.450223551862536431e-01
2.481468337247936806e-01
2.114255545386772572e-01
4.711661211527745641e-02
-1.425627249578505784e-01
-2.622318809298865294e-01
-2.995865793422398116e-01
-3.064761784287807767e-01
-3.265732732720634246e-01
-3.529233712368139986e-01
-3.537081207958104323e-01
-3.276527073659308842e-01
-3.082034938164622817e-01
-3.126889733239700542e-01
-3.208568270454397742e-01
-3.097971992068425107e-01
-2.828562974347462733e-01
-2.583384516596425873e-01
-2.464592956322138873e-01
-2.378831212022025909e-01
-2.108669068031277238e-01
-1.747417621335498050e-01
-2.146891602851070668e-01
-4.005380547690536308e-01
-5.404828706505356850e-01
-1.641956890900835853e-01
8.914599302730983332e-01
1.910165519079598084e+00
1.897174435556263639e+00
8.893082012159723160e-01
-2.384745832837903423e-03
-6.226875070968616172e-03
5.275163420561469474e-01
8.464300155767947587e-01
6.846888152066192834e-01
2.941096417616685388e-01
-1.031769318271451297e-02
-1.289927799783724405e-01
-1.361739228341781183e-01
-1.287905545538610697e-01
-1.461776013290250753e-01
-1.794715097338260290e-01
-2.108745957331999432e-01
-2.366228987830136243e-01
-2.651996764400161855e-01
-3.029679383330400322e-01
-3.423272616447959327e-01
-3.633432078369181473e-01
-3.485784806982767936e-01
-2.999556832126936134e-01
-2.424448425431376397e-01
-2.044242079957409308e-01
-1.863203964706111326e-01
-1.527197948809306816e-01
-6.571369081319319849e-02
7.044222058161711542e-02
1.963564744783862226e-01
2.351967476903750742e-01
1.588052620826226058e-01
1.505082516634180870e-02
-1.192561739206447619e-01
-2.004963563540047011e-01
-2.301846493154093842e-01
-2.340525526817653634e-01
-2.444584949413937391e-01
-2.797476435786248605e-01
-3.246166556401786085e-01
-3.453133308334556673e-01
-3.292733773104936090e-01
-2.888225016633239606e-01
-2.218224745052508051e-01
-1.100975340132833991e-01
1.340819879423324826e-02
5.325844203747768374e-02
-2.805427022704317166e-02
-1.338871870801223163e-01
-1.530700242595160743e-01
-1.231199329701719442e-01
-2.027490111485663049e-01
-4.119420198741315375e-01
-4.006146378409216058e-01
2.761776780733417591e-01
1.416364656148388024e+00
2.029107509562726008e+00
1.436569796164579360e+00
2.418517977268282715e-01
-3.790163655478495097e-01
-7.030135645611340633e-02
5.495603223422974581e-01
8.268361285556029561e-01
6.679867283672219491e-01
3.478517030654133535e-01
1.060249569167112937e-01
-8.188575666949689941e-03
-5.845162760271989388e-02
-1.101288163899523664e-01
-1.862282543415509639e-01
-2.674777015468542407e-01
-3.115563238745170382e-01
-2.971603365162511778e-01
-2.523361953401093150e-01
-2.209347562349396887e-01
-2.131641704632657175e-01
-2.054360844745115322e-01
-1.785352688443831992e-01
-1.440697663338398327e-01
-1.303467176379020653e-01
-1.472809171877821344e-01
-1.696668794192046081e-01
-1.465333449856061343e-01
-3.418133362967142735e-02
1.511018608363802751e-01
3.109578156421515249e-01
3.270451660766951485e-01
1.677753177047069388e-01
-7.360213952645022761e-02
-2.610169896633606212e-01
-3.323505474808158833e-01
-3.268437958106652497e-01
-3.080119127870404871e-01
-2.915761605278937019e-01
-2.654068192371613621e-01
-2.429531105980749228e-01
-2.520079032310487688e-01
-2.851439690806456539e-01
-3.013812489116071136e-01
-2.795524249658513094e-01
-2.454704882507045272e-01
-2.351409509288255317e-01
-2.452894753562558372e-01
-2.354986772894194502e-01
-1.748879483562990889e-01
-9.199126438150218021e-02
-9.193561301916169937e-02
-2.629503140163210184e-01
-4.543471768332085214e-01
-2.191861354348864643e-01
6.969373432188510353e-01
1.728566199433186235e+00
1.868086539248759337e+00
9.608506128622165132e-01
3.027563628762591774e-02
-3.009978165309361992e-02
5.356951686365855059e-01
9.307139100720345226e-01
8.097482047491395551e-01
4.140970250437381317e-01
8.993157804802422162e-02
-4.120142949605669347e-02
-5.492170476770771859e-02
-6.218505608373763038e-02
-1.067152913067301173e-01
-1.646838988324703379e-01
-2.026473418428838547e-01
-2.218685079898641832e-01
-2.449755996222648391e-01
-2.722844870082603008e-01
-2.790371915406207881e-01
-2.556176999943963191e-01
-2.171948165537801179e-01
-1.789156976080986949e-01
-1.544203862190570986e-01
-1.612421409852465293e-01
-1.915126698293929675e-01
-1.959138167805704045e-01
-1.326873741687293884e-01
-1.885784680921857165e-02
8.944838104605763729e-02
1.439606447017332258e-01
1.215442160666300453e-01
3.425535209437775147e-02
-6.697357278789115020e-02
-1.337615723759058850e-01
-1.673029055344534832e-01
-1.989778632138955727e-01
-2.394685929831209537e-01
-2.761551145934039719e-01
-3.039013464289596622e-01
-3.256734286462931172e-01
-3.329705811380683778e-01
-3.158077966825178495e-01
-2.842187077181251298e-01
-2.541243089723943527e-01
-2.247229779576074005e-01
-1.949195676985073233e-01
-1.810523147786809173e-01
-1.859067107859921630e-01
-1.743714540086728215e-01
-1.344792875625471507e-01
-1.539309502603428692e-01
-3.238104242730491245e-01
-4.661635252416675979e-01
-9.654396009399218714e-02
9.903529802781418923e-01
2.087386031539073983e+00
2.106485390704727401e+00
9.774273515073883534e-01
-1.290376180354047830e-01
-2.519835465693281429e-01
3.446256758096963857e-01
8.233130049739405543e-01
8.043890469262702236e-01
4.892082615177785754e-01
1.878766049032252194e-01
2.256189772223863091e-02
-4.336421231447777636e-02
-8.820078835873287892e-02
-1.589776869682298921e-01
-2.364682959666513373e-01
-2.577182137347023283e-01
-2.075504834474059535e-01
-1.616917572984022111e-01
-1.901343995448217805e-01
-2.629699831588651615e-01
-3.061228753017967152e-01
-2.978863381515013953e-01
-2.682849809188799228e-01
-2.501733600318634676e-01
-2.550466692041743477e-01
-2.628980067609174576e-01
-2.259194375939972133e-01
-1.090217330526370293e-01
6.123607190440104320e-02
1.998137245437514586e-01
2.263167663348443215e-01
1.284844581234281247e-01
-3.397922527064657638e-02
-1.804954103235489882e-01
-2.609825531482605765e-01
-2.745561128260215478e-01
-2.601378196895318684e-01
-2.645505227555934313e-01
-3.033567947973217493e-01
-3.514029524514474256e-01
-3.727778179869167818e-01
-3.560706363992022228e-01
-3.232369404639191535e-01
-3.048030724517084566e-01
-3.049925906861379321e-01
-3.025595765442349871e-01
-2.875436435064487872e-01
-2.716402266465767767e-01
-2.515066798881017140e-01
-2.014281620551139629e-01
-1.477194217632880890e-01
-2.050156548829554504e-01
-3.973200742162800725e-01
-4.124224921286169243e-01
1.908189120461733779e-01
1.267225399386500362e+00
1.894437992003853433e+00
1.408057740946079495e+00
3.516352154468281310e-01
-1.873255501910713328e-01
1.046635624614024873e-01
6.454383960875307302e-01
8.468498595005291563e-01
6.494832406102056810e-01
3.225125740062097512e-01
8.073420020912246142e-02
-4.699945143371594275e-02
-1.170382414552440103e-01
-1.605707733769191625e-01
-1.786171271805916672e-01
-1.814191058077210539e-01
-1.899620774145499014e-01
-2.083654269824052885e-01
-2.221219925673690310e-01
-2.272085582240589152e-01
-2.366297287605121924e-01
-2.500064039629721901e-01
-2.451185923227471586e-01
-2.132622455535522488e-01
-1.769440356524879521e-01
-1.587063108900109154e-01
-1.499567975412132992e-01
-1.158479786849945792e-01
-2.320930091938692291e-02
1.210320695978139571e-01
2.470812728340475439e-01
2.649445587897548693e-01
1.502639210943320092e-01
-2.830905480898253737e-02
-1.699486141031176234e-01
-2.186680925407307186e-01
-1.990447305304793579e-01
-1.885645027317042755e-01
-2.334232476999701100e-01
-2.948874699801232735e-01
-3.061983808974306775e-01
-2.630160513533959521e-01
-2.162362565920398494e-01
-1.942606274821284396e-01
-1.804726917710895717e-01
-1.621744151348318286e-01
-1.601457373230595893e-01
-1.935201369539636118e-01
-2.323411343411243279e-01
-2.137340396327371272e-01
-1.325577859108892365e-01
-1.126007417979209835e-01
-2.953156097357931276e-01
-5.352840598590457022e-01
-3.116963554363457178e-01
6.915470051963658049e-01
1.860772442677618432e+00
2.068793740954267157e+00
1.094051183166989905e+00
9.260309301282992900e-03
-1.747788128230730598e-01
3.795278340365410008e-01
8.596993950131283091e-01
8.407692669775631567e-01
4.999460858669586005e-01
1.746790918943894322e-01
1.092860105513844028e-02
-3.810863568149468195e-02
-5.624000182353296878e-02
-7.672405969802284509e-02
-1.010870426287530238e-01
-1.337069098939497880e-01
-1.762674371045770405e-01
-2.155856496157762536e-01
-2.383057932252339306e-01
-2.444799173593309449e-01
-2.393046739568338022e-01
-2.285195437407934183e-01
-2.206838041101905346e-01
-2.201716110528336434e-01
-2.281562084346686614e-01
-2.489234652675712811e-01
-2.680963155202505388e-01
-2.358706909466047330e-01
-1.141320637760735029e-01
6.047249329161578230e-02
1.889535743095894227e-01
1.897726483872864967e-01
6.611016358742914656e-02
-9.857690141991810873e-02
-2.170710620063511509e-01
-2.702825299729410546e-01
-2.929099200649885049e-01
-3.097153419650007233e-01
-3.188641342930761957e-01
-3.200153988523561921e-01
-3.206577196209748903e-01
-3.193445822715416660e-01
-3.065886576613111592e-01
-2.802523907240783152e-01
-2.494491517541683745e-01
-2.298384418831312948e-01
-2.374846399540380681e-01
-2.733435332309890331e-01
-3.067232100223536984e-01
-2.899762557322007051e-01
-2.268379941490068497e-01
-2.267457378283031511e-01
-3.814411575883308037e-01
-4.898742188893536742e-01
-7.696355704565174816e-02
9.788010519069328952e-01
1.920461200317602257e+00
1.789425284097390989e+00
7.098234737739164135e-01
-1.669719589410735283e-01
-1.066656513706809167e-01
4.904792104202930214e-01
8.663959081391403583e-01
7.724309464582270746e-01
4.473817772512842517e-01
1.627572965287563123e-01
-7.704525366258214991e-04
-8.297117718514974982e-02
-1.330234605132992187e-01
-1.775955684237623122e-01
-2.233274768923974585e-01
-2.624420875374270934e-01
-2.851032018808362101e-01
-2.851942034379009172e-01
-2.608551414234561161e-01
-2.250725117406625342e-01
-2.044601655856908562e-01
-2.078210671943081789e-01
-2.109091491810607677e-01
-1.929543687738388413e-01
-1.690132975233474277e-01
-1.601541049476256917e-01
-1.450805460467338992e-01
-7.083160953482950384e-02
8.108709958810608742e-02
2.479587854607789299e-01
3.171789263057996355e-01
2.236488319977025241e-01
2.329990286325517995e-02
-1.533392191921374714e-01
-2.295914239185790073e-01
-2.364793879577698488e-01
-2.383357708512423012e-01
-2.502982114855392681e-01
-2.480491755175457946e-01
-2.254842687366704623e-01
-2.087243160588152791e-01
-2.181296024002158662e-01
-2.404108686123237748e-01
-2.445305981143079677e-01
-2.188543624096523921e-01
-1.878003663956336056e-01
-1.800717769207334507e-01
-1.790421425046276327e-01
-1.332638195570981787e-01
-3.824911615055135578e-02
6.832481757426819673e-03
-1.277468651993289850e-01
-3.891594453100440942e-01
-3.919577169312647436e-01
2.825281098472952612e-01
1.399096972317721121e+00
1.981083595689716370e+00
1.399697349432666549e+00
2.766409569057325379e-01
-2.655428101481429604e-01
5.515500493208873312e-02
6.130891650848276919e-01
8.099453239425451478e-01
5.960235728447741410e-01
2.508636537995855842e-01
4.571561641659418335e-03
-1.015259161693192747e-01
-1.339957649318687105e-01
-1.541723129463563602e-01
-1.859481964348415894e-01
-2.301493969002500473e-01
-2.732158319837800220e-01
-3.005013907401401507e-01
-3.133190000552747989e-01
-3.199343862320763732e-01
-3.152312880059201516e-01
-2.882055127318871035e-01
-2.437284212550605289e-01
-2.027597298286814009e-01
-1.852782319037945269e-01
-1.935297411724272998e-01
-1.996297983255134467e-01
-1.545503037255729628e-01
-3.128408565520399143e-02
1.353438884008845711e-01
2.603427383345527923e-01
2.653941190516165838e-01
1.399467062285596475e-01
-4.062784019565558735e-02
-1.758117087505998988e-01
-2.313280196736266225e-01
-2.513752277358189957e-01
-2.830085054810445033e-01
-3.225055054852796754e-01
-3.418621900126653790e-01
-3.329771887125162477e-01
-3.050088238371334581e-01
-2.619222130228501255e-01
-2.081800474278723279e-01
-1.616620881838737867e-01
-1.387919229225692552e-01
-1.411231757563947142e-01
-1.670151401716070683e-01
-2.041521399271895854e-01
-2.089437911166759088e-01
-1.626738088899240264e-01
-1.635541365416693926e-01
-3.366792389472924030e-01
-5.340412213338252556e-01
-2.630257172844878144e-01
7.386475783388134486e-01
1.841391392881307043e+00
1.986638861800358757e+00
1.038702441545892530e+00
5.946377168503333421e-02
-3.960210540448690086e-02
5.152095188062523201e-01
9.445488035945207583e-01
8.901454069777618994e-01
5.496759444629730762e-01
2.296082576519962448e-01
4.606247332995337673e-02
-3.802630612194499160e-02
-7.809966653313843432e-02
-1.058302877850833962e-01
-1.459854679723361082e-01
-2.046452110861248230e-01
-2.508070647842010059e-01
-2.475960047837062472e-01
-2.014026303682643348e-01
-1.586624880464936882e-01
-1.554059177158223226e-01
-1.852749944681542082e-01
-2.152731312043771605e-01
-2.239917432761433513e-01
-2.236406959820661233e-01
-2.392746489045260438e-01
-2.602581816119036162e-01
-2.256788208531333439e-01
-8.613916885046495053e-02
1.133117487282124525e-01
2.421575120999299724e-01
2.017592913699865209e-01
2.619462311926475453e-02
-1.524729448885424332e-01
-2.374403742096455050e-01
-2.393363416463486493e-01
-2.178222911090836322e-01
-2.057622796152879519e-01
-2.112474726371695866e-01
-2.397963440517029698e-01
-2.799470912290988323e-01
-2.998994916539238220e-01
-2.857613541048987238e-01
-2.639329030489807604e-01
-2.650036414624299397e-01
-2.808377753371925634e-01
-2.812004626529555629e-01
-2.556378444130921745e-01
-2.046793824113920801e-01
-1.167542095349547865e-01
-2.182368483584454233e-02
-5.115842415506169361e-02
-3.006793021583579195e-01
-5.279551707896548152e-01
-1.691713330642083124e-01
9.632550408698541400e-01
2.060917131251394085e+00
2.017548660706397712e+00
8.685467428547969382e-01
-1.639236516683593436e-01
-2.066951248490415671e-01
3.894599806921675844e-01
8.021089858250810556e-01
7.047252244048515246e-01
3.260629207117343720e-01
-1.093920792327440078e-02
-1.762370079997084005e-01
-2.114990819317467408e-01
-2.005746200295704940e-01
-1.895278586383113417e-01
-1.863396339419803316e-01
-1.941684657041360118e-01
-2.235951520856591657e-01
-2.762067773985878438e-01
-3.307399465734640609e-01
-3.539235336387867581e-01
-3.294888278760766953e-01
-2.760793473397971098e-01
-2.310049759877447206e-01
-2.186012287921111352e-01
-2.342330645895106256e-01
-2.436651618603036806e-01
-1.979819978303626049e-01
-7.378701051976964409e-02
9.071043753451762948e-02
2.092165216497263447e-01
2.069711285934351663e-01
7.842031905004519243e-02
-1.056908448947323220e-01
-2.513622602369383618e-01
-3.094409875782002661e-01
-2.992289252022389823e-01
-2.744827318494499346e-01
-2.742964011237960520e-01
-3.023432611765300426e-01
-3.374176539310619893e-01
-3.571603237770549777e-01
-3.545800458075560879e-01
-3.326183712723438934e-01
-2.932046643067299785e-01
-2.441100597878002598e-01
-2.054219933471829185e-01
-1.934480953909636092e-01
-1.999434591297974684e-01
-1.922787385594043330e-01
-1.494881152036321992e-01
-1.239926756865026153e-01
-2.282536534443425635e-01
-4.343248065000900326e-01
-3.789772565633108825e-01
3.394926578347156609e-01
1.448282421617085980e+00
1.965145853558120104e+00
1.338453559956510386e+00
2.537946053479281372e-01
-2.178556641882056222e-01
1.130008905178134515e-01
6.095536717537590743e-01
7.434554598332590025e-01
5.331508805527833683e-01
2.567793029932165516e-01
8.176586525095738689e-02
8.581270036589292577e-04
-4.511831087279251362e-02
-8.909272479677091128e-02
-1.421943350907113601e-01
-2.036864578764758515e-01
-2.575145535856286361e-01
-2.836655915492186653e-01
-2.779132221875009190e-01
-2.542272571047719532e-01
-2.312788639614875019e-01
-2.183846024645804129e-01
-2.098214095013828939e-01
-1.956300204192109315e-01
-1.795918101577252679e-01
-1.719191239059284226e-01
-1.584218752871269231e-01
-9.586616510675630143e-02
4.363909456225676525e-02
2.187074191931127620e-01
3.222961840519853460e-01
2.684106135127970472e-01
8.270423485606200054e-02
-1.158183510324149318e-01
-2.272027237278587963e-01
-2.444486636910906951e-01
-2.240014233602226346e-01
-2.180752210992231988e-01
-2.413807882143553796e-01
-2.776987131675874299e-01
-3.022193779444034556e-01
-3.002087656383868319e-01
-2.742755923610037949e-01
-2.426437200882019529e-01
-2.283915917097002479e-01
-2.395190253406700442e-01
-2.568337043029814137e-01
-2.497101769289555018e-01
-2.038717521087256568e-01
-1.302916505778184686e-01
-7.109292252555399205e-02
-1.132770655941623822e-01
-3.142252411071704277e-01
-4.922475600820984676e-01
-1.926796980146072702e-01
7.911987927414204647e-01
1.825637883423480323e+00
1.902549176420110344e+00
9.270456587275347493e-01
-5.120096655947756203e-02
-1.465418866057318636e-01
4.210824336709053650e-01
8.831004391112909913e-01
8.631516903081802861e-01
5.408145181631704990e-01
2.304106032758125866e-01
5.559096068401350038e-02
-3.493701081853890777e-02
-1.043731185230630382e-01
-1.507885380126596231e-01
-1.510818716297509245e-01
-1.227123538191808305e-01
-1.144347611347880100e-01
-1.435983370523916669e-01
-1.743712961578950948e-01
-1.696449607863862730e-01
-1.385885377596959844e-01
-1.158507351480118491e-01
-1.140788880438216996e-01
-1.190131146107898941e-01
-1.182893446971025608e-01
-1.102169574899662108e-01
-8.966533092516161541e-02
-4.866303645697479807e-02
8.563462388440547940e-03
6.668975719519810996e-02
1.055587383550062042e-01
9.265616548734473268e-02
6.036983248402627567e-03
-1.135117927993475884e-01
-1.863445686386682731e-01
-1.913491737861365005e-01
-1.840784041738662558e-01
-2.108895187916318692e-01
-2.622173483425364604e-01
-3.097328488950655268e-01
-3.367637977918120362e-01
-3.318347662666353282e-01
-2.932131690532032708e-01
-2.428617655023499189e-01
-2.083861930224417958e-01
-1.951905706284857434e-01
-1.979355399973579122e-01
-2.184582802295610970e-01
-2.431144051407774231e-01
-2.330502647779859604e-01
-1.886722943549791753e-01
-2.084622771678043274e-01
-3.767444636554779791e-01
-5.024522863413798390e-01
-1.152872008656040392e-01
9.412145202051533932e-01
1.949160897663878345e+00
1.918489599511022492e+00
8.883837399238010413e-01
-2.209845612562449935e-02
-2.469486225035431859e-02
5.355506070815748698e-01
8.950237328569198292e-01
7.756980917252584984e-01
4.196805864406792930e-01
1.301447345130392619e-01
-6.769136063485178302e-03
-6.890989358549665100e-02
-1.200910790054303678e-01
-1.389205837469544291e-01
-1.074555891102214333e-01
-8.558089606986205022e-02
-1.338564965217410030e-01
-2.237111069267783692e-01
-2.888132898546180716e-01
-3.096900552406446350e-01
-3.033798477696191820e-01
-2.807016055989217107e-01
-2.467409666355544762e-01
-2.182635528746719178e-01
-2.172709960764486192e-01
-2.388953075056422515e-01
-2.306294225431351763e-01
-1.312610353694536325e-01
5.100269013822564951e-02
2.185724018699161386e-01
2.631191939107929700e-01
1.589988516717886768e-01
-2.319122904043842415e-02
-1.838091479143484641e-01
-2.717216224789269496e-01
-3.047054413941218676e-01
-3.261247802952899066e-01
-3.517056428058537576e-01
-3.603625824863964100e-01
-3.325755399257712130e-01
-2.861366722414621644e-01
-2.581493877856579910e-01
-2.583245072274106269e-01
-2.638748672105340476e-01
-2.571005948773817940e-01
-2.463360671285382553e-01
-2.474890123529434049e-01
-2.526387306851479164e-01
-2.245534480633033791e-01
-1.436140706209510232e-01
-7.583512714411089206e-02
-1.483477141124232568e-01
-3.498807612903143127e-01
-3.426943295450445848e-01
2.813696964037605830e-01
1.322368103185076471e+00
1.849028399435066028e+00
1.240534281994047472e+00
9.113747965025087439e-02
-4.824932578995720367e-01
-1.564798595607848897e-01
4.775802917086898747e-01
7.919770651691312446e-01
6.719645921149104417e-01
3.598697833566893434e-01
9.586614233627843706e-02
-4.709815567442953571e-02
-1.156437659479697538e-01
-1.705771862238892045e-01
-2.302744053289448589e-01
-2.742818156638681115e-01
-2.836502928594294426e-01
-2.719962709428180858e-01
-2.679629920362986972e-01
-2.775234602304473275e-01
-2.822946139133468701e-01
-2.688880998782144927e-01
-2.425623666871715434e-01
-2.168635188035208383e-01
-2.038838080311237699e-01
-2.050487342058109896e-01
-1.957955388864281721e-01
-1.324325408932673365e-01
4.005532215854030846e-03
1.705836246783201393e-01
2.788705109826493667e-01
2.594235876601567181e-01
1.217421948121321928e-01
-5.288829690520181759e-02
-1.863465704635472175e-01
-2.619137762755373577e-01
-3.018604051350728401e-01
-3.139952062725845927e-01
-2.919548065330901387e-01
-2.515604989843883144e-01
-2.252683562597152245e-01
-2.262866977559798987e-01
-2.451744624291609664e-01
-2.664103610441745928e-01
-2.725027632539321898e-01
-2.544016368060642019e-01
-2.278296629143758967e-01
-2.176364653785735626e-01
-2.172876914369737400e-01
-1.869204993240224100e-01
-1.202267430680564186e-01
-1.094085226815510875e-01
-2.697813162878035520e-01
-4.934298213480238782e-01
-3.405066880286576891e-01
5.075422795501883799e-01
1.574939460274662695e+00
1.850963688758785253e+00
1.048254742762134484e+00
7.680202490452278652e-02
-1.096147546697297526e-01
4.083914820955777958e-01
9.014219020312871367e-01
9.333476418849945278e-01
6.169426489633795807e-01
2.630597617711026293e-01
5.567167656452545049e-02
-9.467635288906589910e-03
-2.892472148498527462e-02
-7.435418413993782893e-02
-1.384693773479488133e-01
-1.755579089450461927e-01
-1.745457749344483112e-01
-1.679000608259552108e-01
-1.797608161608741095e-01
-1.977972592658716056e-01
-1.981527392115620401e-01
-1.787306386649588075e-01
-1.599486022401110374e-01
-1.557081195122113626e-01
-1.557705067318950198e-01
-1.468409695814315574e-01
-1.339047673181513465e-01
-1.187045449251343254e-01
-7.551727259736726316e-02
1.720962777650263467e-02
1.248085432751075974e-01
1.675075099908866771e-01
9.772332903849176300e-02
-4.839054320036334511e-02
-1.875649211523857107e-01
-2.654932026543286860e-01
-2.905416576045946608e-01
-3.033520481171062544e-01
-3.239167244430845582e-01
-3.355697669878953127e-01
-3.180536826840805187e-01
-2.818048119774201887e-01
-2.585090223858037550e-01
-2.583709984421511119e-01
-2.546047206465438251e-01
-2.286365770231938988e-01
-2.095996119915832512e-01
-2.318240002072394501e-01
-2.662784537807590945e-01
-2.406902432971979588e-01
-1.469237102077702861e-01
-1.065658291602987334e-01
-2.503498065009595042e-01
-4.303470106711395626e-01
-1.454874143076111681e-01
8.898217015079690206e-01
2.032188320768483436e+00
2.142738841724254328e+00
1.039216771747740076e+00
-1.253463281246147143e-01
-2.938519454504375239e-01
3.331167501689701882e-01
8.665323776888231855e-01
8.507417095828569975e-01
4.949023164287157384e-01
1.753536316838141818e-01
3.532997394217704534e-02
-1.379496888710946348e-02
-9.087574337149674497e-02
-2.024654545110009807e-01
-2.680703839248074205e-01
-2.456428394713489338e-01
-1.923573060966047299e-01
-1.871645082400858751e-01
-2.291819669400769199e-01
-2.558390711405393314e-01
-2.440256493482163003e-01
-2.340941236380978119e-01
-2.536945434976023983e-01
-2.802611780832546251e-01
-2.852068750374014972e-01
-2.605853203009643737e-01
-1.995460122782455048e-01
-9.269545483204688630e-02
4.883654531698539830e-02
1.800799834838212043e-01
2.365899449663717846e-01
1.744108557466831910e-01
1.211696971287294644e-02
-1.681545382621940643e-01
-2.799174437139522187e-01
-3.028181724030157285e-01
-2.853924144840309096e-01
-2.798055860525568983e-01
-2.930794817741885772e-01
-2.997865707582392791e-01
-2.796374672197277089e-01
-2.391920292514426727e-01
-2.070636506924823927e-01
-2.057579326634557670e-01
-2.259531251993951440e-01
-2.379612489117215457e-01
-2.293525329290518611e-01
-2.149959334913973674e-01
-2.009168133294753078e-01
-1.636837751971509380e-01
-1.101204066675759430e-01
-1.412392766882928641e-01
-3.333224933266497048e-01
-4.642090041060702998e-01
-3.892909722841877973e-02
1.064568862482240474e+00
2.058862069110297899e+00
1.949018356449512046e+00
8.494532680782080902e-01
-7.601099702959568383e-02
-6.864296130996529188e-02
5.061435058253809238e-01
9.021546493517529353e-01
8.308325557510373160e-01
4.818461510417735849e-01
1.326888894834131194e-01
-7.950740043733321716e-02
-1.531970521842426491e-01
-1.535512502612827457e-01
-1.538160678458440622e-01
-1.877242172024438938e-01
-2.418334722489220712e-01
-2.884439536382271685e-01
-3.131115612496085387e-01
-3.169387301480601216e-01
-3.071086919015144634e-01
-2.884680103237950988e-01
-2.622349752036041703e-01
-2.318950709851352876e-01
-2.076960017643101064e-01
-1.996514271958793885e-01
-2.002488125154382459e-01
-1.751967436186599447e-01
-8.765787451507942030e-02
5.334797870866579694e-02
1.781366631446295312e-01
2.071444287009398255e-01
1.214898584399736470e-01
-1.823760191122800883e-02
-1.264809979118296512e-01
-1.668994234061285109e-01
-1.697947557995620194e-01
-1.844224555907247320e-01
-2.290843314178264978e-01
-2.837761188372384669e-01
-3.150701253073338592e-01
-3.051312508195013207e-01
-2.653884550753888849e-01
-2.248829094472878654e-01
-1.998266682196230271e-01
-1.802099014863733917e-01
-1.580072774953208137e-01
-1.520993207668096259e-01
-1.784130881452851147e-01
-2.076013648592060223e-01
-1.934991979847735522e-01
-1.633164975886544912e-01
-2.309650059965069335e-01
-4.063326741186378266e-01
-3.737361217775481137e-01
2.798973631848417076e-01
1.367316637820360281e+00
1.946287754338427378e+00
1.372959705906291905e+00
2.442453088565085806e-01
-2.998060344381312525e-01
5.688673170564369913e-02
6.720552405645993099e-01
8.846251439531850336e-01
6.124049348173706830e-01
1.773491911101334750e-01
-1.133371418824178217e-01
-1.877279090012326512e-01
-1.565308196295880083e-01
-1.392466193922557161e-01
-1.685270075331145589e-01
-2.160956631463107347e-01
-2.481332890380832101e-01
-2.530377143135910667e-01
-2.423153281582045848e-01
-2.336327331619018066e-01
-2.306599934253674433e-01
-2.203026443562421666e-01
-1.955219762769233316e-01
-1.755706622054975519e-01
-1.881003973771966375e-01
-2.316901635167588624e-01
-2.653685071315623478e-01
-2.336839264444742770e-01
-1.109676410734070084e-01
6.078202005795103890e-02
1.869688325631351233e-01
1.943711965908439532e-01
8.968458467068152196e-02
-5.927161590507864369e-02
-1.882312359894344755e-01
-2.720186459285007241e-01
-3.111905834769755907e-01
-3.154342295352803305e-01
-3.069082351182766955e-01
-3.128385487320888836e-01
-3.393062951568188712e-01
-3.625403111763138564e-01
-3.534559212290329100e-01
-3.127783822802114866e-01
-2.785959312438479607e-01
-2.852185311663685274e-01
-3.197669914300155791e-01
-3.411904805717357880e-01
-3.243830775903820407e-01
-2.588499536474271334e-01
-1.556869036033625420e-01
-1.099848658303844012e-01
-2.598201815838915851e-01
-5.213430600856207020e-01
-4.283577021004184582e-01
4.107516482377375211e-01
1.556570975481024410e+00
1.935945150867478537e+00
1.174223628613588311e+00
1.887131199934056203e-01
4.555829377722239726e-03
5.475131058454665300e-01
1.021577785263102944e+00
9.685175031171563420e-01
5.745661143465210507e-01
2.254594033493351191e-01
7.581776041731985716e-02
2.850656242620474776e-02
-3.445748846501728302e-02
-1.100466555374800398e-01
-1.396483910641040938e-01
-1.142960141634789123e-01
-7.741106392192655117e-02
-7.766209059711830232e-02
-1.345980199300313152e-01
-2.160977110876210749e-01
-2.579905170339422682e-01
-2.263805598376772421e-01
-1.495587323548484004e-01
-8.613296144227626516e-02
-7.272919342389982944e-02
-1.003715824788824484e-01
-1.269076661076417312e-01
-1.036931946334618965e-01
-7.991029872239549872e-03
1.246305333743921440e-01
2.076613685231446516e-01
1.716932881377847275e-01
3.099709578495205009e-02
-1.274423012206364891e-01
-2.203762669624458603e-01
-2.324195214516278363e-01
-2.141494363081271612e-01
-2.250898350895288724e-01
-2.746091464836324381e-01
-3.134074455803463333e-01
-2.915710280371925922e-01
-2.260520387849229984e-01
-1.823686079335475330e-01
-1.833931523861833390e-01
-1.831731375549832397e-01
-1.464868211583350011e-01
-1.035266997665428568e-01
-1.010750674642807573e-01
-1.281593969513190601e-01
-1.180787529517210305e-01
-4.715087153980165174e-02
-2.548484362129375264e-02
-1.908089916807602371e-01
-4.005672394539179226e-01
-1.461382979815671057e-01
8.672598684911795308e-01
2.003430268528318958e+00
2.132592333210580282e+00
1.064378889687265461e+00
-9.657223938662548579e-02
-3.356779784590294691e-01
1.901215279301692318e-01
6.871611842681053517e-01
7.210162346235641229e-01
4.262516237524166529e-01
1.161015654581927792e-01
-4.801496449082560264e-02
-9.737858436890357849e-02
-1.280221075269724063e-01
-1.825188357569920150e-01
-2.389376234092206175e-01
-2.724400743376766965e-01
-2.926215527194467869e-01
-3.244848453345528516e-01
-3.692451343485843585e-01
-3.916522773172665950e-01
-3.595168222406405212e-01
-2.899120614059358947e-01
-2.301962975923415866e-01
-2.048882946003446337e-01
-2.083516388010349107e-01
-2.251063376600605515e-01
-2.246380180188204678e-01
-1.622888729695355081e-01
-2.558585829437420855e-02
1.257307333657474990e-01
1.951628650168765189e-01
1.348849696398517484e-01
-1.277452789354780946e-02
-1.599123819673205493e-01
-2.486009638236385821e-01
-2.832615386184746398e-01
-3.059336393941577414e-01
-3.476951537971595396e-01
-3.963534945759230044e-01
-4.107930552671020252e-01
-3.695843214970405688e-01
-2.997130233563508606e-01
-2.554201494859862920e-01
-2.670973807967335634e-01
-3.094879239792060477e-01
-3.328451082873664091e-01
-3.235173957708830650e-01
-3.050734216335882487e-01
-2.834169075049141617e-01
-2.372754954964484131e-01
-1.833019170929096608e-01
-2.126817033524283640e-01
-3.761538829461532063e-01
-4.678216905157929761e-01
-7.065754355947459486e-02
8.826677102248862150e-01
1.685742170115535066e+00
1.522143555237400969e+00
5.751722064148869773e-01
-1.287468771774193388e-01
-5.096332805734038809e-03
5.482259689817574611e-01
8.639228952688552399e-01
7.335019851211966868e-01
3.891029535128120997e-01
1.094140232659470136e-01
-1.883490769831174666e-02
-6.362218826393761795e-02
-1.039706681718188808e-01
-1.539821657316333414e-01
-1.885292228016447469e-01
-2.004465481363143509e-01
-2.133960190284176772e-01
-2.428935801733100586e-01
-2.714940388703117602e-01
-2.789736433899194790e-01
-2.734644459443206221e-01
-2.724738007466096512e-01
-2.724765091040566856e-01
-2.577869807527728985e-01
-2.296402932893359117e-01
-2.019829793670812057e-01
-1.629569448486742067e-01
-7.223439077018734000e-02
7.697414929205474710e-02
2.235656699315018148e-01
3.022045026336129814e-01
3.056033556635109338e-01
2.453041918557872514e-01
1.147170745998448427e-01
-5.347109932538658683e-02
-1.747162200737601701e-01
-2.136074187362446142e-01
-2.192195109966719735e-01
-2.367287095341894521e-01
-2.587402891218912870e-01
-2.675150322740691977e-01
-2.662636302988456438e-01
-2.608926184218286481e-01
-2.435068168440745473e-01
-2.073714419791072294e-01
-1.666106461734830346e-01
-1.501735521926569339e-01
-1.695647891863340528e-01
-1.908055483437074151e-01
-1.651260399472944118e-01
-1.228717026456302847e-01
-1.985648225587801907e-01
-4.329585731710677288e-01
-5.024170604092285108e-01
1.087711516720916011e-01
1.350236443838943590e+00
2.243333946386284250e+00
1.875051270365169831e+00
6.468293996845783100e-01
-1.621724131995492812e-01
3.118336232917250789e-02
6.557330110077510543e-01
9.489387299354881122e-01
7.516420301221696798e-01
3.754923883842782861e-01
1.179914721834007252e-01
3.418226215277662960e-02
2.148620830711896190e-02
-1.303784059367234238e-02
-8.211676076923650480e-02
-1.493571755600620887e-01
-1.831656597802596709e-01
-1.824624849975969854e-01
-1.654542064710979588e-01
-1.478957743131891212e-01
-1.370813591473337978e-01
-1.312662205118859671e-01
-1.229247727679311508e-01
-1.158614753574869205e-01
-1.267636838680305245e-01
-1.564845803632171628e-01
-1.747985438279135162e-01
-1.427623107842362349e-01
-4.628534459414433005e-02
8.482038017108477213e-02
1.851327968835986826e-01
1.929650621414885081e-01
9.695068520456448513e-02
-5.115167524845382063e-02
-1.757844770599552853e-01
-2.377504934818721050e-01
-2.546948988197480501e-01
-2.635390466047718983e-01
-2.793141285948735897e-01
-2.965584156708755414e-01
-3.065293759294949183e-01
-3.005233180455961217e-01
-2.761506443479558315e-01
-2.453858310114762076e-01
-2.220270407401992441e-01
-2.080852056779119996e-01
-2.037750644304261727e-01
-2.148532612486811211e-01
-2.341485009845894194e-01
-2.298553619190033814e-01
-1.836644981774910035e-01
-1.565144872865162351e-01
-2.644676459575242555e-01
-4.706759225789304280e-01
-4.027403793521335817e-01
3.342380531422421974e-01
1.444366989624121578e+00
1.926606187013662597e+00
1.243296771950365143e+00
1.220338752409396710e-01
-3.401964025643842149e-01
3.607692729026968498e-02
5.907396200604186909e-01
7.707968483491509648e-01
5.647618203607939202e-01
2.364788498665023608e-01
-1.926712558526497143e-02
-1.595802093593169657e-01
-2.155668538092111730e-01
-2.301542842028238833e-01
-2.439726095699981112e-01
-2.783257028170298408e-01
-3.141260894914592594e-01
-3.153537503502845118e-01
-2.855714055592742384e-01
-2.736418777784914713e-01
-3.087526099305798466e-01
-3.569875069836667136e-01
-3.624200004026697508e-01
-3.138286719052303941e-01
-2.526946411054698527e-01
-2.217538297813448633e-01
-2.159842186183658364e-01
-1.834858463201813339e-01
-7.666991350226290414e-02
8.618098031931381575e-02
2.129049810071496351e-01
2.131021663695575885e-01
8.841450289421701192e-02
-7.055198340107587951e-02
-1.793067023392566628e-01
-2.275223212266179185e-01
-2.495812609096915158e-01
-2.637090659576425411e-01
-2.654990015283933413e-01
-2.598951941853617775e-01
-2.656920518991816027e-01
-2.881806421743791646e-01
-3.105902555069808280e-01
-3.164937032751822255e-01
-3.005528647097632233e-01
-2.597758028240131356e-01
-2.045329915507526075e-01
-1.689755934965228579e-01
-1.656563149288554915e-01
-1.470073565899129298e-01
-8.425660304558793556e-02
-7.696602428297927290e-02
-2.565276090483798455e-01
-4.825723307224484837e-01
-2.610766435185904455e-01
7.114025377395303273e-01
1.858878021104852785e+00
2.086232952711990940e+00
1.133218065111879058e+00
1.729530339751900181e-02
-2.300000277861247444e-01
3.029106017821094343e-01
8.282426719378170876e-01
8.706668886050149547e-01
5.566387458685740919e-01
2.229704779798518111e-01
3.589102299687546571e-02
-4.486008136693538095e-02
-1.017789704394300443e-01
-1.566547485248062921e-01
-1.960249610664620556e-01
-2.192658579156769316e-01
-2.362266562042583118e-01
-2.468796273048483592e-01
-2.455614589517316482e-01
-2.360343857035642756e-01
-2.300408708799731305e-01
-2.314645967743028387e-01
-2.287862548354770986e-01
-2.105597269619645662e-01
-1.844199136629200986e-01
-1.676026881515602363e-01
-1.576124405972011144e-01
-1.258181174577588379e-01
-4.766174376994155443e-02
6.539097563624617082e-02
1.639707238695295721e-01
1.899742727992535796e-01
1.240310883298745004e-01
1.225815796644931857e-02
-7.447135552239476930e-02
-1.151158510031454335e-01
-1.522089074397948438e-01
-2.286924720685402646e-01
-3.291186578213026737e-01
-3.898896311780503110e-01
-3.670132615554663746e-01
-2.878144514014380206e-01
-2.201417883657819097e-01
-1.977921317572208515e-01
-2.026972277404548994e-01
-2.124999177177414322e-01
-2.316620196138180765e-01
-2.675682621491545787e-01
-2.935780214639980290e-01
-2.603061038694042817e-01
-1.728053463356940267e-01
-1.511867715251024036e-01
-3.181631228307167381e-01
-5.131705255460827786e-01
-2.338032013113828800e-01
7.796552163192896900e-01
1.874533116293889634e+00
1.976324172591030992e+00
9.759360119888401686e-01
-2.245781538883540041e-02
-1.049574705736365521e-01
4.696551371765491645e-01
9.037501380254299166e-01
8.457769545920372778e-01
4.988319431807640703e-01
1.698222045392511204e-01
-1.777867901512199950e-02
-1.022376336570891553e-01
-1.588583219382717626e-01
-2.176219710387776729e-01
-2.561133559965245166e-01
-2.510770381094997727e-01
-2.237369286442524308e-01
-2.168297704342650456e-01
-2.380287629459300891e-01
-2.562304429398665206e-01
-2.487695273039131627e-01
-2.220531484455376403e-01
-1.918746255262925859e-01
-1.725106207926266066e-01
-1.754226210064880331e-01
-1.908681213271440635e-01
-1.776848013231532852e-01
-9.422364524887370807e-02
5.419266972962953621e-02
2.028973446060050034e-01
2.660127501607261191e-01
1.953063489288015264e-01
2.255494932476224609e-02
-1.511521629833658398e-01
-2.337762980729126694e-01
-2.205173851497145010e-01
-1.824737870473089607e-01
-1.852087219132525497e-01
-2.333231145334125345e-01
-2.867408979583904727e-01
-3.125788016148032256e-01
-3.134315361539387057e-01
-3.088398354525352385e-01
-2.999393220536395455e-01
-2.666095195711473131e-01
-2.028053044412866102e-01
-1.402948469468713877e-01
-1.188312326147502734e-01
-1.301156276257014466e-01
-1.189616477056711918e-01
-7.238142687036212830e-02
-8.775380107332443613e-02
-2.569065592620044525e-01
-3.959016265670893264e-01
-3.052754881201551196e-02
1.000922339207634071e+00
1.963226991402416965e+00
1.846204576448316148e+00
7.126702499087880227e-01
-2.685504375288922940e-01
-2.865715974118486220e-01
3.081529749273241858e-01
7.387517489112532809e-01
7.029559469671919913e-01
4.071776419793946000e-01
1.269661454209018159e-01
-4.083991365605710300e-02
-1.276743361355094364e-01
-1.780020306110773332e-01
-2.091497974655619208e-01
-2.230588629605055606e-01
-2.258243915522405443e-01
-2.341638323355541840e-01
-2.580591094269739649e-01
-2.851839758934912039e-01
-2.983301881293001223e-01
-2.981209066647073080e-01
-2.898455279582319855e-01
-2.618572561089658746e-01
-2.091167236965479903e-01
-1.694438912394374275e-01
-1.840310014552277718e-01
-2.151560830193302021e-01
-1.671297438599238794e-01
-1.039640756500862309e-02
1.688766800252714806e-01
2.560557148366458535e-01
2.052544594466688965e-01
5.656361883484628539e-02
-1.054448626044680176e-01
-2.152861517965962979e-01
-2.705093435894193044e-01
-3.092514273713555806e-01
-3.491723716991973481e-01
-3.721752959423815788e-01
-3.629028391153779620e-01
-3.322908331184720732e-01
-3.030848167257588766e-01
-2.883483325691635346e-01
-2.819881511748117964e-01
-2.683420638672981973e-01
-2.450811539451176746e-01
-2.256684514591393020e-01
-2.127653759379402876e-01
-1.876997575886917013e-01
-1.426106010553309655e-01
-1.258231930450140756e-01
-2.313832530946998700e-01
-4.479149619094145995e-01
-4.682478659072623062e-01
1.204015493577021007e-01
1.178620546685025472e+00
1.813684668999411054e+00
1.355929338906499693e+00
3.232748540830839845e-01
-1.833036130114303330e-01
1.727853118799831389e-01
7.791088690519792914e-01
9.995611769995401685e-01
7.745437284981550041e-01
4.083451912672484974e-01
1.453971955869682309e-01
2.495138356519003425e-02
-2.641701741344942497e-02
-7.655816200754467227e-02
-1.395905217010145472e-01
-1.909302336196674332e-01
-2.058384370629701698e-01
-1.834093267860781307e-01
-1.481575793611193681e-01
-1.347569645355339851e-01
-1.587088626030431771e-01
-1.952809078180031688e-01
-1.989853144854558109e-01
-1.582246948579326407e-01
-1.205380829622300365e-01
-1.361651081333717928e-01
-1.838065640983637672e-01
-1.863691096614734644e-01
-9.617214501399795612e-02
5.877806241534908049e-02
1.998062382146614802e-01
2.510205951066958874e-01
1.860133887546822629e-01
4.212467354541035713e-02
-1.130292321948769135e-01
-2.272684007114279814e-01
-2.756855801086021684e-01
-2.598170218832062672e-01
-2.173152977832381039e-01
-1.984308573576739065e-01
-2.120460912670461828e-01
-2.233600400268718478e-01
-2.097017822800456566e-01
-1.894337694432121633e-01
-1.897846292948930091e-01
-2.068818225550318468e-01
-2.162862453497481907e-01
-2.147023511144409980e-01
-2.172979582274257582e-01
-2.110209368726048140e-01
-1.632433712663263481e-01
-1.110837245424910469e-01
-1.806737950560957651e-01
-3.845306657743239875e-01
-3.753529177177856724e-01
3.214002890033199611e-01
1.535805526907192409e+00
2.227542073767736497e+00
1.620523276634280085e+00
3.238073150003013545e-01
-3.623169714792933149e-01
-1.681555156718419347e-02
6.631297421844193352e-01
9.185326783802397754e-01
6.449775353220581486e-01
1.994750756952405335e-01
-8.320803503322454775e-02
-1.372428687907478462e-01
-1.023795638077358156e-01
-1.151435573067242507e-01
-1.854019195241456142e-01
-2.462502305075492948e-01
-2.581094242049856158e-01
-2.379200262423738221e-01
-2.213292013825505222e-01
-2.308085370652812052e-01
-2.683784025975141097e-01
-3.129437427886790912e-01
-3.311459691605097566e-01
-3.088374888961267772e-01
-2.683356577605005011e-01
-2.437603957947835909e-01
-2.376086518688275140e-01
-2.059443836484703971e-01
-9.812534297287062168e-02
7.564813838633982490e-02
2.239431733126803492e-01
2.456982428627200177e-01
1.282797991551817562e-01
-3.928398982798063377e-02
-1.521977809193569842e-01
-1.804289552771566330e-01
-1.750749897628397778e-01
-1.966852632616900576e-01
-2.521412727809728693e-01
-3.044278588585130341e-01
-3.256070727157533429e-01
-3.217109900247415166e-01
-3.103616965207097178e-01
-2.941841527709662674e-01
-2.656584995504365776e-01
-2.278591280913019324e-01
-1.998328889894931681e-01
-1.999166291087507152e-01
-2.198395923530691021e-01
-2.189208095122518460e-01
-1.717614927877735842e-01
-1.410737296630265591e-01
-2.458529909329364438e-01
-4.352590770818111632e-01
-3.125111057829347838e-01
5.041847663249826583e-01
1.648971349322865265e+00
2.075302701533627836e+00
1.305197153738304472e+00
1.596602176112394689e-01
-2.639874679758317244e-01
1.414728616428343189e-01
6.827773856422636456e-01
8.318392667683752739e-01
6.037788370323292630e-01
2.743082486094123307e-01
4.429279227764687521e-02
-6.203185971109582975e-02
-1.207604330334052373e-01
-1.901284763199098116e-01
-2.601828995854001403e-01
-2.992556770936974919e-01
-3.157600437519844094e-01
-3.405842291401179334e-01
-3.661115742650820626e-01
-3.525885370703589761e-01
-2.957580944554430991e-01
-2.409697978640024107e-01
-2.226664255153218697e-01
-2.316934642139389100e-01
-2.458082894858150402e-01
-2.509831465232157943e-01
-2.260548970905749688e-01
-1.384154085969120374e-01
2.179269853071649082e-02
2.009681524979519129e-01
2.964524459925335642e-01
2.396335374645868210e-01
6.811655011415057581e-02
-1.035664210778234201e-01
-1.944005115970705300e-01
-2.221002910786456508e-01
-2.495728790850867684e-01
-2.954864171315485510e-01
-3.241254803826134623e-01
-3.052453270841068433e-01
-2.537146505294836651e-01
-2.102824593257129893e-01
-2.000277735223374709e-01
-2.142239815820099758e-01
-2.271931568614453389e-01
-2.274277208546546525e-01
-2.267454311929296140e-01
-2.329800047584847100e-01
-2.234202321889894038e-01
-1.657500902838436596e-01
-8.179482887902725374e-02
-8.159838331327137761e-02
-2.537333282355261344e-01
-4.245463920813739578e-01
-1.348734119921588537e-01
8.188050341941407462e-01
1.803079812252626590e+00
1.836183644278700511e+00
8.550714878414891196e-01
-1.009408310646588147e-01
-1.899830523753652245e-01
3.540955016849197667e-01
7.942015787197871379e-01
7.789440188794286568e-01
4.768997652717509306e-01
1.837547304179505403e-01
2.248600589124248594e-02
-5.314619660055219796e-02
-1.108138079223842526e-01
-1.615031622291804303e-01
-1.934201101428809633e-01
-2.095997133407382640e-01
-2.157815334349991454e-01
-2.128588412413876529e-01
-2.104434641291069163e-01
-2.189453697562715184e-01
-2.300469761105733979e-01
-2.277497395672542224e-01
-2.110467959395740389e-01
-1.910903911233157726e-01
-1.777697898907369956e-01
-1.723635974838227114e-01
-1.571972389153765692e-01
-9.852119744293624803e-02
1.842089031550186301e-02
1.545340367133848092e-01
2.287528788717886341e-01
1.809049197091134598e-01
3.466877995152212177e-02
-1.147418795957678428e-01
-1.905030366809509768e-01
-1.959199843478716119e-01
-1.821579702509307508e-01
-1.887019788592859959e-01
-2.230759387706540420e-01
-2.644200830737818975e-01
-2.808606911084703950e-01
-2.644900569546403402e-01
-2.421075990232652020e-01
-2.391846826279831473e-01
-2.504052822081032081e-01
-2.557498729502088453e-01
-2.484930103108256849e-01
-2.361650142638796745e-01
-2.192184031249344023e-01
-1.847129491077710850e-01
-1.535663163046334656e-01
-2.220047230643431568e-01
-4.353174957821071556e-01
-5.412301040475396841e-01
-7.061652847763461027e-02
1.018360593735397668e+00
1.917604387784502151e+00
1.740765584212341510e+00
7.018212837852650932e-01
-1.000166620152789509e-01
-4.298973467749925281e-02
4.810230195771058037e-01
8.041051218962570468e-01
7.035755732798671946e-01
3.867166093363808566e-01
1.166863950500601071e-01
-1.801546966049522719e-02
-7.200269305613384019e-02
-1.148007308144407823e-01
-1.687970580492214601e-01
-2.189256878825996677e-01
-2.356076796655384720e-01
-2.040641672855942612e-01
-1.614494996352093259e-01
-1.798394900894078330e-01
-2.737631833528585412e-01
-3.595072316570294135e-01
-3.530728844287629453e-01
-2.713049678109180629e-01
-1.988175091306888520e-01
-1.915990001104583840e-01
-2.310593984736992734e-01
-2.426091884467498350e-01
-1.598558738306045945e-01
6.116269250485275449e-03
1.655097110130275551e-01
2.258022307854410660e-01
1.615002277383021656e-01
1.742287224222291431e-02
-1.322348268845860153e-01
-2.279166699717823930e-01
-2.536834141747317251e-01
-2.398776337785037405e-01
-2.349829203757502483e-01
-2.630573946858411061e-01
-3.006166062318129661e-01
-3.018252790280369080e-01
-2.532236211351529542e-01
-1.912517911504557633e-01
-1.584375771007894840e-01
-1.607332788371316767e-01
-1.786224110736827908e-01
-1.984117324330328946e-01
-2.085823018322373323e-01
-1.792314284316920969e-01
-9.090168880672347407e-02
-8.021702341897193195e-03
-7.179534002430162931e-02
-2.988994658694641426e-01
-3.523754972261981533e-01
2.464908744247820693e-01
1.392786202875485380e+00
2.128690914324300465e+00
1.653619269536387160e+00
4.445005193274765842e-01
-2.803181147832913278e-01
-4.574486888113290378e-02
5.569760396985113937e-01
8.220646251551313455e-01
6.286778168071671669e-01
2.738041553614908308e-01
2.116406486915977520e-02
-8.632453668276490744e-02
-1.280313985115030806e-01
-1.581805707144238737e-01
-1.744015499140864622e-01
-1.746356967990534692e-01
-1.863474258906018810e-01
-2.293849122684194219e-01
-2.838258709978084271e-01
-3.183090355506504876e-01
-3.292438250789724297e-01
-3.291091291238194549e-01
-3.155835203788661669e-01
-2.796315125924188627e-01
-2.333591568121979043e-01
-2.002086954364438731e-01
-1.731297142213856222e-01
-1.068942131499101694e-01
2.789269527923368686e-02
1.893918323421635019e-01
2.836630484284923814e-01
2.485946645334295713e-01
1.113419279870558887e-01
-4.323627926587350623e-02
-1.515068893295551944e-01
-2.082895244717471450e-01
-2.370789125461217339e-01
-2.510577577026847362e-01
-2.532188983711474717e-01
-2.503003598259829765e-01
-2.473505960105923385e-01
-2.457324207365736424e-01
-2.548635587590747376e-01
-2.808205654045407007e-01
-3.023722872359351221e-01
-2.900798768896576396e-01
-2.496519725302231707e-01
-2.171582891109737623e-01
-2.064455955604544701e-01
-1.872542737819660463e-01
-1.440522758324327968e-01
-1.505041014957760326e-01
-3.074413888536582373e-01
-5.064726601403902739e-01
-3.248879784660812509e-01
5.331303273095115980e-01
1.584385154439052146e+00
1.838291874562575590e+00
1.039259398152087677e+00
9.328740452769576641e-02
-9.739713939947305943e-02
3.582446729439125455e-01
7.784171010254060663e-01
7.923754213895388698e-01
5.086601678336374333e-01
1.711931581499827604e-01
-7.087429140427926877e-02
-1.694542519479715348e-01
-1.537343812137814403e-01
-1.145766922888057648e-01
-1.310236786717692004e-01
-2.009164183947500792e-01
-2.636573358705380787e-01
-2.729307984965345657e-01
-2.389690418636646607e-01
-2.113988409326720830e-01
-2.146090232305307710e-01
-2.033622339412350655e-01
-1.179089188659308146e-01
9.704704593677573876e-03
6.129409996215659517e-02
-2.251479510790067862e-02
-1.545542464050321807e-01
-1.936971357425540385e-01
-8.758328755260921805e-02
9.152610648399796267e-02
2.198311845197349623e-01
2.221984897038356555e-01
1.197024864198050764e-01
-1.396382223124091257e-02
-1.424641090906034746e-01
-2.867417516820242041e-01
-4.350793842151056690e-01
-4.985095408770984227e-01
-4.261351383957998618e-01
-3.021653139135416222e-01
-2.474098308402230828e-01
-2.727371715516477280e-01
