-3.093417560855689016e-02
-1.183054892133585528e-01
-1.146186561719171604e-01
-5.603970346921961776e-02
2.173940024450568553e-02
1.232679918437397798e-01
2.533508653895010787e-01
3.762595400327978235e-01
4.323061252956794664e-01
3.894328939959209590e-01
2.709589804493025000e-01
1.288778281110033452e-01
6.724539733351948476e-03
-6.001497856342388054e-02
-3.071959635134937500e-02
1.169168010599974106e-01
3.314499230081926484e-01
4.856951530371310666e-01
4.817229153290321086e-01
3.492168608249824335e-01
2.052661234997679163e-01
1.219481666029886419e-01
3.082721991301034040e-02
-2.349924193610367085e-01
-7.251085000711505746e-01
-1.181612602464420458e+00
-1.216660763159312042e+00
-7.549558427447946585e-01
-1.459976202843672743e-01
2.218528150098338647e-01
2.539450584716369530e-01
8.306905296579333853e-02
-1.280942441145601907e-01
-2.654615670430897079e-01
-2.796685135394965105e-01
-1.947822396613619333e-01
-7.344764449901690362e-02
4.024533148810148508e-02
1.329802480491763528e-01
1.847934301891498987e-01
1.514381862410706381e-01
1.432876690487031382e-02
-1.645092069610147034e-01
-2.781943350836872386e-01
-2.697727316676212794e-01
-1.652088603528531485e-01
-2.228219078267078268e-02
1.124847383061499673e-01
1.981162422647043397e-01
2.052827428531847076e-01
1.508253068141260089e-01
8.578256429581063158e-02
3.611882910230500288e-02
-5.153629333848500776e-03
-3.056055731870265663e-02
-7.263882312731292402e-03
8.508092628414114234e-02
2.253504902337681304e-01
3.566810290402183670e-01
4.181685799456784092e-01
3.790199748225406284e-01
2.541757695090181013e-01
9.962864667328685808e-02
-1.215993834254201073e-02
-3.279420308001483597e-02
3.452789613754141812e-02
1.468662034025664254e-01
2.575150148906086289e-01
3.406791114404918441e-01
3.920197909515233392e-01
4.114756080671450600e-01
3.683011824972456383e-01
1.735067142550084651e-01
-2.527535821157674834e-01
-8.088767942323108473e-01
-1.167438944135941625e+00
-1.052955309037853171e+00
-5.503975863261659773e-01
-5.491061724502963037e-03
3.321574681276441843e-01
4.341255309842940724e-01
3.580776240756332607e-01
1.628920204630064095e-01
-6.959695318399529429e-02
-2.429795599593377320e-01
-2.966217926503693647e-01
-2.317695382304695850e-01
-9.823686787503946305e-02
3.910945960389180381e-02
1.295352692696276897e-01
1.460818631262785217e-01
8.356843012906452206e-02
-4.148477980263345910e-02
-1.897926118940254092e-01
-3.040660024507627623e-01
-3.234705331306342302e-01
-2.174147306500229804e-01
-2.826558623446188273e-02
1.411945004176308194e-01
2.226861257748236622e-01
2.482081901258911816e-01
2.784885599291465064e-01
2.954745594015120713e-01
2.334513374841813427e-01
9.758917529346694542e-02
-1.839118846126548690e-02
-2.557043204941725906e-02
8.898725975370797014e-02
2.646393913317081625e-01
4.095467767367743095e-01
4.516921809593891779e-01
3.778964606217612432e-01
2.372934560740770915e-01
9.936771522151990887e-02
6.668759591904620601e-03
-2.741199812263608870e-02
3.384659254426615124e-03
9.374511001105051422e-02
2.094732383198201209e-01
3.057210918657221610e-01
3.627108454599837772e-01
3.595554806129762637e-01
2.040010571689302166e-01
-2.079869266318243037e-01
-7.759520080459801905e-01
-1.150796832823632654e+00
-1.058087001739218991e+00
-5.953168419776938558e-01
-8.905721451354732532e-02
2.437538024282665250e-01
3.809595135978136593e-01
3.644663792668980662e-01
2.312539202196273735e-01
3.648036782657905486e-02
-1.476103129083657650e-01
-2.688618839621453316e-01
-3.114736851433689280e-01
-2.794923514302837253e-01
-1.815473309261048662e-01
-3.959390958091192625e-02
9.620748441993882960e-02
1.602228421836077443e-01
1.140944218013443950e-01
-1.969979499491404662e-02
-1.689315350795926596e-01
-2.625817475263577117e-01
-2.804983609168656966e-01
-2.459619698958918632e-01
-1.640062214776622784e-01
-4.233669015011354807e-03
2.228060513566946788e-01
4.123189086991728147e-01
4.436150950410360227e-01
3.031911169057199817e-01
1.016512267388789414e-01
-2.804859769575902828e-02
-4.346138619820830162e-02
-1.051696955281372636e-04
5.210458513820099419e-02
1.293140144214539045e-01
2.424634028696620869e-01
3.353042072689205177e-01
3.405097458688723933e-01
2.525045658250192893e-01
1.201354362815896248e-01
-2.842661336733958224e-03
-8.704394866491224625e-02
-1.191308596570493095e-01
-7.463352941450245026e-02
8.007503701704453414e-02
3.216147121059406144e-01
4.877746423084763361e-01
3.200756978943378739e-01
-2.866453820826119214e-01
-1.039466194093355611e+00
-1.407282823132087302e+00
-1.148956306033882324e+00
-5.535344951505389854e-01
-5.521862643530217607e-02
2.069934486734527623e-01
3.398603296149671493e-01
4.166470264112343003e-01
4.050066550418989775e-01
2.749528400903290537e-01
6.503322487231341653e-02
-1.464150493662755015e-01
-2.926408741018596271e-01
-3.433433169887925018e-01
-3.031768025114562892e-01
-1.983759430958939030e-01
-6.614184759785762813e-02
5.022419084397117262e-02
1.099157435020553658e-01
8.752540409433465229e-02
-1.148639566641243212e-02
-1.384213543230551902e-01
-2.235987366204607585e-01
-2.299852865277684510e-01
-1.640596876431910933e-01
-3.127869468123400942e-02
1.685042183361547818e-01
3.875616884281721242e-01
5.276984840704761481e-01
5.184512397757851110e-01
3.744947188498772284e-01
1.755881572736605611e-01
1.146055774889225692e-02
-5.825332473014298296e-02
-1.571356806718542110e-02
1.132138613611483047e-01
2.565758685337382050e-01
3.283269919139043536e-01
3.028829340222002342e-01
2.415545314367921748e-01
2.095213739099013595e-01
1.920867420383451929e-01
1.301034131348250966e-01
1.575859818684653690e-02
-7.106655417131689523e-02
-2.260396487029293217e-02
1.711287452365556072e-01
3.331695790297554138e-01
1.976098269153955811e-01
-3.013101558118954082e-01
-8.572952720161286511e-01
-1.053662250519754373e+00
-8.075211888956774775e-01
-4.063217876756929359e-01
-1.277387706886514707e-01
8.333342883248308353e-04
8.620095814428670178e-02
1.833658211122390358e-01
2.607774715341378835e-01
2.671159055949288708e-01
1.873024452477638491e-01
4.864468328103691008e-02
-1.050868653782297407e-01
-2.391501238200360591e-01
-3.302505645466968232e-01
-3.507721132481531057e-01
-2.713191692341597738e-01
-1.023650414626051941e-01
8.132597482714219728e-02
1.927340691445463272e-01
1.997451125223876356e-01
1.200425650348649481e-01
-1.901787916740742615e-02
-1.797054475535245499e-01
-2.896340545073441408e-01
-2.635510706853814167e-01
-8.452122511210395650e-02
1.501557397329750521e-01
3.120389699044163745e-01
3.636301489419054289e-01
3.503115670440518081e-01
2.995956618847837594e-01
1.990474529966046180e-01
6.249586179369182037e-02
-4.372272406217897478e-02
-5.435125997502511519e-02
3.520231069071649843e-02
1.611162730441610680e-01
2.396186180941785038e-01
2.486131061956892152e-01
2.514441750813036780e-01
2.951533077085913281e-01
3.226762407520296638e-01
2.536272192804385761e-01
1.174106071094330322e-01
3.824829615439066799e-02
7.629884198537360829e-02
1.122462749707496404e-01
-4.553905952384244143e-02
-3.967904415966984621e-01
-6.742164060838177209e-01
-6.377181004754615135e-01
-3.661538286624020921e-01
-1.268116208889119578e-01
-4.752836301560707521e-02
-5.865925417630530464e-02
-6.443849214689394145e-02
-3.252144834860618700e-02
3.236999645065571224e-02
1.063032797731285201e-01
1.486132886202494174e-01
1.249916484028103791e-01
2.892298839725118004e-02
-1.187452242271406916e-01
-2.757979313409355537e-01
-3.832049805317213065e-01
-3.860259991402591462e-01
-2.723246853541048118e-01
-9.075550459831818739e-02
8.396032827565284851e-02
1.987534069301508943e-01
2.265051408144254375e-01
1.485279468012720983e-01
-2.269838248132750175e-02
-2.004215874600933645e-01
-2.577234648737894429e-01
-1.464807320015867331e-01
4.746998405316657510e-02
2.037781585722667210e-01
2.878646240825195601e-01
3.368418069278509841e-01
3.677731046393166725e-01
3.503017094849477653e-01
2.573546308904335334e-01
1.140865742650092191e-01
-7.110492752241676442e-03
-4.160050789753973188e-02
1.663360238592972995e-02
1.263198991741939226e-01
2.493511425555279548e-01
3.617812158045146664e-01
4.224689212215115841e-01
3.802196543448473354e-01
2.377485302424806601e-01
8.223227095732764391e-02
1.445623400887057278e-02
2.841630758682745644e-02
-2.107500335273710876e-02
-2.670863828813885843e-01
-6.182386994158786120e-01
-7.864134449562356632e-01
-6.074281198014559457e-01
-2.471719617040535610e-01
5.445138600387582073e-03
4.774744203440346030e-02
-2.613327887743314981e-02
-1.035289600473704996e-01
-1.349331827242986337e-01
-1.077368769971738666e-01
-2.459463696304683283e-02
9.049746057414763400e-02
1.857832585933009151e-01
1.972605993956505765e-01
9.047485537743506223e-02
-1.007003057665912249e-01
-2.804815967433299528e-01
-3.510095945335032774e-01
-2.809042466520024206e-01
-1.204664005775074181e-01
5.252737309083645167e-02
1.954447543385395281e-01
2.940724515377296511e-01
3.166038921370994963e-01
2.361983338927959863e-01
1.028204532569012286e-01
2.165287615784025274e-02
3.184755194379436383e-02
6.702676415253915054e-02
7.339762595951664081e-02
9.903602592462437681e-02
2.040174048816186803e-01
3.425443411431949303e-01
4.081685680530878768e-01
3.579131694021173149e-01
2.342280731038474118e-01
9.596374706867547011e-02
-1.706252328996816017e-02
-7.019159561722410068e-02
-4.199355068150995018e-02
5.300589023245894094e-02
1.811397946556564387e-01
3.121623377945418887e-01
3.995601243241824196e-01
3.800502150463409001e-01
2.457174524445701336e-01
8.141078199253246050e-02
-5.049965953653316741e-02
-2.421636979239882304e-01
-6.250826627409605818e-01
-1.080495565444136385e+00
-1.227801299819481828e+00
-8.439567319837265602e-01
-1.782972917274414093e-01
3.058917340726386991e-01
4.007492746002228046e-01
2.340036000537220051e-01
1.316247802781499165e-02
-1.493561558717618476e-01
-2.229896964670712023e-01
-2.058944508848320754e-01
-1.110066194789482152e-01
2.474157806549893285e-02
1.352009811572668641e-01
1.471140589857848902e-01
3.160804422803230318e-02
-1.609433947404028120e-01
-3.317575683747000515e-01
-4.060175183278352806e-01
-3.711904101726993810e-01
-2.547807190526903409e-01
-9.042039693666452382e-02
8.476458792884430937e-02
2.195535121959565905e-01
2.661974561609207757e-01
2.224118703051426726e-01
1.359141306837639007e-01
4.951035000157958527e-02
-3.242390746646844901e-02
-1.068994002278509242e-01
-1.409248056526395954e-01
-1.021898440656119483e-01
3.441648544579471204e-03
1.351849026539131970e-01
2.373530182580490810e-01
2.593293414171672917e-01
1.862738893373833138e-01
6.058577104467018082e-02
-4.138739133489176270e-02
-6.297984881293698656e-02
2.191610277611925721e-03
1.269758960255003011e-01
2.808651661099180186e-01
4.281606952645280462e-01
5.165161381764747928e-01
5.170162281970857032e-01
4.595582583031251334e-01
3.426523636980184362e-01
3.699876594474800495e-02
-5.510208219968208976e-01
-1.188519737889215611e+00
-1.402452198299282360e+00
-9.830619872303003604e-01
-2.383254388578170957e-01
3.526899198409642056e-01
5.684404301925036762e-01
4.741976382246386734e-01
2.321207889855452511e-01
-1.485975328420443414e-02
-1.745113712165162756e-01
-2.124359256625205361e-01
-1.418525877104916122e-01
-7.046869250096527565e-03
1.290464258589855417e-01
2.044897026752320324e-01
1.868756578938207125e-01
8.897621247514059251e-02
-4.264997307006566235e-02
-1.558654457437453067e-01
-2.150350563287975469e-01
-2.010912634200640037e-01
-1.051636572446995738e-01
5.581153570020038618e-02
2.254832764333193906e-01
3.438056154451018531e-01
3.943255046430260147e-01
3.846134529007059211e-01
2.996769766350527164e-01
1.373844274608857774e-01
-2.488377614282693759e-02
-8.293384688304841768e-02
-1.861109284589056861e-02
1.066889223914016943e-01
2.378061791978518524e-01
3.442164848757543472e-01
3.948597808589445202e-01
3.697288454088991649e-01
2.762980303582469044e-01
1.335222582538329594e-01
-3.482141194727912670e-02
-1.809319660592473844e-01
-2.402961171308132526e-01
-1.834443795832979562e-01
-4.845335360622027299e-02
9.902646215511504146e-02
2.265044016072775557e-01
3.125389031953080821e-01
2.565184000089655303e-01
-9.857793100957822074e-02
-7.375016749570258989e-01
-1.311610865237289092e+00
-1.393723516817820807e+00
-9.281663398820259037e-01
-2.727783374113877946e-01
2.057748774385003421e-01
4.115397974924330793e-01
4.210007031179344716e-01
3.053409968298749777e-01
1.071367573374528981e-01
-1.122853029650201229e-01
-2.777316293774480527e-01
-3.418916443193499299e-01
-3.026288530994034054e-01
-1.916143935010294064e-01
-5.862291274018419096e-02
4.402445816057527772e-02
7.666912006021972537e-02
2.405565012340702552e-02
-9.373851572135159793e-02
-2.220333762603614036e-01
-2.977529028374257813e-01
-2.845343830936768459e-01
-1.918543893852210636e-01
-6.813627687760503981e-02
4.303703461207214476e-02
1.580859170990461249e-01
3.252201995121902778e-01
5.057433585414562449e-01
5.560790231639832770e-01
3.995376521179160867e-01
1.469923574347753170e-01
-2.043088330974599312e-02
-2.509656390835695791e-02
9.170844356746092607e-02
2.561186446621444568e-01
4.107266871480034776e-01
5.100858554415890200e-01
5.163518111343742278e-01
4.189877678289994911e-01
2.543920798633263480e-01
9.219164587953287970e-02
-7.454625003144430342e-03
-2.414740361703629490e-02
3.335063321394187569e-02
1.557335028863863491e-01
3.302682990970478016e-01
4.928380639056164081e-01
4.933555608188127106e-01
1.762123756720024303e-01
-4.189576277072264987e-01
-9.697555914058725302e-01
-1.122608207607173503e+00
-8.380331438183308279e-01
-3.758407821918440250e-01
1.178868098896115185e-02
2.474697478079120605e-01
3.551423337343839748e-01
3.566004794777808407e-01
2.540909652344793823e-01
6.425326877944370629e-02
-1.548381510813791606e-01
-3.116029194564830518e-01
-3.319911283662725365e-01
-2.302638104029803567e-01
-1.068237028285803775e-01
-3.743795961882606660e-02
-4.258800628490201808e-03
3.249076972755895326e-02
5.647022061424079864e-02
2.274470097768993213e-02
-7.579264502458760155e-02
-1.954726731412499696e-01
-2.857626169952687256e-01
-3.171785789799832500e-01
-2.558582666380948556e-01
-6.310235309616737953e-02
2.272235625492686484e-01
4.694152791258835999e-01
5.167729425438071234e-01
3.654884899551242294e-01
1.449242403476085073e-01
-1.574115109973572499e-02
-7.319804207409763563e-02
-4.893019584544002626e-02
2.425480851382010028e-02
1.259388781258392043e-01
2.429703181842666204e-01
3.493839160650611397e-01
3.925608951076492437e-01
3.254742817637885643e-01
1.669026491324290262e-01
-7.414774429825750357e-04
-1.051971615077751249e-01
-1.254063620080130004e-01
-6.001065456990237884e-02
9.550950478768757690e-02
2.976059658157250154e-01
3.904161544523110372e-01
1.813187222487388506e-01
-3.234424145310007548e-01
-8.128670030096051269e-01
-9.459074047483098102e-01
-7.053453516518959354e-01
-3.475790206684802319e-01
-7.255755976836211762e-02
1.050875779361127860e-01
2.273335181523060411e-01
2.913665226555294252e-01
2.762954586127679413e-01
1.872488373377366455e-01
4.784263809122772659e-02
-1.195727374621967792e-01
-2.828330085558059537e-01
-3.873027924326593596e-01
-3.853449612563264459e-01
-2.801543620812438906e-01
-1.243097919076409652e-01
2.435907069992066659e-02
1.303045199917736985e-01
1.682716696897652298e-01
1.196971998373973223e-01
1.366420881329589304e-03
-1.292142502207630494e-01
-2.153986933134929838e-01
-2.229211734317849136e-01
-1.243893905166800901e-01
7.760079123757986086e-02
3.064121239127823859e-01
4.520473315676267756e-01
4.592080908844592413e-01
3.472710291080371992e-01
1.793997480304494463e-01
3.077070041744865356e-02
-5.079718435368253682e-02
-5.866983651773677311e-02
-6.526239175737146708e-04
1.068121229598461147e-01
2.226016552627191336e-01
3.032064664082168570e-01
3.358294013472036821e-01
3.187381577369501895e-01
2.329691831773056387e-01
7.636946163211698335e-02
-8.742284509522570135e-02
-1.519875410696856499e-01
-5.470297307109214108e-02
1.376858851953981500e-01
2.143787359017059191e-01
-3.600351369792807038e-02
-5.656995931933693766e-01
-1.003184994480136538e+00
-9.989450960472088248e-01
-6.113837398566317471e-01
-2.026814538819873834e-01
-8.789547895792441945e-03
2.471845641730316401e-02
4.668570755992090815e-02
1.139443626373320001e-01
1.909621820467859166e-01
2.237004336062378695e-01
1.818213501793011500e-01
6.236561195380402323e-02
-1.143829067173362524e-01
-3.008905469624452156e-01
-4.284714009136134094e-01
-4.386762093105556759e-01
-3.171003776376992156e-01
-1.052392984726775449e-01
1.101877431779378080e-01
2.383479034304528121e-01
2.418317328497417706e-01
1.454169536739323698e-01
-1.033828539014016931e-02
-1.851123000865329826e-01
-3.088539625923976129e-01
-2.963547780152030464e-01
-1.270475589324906729e-01
1.154249542306897969e-01
3.100376864798126131e-01
3.934931153985690155e-01
3.797811718023557659e-01
3.121124933127147338e-01
2.210374963756905065e-01
1.214743888613852851e-01
2.959277876501445470e-02
-2.902848030949415833e-02
-2.652556056335879028e-02
5.374514955994121046e-02
1.999063903519823493e-01
3.621801942637432603e-01
4.716530244599810850e-01
4.754237012326847367e-01
3.595163237781432430e-01
1.670708828785300026e-01
8.817419311086699754e-03
-4.207287205486980389e-03
9.139321952960455242e-02
6.489183095365702592e-02
-2.861170344124980836e-01
-8.162418422384134509e-01
-1.074507591380273741e+00
-8.049466485978404862e-01
-2.700681422271975496e-01
8.379482995537092249e-02
1.208966509500682684e-01
2.068886418328942309e-02
-3.586920219157700013e-02
-1.088999342482871273e-02
6.272391936727302053e-02
1.501077500276419840e-01
2.102068137722553354e-01
1.933752918196518511e-01
7.741198911596963717e-02
-9.850325328466119634e-02
-2.548498101671737293e-01
-3.383904132583391289e-01
-3.525642828564166109e-01
-3.121744638090648838e-01
-1.996352527636644503e-01
3.187695569938364670e-04
2.319862213010426555e-01
3.711824750062647782e-01
3.217323055769130691e-01
1.093497787285246936e-01
-1.254780205045724628e-01
-2.307536266647316758e-01
-1.587121311411112123e-01
1.056690499809824144e-02
1.684024822330104088e-01
2.789880084620367517e-01
3.630891107067246160e-01
4.214899559791716044e-01
4.176738907222956043e-01
3.252124264436369039e-01
1.669413246677362017e-01
7.528118316246515396e-03
-8.369246855523224116e-02
-7.076763631728932857e-02
3.185552954334285730e-02
1.761061350331594166e-01
3.119319953051091221e-01
3.991679823111989323e-01
4.039670028000409419e-01
3.137653774213882141e-01
1.691802016860340097e-01
5.228917670969104176e-02
-9.340498064467161674e-03
-1.195216720262089888e-01
-3.972152773625117206e-01
-7.452448583635555845e-01
-8.675936109112102335e-01
-6.153266146987446117e-01
-1.886131164836571672e-01
1.064285089507609194e-01
1.669910396198801272e-01
8.168714794782476474e-02
-3.501393377056905010e-02
-1.042428383994115776e-01
-8.255338380859593428e-02
1.866105994095519638e-02
1.371907154235703918e-01
2.067812801660505184e-01
1.975350036703077683e-01
1.193247307956993020e-01
2.968162988317708806e-03
-1.140031636457859709e-01
-1.909591475934379057e-01
-1.966971242597243541e-01
-1.309137156704889560e-01
-2.277382555440145284e-02
9.240785226736449032e-02
1.829113652159959635e-01
2.183727533794403708e-01
1.847393267637117420e-01
1.077615592788139509e-01
4.080472766544537139e-02
1.272936506084256653e-02
9.313314859070633694e-03
2.455880729299492540e-02
8.860092584801591842e-02
2.121984056515852923e-01
3.458873946800002375e-01
4.246568729443265799e-01
4.206924948964373412e-01
3.408425698687783667e-01
2.096572519356569020e-01
7.213638637748465143e-02
-1.222600411909011663e-02
-5.358834558419458063e-03
7.942472616318871359e-02
1.952796878205677045e-01
3.041025099121892339e-01
3.877131536669010670e-01
4.275199357338558825e-01
4.030908267847660986e-01
3.114126450253320022e-01
1.416011933747067242e-01
-1.689105936990733803e-01
-6.466278535918271730e-01
-1.103279677209376031e+00
-1.196543221372798005e+00
-7.969144495902337200e-01
-1.783987769026540993e-01
2.656347807867157629e-01
3.810068554518008521e-01
2.625244364565414990e-01
5.761199236011243369e-02
-1.329006622789263292e-01
-2.390773632872361665e-01
-2.216855100275007540e-01
-1.079571749573788597e-01
1.616502711281513766e-02
7.466372492189873866e-02
5.310298421875049579e-02
-2.001037046122806223e-02
-1.221426064679261014e-01
-2.459199570299017423e-01
-3.660990576143477448e-01
-4.294348772456543784e-01
-3.921720994725036435e-01
-2.538881314560291758e-01
-5.928815317058239859e-02
1.157114033142886828e-01
2.006698279037042731e-01
1.832432538820095991e-01
1.142874300160464096e-01
4.509627836300336701e-02
-1.865139592589413337e-02
-8.102424736691701823e-02
-1.088138430221413655e-01
-6.217099793371787253e-02
4.964853126600848182e-02
1.773925466079863122e-01
2.731322212452929055e-01
2.995487255862807618e-01
2.345571157322109690e-01
9.857913915253474491e-02
-4.498393657239716653e-02
-1.352266896831613996e-01
-1.461747266045557991e-01
-7.899512828598725944e-02
4.598403856317427596e-02
1.837026897264107117e-01
2.844694461406050423e-01
3.385615057940869477e-01
3.637123585128156367e-01
3.048300788918449911e-01
-4.966725584136012089e-03
-6.475502116989388934e-01
-1.345248336415885149e+00
-1.570873323093317175e+00
-1.092627592179418627e+00
-2.662486070025816831e-01
3.566319352208802695e-01
5.496770405926909575e-01
4.445390893257107345e-01
2.460335675589225279e-01
6.292243151972820581e-02
-7.387384394649829100e-02
-1.536449776011503121e-01
-1.666776386903635332e-01
-1.106813528498233057e-01
2.548986871614171076e-04
1.290192523045288198e-01
2.131455920472450360e-01
1.869007570077937108e-01
3.857189276681358830e-02
-1.520839063676819314e-01
-2.675387140605562930e-01
-2.552200593823552577e-01
-1.543474894719271406e-01
-2.898030710005890243e-02
8.518871394808746889e-02
1.766630462989061956e-01
2.497274700579777962e-01
3.134171595936196542e-01
3.434645049920661553e-01
2.863653352762759452e-01
1.388308901159993614e-01
-1.567284641503690831e-02
-7.817010698224174936e-02
-1.030898138380334332e-02
1.597366464548278797e-01
3.585630507579576354e-01
4.923754704733965815e-01
5.017520250208185040e-01
4.046150819967027079e-01
2.582046578742800969e-01
9.795708044877168841e-02
-4.641948996756579959e-02
-1.123466301613538360e-01
-4.896910883437809170e-02
1.153742467064947236e-01
2.979970639070879668e-01
4.399879378337040459e-01
5.190867937635229579e-01
4.752545371308441458e-01
1.760741250775290645e-01
-4.311059741685028812e-01
-1.105141569222705344e+00
-1.405918938153320141e+00
-1.121374256033755845e+00
-4.894529832927470570e-01
8.867429248532078534e-02
4.133887772795300508e-01
5.007008767193473764e-01
4.168077978348747603e-01
2.226782190120673299e-01
-3.698098461698079431e-03
-1.858397052858894172e-01
-2.893724095897026172e-01
-3.211540045281008338e-01
-2.904682571697073112e-01
-1.945455509837338559e-01
-5.259768520307181450e-02
7.390005045733169520e-02
1.189341004609127811e-01
6.189068002061327844e-02
-6.157903934713838956e-02
-1.838667784723350407e-01
-2.428701877965520062e-01
-2.162319895879291909e-01
-1.288478675563377029e-01
-1.708334692038889976e-02
1.130331550356519776e-01
2.652324000885734612e-01
3.910005872511442826e-01
4.008351694597190873e-01
2.619724328591634954e-01
4.660863339243132702e-02
-1.288322777429113664e-01
-1.819540875616518782e-01
-9.596640949547655119e-02
8.076832176186279910e-02
2.626615482724759532e-01
3.772581305399225760e-01
3.988260674529500172e-01
3.437059786805863881e-01
2.465163394684004583e-01
1.392924942791471943e-01
4.508548249214369003e-02
-1.431536213085305223e-02
-1.518871258096477633e-02
5.845481017354322434e-02
2.068089203887763239e-01
3.947503829305574197e-01
5.012654288223155064e-01
3.289829506015552463e-01
-2.048753211467991553e-01
-8.559694164994563481e-01
-1.188893135442675275e+00
-1.012853884477532329e+00
-5.486862816020851019e-01
-1.177313925369603553e-01
1.591291150388624565e-01
3.125928410988109141e-01
3.646834130500822835e-01
3.058488322734488896e-01
1.485396447447182855e-01
-5.576223021733935775e-02
-2.426380274589492736e-01
-3.617794699531151070e-01
-3.813123902970836365e-01
-2.903174062216972717e-01
-1.186245401827081408e-01
5.802347559350820583e-02
1.594779819199705073e-01
1.558417680944401418e-01
7.662893229730763367e-02
-2.752967449970890323e-02
-1.231843769253861132e-01
-2.001511282751180509e-01
-2.477131392537328392e-01
-2.278654044982570404e-01
-8.870089845405876305e-02
1.673032666648739120e-01
4.296293230255832651e-01
5.395775116657098858e-01
4.324151743860618069e-01
1.984936160617830070e-01
-6.782895624192156886e-03
-8.871600374222869678e-02
-5.086628183829364908e-02
5.276549306560376906e-02
1.753878434501180694e-01
2.946596090940807877e-01
3.941050857057518120e-01
4.416908225947361877e-01
4.031645579978532234e-01
2.924729665689770330e-01
1.812704460701985432e-01
1.167784944072006725e-01
7.028714782364686720e-02
2.641806867356496363e-02
5.913470800914441550e-02
2.192040820188167760e-01
3.714705464298297399e-01
2.493122631676895629e-01
-2.513454856836280227e-01
-8.585744567463290400e-01
-1.133757522768906290e+00
-9.236704104834869700e-01
-4.744186220692899192e-01
-9.695989577499512790e-02
1.126398241850768284e-01
2.190287993122250476e-01
2.861737824158114285e-01
3.211887866145165527e-01
2.979681034406220785e-01
1.965183948773517320e-01
3.446492011446770920e-02
-1.334797378449677496e-01
-2.515228358929854080e-01
-2.944967915911452239e-01
-2.625693269254565365e-01
-1.645959048241641687e-01
-2.609280889382856877e-02
1.004149051237261669e-01
1.597274053553534301e-01
1.344617615131571131e-01
5.218786647973229498e-02
-4.972869388866781731e-02
-1.497820067234718611e-01
-2.181460560336003218e-01
-1.925897678777314104e-01
-3.207798603773540785e-02
1.982473307985240796e-01
3.559816658081645935e-01
3.660440058870295665e-01
2.857768311624093727e-01
2.017688870799574652e-01
1.256787860938787804e-01
3.292306801301158464e-02
-5.392851909749175193e-02
-7.755454240636910912e-02
-1.191819787089563529e-02
1.173952082420041260e-01
2.538902192986974837e-01
3.369950747432832738e-01
3.318585903773981216e-01
2.438877908651677640e-01
1.024875362679385365e-01
-5.137530565925026160e-02
-1.491708024207743788e-01
-1.035744606440818505e-01
9.971364541695569572e-02
2.955318517143938895e-01
2.032686781890031547e-01
-2.840829822105180869e-01
-8.814934359014554577e-01
-1.127827916809276632e+00
-8.690130860802369739e-01
-3.942192249312587160e-01
-6.258684784300053150e-02
3.929832323398523702e-02
3.865389618066544103e-02
5.472266382557321868e-02
1.099342329218474384e-01
1.649845300772359302e-01
1.710149011934106733e-01
1.013162823745981239e-01
-3.623610701230509101e-02
-2.000854517139180888e-01
-3.302437895186194350e-01
-3.791702356163468290e-01
-3.358258824354029004e-01
-2.210008591652144749e-01
-7.152353173873955694e-02
6.597770383690138019e-02
1.484392704422736742e-01
1.608684155645928315e-01
1.121342419657385125e-01
7.662644930208718785e-03
-1.298508274458655409e-01
-2.140751892189689809e-01
-1.449179702445755058e-01
6.998250655857897462e-02
3.035547187026025884e-01
4.367720268599420974e-01
4.504878819550157121e-01
3.881863883626712197e-01
2.806517165464383901e-01
1.359446051290938706e-01
-1.916651666642251936e-02
-1.294108736727079267e-01
-1.494223508881883933e-01
-7.018020043580459888e-02
8.379803399278194787e-02
2.591733463656647474e-01
3.831577117576193681e-01
3.922491807581497403e-01
2.740276696714118998e-01
9.087594148880419331e-02
-5.073649417659521765e-02
-6.957177698991288961e-02
3.022940540386277741e-02
1.268521543564503362e-01
2.944499201963256957e-02
-3.283610776739256387e-01
-7.230959292550188655e-01
-8.177511540895460174e-01
-5.473564670235478991e-01
-1.772141315413102436e-01
3.351361111908902901e-02
5.815253036079037763e-02
5.448540561454492254e-03
-3.150471437547114339e-02
-9.058135605450365335e-03
7.151559908460762560e-02
1.620514919328800152e-01
1.975936253377135465e-01
1.441450159402299369e-01
1.233453832760665961e-02
-1.602455185133865034e-01
-3.220210850572725048e-01
-4.156519121359974478e-01
-4.022293063287937787e-01
-2.862356865541924589e-01
-1.096548748431816489e-01
7.416369363074869214e-02
2.112871146827468571e-01
2.451292425184615764e-01
1.433257952421815862e-01
-4.525402816177479665e-02
-1.889185333742521289e-01
-1.804572049333051653e-01
-4.005920337114493579e-02
1.259594329565826565e-01
2.474828989784545186e-01
3.299463714307649398e-01
3.950186460659866894e-01
4.291800174970123449e-01
3.954827337631808826e-01
2.797503939913132953e-01
1.208406000177580375e-01
-4.353810972595760498e-03
-2.870602579059575860e-02
6.543276495831888695e-02
2.375737047624605358e-01
4.084323414766223292e-01
5.017760031541006471e-01
4.855407193043962399e-01
3.766813943064527548e-01
2.203663397557851511e-01
7.790297855959327222e-02
-2.363232272243759053e-03
-5.497655530968335175e-02
-1.999220972331829937e-01
-4.792747483759317029e-01
-7.173330714602250691e-01
-6.784070283160306136e-01
-3.614700884064444564e-01
-7.145120684179759318e-03
1.730900314397064987e-01
1.553831024233441882e-01
3.139583198032704775e-02
-9.488275172683213743e-02
-1.445108200704447454e-01
-8.911860357532766508e-02
3.217497333107809110e-02
1.429268403425788536e-01
1.822761552252788186e-01
1.296636488921425745e-01
2.668816147318470861e-04
-1.628012123071568562e-01
-3.006802054741794517e-01
-3.659664283091966785e-01
-3.444527321213486371e-01
-2.494159859952540248e-01
-1.051828398901210743e-01
5.238025589866964621e-02
1.644073123886415910e-01
1.704667877077203908e-01
7.874454078668549628e-02
-7.779922601375721669e-03
-4.344870266527189884e-04
5.851232683066550505e-02
7.293997945148075757e-02
5.567323188983212129e-02
1.037831453914327545e-01
2.361316029254106885e-01
3.606643949668869586e-01
3.899182850097261399e-01
3.160769127304273729e-01
1.847989432694501777e-01
4.848358724295553923e-02
-5.222541043911511222e-02
-9.032697500535816215e-02
-5.183702519503053524e-02
6.052091963890876558e-02
2.141098851518084822e-01
3.411685492701645450e-01
3.745615372363931828e-01
3.095682768576694111e-01
2.101199303179167310e-01
1.159517975846092036e-01
-4.971789260040547498e-02
-4.099488956262943296e-01
-9.088482217708622191e-01
-1.217433789271624267e+00
-1.021205290512604558e+00
-4.106735246436664100e-01
1.779518873467245688e-01
4.161616111573935295e-01
3.252975285240573555e-01
1.100038998927956591e-01
-7.287405833041796233e-02
-1.735570314371393807e-01
-1.970463599349082107e-01
-1.570145480456413001e-01
-7.525003848814493246e-02
9.267426824263028107e-03
5.240369330112663177e-02
2.422590147714497044e-02
-7.487512971154956787e-02
-2.058694304117900109e-01
-3.083080777434172859e-01
-3.398224916705152587e-01
-2.972066977456546133e-01
-1.947404763261532668e-01
-4.419264486386377533e-02
1.210068289079977294e-01
2.342672108421939015e-01
2.535563468946097632e-01
2.080005411192943354e-01
1.466261128331725616e-01
7.485734061804893980e-02
-6.467570854271192590e-03
-3.838043256585894902e-02
4.341681579387172973e-02
2.090016232905271276e-01
3.575763462128609405e-01
4.277786041979187437e-01
4.270356677464713924e-01
3.765363192285545169e-01
2.870713508508254685e-01
1.760925009941282648e-01
6.991659083814262543e-02
-1.667764496634983103e-03
-3.422715631165113015e-03
8.332055073461404338e-02
2.236760208252743798e-01
3.443843126479963490e-01
4.045974742385046174e-01
4.162357998247024904e-01
3.567976142806277284e-01
1.091864134751070747e-01
-4.088055022709829456e-01
-1.027111334622035299e+00
-1.347546152431088329e+00
-1.110929691089094895e+00
-4.895670217245261524e-01
1.014268342261832462e-01
4.049904662482812778e-01
4.253263261309763177e-01
2.666434902976930199e-01
3.260051959793460602e-02
-1.769992965735754376e-01
-2.927449965852295111e-01
-3.054520433326730622e-01
-2.423465030559263933e-01
-1.324378025210266874e-01
-8.824162055194446214e-03
7.964644884530709679e-02
8.458768108871926594e-02
-4.327205542516867134e-03
-1.354064554832333234e-01
-2.251815984151424310e-01
-2.340681931835614515e-01
-1.919154842840924968e-01
-1.304766829952367091e-01
-4.419502252268649178e-02
6.106701564240473584e-02
1.585938556227657614e-01
2.487210225091864846e-01
3.283151507491078869e-01
3.310144666406997227e-01
1.995355400120111811e-01
-2.021760548070357377e-04
-1.206840000518425299e-01
-7.787677638983961370e-02
8.635124811170376280e-02
2.660924340218321915e-01
3.819950326757144410e-01
4.105793494804177435e-01
3.583251438346774509e-01
2.461738352356022119e-01
1.135057115025530639e-01
5.997917905935177749e-03
-4.432423652812580994e-02
-2.546247784149019075e-02
5.480229188448721561e-02
1.758212877064153912e-01
3.167121002539136643e-01
4.485324781737218269e-01
4.926913467104744870e-01
3.054768119668577198e-01
-1.999153685469214070e-01
-8.497769310125713460e-01
-1.240244741984331656e+00
-1.107382491207242969e+00
-5.951465764655274882e-01
-5.836279190097161396e-02
2.875480101966705337e-01
4.296204587070515668e-01
4.140193463892778425e-01
2.776906390457884455e-01
7.121495550322841372e-02
-1.344654917341527034e-01
-2.700955868693720174e-01
-2.976631580757205797e-01
-2.327625258535072350e-01
-1.269937793902108369e-01
-2.278954269957972345e-02
5.886596311382014113e-02
9.615486750833866780e-02
6.525452770990537721e-02
-2.894308067844396370e-02
-1.404467994534251141e-01
-2.166312683848769238e-01
-2.372907003003907056e-01
-2.080822198118496280e-01
-1.263673406928091103e-01
2.341888659868937572e-02
2.262556401424200003e-01
3.979285214221938149e-01
4.308704975866276543e-01
3.025629781890228354e-01
1.056646972666673290e-01
-4.346895651757362589e-02
-8.719514328075730902e-02
-2.532298224681510390e-02
1.075261933567037559e-01
2.553184227573463971e-01
3.704813567136200914e-01
4.342884953235102152e-01
4.332053169110449686e-01
3.423215648451433113e-01
1.658873825626970555e-01
-2.735273529992249264e-02
-1.457671545197667118e-01
-1.433250800788220536e-01
-2.650085591148606742e-02
1.837162233372737208e-01
4.411955297856975378e-01
6.114469801347296452e-01
4.918232307744550003e-01
-7.223340630992322597e-03
-6.812466691438636701e-01
-1.121185097144630216e+00
-1.073773031752790486e+00
-6.651315828506986216e-01
-2.020437814784397379e-01
1.405707843751541619e-01
3.483092014809550108e-01
4.249995472335384439e-01
3.637300029051163675e-01
2.023734974833035771e-01
1.003301932563815252e-02
-1.666998868963432412e-01
-3.009180609191088318e-01
-3.566241255291677237e-01
-3.091072591043557694e-01
-1.832544371816119955e-01
-3.764589407296417556e-02
7.895311681093600265e-02
1.334098002845332809e-01
1.017586658742668654e-01
-5.692634298699823792e-03
-1.342003722706690272e-01
-2.275462020051295942e-01
-2.634362766082172791e-01
-2.337793372373367373e-01
-1.193902466495368603e-01
8.255328493965151393e-02
3.099772597772930127e-01
4.530452422991013139e-01
4.417193297858672540e-01
3.003979651274580331e-01
1.143919786330808153e-01
-3.117589071536954609e-02
-8.102264749606429006e-02
-1.945806153917117171e-02
1.213815904217091513e-01
2.752934780912052459e-01
3.843107125163222615e-01
4.261921420524554249e-01
3.994462170931991629e-01
3.051046640660960430e-01
1.607226781129821869e-01
1.180683348996447446e-02
-8.729058981124294958e-02
-8.909013087473907633e-02
3.943390969493002635e-02
2.718592803495502030e-01
4.599978956859561152e-01
3.681399568938710787e-01
-1.249855540525687814e-01
-8.043305422748768807e-01
-1.206264156314164504e+00
-1.063140295691846093e+00
-5.813170201552620986e-01
-1.569966963717149833e-01
5.181752770793385254e-02
1.410788062466922510e-01
2.076092924473073309e-01
2.442419119558192631e-01
2.170393787014213427e-01
1.266478784616524023e-01
-9.760344960239558665e-03
-1.784173858481525043e-01
-3.463709001131521359e-01
-4.449798165685387441e-01
-4.108520420211554947e-01
-2.535361394189933892e-01
-6.342242598362798911e-02
6.506538396805779112e-02
1.021065291874111713e-01
6.787026610187694986e-02
-1.070864443049263440e-02
-1.091536302858388818e-01
-2.028114985225649980e-01
-2.635700936823645035e-01
-2.445371855610159184e-01
-9.965189103972268980e-02
1.443832337143294009e-01
3.687256156642037541e-01
4.602733704380401192e-01
4.116471209005665433e-01
2.970610621113505823e-01
1.788914606700096055e-01
7.431773742454199361e-02
-9.043351936120424053e-03
-4.726616200622874020e-02
-1.280008343278079587e-02
9.855956408296866200e-02
2.485834832895483792e-01
3.667861408607981377e-01
3.938893490616581783e-01
3.178117687142789083e-01
1.680040038844092531e-01
-5.080823757186552977e-03
-1.281590032646580390e-01
-1.168931222428236105e-01
3.598632101421575524e-02
1.667620427717770304e-01
2.639661736650191978e-02
-4.462777377211792351e-01
-9.657513029832940354e-01
-1.127481821678668172e+00
-8.311049027068772022e-01
-3.759616488061739425e-01
-9.342291782903577868e-02
-1.815451546963132989e-02
2.098652961573281225e-02
1.287920716251272912e-01
2.548810075666590458e-01
3.078320593872580502e-01
2.657588850321843665e-01
1.614417000001938107e-01
2.359707543906898464e-02
-1.238836155463330646e-01
-2.424751812710637389e-01
-2.953526207277369364e-01
-2.695923435240180077e-01
-1.742610293214607864e-01
-3.465381259086684068e-02
1.042003421405546942e-01
1.882678374232615581e-01
1.885898570269733399e-01
1.151019550247800727e-01
-9.339619539475804699e-03
-1.517192623615465641e-01
-2.331882410480427825e-01
-1.620084553716021891e-01
4.998194707992434371e-02
2.667636133241627627e-01
3.711163483392259654e-01
3.714864058976927730e-01
3.360614991489822567e-01
2.857913642991309344e-01
1.979058112468946307e-01
7.630349294339047739e-02
-2.916920201771812382e-02
-6.558062398301817142e-02
-1.499590538838400239e-02
1.002218795431334408e-01
2.321281085676681899e-01
3.326525673556877671e-01
3.728669068795179009e-01
3.398498632943111608e-01
2.338177229205419261e-01
9.145685045920766421e-02
-2.122587144585112544e-03
2.303532095212192793e-02
1.084886880192241637e-01
6.056472425475353805e-02
-2.415409122872978209e-01
-6.283787396906276301e-01
-7.684215050525209367e-01
-5.495330497915140722e-01
-1.910284717706618729e-01
4.228972925800539989e-02
8.334381593912544572e-02
2.083811440447752572e-02
-3.391073760259180614e-02
-1.739908325591498287e-02
6.267232994795528256e-02
1.490264330277783766e-01
1.900211688680584210e-01
1.652190475776365297e-01
7.006153643797478903e-02
-8.625891561942618246e-02
-2.609941715683339325e-01
-3.827871323928552227e-01
-3.938771340762700079e-01
-2.899517460729651441e-01
-1.182533511878090526e-01
6.209662116723047715e-02
2.061384338391737403e-01
2.687990805000625150e-01
2.072459795971458296e-01
3.978965907098003241e-02
-1.217097690629341949e-01
-1.556532082919685200e-01
-5.255806111696031957e-02
9.089655480959109302e-02
2.009287838668300796e-01
2.907365912833753119e-01
3.847815039774157286e-01
4.474317123113360495e-01
4.216480580211989793e-01
3.000777536422222780e-01
1.368324160718704940e-01
1.375541261205931974e-02
-4.820194655008006902e-03
8.155162978587338074e-02
2.058942004521084057e-01
3.010590352560937322e-01
3.544929850302001584e-01
3.726786720451379931e-01
3.337969443145515358e-01
2.284038315722294321e-01
1.161472065518512897e-01
6.511528527248844345e-02
2.525115478719248963e-02
-1.550237093960638024e-01
-5.106247396421175200e-01
-8.111284311180413376e-01
-7.716186213431075469e-01
-4.094993708539915178e-01
-3.095082603008555977e-02
1.336127462192781556e-01
1.104447180059224404e-01
2.230477459531747531e-02
-6.857398523138642787e-02
-1.371470734032520788e-01
-1.459617456481752396e-01
-7.569537491836747511e-02
3.789067833087950837e-02
1.280741467354228613e-01
1.466365207692288397e-01
8.411613608669002429e-02
-3.794655439844597106e-02
-1.772019496396166072e-01
-2.837013748911997868e-01
-3.194443213969089257e-01
-2.671213151726942181e-01
-1.326441300133424095e-01
4.174734988823773640e-02
1.794085960675230462e-01
2.121393039659597579e-01
1.349594990501165603e-01
1.942872154029078036e-02
-4.639752898947467619e-02
-4.276672610555803944e-02
-1.609547169720088738e-02
7.775104504009218605e-03
5.746470939020333069e-02
1.555153830912623381e-01
2.660812442798087818e-01
3.167215640440459445e-01
2.637697312349649992e-01
1.344185117497633253e-01
-7.498560228579899400e-04
-9.012138387152114627e-02
-1.200656055161053865e-01
-8.674372380535484706e-02
1.440136475130825502e-02
1.609531869578035845e-01
2.920752133950869078e-01
3.513015965319388756e-01
3.375718378155336818e-01
2.947930926394793372e-01
2.351507061344041138e-01
7.494735940574007160e-02
-2.998724272635797661e-01
-8.332185730390975209e-01
-1.207204532194727342e+00
-1.098363948643658494e+00
-5.440409156139061064e-01
7.935386956994101848e-02
4.388884230719683477e-01
4.741122434256117013e-01
2.970516008362881211e-01
4.147693060675506499e-02
-1.785456217025130632e-01
-2.784265737008652097e-01
-2.312863528309807848e-01
-8.584181368964445558e-02
6.008923349849355777e-02
1.271490700355247527e-01
9.846981231821268221e-02
1.894761494170560390e-03
-1.198031683343948745e-01
-2.216535596002675301e-01
-2.752071904123647439e-01
-2.758635444604960463e-01
-2.182502040168053381e-01
-9.013566969846767418e-02
8.622207743492021903e-02
2.353711508747044490e-01
2.891625041169385568e-01
2.561625703243549657e-01
1.949129540476643441e-01
1.298411273232937257e-01
4.757649603948888029e-02
-2.982386999002799299e-02
-3.630250427025633053e-02
5.938833726229795357e-02
2.097646224651794067e-01
3.343303720074382590e-01
3.840500795038912507e-01
3.560467887604495396e-01
2.700873433105483445e-01
1.496913383662046848e-01
2.293197841684275345e-02
-6.882525380767623435e-02
-7.929418572731929127e-02
6.810805777334852373e-03
1.496519836578993901e-01
2.865012522569452824e-01
3.894601125123285934e-01
4.663763738969289863e-01
4.839929577389729953e-01
3.116878058200091561e-01
-1.831601255324835642e-01
-9.104319973711573200e-01
-1.470367168975761141e+00
-1.446121385418620342e+00
-8.332934479214539891e-01
-5.960933629779686937e-02
4.429041138798404109e-01
5.605772220137590356e-01
4.217122423927879282e-01
1.822748031632170918e-01
-5.893846845862519418e-02
-2.400768037926716281e-01
-3.200903579664670651e-01
-2.892326397158843099e-01
-1.752379090525161831e-01
-3.078467959375452354e-02
8.786183746282562324e-02
1.384906771673423131e-01
1.003900852584682368e-01
-2.032070818692637351e-02
-1.814111359905752063e-01
-3.125680787058038868e-01
-3.508188887466510697e-01
-2.766900611241798758e-01
-1.282540254721810935e-01
1.987155978549198440e-02
1.152490372053115997e-01
1.691251687541045767e-01
2.136447565595119558e-01
2.281093800481868994e-01
1.592203275706513266e-01
1.596730044676097568e-02
-1.105218915928644768e-01
-1.301310432353147972e-01
-2.335025592435305275e-02
1.558534782140161834e-01
3.153519030995192152e-01
3.838748450289088954e-01
3.538705739655007010e-01
2.611404073036766027e-01
1.418694243455110304e-01
2.369387608742863638e-02
-6.407945598013127519e-02
-8.774207811083580000e-02
-2.070705368767391391e-02
1.293821158988933129e-01
3.105609868446091437e-01
4.599807446632031005e-01
5.205168819655862089e-01
3.999813501544890459e-01
-1.309249868332619526e-03
-6.086581403473877439e-01
-1.083197577019582303e+00
-1.090082751682800222e+00
-6.507156986894832018e-01
-9.367494501017172015e-02
2.943700481098789346e-01
4.438400891425192674e-01
4.188368451067038811e-01
3.018474486655480793e-01
1.422266654841085054e-01
-3.951436295182381153e-02
-2.094620096731967251e-01
-3.086412149963002616e-01
-2.991080267856768837e-01
-1.979982999670078236e-01
-5.733178484784651197e-02
6.931924629007762961e-02
1.381496501844770020e-01
1.210081685819524855e-01
2.223145745447014515e-02
-1.116491731313410812e-01
-2.112853790758478234e-01
-2.279659346686634114e-01
-1.676285966730257926e-01
-7.381534791262214790e-02
3.334797674546326890e-02
1.767453357068801689e-01
3.483075884945306955e-01
4.543050065336367016e-01
4.067662648103657630e-01
2.458896380134104609e-01
9.930426006066428446e-02
4.326685520554509473e-02
6.440700250916765734e-02
1.265630458370859135e-01
2.116003215190725428e-01
3.041799869185580762e-01
3.764316776760455174e-01
3.933809810885173786e-01
3.323614671400867415e-01
2.060682826606170803e-01
6.410219154991528279e-02
-3.361535352540300642e-02
-4.660167878625941923e-02
3.027752680623849516e-02
1.689606854417483317e-01
3.236370076974782739e-01
4.265062697085846288e-01
3.616794729760149929e-01
1.888077622420367835e-02
-5.329272063654567626e-01
-9.848518710798601639e-01
-1.044159110257514733e+00
-7.267441121486433175e-01
-2.854755196437586684e-01
7.865852814512522273e-02
3.144742361377636519e-01
4.245439163305558261e-01
4.147904988048968788e-01
3.105777027115109723e-01
1.494366110852038687e-01
-2.927034503468950444e-02
-1.777305433275940261e-01
-2.511739788509300131e-01
-2.295210512484696375e-01
-1.263558235964610810e-01
9.273465152739229084e-03
1.131494341268063225e-01
1.492603694677923087e-01
1.230880543098222396e-01
5.125952734974075636e-02
-5.457967176620226457e-02
-1.703201924522714517e-01
-2.532613276698308935e-01
-2.598843233243890993e-01
-1.582258577270997113e-01
5.385427970035373824e-02
3.070197102382954402e-01
4.662151736963875415e-01
4.373770162882589796e-01
2.618167908563610036e-01
6.790447110123459806e-02
-5.318588613754841876e-02
-9.651262767807700094e-02
-9.440830194631047445e-02
-5.611835034520407800e-02
3.343661623155397972e-02
1.675114852680324173e-01
2.959493606446388925e-01
3.576575110668878121e-01
3.218792126511791363e-01
2.010161496657422442e-01
3.951727498603450905e-02
-1.076215658370018591e-01
-1.897473750639433743e-01
-1.614142014900511457e-01
-2.395012872217949090e-03
2.144014418273174905e-01
2.801809044556985429e-01
-2.089230306790618164e-02
-6.385042183474349820e-01
-1.178584014829604953e+00
-1.251631977360054604e+00
-8.752216269872844512e-01
-3.985180779445350874e-01
-8.945709271411263208e-02
4.872243402750180141e-02
1.178391354290041076e-01
1.573324851249323364e-01
1.454837184155065299e-01
6.834846355001311657e-02
-5.407251082699573302e-02
-1.884279263757661083e-01
-3.088277344522238343e-01
-3.894459665183492847e-01
-3.940573638851127547e-01
-3.046124968633783792e-01
-1.578244247960484681e-01
-2.173914118729689329e-02
5.858863915871954930e-02
7.130466196793434908e-02
2.080197833675606969e-02
-7.265569558458385979e-02
-1.737094761656733655e-01
-2.361564788191887754e-01
-1.967544148916570979e-01
-1.120107618979874174e-02
2.589383728406862151e-01
4.563225352970679549e-01
4.875758171474086633e-01
4.116375764071298349e-01
3.244486523438123160e-01
2.390214227921172441e-01
1.290885550629384260e-01
2.055764096888215708e-02
-1.790161544679428479e-02
4.398912269423990024e-02
1.534447359097433072e-01
2.218886238120240106e-01
2.253707890497552713e-01
2.264112964798070393e-01
2.594066175433571431e-01
2.589665566874703173e-01
1.658556148837501687e-01
3.144636806446151484e-02
-3.386333366151961927e-02
3.637622453936945055e-02
1.925016882004684515e-01
2.379418225492964112e-01
-3.546094990814894349e-02
-5.613863471485316392e-01
-9.531786917392446323e-01
-8.993892448266611606e-01
-5.113072773558628992e-01
-1.391708012145213003e-01
3.338878533478480126e-02
7.452041429747149892e-02
1.092249524488478757e-01
1.816397942118257447e-01
2.587262833780200055e-01
2.841828654313852121e-01
2.302530902914879385e-01
1.163344002013969453e-01
-1.877295440748423874e-02
-1.477854967700893973e-01
-2.519813413299836213e-01
-3.049592809715250263e-01
-2.740569639249215150e-01
-1.461531867455168610e-01
4.153156661685611373e-02
2.075899655611166683e-01
2.776100358977284799e-01
2.258123004548826529e-01
7.403188537175214856e-02
-1.193037577503568980e-01
-2.606029835466014966e-01
-2.538239152260935994e-01
-8.197948140916949678e-02
1.554578721124434959e-01
3.311673924699920502e-01
4.008766167705993255e-01
3.918876527661326881e-01
3.249144799396636030e-01
2.059143297672572093e-01
6.923632028355461432e-02
-2.784105142236685884e-02
-5.162695711610534866e-02
-6.001442413270456980e-03
8.860557027268317620e-02
2.075736080767681679e-01
3.209523492747764495e-01
3.938324345798805970e-01
3.913107654330284513e-01
2.957171529835959101e-01
1.376569868246635964e-01
7.382332477829886032e-03
-3.312001449076328388e-03
8.538600192918197052e-02
1.035091682229247745e-01
-1.111356338154594475e-01
-4.842497462564546162e-01
-7.201781982717456732e-01
-6.201940551077296249e-01
-3.099691375163273199e-01
-6.838277730801960164e-02
-1.578589973156623721e-02
-6.378275321404318354e-02
-9.028736796388925345e-02
-5.352071039969824584e-02
3.066555774526652858e-02
1.298060603170185234e-01
2.034861325135773336e-01
2.153478706265994358e-01
1.499758593319750200e-01
1.771170715147741062e-02
-1.449007801812375873e-01
-2.833952198429602332e-01
-3.475972107510312270e-01
-3.103775016068964776e-01
-1.779567402521504971e-01
6.200875485688081556e-03
1.740307212546759463e-01
2.591950285125644293e-01
2.222749377278901151e-01
7.227669663956538815e-02
-1.172037930047379467e-01
-2.304762691715440404e-01
-1.952265675818332380e-01
-4.817904185726202410e-02
1.193244560816248273e-01
2.576218314811742349e-01
3.611744028152583663e-01
4.166334688807054043e-01
3.987196104857862466e-01
3.020701099950832691e-01
1.560989479244589695e-01
1.778878949206569304e-02
-4.946831886409340517e-02
-1.308394675559192144e-02
9.994000155299188892e-02
2.250447782210529268e-01
3.145684733068855321e-01
3.538127127816735884e-01
3.337468836158986596e-01
2.510094966160313912e-01
1.435043570213312414e-01
7.619764980434683144e-02
5.011377084715933766e-02
-4.713242272741149930e-02
-3.212087541638808386e-01
-6.728397577953909581e-01
-8.188680284081685246e-01
-6.034670173859693065e-01
-2.025134388920054040e-01
8.032135691770347918e-02
1.249458547509059991e-01
2.002184001929789917e-02
-1.041213470651858874e-01
-1.703733389806507126e-01
-1.551434139752380093e-01
-7.386576262494780332e-02
3.568065773390836914e-02
1.286257418701715616e-01
1.565187312448660106e-01
8.166765704718978447e-02
-8.237796514686250571e-02
-2.494099133658397027e-01
-3.169319525920608616e-01
-2.640722990707286000e-01
-1.622812177746387474e-01
-7.217202380985206223e-02
1.541619292367498589e-02
1.142485294016427066e-01
1.865390878184546020e-01
1.849673838329344844e-01
1.166167180115252333e-01
4.278831499082273726e-02
1.400841656915926235e-02
2.057291976308231463e-02
2.877812843667232334e-02
4.521856597581740828e-02
1.094456930235512132e-01
2.320281054922674335e-01
3.601415424804742527e-01
4.068733149703083196e-01
3.254001374052000184e-01
1.561666130603552582e-01
-1.112896679455955759e-02
-1.061974963192257870e-01
-9.937194471228585901e-02
4.365763935651540556e-03
1.628234159827385286e-01
3.081553703825732349e-01
3.805207565597223396e-01
3.584121481360828532e-01
2.760272077056358242e-01
2.009995396372925569e-01
1.345433391244164611e-01
-6.583339422155416731e-02
-5.379878297580443780e-01
-1.121166009113240936e+00
-1.368059282471791205e+00
-1.011649799987010656e+00
-3.068252658427098600e-01
2.454489871948025426e-01
3.947224010416223172e-01
2.433672049143225102e-01
1.324629524385348422e-02
-1.411709222759044702e-01
-1.761423456707899571e-01
-1.336402187763215121e-01
-7.703012383088123083e-02
-3.312030114461216035e-02
2.660545548759607470e-03
2.543729871555157687e-02
6.147976517828725521e-03
-8.440940547596441357e-02
-2.319451118953948510e-01
-3.626199827017307920e-01
-3.943683110466250641e-01
-3.043168061088857290e-01
-1.369064912596299477e-01
3.596134246112350774e-02
1.543019605380412107e-01
1.930786667835356907e-01
1.682944596917237412e-01
1.169619948151191108e-01
5.867873720225150885e-02
-1.085662323481650579e-02
-7.697331328233639192e-02
-8.949138663058739396e-02
-1.500318214231581744e-02
1.224411347797779021e-01
2.687287074687844668e-01
3.739064678734110303e-01
3.949283246372979339e-01
3.127406002048520595e-01
1.630025109132988426e-01
2.082509303149359878e-02
-5.477932027444539637e-02
-4.737022161360145839e-02
3.811139787236442894e-02
1.859650280570912251e-01
3.478133010997019325e-01
4.543599493417920243e-01
4.777670949435932624e-01
4.434408277523885222e-01
3.363153100327297418e-01
3.547942102764314182e-02
-5.367618274005852008e-01
-1.162453856898284954e+00
-1.394725829129817019e+00
-1.019358236272950968e+00
-3.202558817129727009e-01
2.393783747128962469e-01
4.549997250828630158e-01
4.073720373334107636e-01
2.357350582118803717e-01
2.643357412344755908e-02
-1.599504132866116646e-01
-2.658945525108646901e-01
-2.571912892244835880e-01
-1.474644847469849529e-01
4.120643932571207979e-03
1.258286395878183417e-01
1.723868349730432181e-01
1.362794988126563300e-01
3.199793363757226505e-02
-1.121283530916934584e-01
-2.458637415466580212e-01
-3.059722958690267447e-01
-2.548649144419855017e-01
-1.146078492492642320e-01
4.228128699079032604e-02
1.521536930290773859e-01
2.157989605215655804e-01
2.696421784678996181e-01
3.070161358283561848e-01
2.798992391775976252e-01
1.792505363362345561e-01
6.381309570203272385e-02
8.241232580675635425e-03
4.983290494906372770e-02
1.728916789400131160e-01
3.186345013302226414e-01
4.144054842507375325e-01
4.141521606285589741e-01
3.207376552714721885e-01
1.748655197770705438e-01
3.157537557766674358e-02
-5.934619508955119721e-02
-7.125191952775200566e-02
-1.076748711170015874e-02
9.249022994947089793e-02
2.134182262252521389e-01
3.451690227071989026e-01
4.646804487009806306e-01
4.731917217136898390e-01
2.151787063156052893e-01
-3.507851491092271456e-01
-9.807939675943440072e-01
-1.272104049165351469e+00
-1.046188394866654825e+00
-5.098741857562708590e-01
6.043009416579078752e-03
3.300374721261324362e-01
4.464792947603790085e-01
3.858330069124661921e-01
2.051807267224260434e-01
-7.736629835163801039e-03
-1.786867398305838073e-01
-2.804419709663975580e-01
-3.099632151889439302e-01
-2.568675538156136584e-01
-1.215532008189413177e-01
4.309175101220250742e-02
1.459312780328831105e-01
1.335575549309133137e-01
3.564093999313260042e-02
-7.581288540026422107e-02
-1.529280022886304324e-01
-1.882456290639574203e-01
-1.911590635925793646e-01
-1.651109755453150640e-01
-8.303201696428741396e-02
1.170263644490094762e-01
4.467807479266718285e-01
7.590165633629442077e-01
8.248727082565074920e-01
5.775730969665954229e-01
2.008226548250582333e-01
-6.275064041120065328e-02
-1.197901462131274741e-01
-2.976140296509641181e-02
1.117264849564408302e-01
2.413043645939028370e-01
3.234100433543641850e-01
3.379232131441454734e-01
2.822387157043509953e-01
1.723371013313934053e-01
4.193777272595684835e-02
-6.217731130927716537e-02
-9.889981360602091709e-02
-5.172679981801763666e-02
7.616145756084835572e-02
2.735890363742028430e-01
4.917373800375281490e-01
5.886101726501938858e-01
3.707321268030980832e-01
-2.015085244791499364e-01
-8.494239287313978259e-01
-1.153365862200643299e+00
-9.572709340711548220e-01
-4.903108497906204510e-01
-6.331122009757322866e-02
2.050147047354000107e-01
3.372318901080347819e-01
3.512364339215947595e-01
2.513344360637926878e-01
7.908262242801063213e-02
-9.951913167414104533e-02
-2.406982370520410752e-01
-3.288397225029781601e-01
-3.514765812100156261e-01
-2.981114566134815402e-01
-1.869471312753372416e-01
-7.158131903654529893e-02
-4.654572414231649032e-03
-2.855188301279596580e-03
-5.514914157729804145e-02
-1.422451239076807927e-01
-2.331025302652366682e-01
-2.896836462534172485e-01
-2.920891734102918913e-01
-2.345233804090955110e-01
-9.621693759653866806e-02
1.297422576437964048e-01
3.625128745499215377e-01
4.598435168370959003e-01
3.631131711627399450e-01
1.635354856010961810e-01
-7.307916336416496461e-03
-9.687229376607932319e-02
-1.171998938119581668e-01
-7.576928711089865598e-02
2.928307596286968545e-02
1.737075315863511327e-01
3.079476006641432839e-01
3.866929941326554543e-01
3.831834048819626748e-01
2.952585400719147657e-01
1.564031254145792360e-01
2.411041514443542505e-02
-5.616527057925956024e-02
-5.891677286124790552e-02
4.288501225231933223e-02
2.411360040781963809e-01
3.921872861623265094e-01
2.395240949485462900e-01
-3.158777678135906153e-01
-9.764669638709359001e-01
-1.259487274830214609e+00
-9.974392920590048339e-01
-4.738606025986940584e-01
-4.902871194518424597e-02
1.636239450659010553e-01
2.380183752569575983e-01
2.527911142573557868e-01
2.377300879637704312e-01
1.936964014423427360e-01
1.042021754381799864e-01
-3.886905050370864645e-02
-2.002476303252765100e-01
-3.117217479465405616e-01
-3.295621852663500051e-01
-2.673133116590761249e-01
-1.637616617435484756e-01
-4.414871265302418302e-02
6.802007659815106910e-02
1.308345545244266883e-01
1.099548533697057434e-01
1.760744245413235071e-02
-9.305397126097617044e-02
-1.705927693532413025e-01
-1.879906782457076431e-01
-1.251278039286602695e-01
3.309088699032816661e-02
2.517098500417256912e-01
4.343385646999241567e-01
4.989175472222986407e-01
4.429359365625736289e-01
3.169324539440187549e-01
1.732643541654105279e-01
5.500313927451499357e-02
-2.523146795768557368e-03
1.813158911858970060e-02
1.056631876763573369e-01
2.217604517196670733e-01
3.206270111096564679e-01
3.683174609046574455e-01
3.489191434537509129e-01
2.726916742496395818e-01
1.761220038022576762e-01
9.385656496541809612e-02
4.672844460118304871e-02
7.102664751345748317e-02
1.927481480168483918e-01
3.088386307315844626e-01
1.803821188440419554e-01
-3.002191557522617127e-01
-8.604761164980017085e-01
-1.062026337445690194e+00
-7.923433164059655587e-01
-3.549269994851435572e-01
-6.395736039804336692e-02
3.852177275122369016e-02
6.276149522207991049e-02
8.373258162566672713e-02
1.153523918808719018e-01
1.457898671195675677e-01
1.492940283462781126e-01
9.610325397708097128e-02
-2.580842343082546259e-02
-1.897223031333551690e-01
-3.326804226509050277e-01
-3.899400450687625086e-01
-3.326198390377528291e-01
-1.803011742515726046e-01
6.206372310823927291e-03
1.469393859470558839e-01
1.878199332566284074e-01
1.366493910694436542e-01
3.573956598734144563e-02
-9.099219069525012193e-02
-2.205772807472917985e-01
-2.777423244396602375e-01
-1.796745840580369347e-01
4.725630796908905640e-02
2.655046084028538922e-01
3.684662704174256342e-01
3.670282707752109963e-01
3.170341960456159458e-01
2.319990854213751230e-01
1.119913896785156571e-01
4.152359093442550136e-03
-3.053770274078686231e-02
1.236121664550235769e-02
9.136181746475272036e-02
1.767970537943353015e-01
2.635910248193187311e-01
3.415050564926697119e-01
3.690886073045825944e-01
2.925710782528815335e-01
1.169353394745210606e-01
-5.623360592752803949e-02
-1.022560897806665536e-01
1.167567665033328317e-03
1.159605864080554827e-01
3.009216536830480737e-02
-3.215028723719231540e-01
-7.100807316845687556e-01
-8.099739668697003570e-01
-5.729944954773982246e-01
-2.600891940054513851e-01
-9.497400528977523182e-02
-6.381415158831819923e-02
-5.101188845830305352e-02
1.389594022251376595e-03
7.915882550860006694e-02
1.370725814267323983e-01
1.476270190356435141e-01
1.260859705064771852e-01
8.860737139733601553e-02
1.334262487986109628e-02
-1.188914309460469970e-01
-2.708865888261805521e-01
-3.669116284990963095e-01
-3.550403611229251966e-01
-2.418105043251689845e-01
-7.509265635040848763e-02
9.065833308746595876e-02
2.062695709200328131e-01
2.251665543411288939e-01
1.236599261342471723e-01
-5.536215653562975847e-02
-1.959053930524620735e-01
-1.918957707938278301e-01
-4.952787038543708664e-02
1.283538366602032244e-01
2.594901851806270532e-01
3.387158570743412089e-01
3.847345103195850546e-01
3.884531071392276491e-01
3.294867833082101849e-01
2.130508598222266570e-01
7.646241145939712547e-02
-2.789478641572541370e-02
-5.210921325172986757e-02
2.098528273649629544e-02
1.547622159845642442e-01
2.811521622646231955e-01
3.549077764177032690e-01
3.676014601778709312e-01
3.192606011567124535e-01
2.170093691135858704e-01
1.054054782704640786e-01
4.159691107833851653e-02
-6.044309325670930641e-03
-1.731691639579227837e-01
-5.023638547689016631e-01
-7.732899359210475554e-01
-7.030699487677285475e-01
-3.178738511516074894e-01
5.728204898117318644e-02
1.842771288292407161e-01
1.081313974500310998e-01
-1.981528588784913295e-02
-1.226173996503108071e-01
-1.732771527037038628e-01
-1.353910986384666837e-01
-2.802794681797077941e-03
1.514604597509291994e-01
2.225626615385352114e-01
1.664694401931973711e-01
2.299685640344218199e-02
-1.373534589093604596e-01
-2.618851905376425870e-01
-3.221443134680105347e-01
-3.041533801178828988e-01
-2.077188925991096113e-01
-5.257189908006952572e-02
1.168990801982291716e-01
2.334771058682418021e-01
2.364112313843780011e-01
1.309848157143596037e-01
7.556436392744461661e-03
-4.030438361927732999e-02
-1.238741081342353487e-02
2.598813380710369644e-02
5.478070271184758144e-02
1.169431461346594064e-01
2.260048604516141368e-01
3.270461239161546185e-01
3.638927857744939098e-01
3.270232815363678935e-01
2.281057066099480279e-01
8.871966889913626697e-02
-3.717323692017431708e-02
-8.192855828907789906e-02
-1.709933528038908718e-02
1.272391423485736972e-01
2.849999825226150474e-01
3.895231345996651440e-01
4.044633087461013687e-01
3.452481135207493002e-01
2.713160610002621209e-01
2.149031965166333102e-01
9.310161959154475420e-02
-2.464041487900180682e-01
-7.938037463233734714e-01
-1.220072377403563557e+00
-1.132603591799905995e+00
-5.410178954060017587e-01
1.114131053844493180e-01
4.255537961322684581e-01
3.776450369664615114e-01
1.742913316639131405e-01
-1.695889482233184017e-02
-1.394166355712023742e-01
-1.831537660178952365e-01
-1.460988387485406270e-01
-4.977729573743421010e-02
5.479401285700406105e-02
1.176413279486712427e-01
1.129640862831008952e-01
3.417150133001428669e-02
-1.051218736412296989e-01
-2.568314005562823965e-01
-3.503586838201706577e-01
-3.367532868906327748e-01
-2.191500682193407712e-01
-4.569856058634250151e-02
1.167370829702862323e-01
2.126522958263815655e-01
2.285984459825684822e-01
2.028693734192524578e-01
1.809100921690208197e-01
1.578313560876190014e-01
1.054732847317238903e-01
4.862052902118131625e-02
5.237461501999587932e-02
1.373101290311627976e-01
2.576366126455190697e-01
3.546484798667887128e-01
3.950505089114665358e-01
3.668619238925909243e-01
2.729963828996547215e-01
1.379093988867723941e-01
7.900372336600403056e-03
-6.145413421540441012e-02
-2.953160836406069911e-02
9.389438302625068011e-02
2.385901554664092428e-01
3.283642049651003814e-01
3.534785240416830621e-01
3.621644607749109346e-01
3.548921333835833303e-01
2.037256000601121442e-01
-2.430169660747798777e-01
-9.009200873327002368e-01
-1.366138288141237167e+00
-1.258633595783812620e+00
-6.441056941316091189e-01
3.666682917500024841e-02
4.235867114399336497e-01
4.708628611182767432e-01
3.093864684648127694e-01
7.322589554193775774e-02
-1.445803234622662081e-01
-2.880775360224048787e-01
-3.320933317549694119e-01
-2.739038507164703873e-01
-1.404528494936252703e-01
2.105219945525720407e-03
7.338000895590714168e-02
3.300630108941414453e-02
-9.022872448141013024e-02
-2.305580184045717407e-01
-3.372633829930506422e-01
-3.864076093519684396e-01
-3.610512408388649730e-01
-2.461080846325077454e-01
-5.811573334289369536e-02
1.267268840441208855e-01
2.216987379926454726e-01
2.251790473710898466e-01
2.058037713459444085e-01
1.803515682165465761e-01
9.682309920308998508e-02
-4.348277490530247369e-02
-1.397740326681733425e-01
-9.864260427247670271e-02
6.210025803569969860e-02
2.366903346264240260e-01
3.381885678951970786e-01
3.562038147404481547e-01
3.138948801844307912e-01
2.204611212210440541e-01
8.977958067286241628e-02
-3.494973341518786691e-02
-9.936248095695993099e-02
-7.029822998185297767e-02
4.203569609080782393e-02
1.881772444786861120e-01
3.239493781469578448e-01
4.409966286896033760e-01
5.101991155353788887e-01
4.049463435945269696e-01
-2.105897559821848924e-02
-6.964648035222026357e-01
-1.242713192350685780e+00
-1.281035471394144754e+00
-8.269126227339058666e-01
-2.425347285105540207e-01
1.610531607297019663e-01
3.253564741437394159e-01
3.247870496870206569e-01
2.262838684479104023e-01
6.993735820342117382e-02
-1.029411622423472422e-01
-2.391603921857393400e-01
-2.969377681347979414e-01
-2.749628249983184780e-01
-2.024650982753959105e-01
-1.052882477463440158e-01
-1.886780976856003433e-05
8.225997801432308187e-02
9.261644930959302136e-02
6.662237713456656274e-03
-1.328807298450888352e-01
-2.375936200643190832e-01
-2.477294106843692112e-01
-1.783270115376639209e-01
-8.462170892590638316e-02
1.696505412942026642e-02
1.686886504490554828e-01
3.760688782031344490e-01
5.230293785748642010e-01
4.707442192293620487e-01
2.408390511856653704e-01
1.213348541174845419e-02
-6.802990963636890154e-02
9.615065991970227210e-04
1.322487438104072710e-01
2.527316524202001813e-01
3.343231348121264435e-01
3.687273974864100357e-01
3.416274658170551648e-01
2.374481488917763450e-01
7.256909610291344126e-02
-8.224038386744388085e-02
-1.412530293116924796e-01
-8.220111301145124894e-02
3.729793702182288700e-02
1.557359475789845682e-01
2.684295915257018383e-01
3.722843588749081833e-01
3.623012225909724160e-01
7.492366024546159853e-02
-4.774306725998965217e-01
-9.804623914133746565e-01
-1.080334698790210046e+00
-7.546750792834494570e-01
-2.830737073108193225e-01
9.658757712217472258e-02
3.399382504875977928e-01
4.677212129377613659e-01
4.642676399855604208e-01
3.193420422131345582e-01
8.514231946624634118e-02
-1.409321680724761050e-01
-2.787993940708169971e-01
-3.050705040556203063e-01
-2.420830586963453879e-01
-1.289467752991198257e-01
-5.964325440098349612e-03
9.309531682132758668e-02
1.441510732850441456e-01
1.264687067717970570e-01
3.017717784561449457e-02
-1.099287661630810042e-01
-2.121467951058096102e-01
-2.189110017372737360e-01
-1.512785667001361745e-01
-4.997914234137853379e-02
1.008435392632466010e-01
3.165046927808519150e-01
5.086370043568562149e-01
5.404296204585267160e-01
3.886221007453571907e-01
1.704323569639895064e-01
8.805064439988272845e-03
-6.065659122293889927e-02
-5.395246189956175165e-02
1.918106623476866987e-02
1.483344550291052777e-01
2.872757490551840487e-01
3.657939085644447696e-01
3.457528544422504568e-01
2.474196569967403447e-01
1.203556454737565867e-01
6.951340319717694456e-03
-6.888779390244788303e-02
-9.340247963584266677e-02
-4.390303525672500928e-02
1.099295208821485792e-01
3.373922426439898703e-01
4.618078495901326019e-01
2.310554250903776030e-01
-4.117242180567222687e-01
-1.142163229434304483e+00
-1.448848524255382797e+00
-1.024757220991241002e+00
8.523642908768697124e-03
1.078196850795027251e+00
1.467723875970255776e+00
1.018154730556966481e+00
3.445182307765531915e-01
4.873663595966830353e-02
7.988497696226265488e-02
7.429406240171269882e-02
-9.866287674824306131e-02
-3.107038706849580834e-01
-4.247913246453168257e-01
-4.141834146918437765e-01
-3.190194231320733764e-01
-1.882638371606137617e-01
-6.510857139017936501e-02
1.660482630182042244e-02
3.664261114293050625e-02
-1.082485773200182050e-02
-1.079936607444553498e-01
-2.123349959281329580e-01
-2.801905546645315215e-01
-2.746552890961164173e-01
-1.553883306579344481e-01
8.084733424497354826e-02
3.401729520826521358e-01
4.819856848090784962e-01
4.517311500377927391e-01
3.152328538156174975e-01
1.647997876228786684e-01
4.491947409217082743e-02
-3.626869291603965900e-02
-7.132285182978051474e-02
-3.913088334445552485e-02
7.764472707990077716e-02
2.490660690100096886e-01
3.908090668268369150e-01
4.297624688008726546e-01
3.589806907083860077e-01
2.163486991990243580e-01
4.606349181389519931e-02
-1.008215822585362825e-01
-1.554071848039510484e-01
-6.108863207569878440e-02
1.423173175442064009e-01
2.622400437895756053e-01
6.914812783032761589e-02
-4.348151823698707674e-01
-9.130612950893818303e-01
-1.004589919003192611e+00
-7.199254395449004029e-01
-3.791800456288058063e-01
-1.984495376692039792e-01
-1.173441689044681518e-01
-3.870635611629131764e-03
1.506363874930909119e-01
2.627733171670676438e-01
2.707587121683942000e-01
1.739652772040415907e-01
8.880585630198112312e-03
-1.718943769069417316e-01
-3.070075193809684855e-01
-3.479484965042303202e-01
-2.931998947235607833e-01
-1.891809553765841367e-01
-8.346704580170606624e-02
7.559488238522410648e-03
7.710800460688355118e-02
1.018918292988388458e-01
5.211928966090766113e-02
-8.120602821538264182e-02
-2.585602002998310667e-01
-3.828267963871747614e-01
-3.465209464720426791e-01
-1.222660202776784943e-01
1.881690324916993340e-01
4.195874334714707610e-01
4.789295498271291529e-01
3.981074877843386872e-01
2.554579493350311314e-01
9.986707719346668566e-02
-4.131608645121195855e-02
-1.371075951748567390e-01
-1.582343329700011958e-01
-9.231620103781311426e-02
4.464717483380761104e-02
2.031316054994130871e-01
3.177324816645755723e-01
3.468588762982580675e-01
2.938567366608291764e-01
1.867196575083623911e-01
5.600416124645855864e-02
-5.121760668103834263e-02
-6.349581897333764213e-02
4.492510351564874688e-02
1.537202551717493648e-01
4.707045242591266498e-02
-3.335518651206813012e-01
-7.323638245908886679e-01
-8.217291914803266373e-01
-5.812746431024363725e-01
-2.783319561108165141e-01
-1.156778062527520634e-01
-7.504667012319309050e-02
-5.897551810635411756e-02
-1.673159792598969201e-02
5.470285003416298225e-02
1.279085741974337609e-01
1.601061347332692064e-01
1.308083668654132226e-01
5.728742273313436328e-02
-4.089794421037404315e-02
-1.649805305600916261e-01
-2.969706438581378172e-01
-3.693042168832400551e-01
-3.202840749407537824e-01
-1.659069001942165278e-01
1.133871222791362279e-02
1.347365952053936056e-01
1.770638087178399434e-01
1.383348294009238144e-01
1.958075202827089245e-02
-1.405857258425247391e-01
-2.355404297217506826e-01
-1.699058355649918639e-01
3.187904540642834406e-02
2.494063733300372621e-01
3.890623509420954584e-01
4.393241273807185765e-01
4.271259447049315372e-01
3.692323631645156867e-01
2.657955499572051128e-01
1.236869133019254940e-01
-1.701963689389582660e-02
-8.915595380615656818e-02
-4.327257391075742948e-02
1.092404280484248341e-01
2.962708291722223608e-01
4.329911471170621029e-01
4.753156270678897677e-01
4.262970724836980252e-01
3.077119295383817787e-01
1.563713198076941702e-01
3.718650920165680884e-02
-1.009527188420309383e-03
-1.375614129927693781e-02
-1.450863292974448604e-01
-4.356857817443298142e-01
-6.856704704238884007e-01
-6.511455805107545514e-01
-3.621860205539292332e-01
-8.192051930031166163e-02
2.394745941382128013e-02
6.269595379920478093e-03
-3.590978747898491974e-02
-6.754026054312986527e-02
-7.047548749732453210e-02
-1.630309025864019531e-02
8.902733265470220980e-02
1.882809072807434536e-01
2.107964910932084157e-01
1.201751275440394173e-01
-5.512818414762225838e-02
-2.299686211772711819e-01
-3.175628117359720060e-01
-2.893535509559285179e-01
-1.825832312949883796e-01
-5.087201695292371817e-02
7.959225453093957126e-02
1.938009106484368527e-01
2.505221113264686217e-01
2.017771474555488109e-01
6.131283571206660316e-02
-7.133740667339569241e-02
-9.172992565477243454e-02
1.223323156277381779e-03
1.194274002215023611e-01
2.072875116105044047e-01
2.862574836926216615e-01
3.762187658334290585e-01
4.380857776209184928e-01
4.105226250113248043e-01
2.766358352443543667e-01
8.981504187818907525e-02
-6.069033819589118861e-02
-1.097847146438267890e-01
-4.570262343896221158e-02
1.007096274249629775e-01
2.728476654119074696e-01
4.032160147442236386e-01
4.427586739831763096e-01
3.902048157027467878e-01
2.887078851455900930e-01
1.938218186541991461e-01
1.304927119962435156e-01
4.081389409274219227e-02
-2.076315352337146924e-01
-6.493085542428510548e-01
-1.038694728980437798e+00
-1.014924224664006447e+00
-5.286503030668797676e-01
5.539632278922115849e-02
3.473517775279277853e-01
2.792054984001322571e-01
4.376529365676357086e-02
-1.522752003545775334e-01
-2.182315001564312795e-01
-1.663969245873842817e-01
-5.857936282752911061e-02
3.680086117865317974e-02
7.533067815191485384e-02
4.875905329228884255e-02
-2.939194142565600132e-02
-1.432127908244203440e-01
-2.704545478839143202e-01
-3.716768468411338344e-01
-4.036313208598254487e-01
-3.466793407277606320e-01
-2.168276223280167780e-01
-5.484510602430964221e-02
8.952683201202728258e-02
1.670679743149135754e-01
1.527720174464955727e-01
7.719476012401506326e-02
5.377907138282369409e-03
-2.726465195661113144e-02
-2.471670518795988578e-02
1.655835328222702782e-02
1.125263286089720205e-01
2.469517405810907340e-01
3.572736519624646334e-01
3.770979386141979361e-01
2.944328495465596274e-01
1.632494577754492748e-01
4.594281131396055207e-02
-3.576610255885390860e-02
-7.751401250375937468e-02
-6.051595382854447341e-02
3.030486230478212500e-02
1.801574860720508986e-01
3.430664897965484128e-01
4.544196988574062956e-01
4.685519826556615586e-01
4.073922311260873008e-01
3.281203122852307530e-01
1.959568063898699808e-01
-1.430621457914014183e-01
-7.308529288357551446e-01
-1.257837982889761230e+00
-1.267481567873759873e+00
-6.834730287793492343e-01
6.067583432404148602e-02
4.926515875354916529e-01
5.133625372380016261e-01
3.128217031567135376e-01
8.750686063078270960e-02
-8.379118344571753751e-02
-1.966675287529363880e-01
-2.406346198478780951e-01
-1.849566962078795229e-01
-4.046747048381711676e-02
1.083749154384431729e-01
1.664075823224333006e-01
1.045554314766710402e-01
-3.839609260908058430e-02
-2.007118384250206611e-01
-3.220986840876466917e-01
-3.520069869778198468e-01
-2.744118112539410959e-01
-1.235232924685169542e-01
3.942873309470026899e-02
1.592310124119696579e-01
2.071839629096319524e-01
1.949516394124359564e-01
1.586015528650951967e-01
1.121114213377909924e-01
4.252966097274940571e-02
-3.541931811358027538e-02
-6.025887277606271908e-02
1.476854009825291462e-02
1.650503638708509246e-01
3.204962819449535538e-01
4.284443682044495882e-01
4.643693759268955890e-01
4.069376802759139267e-01
2.547747095195450062e-01
6.159317414872269442e-02
-8.369194183546607713e-02
-1.141008720744094429e-01
-2.048410742155984052e-02
1.473482016119669891e-01
3.102933433611165803e-01
4.128855094911479950e-01
4.561921812239254082e-01
4.552503083982356591e-01
3.447291678589412545e-01
-2.163195328723781577e-02
-6.680501356295687199e-01
-1.294418990177569562e+00
-1.454295378996671495e+00
-1.019802967847721842e+00
-3.268403314920383940e-01
1.932862178114640173e-01
3.737142834033281846e-01
2.950128345144352737e-01
1.015818001022468359e-01
-9.497918531548772691e-02
-2.347448808897547035e-01
-3.053011602873255126e-01
-3.097371901068456390e-01
-2.341807021198335503e-01
-7.455784374630222699e-02
1.001905443154662984e-01
1.673724715598157997e-01
7.294623427132924942e-02
-1.100073445659400517e-01
-2.740848249863625519e-01
-3.712745100238336593e-01
-3.949106375499009114e-01
-3.373573305830119273e-01
-2.048910745033582226e-01
-4.446641678631150368e-02
8.051853120436704148e-02
1.472553241098243648e-01
1.836709216642466169e-01
2.055513203597336136e-01
1.753358419232123322e-01
6.317731226541881129e-02
-7.381985034647776944e-02
-1.259162350847458922e-01
-4.561948936134811727e-02
1.103727587479189504e-01
2.571969313365242149e-01
3.572618896098989083e-01
4.024080687935959189e-01
3.684169806922067414e-01
2.414862869064354489e-01
7.240412741268940910e-02
-5.498484340927337760e-02
-1.100201286535606032e-01
-1.127338420742814290e-01
-3.208983190909746319e-02
2.335652389342572910e-01
6.832584171442996901e-01
1.062963777095588647e+00
1.024058409956516424e+00
4.500615383185961882e-01
-4.183611106974511329e-01
-1.132851644615985975e+00
-1.329057513068785612e+00
-9.890582692622191807e-01
-4.168949947153588464e-01
7.168041661107096840e-02
3.585685741694701889e-01
4.541074732080598308e-01
3.880835318567192882e-01
2.116437719417281205e-01
4.224706186213639941e-03
-1.686962347135811668e-01
-2.727212302589725468e-01
-2.833347295798874232e-01
-1.968659732322692868e-01
-6.388443755829442683e-02
4.187339892813844722e-02
9.963187229808560808e-02
1.420344385060478554e-01
1.702931958127181233e-01
1.307769346130249755e-01
1.184188698564907390e-02
-1.026381040021667884e-01
-1.288424454820136511e-01
-7.251598766967987109e-02
1.936526411968493913e-02
1.349856928813687462e-01
2.725099451660581984e-01
3.756194790971469355e-01
3.647153245830830337e-01
2.383897126794475851e-01
8.650143977865953904e-02
-7.092725377232427832e-03
-2.269278007219256710e-02
2.964065141171566553e-02
1.382684789225052391e-01
2.731618806864904436e-01
3.835336480223960898e-01
4.257697158274840188e-01
3.828848122043296276e-01
2.673901340372946134e-01
1.214323373277601259e-01
2.712061390283124814e-03
-4.665927495983191592e-02
-1.547770572226264685e-02
9.058631108205926485e-02
2.627752925302036524e-01
4.657199828920961515e-01
5.766168163522935597e-01
3.890617976216823037e-01
-1.917587074907599609e-01
-9.099588247246270800e-01
-1.276845233537206026e+00
-1.054221395418197815e+00
-4.906797676229641136e-01
1.380651588462628032e-02
3.001399146751442815e-01
4.197354743215993000e-01
4.179037614078853213e-01
2.945403577509604909e-01
8.644035102046698782e-02
-1.236436927658986912e-01
-2.714222131284206307e-01
-3.415123701290996294e-01
-3.396208455444433838e-01
-2.695841917199316429e-01
-1.481000752601197845e-01
-2.022676035224896599e-02
5.648624084521436384e-02
4.557997723323077566e-02
-4.294248254417258603e-02
-1.593319319511954935e-01
-2.566383952608385366e-01
-3.200461881177025791e-01
-3.426162014625859231e-01
-2.911442924135747012e-01
-1.266364723553438099e-01
1.307385760163149169e-01
3.716246902306197253e-01
4.653820970212133590e-01
3.748469915553488963e-01
