-2.054688095220743027e-01
-1.694146185961307172e-01
-1.581038574431799792e-01
-1.519955789293648551e-01
-1.311324124033678984e-01
-1.014612790665113257e-01
-8.368067427153259852e-02
-8.113494961355903479e-02
-7.535932975078331320e-02
-5.608590689506702531e-02
-3.703185275707847335e-02
-2.985752982125451302e-02
-1.808466372212846895e-02
2.253873771847179908e-02
8.889263236713508542e-02
1.582760863807495810e-01
2.127580642357642104e-01
2.314846930989237772e-01
1.913512410484808079e-01
1.039769043663570647e-01
1.846720566375162007e-02
-3.330804104115845515e-02
-6.213320091119479277e-02
-8.440111066968432330e-02
-9.541260674473456271e-02
-8.787172381890649697e-02
-7.142072395834782317e-02
-6.281829338193643808e-02
-6.559300670619425122e-02
-6.999316915000892980e-02
-6.845515179782106496e-02
-5.665815532272580612e-02
-2.653446523145538277e-02
2.024505629659754946e-02
5.304465575713847997e-02
2.757160466384568284e-02
-6.058563821684642692e-02
-1.289926370772868647e-01
-4.897542108771578417e-02
1.866658086796992577e-01
3.514479449034951242e-01
2.085317528364852568e-01
-1.253823151344050091e-01
-2.624846777947807408e-01
-3.543028077194515513e-02
3.159635484319482934e-01
4.721189557680521287e-01
3.561832400267351817e-01
1.104976110073628559e-01
-1.002658883197650314e-01
-2.014009647395743063e-01
-2.006327666141565769e-01
-1.472927230112984764e-01
-9.593759292476465583e-02
-7.671739498018055603e-02
-9.147818469239867023e-02
-1.319839795975325247e-01
-1.845929229368525604e-01
-2.245792542174389061e-01
-2.338986889806241587e-01
-2.227793986226253298e-01
-2.145891440451061782e-01
-2.114315803833917429e-01
-1.870513925716076609e-01
-1.222075213730018650e-01
-4.016980089879285815e-02
1.638693704333045800e-02
3.769122927923074240e-02
4.274209724824711010e-02
3.977237611384012300e-02
3.116888020542896848e-02
2.933992627080145993e-02
3.451651983883264468e-02
3.657808139544228843e-02
5.543302936150906746e-02
1.268976072904128005e-01
2.315230460462268935e-01
2.871358380696865664e-01
2.399501020184187094e-01
1.315169534720418976e-01
4.748079672269974599e-02
2.065751367677978040e-02
1.455967045652005118e-02
-5.412764617091250959e-03
-2.204495371346653146e-02
-4.714448528571863785e-03
3.308807367227400292e-02
4.760121780254173568e-02
2.166224850163505147e-02
-2.104327022751093304e-02
-5.154116836825581999e-02
-5.834579255349688770e-02
-3.639590245934880286e-02
1.280746333831942092e-02
5.629274312355460330e-02
3.849246663417397324e-02
-4.483799360745549523e-02
-8.881415557673118244e-02
4.040577318176737098e-02
3.122046551756555433e-01
4.751619675193535230e-01
3.248844519123461616e-01
8.353583427764182945e-03
-1.147827149616786613e-01
8.077984953363798182e-02
3.565522757993505043e-01
4.331041748956189763e-01
2.801506928679923236e-01
5.846402647059534968e-02
-9.800622133396381941e-02
-1.691116113082269667e-01
-1.862595046338060834e-01
-1.734255377284237565e-01
-1.463662297597723150e-01
-1.193937049314830884e-01
-1.008850582364641812e-01
-9.469909633895777501e-02
-1.021054630794188123e-01
-1.181824534642689217e-01
-1.359993762935854389e-01
-1.537478945393381813e-01
-1.702144285170285598e-01
-1.794937046376609835e-01
-1.735070785140597760e-01
-1.477420990322461103e-01
-1.107807551125584156e-01
-8.153596347392680355e-02
-6.725810263105419518e-02
-6.016168309632657918e-02
-6.082430549771476735e-02
-8.111493449572518277e-02
-1.176806840657732556e-01
-1.390619850445750649e-01
-1.038610633420425089e-01
7.507816386814902647e-03
1.627201729556005949e-01
2.768981600456573711e-01
2.738410039016594411e-01
1.626445192136120044e-01
2.890227302795517900e-02
-5.220626632923525828e-02
-6.726733167514810374e-02
-4.267746946782353945e-02
-1.206524804897134845e-02
-1.595874866537903228e-03
-1.037056283365088948e-02
2.603388901591915591e-03
7.900018262191228768e-02
1.836610058935890799e-01
2.076809507309722858e-01
1.036913175657439984e-01
-3.076569765980029583e-02
-7.394164737214314886e-02
-3.365345699759776654e-02
-1.704752778941726055e-02
-7.089497773342882947e-02
-9.172912297479475507e-02
6.894411754160134631e-02
3.770276943735416109e-01
5.567573774188728786e-01
3.872697174539839748e-01
2.713878045953221213e-02
-1.353346853424868823e-01
4.820740605722438621e-02
3.464905014789432802e-01
4.704975620143819759e-01
3.637380206088245416e-01
1.616097436553104449e-01
2.627858468316684321e-03
-7.021674951680800802e-02
-9.426425521318768097e-02
-1.229297876889883234e-01
-1.667935965027135814e-01
-1.959334516662547265e-01
-1.918535632493512111e-01
-1.688726167690088598e-01
-1.458962998008115908e-01
-1.240872478445604055e-01
-9.920302514238929503e-02
-7.992783153800599172e-02
-8.020524543708071330e-02
-9.790226998808038150e-02
-1.145985253668042186e-01
-1.202270603820953104e-01
-1.277795338177090956e-01
-1.498692386791845854e-01
-1.654002622394285527e-01
-1.363932279710020901e-01
-6.455552805087133583e-02
-6.137284453660166519e-04
1.423089536729659627e-02
-7.175456423243846416e-03
-1.373208804641267745e-02
3.833950015287988788e-02
1.405030487909961767e-01
2.197880924628824173e-01
1.962166278161218136e-01
6.561272974096075961e-02
-9.115886532768952000e-02
-1.830639853235264403e-01
-1.848470897520408385e-01
-1.437465680997438433e-01
-1.158839723446800501e-01
-1.067696362205231703e-01
-8.728095043576721002e-02
-4.836012663184700855e-02
-1.042827635404994582e-02
8.001550104700634949e-03
2.814822446717967115e-03
-2.358806559708140002e-02
-5.819026435397110092e-02
-7.776651622682591303e-02
-7.952904197142142417e-02
-9.377026097089390111e-02
-1.234434459549729884e-01
-8.509129522099923015e-02
1.089516362953037582e-01
3.717964218738320503e-01
4.491017898087601989e-01
2.243097187391587255e-01
-7.150226376862567346e-02
-1.170431208281867419e-01
1.066864661287446198e-01
3.383483726755240895e-01
3.777885216956105574e-01
2.601125701828670422e-01
1.270825263244078629e-01
5.020755048847193314e-02
6.249015227801068065e-03
-4.226201619992604741e-02
-9.406059778972596097e-02
-1.280162101211083925e-01
-1.450529737062962177e-01
-1.690708234280993705e-01
-2.075108838136819900e-01
-2.350455889583039082e-01
-2.252735375823712027e-01
-1.809165722619172634e-01
-1.262198726748665345e-01
-8.313157395684547812e-02
-6.009612706467404308e-02
-5.618959440101195524e-02
-6.819856034484331198e-02
-8.873730356621381543e-02
-1.001701210721782365e-01
-8.381239561148119688e-02
-4.143929991427891535e-02
4.365827382572378366e-03
3.571803283138498541e-02
5.208086797753323088e-02
5.974136019884929844e-02
6.941095008177859682e-02
1.002626471937531905e-01
1.546096165824640822e-01
1.887860961332013532e-01
1.501469904217777318e-01
5.028336527435210701e-02
-3.387859461682403428e-02
-4.046671175994096675e-02
1.406148890691823888e-02
5.298647250621675575e-02
1.495294695292463151e-02
-8.451350177887088921e-02
-1.695672486771175880e-01
-1.834285318375634133e-01
-1.354330021749726165e-01
-6.908873752177031868e-02
-1.454425062838184124e-02
1.850844663096510787e-02
3.399977779048277832e-02
4.867441142663208459e-02
6.741753437952781314e-02
5.598419205117185354e-02
-1.182211583979774633e-02
-6.401184823807971880e-02
4.124850674788477917e-02
3.197351551139175352e-01
5.420855426129269627e-01
4.650244074412371864e-01
1.844741289285031505e-01
5.219918272456904040e-02
2.117148797693281237e-01
4.381528393046957848e-01
4.683834368182927532e-01
2.935911932946111413e-01
8.399210888680019860e-02
-3.772330607624806847e-02
-7.795243217022704285e-02
-9.389070079704153748e-02
-1.163145705287100540e-01
-1.461015538791876622e-01
-1.751730784684983055e-01
-1.988576557935635702e-01
-2.209033453204690967e-01
-2.431720075850446472e-01
-2.545708766889236974e-01
-2.427178844322424589e-01
-2.100541197635351909e-01
-1.701158448564049352e-01
-1.346382566958859162e-01
-1.085849472494766071e-01
-9.261426451769443069e-02
-8.491061471278059380e-02
-8.037653714585012155e-02
-7.407581762069388731e-02
-6.659194784939877210e-02
-5.895385490555923175e-02
-4.670321046361477352e-02
-2.778143885005059793e-02
-4.746828302487325797e-03
3.227360899534063160e-02
1.054645099572590200e-01
2.058976898592567717e-01
2.647794006618903739e-01
2.111468760501434561e-01
6.327073482138337313e-02
-7.513400310704165808e-02
-1.203035150035431516e-01
-8.125228643103979409e-02
-2.336662706380922619e-02
6.592259339072426005e-03
5.187029228117551009e-03
-1.251895964466156856e-02
-3.903650550483308418e-02
-7.433477337599876666e-02
-1.085574340898120410e-01
-1.200423147372188248e-01
-9.911097749897078424e-02
-5.889311389014662002e-02
-1.692519379410903704e-02
6.995485970602269635e-03
-2.218527808758836983e-02
-1.111257479891911287e-01
-1.656435396679162841e-01
-4.380239411782309300e-02
2.445700578026198391e-01
4.487086071750839844e-01
3.267614004428745500e-01
-1.143268954294085482e-02
-1.844550001990409027e-01
-3.086180505534776367e-03
3.176201723379697417e-01
4.508003685903903546e-01
3.110991865165936843e-01
6.369782229608514368e-02
-1.082749099550579935e-01
-1.592386205114808828e-01
-1.471985915040988635e-01
-1.330308493430569783e-01
-1.365049672433393257e-01
-1.501744831268092550e-01
-1.598114099948139410e-01
-1.560506971407070453e-01
-1.445702852582124165e-01
-1.460278813516134311e-01
-1.765163800407109074e-01
-2.236216187948506517e-01
-2.482134312982159918e-01
-2.206251580044689131e-01
-1.556311338388559617e-01
-1.008023424699290571e-01
-8.569330549609489867e-02
-9.425739947370882776e-02
-9.320831191312649311e-02
-7.177851755797486077e-02
-4.521210071175481987e-02
-3.352812195037814524e-02
-4.241082861050898128e-02
-5.317086875545406349e-02
-3.337304209340210409e-02
2.974099383962663587e-02
1.090685615740830255e-01
1.549070929465583557e-01
1.313097466842594319e-01
4.974340215046611779e-02
-2.866979918569964245e-02
-4.738333968509411687e-02
-1.552991376157362297e-02
7.848082799135501844e-03
-7.690150104805756719e-03
-3.053021765459614650e-02
-2.342061340853194770e-02
2.710492837800084626e-03
1.824757944090700870e-02
2.308150252138101849e-02
3.075029066848745246e-02
3.327401854452556595e-02
1.888086952028713086e-02
6.403833630194282443e-03
1.974516723493575585e-02
3.503517863498208096e-02
1.355231178925160422e-02
5.291725920449538365e-03
1.366928562106947687e-01
4.126028718164592157e-01
5.962479093361870985e-01
4.477348353523024627e-01
7.893157012962781494e-02
-1.226901555752184930e-01
4.026161937399459767e-02
3.661976066846694966e-01
5.397191109456341840e-01
4.631242198639339280e-01
2.631713119573004245e-01
9.006312075321015742e-02
-1.166186060467804507e-02
-7.163167112807049264e-02
-1.102547417166427207e-01
-1.216688253875830572e-01
-1.107037334514723720e-01
-9.802738367585903112e-02
-8.949284008125282797e-02
-7.555857978435155664e-02
-6.154426160729423168e-02
-7.004569868242586927e-02
-1.067776257694228736e-01
-1.435515200932554747e-01
-1.492578788974618653e-01
-1.262499425587044755e-01
-9.852123779343827104e-02
-7.518043610895014384e-02
-4.768781718450632034e-02
-1.527684072808429411e-02
2.757257218515649089e-03
-2.189756874626995822e-02
-9.659275954551362064e-02
-1.826054552750813742e-01
-2.162310434703242634e-01
-1.582087133331811224e-01
-1.858876848957662781e-02
1.431893262279802792e-01
2.391989108276171005e-01
2.143080272591451896e-01
1.030125393061021438e-01
7.275716708862855348e-04
-3.248377502284974239e-02
-2.245219615460671350e-02
-2.890697638962944072e-02
-6.635616284276264765e-02
-9.607319919962496735e-02
-8.264221521896157607e-02
-3.453683766753994078e-02
1.156755906243163434e-02
2.848723798998810050e-02
1.465559143375822979e-02
-1.209866435018913146e-02
-2.779421488103950288e-02
-2.202474172832611168e-02
-1.396962368082967781e-02
-3.421188204923014675e-02
-7.095791405054836798e-02
-4.186270552556211472e-02
1.295321396817885884e-01
3.644988417816443227e-01
4.269655771044388315e-01
1.963523138165093607e-01
-1.124503475926903473e-01
-1.690483940219494885e-01
7.313474565226971147e-02
3.512076448800517947e-01
4.214987316653523997e-01
2.829236319828358215e-01
9.323208536442582905e-02
-3.098810491416351814e-02
-9.072227849384142950e-02
-1.334347793941973725e-01
-1.775204244231368966e-01
-2.152695721482283941e-01
-2.427844529252549122e-01
-2.624272240577444348e-01
-2.743020069163569774e-01
-2.776477977190440205e-01
-2.681142596447029791e-01
-2.253268100309666622e-01
-1.259217235874389995e-01
3.760545349937352219e-03
7.958573229703806706e-02
5.048995444875956778e-02
-3.725427287827877409e-02
-1.027516171977505693e-01
-1.137789790099666687e-01
-8.749621398377149806e-02
-4.900089055215862965e-02
-1.049560593573197961e-02
2.046307330688309709e-02
3.249481851173707803e-02
2.513382739098780211e-02
2.647835908138224115e-02
7.284684598600874028e-02
1.548417456262689840e-01
2.037278064733553662e-01
1.620072402587162119e-01
5.295935369331554454e-02
-4.638287154894907283e-02
-8.223418078214152216e-02
-5.499816299602139358e-02
-1.230624446818658936e-03
3.111639007342820867e-02
1.229562732702329901e-02
-4.094883013308121128e-02
-8.325107947793294882e-02
-9.721760162399445404e-02
-1.060585457586387254e-01
-1.219531929295112616e-01
-1.176443090140999181e-01
-6.899665966910144277e-02
-1.504934737419344644e-03
2.420499152740416410e-02
-2.552376822200223133e-02
-9.308924615554396709e-02
-4.429030387129025137e-02
1.658551189920801916e-01
3.427925897419890622e-01
2.379595448175953754e-01
-7.156851248694459655e-02
-2.115356728652806884e-01
8.978885585897343480e-03
3.666816098386797562e-01
5.313327794680776650e-01
4.166838430463793985e-01
1.792794801343691735e-01
-3.859729395459116086e-06
-6.474691544410512978e-02
-6.404234706354394735e-02
-6.042592656408872498e-02
-7.981423697093931180e-02
-1.168872721259975739e-01
-1.549679469498564111e-01
-1.841579402967513934e-01
-2.082840975610258660e-01
-2.284400526204765081e-01
-2.284747227217703291e-01
-1.927524679236809757e-01
-1.328710550374467003e-01
-8.322402859295410793e-02
-6.610366061148818806e-02
-6.793205109876451764e-02
-6.487923892513078328e-02
-6.461750692091985937e-02
-8.807694593973840191e-02
-1.153731760126224526e-01
-9.905524163509323021e-02
-3.206413539533822799e-02
4.151336161263682878e-02
8.658829502214397678e-02
1.165701876795128267e-01
1.634507627987192013e-01
2.219142297986149148e-01
2.401573019883564697e-01
1.778978966118567595e-01
6.342271496972935740e-02
-2.937560727683973666e-02
-5.431106308254637222e-02
-2.300101867806228842e-02
2.257206079915737018e-02
4.596787583661466475e-02
3.840054964787794484e-02
1.721275728021195647e-02
5.943237423223319757e-04
-8.764870147738296549e-03
-1.794047706223210817e-02
-3.340668503238589798e-02
-5.016942003639784237e-02
-4.778982020291863697e-02
-7.140578295081086158e-03
6.014883150544058504e-02
9.865691454618896739e-02
5.826868336850371533e-02
-7.852152929791288496e-03
5.152715588952866410e-02
2.823951049466165153e-01
4.685120347930790685e-01
3.512160810548412559e-01
1.160203801920299538e-02
-1.805492145474605903e-01
-3.096803121542178461e-02
2.754543829573921632e-01
4.484216440652195046e-01
3.852020948561571956e-01
1.828002393996077390e-01
-9.500597555853237952e-03
-1.123706469796199314e-01
-1.352986956792303908e-01
-1.211040075370894142e-01
-1.027977700820658091e-01
-1.006731163792085187e-01
-1.243667519902703494e-01
-1.684875077605699212e-01
-2.173929163280514665e-01
-2.574193769372906671e-01
-2.807470302317447430e-01
-2.813984022399186324e-01
-2.566811574337797275e-01
-2.122373307002713427e-01
-1.557520038832136133e-01
-8.818408756625449596e-02
-2.083776385530194605e-02
8.603644642590540376e-03
-2.436333657770704125e-02
-8.631490398320247615e-02
-1.235419338529600147e-01
-1.285011650770671032e-01
-1.286747656541360196e-01
-1.262473724304534473e-01
-8.444187322862951872e-02
2.588306636615642087e-02
1.727043552106750091e-01
2.644940160567499920e-01
2.310605848162486931e-01
1.015658856701282253e-01
-2.595350173913609296e-02
-8.565283475444300521e-02
-8.942460765294953096e-02
-8.394760086224595241e-02
-9.134691219386034677e-02
-9.504998908733508500e-02
-6.903513315624527913e-02
-1.387383999978395246e-02
3.793423332570592527e-02
5.622930560642231540e-02
4.698584488592615765e-02
3.694236199665495990e-02
2.252446731108952160e-02
-3.783303681447040823e-02
-1.505431764124539329e-01
-2.376276653557055640e-01
-2.064576064263883848e-01
-2.990108027433485346e-02
2.537221626256058737e-01
5.235392051942452385e-01
5.806066138202710114e-01
3.385538214949642133e-01
6.455518746978382294e-03
-8.913984889196857608e-02
1.256816650977844452e-01
4.074205028260396988e-01
4.940998584540931549e-01
3.572063152284963294e-01
1.478938339833932858e-01
-1.922949835670461835e-03
-6.964165073412209583e-02
-9.560793020001627507e-02
-1.170352479380454142e-01
-1.431842317036194911e-01
-1.615359337563896658e-01
-1.563262431269997199e-01
-1.248960898064894326e-01
-8.264145945938033977e-02
-5.658023419792165137e-02
-6.596753412037260900e-02
-1.010384601944660787e-01
-1.305553469190513793e-01
-1.351376489656808122e-01
-1.215270652342224228e-01
-1.037003390038432615e-01
-8.385764345256600805e-02
-5.634749608009281124e-02
-2.299730509476274540e-02
2.845750132213211055e-03
9.352756517100071360e-03
-1.940309261052817688e-03
-1.818709461040730890e-02
-1.873619047158520817e-02
2.213143640615438876e-02
1.137659630093225127e-01
2.207889624019181429e-01
2.753499490429577312e-01
2.334602603093758055e-01
1.130778422056016308e-01
-2.412040671362502414e-02
-1.172243253495044435e-01
-1.396396768842636249e-01
-1.086887871555393126e-01
-6.592896080240208401e-02
-4.138261025870067916e-02
-3.431867485387984917e-02
-2.530124928158439951e-02
-1.943239627740460992e-03
2.703252352013751914e-02
4.032983070705482842e-02
2.606594305156844163e-02
-3.492720938480802124e-03
-2.607081641998015148e-02
-4.577028608579666175e-02
-8.525859353005531271e-02
-1.053930758060045436e-01
1.037728720941958650e-02
2.841240450714726529e-01
4.940045248324140825e-01
3.803150908991336232e-01
2.392718687769415653e-02
-1.897875435514296827e-01
-4.029310396528864441e-02
2.844820715711163239e-01
4.585276705849564149e-01
3.697625760520305005e-01
1.507173289224245649e-01
-2.521194748585404988e-02
-9.736924538911558014e-02
-1.101544009019129189e-01
-1.254087271023893724e-01
-1.616232319527311501e-01
-1.972351191729152520e-01
-2.086480690550811812e-01
-1.949548267008072988e-01
-1.733238101933328723e-01
-1.602657643467411963e-01
-1.582563569030465134e-01
-1.595938838153424244e-01
-1.576038373667481007e-01
-1.473570908576808391e-01
-1.271958692088147602e-01
-1.104158205304406615e-01
-1.169208184146555696e-01
-1.411005166653720722e-01
-1.480120768881651727e-01
-1.110997868752186674e-01
-4.303981290286943567e-02
1.097376665376047743e-02
1.367663484350358470e-02
-1.958807024259726776e-02
-2.515742735925030615e-02
4.327529115214985567e-02
1.476255175411014531e-01
1.794274112611770056e-01
7.795873922949655976e-02
-7.577118501506978354e-02
-1.436026272401224602e-01
-9.205552533659580594e-02
-4.677522839876548447e-03
3.590362354208487955e-02
2.023152168058765105e-02
-7.906589306486692253e-03
-1.573968471621339793e-02
-3.602994149042217792e-02
-1.311081676382899464e-01
-2.751447824953041632e-01
-3.348055846031728899e-01
-2.274618116189621175e-01
-3.079558335982326978e-02
1.214664560204774257e-01
1.696519361019364625e-01
1.187922568592364725e-01
9.029712528924413451e-03
-5.452972075973129551e-02
5.141502579203411499e-02
2.927277384742611455e-01
4.214258429057170519e-01
2.532260876969091856e-01
-3.429726041432840794e-02
-8.366204872894436595e-02
1.801363984483561331e-01
4.719689390609884683e-01
5.089774156966634377e-01
2.829559797684348954e-01
-1.036007434514836512e-02
-1.860698099636141356e-01
-1.964983167852755175e-01
-1.178121678921971172e-01
-5.834594356488536498e-02
-7.343076006700330338e-02
-1.449445926844378230e-01
-2.223338204385987282e-01
-2.751010728162129881e-01
-3.057467510047963133e-01
-3.205890860554048150e-01
-3.111128280968326054e-01
-2.719475977225840890e-01
-2.186947720358940195e-01
-1.778582898502925058e-01
-1.611235789585040157e-01
-1.532530388529863563e-01
-1.344891506250568414e-01
-1.077640921892077386e-01
-8.650194970009496276e-02
-6.628990924264842322e-02
-2.983336675581300251e-02
2.200259622631017820e-02
6.212567623199202749e-02
7.291780467596795101e-02
8.104991302490109628e-02
1.324990740842085235e-01
2.225750823448254256e-01
2.754253580168153359e-01
2.242162091483164144e-01
9.464076397542781072e-02
-2.352353548573541189e-02
-6.854020178139820507e-02
-4.609914719982804998e-02
2.144686886196289777e-04
3.441537112347899108e-02
4.922933382356335652e-02
5.284730152095228062e-02
4.852967529803939306e-02
3.851026033587847536e-02
3.306239693693222015e-02
3.579270407179714619e-02
3.727691887500386714e-02
4.130541595554314965e-02
6.609135451122520599e-02
9.703943582953185321e-02
8.373890390138534479e-02
2.965378058640968234e-02
4.232369192693979237e-02
1.953858747992042733e-01
3.443242498037301091e-01
2.489030355978463505e-01
-5.629158104154236703e-02
-2.242994671866046230e-01
-3.395588898374227171e-02
3.347152717805668143e-01
5.490477980182302264e-01
4.806588717616135376e-01
2.509874254580963249e-01
4.050110670203460606e-02
-6.718955527106307279e-02
-9.283884568439088047e-02
-9.209928818910563530e-02
-1.009946823910148339e-01
-1.218516633654530695e-01
-1.424308978846663687e-01
-1.602018893274232691e-01
-1.791125195862687258e-01
-1.923723663906310999e-01
-1.887512091461009678e-01
-1.746280653996284959e-01
-1.714067624886356778e-01
-1.852220921332085601e-01
-1.920537538531704169e-01
-1.643974962004002283e-01
-1.063341066194401913e-01
-4.814874112058448175e-02
-1.058044856473403308e-02
8.863207370193073795e-03
1.784002699318413057e-02
1.588980101160875416e-02
1.253365195531662033e-03
-1.811840332611589985e-02
-2.035689953613537342e-02
2.222729036568999936e-02
1.115458131918465462e-01
1.928486246729833042e-01
1.913283175568936401e-01
1.003801320704140881e-01
-5.877039403928691411e-03
-6.255669824676389490e-02
-7.074143885585637559e-02
-5.950618802188263612e-02
-4.283968192321780527e-02
-2.405509706403185372e-02
-5.553465466807414389e-03
1.475839509651750980e-02
4.131007495107508198e-02
7.413580804501054833e-02
1.018082691661478523e-01
1.033408723311975419e-01
7.361309665258587709e-02
3.607939794601042888e-02
9.080641995276016523e-03
-2.024418718040255430e-02
-5.625047386109477410e-02
-3.509001633863902819e-02
1.404567469902729682e-01
4.433262313717410419e-01
6.360118655163242707e-01
4.869901098736572065e-01
9.758428682860859071e-02
-1.595796167504801022e-01
-7.291077951925266365e-02
1.996884958151530776e-01
3.721727741744241813e-01
3.322103379163098280e-01
1.778879349803903220e-01
5.292409282719343078e-02
3.985704043660675405e-03
-1.562780742565375927e-02
-5.565248676286189966e-02
-1.179350871995614031e-01
-1.756760189541009265e-01
-2.075465385854589617e-01
-2.087419859307999281e-01
-1.847384711551289249e-01
-1.452718428818129404e-01
-1.065239690275169848e-01
-9.169081985883910380e-02
-1.137943095182583769e-01
-1.534978917218614014e-01
-1.713013893319287606e-01
-1.514062873691618960e-01
-1.171762276451355778e-01
-9.694312605734765886e-02
-9.149892486068916808e-02
-7.912233917930146243e-02
-4.574461460512647265e-02
-1.053023667281912518e-02
-8.353230052138288161e-03
-3.563692153868086576e-02
-3.781040580666141654e-02
2.709268904906492539e-02
1.267182062478892091e-01
1.792059450638742724e-01
1.416893157523710645e-01
5.485874182631300666e-02
-8.708962994403336363e-03
-1.696942387033094010e-02
7.805828803899093893e-03
1.521496515438481613e-02
-4.221796055197709480e-02
-1.683993611930707235e-01
-2.944057811458362650e-01
-3.217789696300575875e-01
-2.275536375219966434e-01
-9.903741302999086171e-02
-3.478991215076831373e-02
-4.322032799914096030e-02
-6.079238071585753300e-02
-4.396314624821229256e-02
-2.355650063805799291e-02
-5.799492640779960878e-02
-1.239187745191545481e-01
-8.833319040262470334e-02
1.380896135554066928e-01
4.178722878835824939e-01
4.742787855631047655e-01
2.310940772179671532e-01
-4.948924427204261928e-02
-7.157272445760171076e-02
1.481751241194424751e-01
3.433472363342479072e-01
3.270205400614012992e-01
1.521211308619805636e-01
-1.632357383958546460e-02
-8.841439782203833198e-02
-9.051474503130368943e-02
-8.393780219304747270e-02
-9.560812433506125918e-02
-1.173017362814175596e-01
-1.357207572796750028e-01
-1.485549917037307655e-01
-1.578664837724218784e-01
-1.605417465002197952e-01
-1.529382267657621308e-01
-1.396697523418231335e-01
-1.280511347048455262e-01
-1.158313744621193020e-01
-9.575559211594082687e-02
-7.355461111394862028e-02
-6.846066357166726013e-02
-8.892263087977972380e-02
-1.175669981152781957e-01
-1.288710557787556277e-01
-1.150715426065090363e-01
-8.720000968020859278e-02
-5.799308334086201999e-02
-3.163371225628319044e-02
1.033200997572456675e-03
6.205260518297329303e-02
1.533167571998133583e-01
2.180762412348781210e-01
1.843835797930246101e-01
6.143403104265722503e-02
-5.918313935433593825e-02
-1.077389136445745937e-01
-9.308096161091863885e-02
-5.632223784021846147e-02
-2.121255876323033945e-02
-1.337252749172479624e-03
-1.251744428258515923e-02
-5.210438683510718733e-02
-8.960124693915123839e-02
-9.916174289035753486e-02
-8.237501381652288790e-02
-4.593198021651197921e-02
1.236801173396557402e-02
7.363155946636802673e-02
8.322550950327597952e-02
2.006040141786128578e-03
-1.215770358154820152e-01
-1.457551484956610410e-01
4.912014666456931966e-02
3.798504398922787906e-01
5.471722439699169271e-01
3.517988069643854798e-01
-9.138843183991371411e-04
-1.114708739609143878e-01
1.199661118996880604e-01
4.172665920970488607e-01
5.032696823436653144e-01
3.556173708995322147e-01
1.201569143901885239e-01
-6.695078271704649198e-02
-1.508655118417699670e-01
-1.472571824081106151e-01
-1.062144354035858551e-01
-6.741387695768619182e-02
-4.057755223740126121e-02
-3.049001963141804994e-02
-5.366418064856963432e-02
-1.078917518498774819e-01
-1.539295883834904677e-01
-1.611716458346486580e-01
-1.520486765330624768e-01
-1.661308326503869726e-01
-1.912373995603577903e-01
-1.698578584607740583e-01
-7.982349559416299090e-02
2.921716398724523781e-02
9.404608209509537908e-02
9.870482640476621605e-02
6.722015158805189072e-02
2.818222837635433325e-02
-1.713756574754031134e-03
-1.396305338694151833e-02
5.252795402651219865e-03
7.855898426434949899e-02
2.079050368881659172e-01
3.350025425941507984e-01
3.643642154915103792e-01
2.620174531473050683e-01
1.084827838502510355e-01
1.102240257042265414e-02
-1.435687954423152043e-02
-3.207617351045496251e-02
-8.340613644513519831e-02
-1.379948962581618865e-01
-1.432216300753257343e-01
-8.978273631389598053e-02
-1.449760207782799584e-02
4.120782867258755700e-02
5.048389653656355780e-02
3.100865215060861005e-03
-6.888801090691386297e-02
-9.176000392875328926e-02
-3.252353132728397211e-02
3.880160201392291591e-02
3.312149035863656832e-02
-1.179571454416868462e-02
5.592207049893042209e-02
2.734561904121013409e-01
4.108323365111011816e-01
2.262991889151144687e-01
-1.417136722720792052e-01
-2.863894723753844240e-01
-5.088670756755016983e-02
3.075943567318815131e-01
4.717372111754656316e-01
3.799140704208344710e-01
1.837620029057163151e-01
3.304370372024128394e-02
-4.557564876720233277e-02
-1.056624827871830291e-01
-1.791933332508187371e-01
-2.414282677118331499e-01
-2.589662465000577285e-01
-2.396177427882038857e-01
-2.207209852097641589e-01
-2.217638993044191986e-01
-2.279679296410215827e-01
-2.196850817282670620e-01
-1.990157155542426060e-01
-1.805808652249433488e-01
-1.708135227752607954e-01
-1.652839279161529007e-01
-1.543018449091208832e-01
-1.228112632550636407e-01
-6.060991713774496747e-02
1.385058884574747774e-02
5.577937966906104661e-02
3.831770227592853906e-02
-1.354540667928104056e-02
-4.325192072425389916e-02
-1.146589670280429712e-02
7.413545013378212978e-02
1.712318989894335564e-01
2.396020181679751337e-01
2.532547527560070066e-01
1.934099172109783882e-01
7.197025482562410814e-02
-4.852505156065836656e-02
-1.039447348370112906e-01
-9.614716502271618281e-02
-8.071814276018263179e-02
-9.192747118032595921e-02
-1.085230701457816638e-01
-9.444704034753609312e-02
-4.964590368134958603e-02
-9.372339155511281300e-03
-3.840382391766159701e-03
-2.996580572914707072e-02
-5.729784094355798441e-02
-5.686570043428854082e-02
-3.100664915355287252e-02
-1.580098107262108836e-02
-4.549041465926005612e-02
-1.005743354006052304e-01
-8.822343114195771441e-02
8.358237468272568249e-02
3.570445509110771742e-01
4.919731512208651569e-01
3.115630532952963772e-01
-2.349019882778941720e-02
-1.575630488847230837e-01
2.846678107572961358e-02
3.019351235991273863e-01
3.950046039664831810e-01
2.778826769638974570e-01
1.059931693306831180e-01
1.004197358047726613e-02
-1.166338132323602866e-02
-3.169080943073546847e-02
-8.555021791296768541e-02
-1.491761799246571485e-01
-1.932248936895863134e-01
-2.166132550683258495e-01
-2.290140073231077822e-01
-2.374566784194504232e-01
-2.537965242837046942e-01
-2.811575557193237151e-01
-2.899699207284838209e-01
-2.455504257773289678e-01
-1.666230233831406948e-01
-1.155317083799016070e-01
-1.196283905642682166e-01
-1.449303977983571468e-01
-1.561513229298717165e-01
-1.532921805485606137e-01
-1.379048203921171556e-01
-9.608509628858533103e-02
-3.367082082133374815e-02
1.496433667991942107e-02
3.310050407948476880e-02
4.924007409042505112e-02
9.781478616492716993e-02
1.589896916741835586e-01
1.662996862324648550e-01
9.326005316209824703e-02
1.626624406275822138e-03
-2.895882158976684217e-02
8.503574308093786449e-03
6.002353895405262291e-02
8.236565570208218001e-02
6.809630344736669616e-02
2.731180392086696856e-02
-1.796758277309198903e-02
-3.877455757791100494e-02
-2.640808750697743248e-02
-3.820025815230600370e-03
5.547552958677414228e-03
1.094806380897315329e-02
4.203383474620371596e-02
9.953556678012595582e-02
1.284749813633902782e-01
6.948313974400342763e-02
-3.793376859884686758e-02
-3.924639630279056629e-02
1.559675891097830613e-01
3.839030943580082345e-01
3.739422729903398301e-01
1.316925968943866709e-01
-1.614675215477713588e-02
1.538871658785999630e-01
4.718874139887955232e-01
6.119429861482355015e-01
4.722867152774581911e-01
2.070598747243075632e-01
-8.823341039483040271e-03
-1.198494409762980301e-01
-1.476035514458629017e-01
-1.222242008537700320e-01
-7.176403445542564596e-02
-2.970328927453719930e-02
-2.469113635632407683e-02
-6.233597657380184759e-02
-1.216012576336033824e-01
-1.718876067299373867e-01
-1.912524101006403410e-01
-1.719423986440405672e-01
-1.243974486948937752e-01
-7.565425709180799430e-02
-4.615891395882898429e-02
-3.220670960449207448e-02
-2.537585889401241385e-02
-3.314139642100907834e-02
-6.132694267210196670e-02
-9.594839958118958623e-02
-1.201913827027514398e-01
-1.268948402743576842e-01
-1.047761550115892948e-01
-4.360192183627798618e-02
3.427021350244725817e-02
7.852977565918681235e-02
6.851802835693314442e-02
3.732052083660885450e-02
1.284188948170880695e-02
-2.267629646960247006e-02
-8.108960374937669580e-02
-1.259193437288979034e-01
-1.185080249928607693e-01
-7.256017337988784899e-02
-3.392905544449045796e-02
-2.227623413505609370e-02
-1.760647753372816815e-02
-2.717133349377366495e-03
7.504243423736667133e-03
-9.016773470584393130e-03
-4.737508154852916598e-02
-7.905424281277735610e-02
-7.756497285492082450e-02
-4.106880535892843548e-02
-3.018757933523063923e-03
-7.794731663891607543e-03
-4.464832977202695674e-02
-1.638894149807120643e-02
1.533998712025720357e-01
3.559365186780775181e-01
3.548507058200240927e-01
9.694864607644790300e-02
-1.530302042773504512e-01
-1.124794749697878710e-01
1.800841620286149081e-01
4.394121995842137918e-01
4.646606393448338701e-01
2.918443363648901556e-01
7.438916575626006167e-02
-7.908534596374688919e-02
-1.505464701437370656e-01
-1.730809486156866250e-01
-1.790660700319619825e-01
-1.720508999281926965e-01
-1.391864123605154879e-01
-8.946940710494399873e-02
-6.471373187021431383e-02
-9.689909985766986811e-02
-1.664885763586936851e-01
-2.204239345435227149e-01
-2.242030109247931946e-01
-1.881932543856472684e-01
-1.467939264475713046e-01
-1.185645499943456804e-01
-9.565147329163160850e-02
-6.795499899363166563e-02
-4.129074945430030730e-02
-2.957806302814676783e-02
-3.924300229721226080e-02
-6.359040133982980791e-02
-8.694477566870710550e-02
-9.200785136896645622e-02
-6.310648325960394045e-02
1.313547074431401299e-02
1.313863974953577984e-01
2.415245782954449083e-01
2.659372739737247415e-01
1.734577437481283346e-01
2.443141302188688718e-02
-8.422924355152583420e-02
-1.143847991462888097e-01
-1.073852005504686291e-01
-1.145169515242633607e-01
-1.369612848126635085e-01
-1.444909910302830114e-01
-1.205272397144332153e-01
-7.126115363853206819e-02
-2.168119479704509397e-02
-1.305278602615468457e-02
-6.549401797417302162e-02
-1.325983451792502321e-01
-1.366786621430903237e-01
-6.886428434824798384e-02
-1.420641535414810322e-02
-3.665592302782525597e-02
-5.542338583618013764e-02
8.880490566873042169e-02
3.847460125600596914e-01
5.514214034323594582e-01
3.564955651758657806e-01
-1.359846268729545532e-02
-1.381377821230390657e-01
1.050312395878618271e-01
4.293904491579342286e-01
5.331785604648704435e-01
3.951662989811467463e-01
1.891985824511727421e-01
5.738199726259227834e-02
1.013205843210524849e-02
-1.622189552192354611e-02
-6.319958479949053243e-02
-1.185117437304659682e-01
-1.529489078461626073e-01
-1.579984977328844631e-01
-1.426783288037868636e-01
-1.191699971011861148e-01
-1.022072985853666460e-01
-1.027802195690416392e-01
-1.168968045573255815e-01
-1.304965738428301991e-01
-1.334492717482792246e-01
-1.272732941572592702e-01
-1.195913688887824261e-01
-1.096040301961420660e-01
-8.891471054521794815e-02
-5.740464490762562516e-02
-1.954870577836968770e-02
3.034329057000463570e-02
9.006357110563276147e-02
1.251659799133211237e-01
1.040487184862723402e-01
5.598023325743994860e-02
5.295806629324656400e-02
1.197787422908158650e-01
1.892137898501567439e-01
1.770789226465278865e-01
8.696466642626035637e-02
-2.741774305194313172e-04
-2.521849291154775255e-02
2.914283577713167386e-03
3.651100627081074745e-02
3.423757597360925498e-02
-7.093858258551384924e-03
-4.716473020929459053e-02
-4.101048940017853334e-02
1.006154890806305185e-02
5.899560784228503191e-02
6.687452615356163921e-02
4.199087903864499871e-02
2.276621769192466518e-02
3.142337929926770218e-02
4.453533695878157672e-02
1.410876628850723721e-02
-6.136760310310862554e-02
-8.676566302228985728e-02
5.598563550280799550e-02
3.235041733484397275e-01
4.573531404226608421e-01
2.691466177283853844e-01
-4.972549095609381242e-02
-1.200749962079253330e-01
1.366594136426970696e-01
4.218154580170907497e-01
4.551604010150821500e-01
2.619308046132307610e-01
5.626549714427891979e-02
-3.018963537723900678e-02
-3.586908461689008315e-02
-4.411487315591609837e-02
-7.265519573778610185e-02
-1.012158045173738308e-01
-1.308481742601728115e-01
-1.753993047730073584e-01
-2.294285581691947185e-01
-2.694270449443149085e-01
-2.732463524322216175e-01
-2.363545011134167428e-01
-1.798162916985167892e-01
-1.354180248589335611e-01
-1.166766434971048538e-01
-1.134261071587764069e-01
-1.138823712317870024e-01
-1.176587838190223528e-01
-1.227747997934371949e-01
-1.158142050418400071e-01
-9.260283978754836609e-02
-7.602126509316994851e-02
-8.641009426506700286e-02
-1.043095190013617057e-01
-8.867469878725998955e-02
-1.976042873897193575e-02
8.838446781532502405e-02
1.884090618066666944e-01
2.112997736109058777e-01
1.290168551063884672e-01
7.856424734043819524e-03
-5.292777117547101118e-02
-2.983613300986408604e-02
2.057634627068040400e-02
4.409448411249462102e-02
3.158101872961307371e-02
-3.211517031524923835e-03
-4.852454623746598611e-02
-9.464566961074939722e-02
-1.278632728841385680e-01
-1.331560642308614040e-01
-1.035317086641477924e-01
-4.643809682388596455e-02
1.982009667715440085e-02
7.321506250099991953e-02
9.104086008681486208e-02
5.689014189782519437e-02
-1.565254006965885805e-02
-5.267614921171968889e-02
5.117157565877025749e-02
2.917088507497737626e-01
4.561991692048349423e-01
3.205551808538543157e-01
-2.048387891781255910e-02
-2.081494807457139606e-01
-5.367756360902575796e-02
2.595197395476022129e-01
4.329282054713546879e-01
3.594328002553362489e-01
1.481702284381865853e-01
-4.250648589288855139e-02
-1.347935035239732626e-01
-1.383518279611004320e-01
-9.705291282477869486e-02
-5.290529554575024163e-02
-4.305458595692163853e-02
-9.644488930027902973e-02
-2.064616612042614874e-01
-3.157676920717711333e-01
-3.595820714324928780e-01
-3.252278098905606041e-01
-2.506496842284110516e-01
-1.812354986233992993e-01
-1.457097191568109407e-01
-1.458269462160451946e-01
-1.517667023641386392e-01
-1.311510154601502331e-01
-9.100891358067901560e-02
-7.136859653924651492e-02
-9.478105434387276707e-02
-1.395983627719249165e-01
-1.653222773627237852e-01
-1.507523022658238954e-01
-1.009853155169238431e-01
-2.326907641980152305e-02
8.507037980235376828e-02
2.057192697825250827e-01
2.744240957768266931e-01
2.309905028368513802e-01
9.352952014041754358e-02
-5.300798558487351819e-02
-1.354889683189134664e-01
-1.375832375187983347e-01
-8.962925597949177037e-02
-3.799254581070556774e-02
-1.170586788848081150e-02
-6.219553333554378623e-03
-1.921649581639869181e-03
6.553997393198740702e-03
8.056012632242318811e-03
-5.192665112620449379e-03
-2.509743684440371436e-02
-3.190384187497368601e-02
-1.072134805883091790e-02
2.578534839913977292e-02
3.460310179444506251e-02
-6.707625119252632988e-03
-2.874693359314870605e-02
9.805042888464204909e-02
3.800831546980979470e-01
5.836370364392244880e-01
4.590936661785757766e-01
1.030079452385466998e-01
-9.872015404905991331e-02
5.863093517051942705e-02
3.728286153190569219e-01
5.222878313609429224e-01
4.120009277752618715e-01
1.796214758871286787e-01
-1.530311554875130736e-02
-1.188056169338439910e-01
-1.542828684408461271e-01
-1.540310392261703132e-01
-1.351271025631599343e-01
-1.125643510850420081e-01
-1.024400093429737035e-01
-1.024725657339637802e-01
-9.360806302399563017e-02
-7.432752495193498121e-02
-7.027573089606935219e-02
-9.912824663471536679e-02
-1.476007280515249653e-01
-1.863699384780238000e-01
-1.906952678390715361e-01
-1.555320846793326883e-01
-1.018087254380195122e-01
-5.547011704186471243e-02
-1.923679998970390104e-02
2.192120291521477277e-02
6.588511593567106250e-02
7.829482085829703175e-02
3.157696898849290945e-02
-4.326219528783267765e-02
-6.788512244014963115e-02
9.470681117220595968e-03
1.537040751351188284e-01
2.585130101709730566e-01
2.392143220698380313e-01
1.213424149491305060e-01
1.297273484241556751e-02
-2.136485638846676027e-02
-2.278912460167550891e-02
-5.923690934209967229e-02
-1.301180177249391390e-01
-1.784324280839490462e-01
-1.620979701451480126e-01
-8.847551868929781627e-02
-5.515134903435900404e-03
2.454386078359061668e-02
-3.279461008600235289e-02
-1.433354075205482692e-01
-2.168581459448530036e-01
-1.902926821260533530e-01
-9.692919126620401504e-02
-2.934029098491708690e-02
-2.602395891572892653e-02
-5.599828879113971994e-03
1.443566221684852713e-01
3.747888563340021073e-01
4.489680062218289747e-01
2.314578333374055774e-01
-6.742801320853236691e-02
-1.122428846839591821e-01
1.422244381507606903e-01
4.245960103688773968e-01
4.886847423412409297e-01
3.403546761427959089e-01
1.467134488134714809e-01
2.881789701998388464e-02
-1.966288888167163837e-02
-5.875192415597139950e-02
-1.117995752296117584e-01
-1.577245757320505370e-01
-1.775720522178640126e-01
-1.774154929349874288e-01
-1.658646734733089656e-01
-1.395890160041466377e-01
-1.047915783157124248e-01
-8.476554111109359246e-02
-9.023643580721341095e-02
-1.070238272410415498e-01
-1.219875669207994562e-01
-1.333022381623908681e-01
-1.303815450442741553e-01
-9.539112967969901047e-02
-3.327901293545972722e-02
2.322445229287082441e-02
4.588866569408878160e-02
3.464998609510809569e-02
5.893178103869224638e-03
-2.996879198652658421e-02
-6.512808890783151894e-02
-7.226907779973201773e-02
-1.602351874128500261e-02
9.097876329632409442e-02
1.710625860176303858e-01
1.576283755313021562e-01
6.990938654211055481e-02
-1.754458442807696472e-02
-5.950355251530444617e-02
-7.001551541043340987e-02
-8.255717672346063463e-02
-1.063926996138199188e-01
-1.279751226235653905e-01
-1.336688436280902836e-01
-1.116170380620735980e-01
-4.977685000611078991e-02
3.842554119842351429e-02
1.034957365055966805e-01
1.100506350653048387e-01
7.823706335502046694e-02
4.384824568235069775e-02
5.624679692288299220e-03
-5.521528089108718867e-02
-1.148337154091083473e-01
-9.054084275046922481e-02
7.167967676894494711e-02
2.665888263249072687e-01
2.809011288285501728e-01
7.163359407200561857e-02
-1.170581746041306909e-01
-4.412285696555000997e-02
2.259006006100132413e-01
4.254589648647884581e-01
3.989540529576795502e-01
2.188314088362365017e-01
4.386927301758743875e-02
-4.407329339869466706e-02
-6.013256007521296936e-02
-4.967553708544158314e-02
-5.012945975507770990e-02
-8.619698059749358876e-02
-1.536343259179032417e-01
-2.131335535057667097e-01
-2.269861828367142065e-01
-1.967170620623203969e-01
-1.513783419317602519e-01
-1.118853066709706856e-01
-8.632956212521464279e-02
-9.028050926412062305e-02
-1.335958569916468330e-01
-1.776767891873313188e-01
-1.559036619801774659e-01
-6.842796351368979346e-02
-1.518717249889590080e-02
-8.698960270058499200e-02
-2.298108911836583557e-01
-2.753725139232391927e-01
-1.435333513535416161e-01
5.409980460843831496e-02
1.654817061897652375e-01
1.726222577978602513e-01
1.635108804157681672e-01
1.939964930086295058e-01
2.265222979443052009e-01
1.969569264212113480e-01
1.093793505240165526e-01
2.995108757454881948e-02
3.916747765505858292e-04
1.260088340912395889e-03
-3.677088671304553844e-03
-2.296962652994784942e-02
-4.130984442966250531e-02
-4.873781803605175406e-02
-5.348916098945226405e-02
-6.343412306827679592e-02
-6.723863315345904312e-02
-4.818665682976458475e-02
-7.714598981066947761e-03
4.015923755470639928e-02
8.474274621887337156e-02
1.071432856722558391e-01
6.987489837627984535e-02
-3.506925395286904917e-02
-1.138635975013650992e-01
-1.075045110543925223e-02
2.894751043402918333e-01
5.325842947744582334e-01
4.369615267472909403e-01
8.755866312650736893e-02
-1.213473491148453764e-01
1.723422130152324483e-02
3.013136537166943851e-01
4.292981491987549747e-01
3.284026746551653164e-01
1.321107775618487190e-01
-1.938985106360507915e-02
-8.703553168260876050e-02
-1.066675663141588154e-01
-1.211866978253641480e-01
-1.435184892516990773e-01
-1.638838832730176442e-01
-1.868293770849014102e-01
-2.498887301770736924e-01
-3.624134787528435209e-01
-4.430981968902805157e-01
-4.044099150622006977e-01
-2.755917670718098789e-01
-1.535069562986650926e-01
-7.771587230049022132e-02
-2.894402162111937848e-02
-1.816528272569371350e-04
-3.085599730230800808e-03
-2.707402927083389643e-02
-4.420797334395928230e-02
-5.136527190676822008e-02
-6.696768298918265305e-02
-8.914543294496606041e-02
-9.369923838618779421e-02
-6.721926437109290720e-02
-9.981160643966605073e-03
8.138758901567809401e-02
1.947156687395455998e-01
2.731301601673490898e-01
2.498009891905310365e-01
1.225862470186170061e-01
-2.900826814134187595e-02
-1.100884603041549226e-01
-9.202472403264855272e-02
-3.050791732307636672e-02
-1.200853752068443102e-03
-2.468826797160986533e-02
-6.562931706115140984e-02
-9.039183416272571214e-02
-9.825081494571975826e-02
-9.880851653998390383e-02
-9.016699138443856620e-02
-7.160752504045886369e-02
-5.196548409598987506e-02
-3.027420459910333192e-02
2.363319523208041138e-03
2.304441768805194635e-02
-1.128857922970798351e-02
-6.641645675470586596e-02
-9.445181522895073137e-03
2.120627941742709299e-01
4.105932546666448690e-01
3.397146729581368430e-01
4.899544252320623544e-02
-1.274695813704914416e-01
1.292702887156827775e-02
3.095258058279310998e-01
4.683664934875796382e-01
3.801522815233205344e-01
1.619229418730767922e-01
-2.129290227542153177e-02
-1.071667280819974533e-01
-1.319544044347351341e-01
-1.383985407614778951e-01
-1.275834706666132412e-01
-9.136014967724180591e-02
-4.976935104380614261e-02
-3.248198603992803746e-02
-4.210970927069616204e-02
-6.484650861887401863e-02
-1.085891326510718402e-01
-1.910794619286794171e-01
-2.857585644062341501e-01
-3.246914695365401005e-01
-2.734170693045971379e-01
-1.688504071701183995e-01
-7.262468166471597320e-02
-1.641011195136912390e-02
4.336685976710750318e-03
9.196306862223280199e-03
1.021737699696888962e-02
2.570246147167725911e-03
-1.545223708661884986e-02
-1.506832131994876103e-02
4.931058055632443760e-02
1.823257381935885768e-01
3.000095625238340946e-01
2.768362899719726267e-01
9.810714392075695067e-02
-7.965280093567148056e-02
-1.111318570181833443e-01
-3.776331878124622454e-02
1.222888776724018883e-02
6.551842451580774940e-03
4.125837108952621485e-03
4.048660024686814157e-02
8.919613485519009566e-02
1.162661574661445624e-01
1.238530354296935171e-01
1.250682610607707079e-01
1.098175323849592266e-01
6.482921383421355599e-02
1.206163551857472246e-02
4.293800771425659206e-04
5.046696369410857280e-02
1.163092477731072494e-01
1.295648321372609157e-01
1.063986996076537322e-01
1.723076418707054358e-01
3.852807679433211674e-01
5.587065683757524992e-01
4.402741557016346952e-01
9.081503893151346429e-02
-1.306945962033261299e-01
-9.422736714113009310e-03
2.929356494229054531e-01
4.804048304728819052e-01
4.336118734129951746e-01
2.428523555084833307e-01
5.043456793886456901e-02
-7.136754014411329783e-02
-1.276282703147860464e-01
-1.485266774823970348e-01
-1.576348602969124268e-01
-1.856830827883704793e-01
-2.644786133663714067e-01
-3.644583634704778308e-01
-3.907943326781993520e-01
-3.047114215451919850e-01
-1.882065259051036721e-01
-1.292139242039050118e-01
-1.206575434924700707e-01
-1.213242831819563300e-01
-1.302784059219887491e-01
-1.521288484310724110e-01
-1.549430321562561552e-01
-1.113720329850439172e-01
-4.551703831783927845e-02
-2.733543848596772016e-03
4.314631775960467951e-03
-8.118734703894136401e-03
-3.168331694391274267e-02
-6.484391824755236788e-02
-7.963640307813808772e-02
-2.731980848213098195e-02
9.684603852770426458e-02
2.159118712935710616e-01
2.377790501421207792e-01
1.523028479960127635e-01
3.161214212489762976e-02
-5.226498319171975215e-02
-8.198428126794836401e-02
-8.098043498227988635e-02
-7.435791868375243863e-02
-6.921796322990475536e-02
-6.065023988171362734e-02
-4.515834123924006988e-02
-2.538005720265704146e-02
-6.069912950486342634e-03
7.006368087344917554e-03
6.286782589204484122e-03
-7.488366568656668401e-03
-1.990189226551698082e-02
-2.592929537504639129e-02
-4.819029682853775975e-02
-9.838960818245912066e-02
-1.120245753800995225e-01
2.535832232313652360e-02
3.035277650735868082e-01
4.752110534752754800e-01
3.019919956952424878e-01
-7.172845303345114221e-02
-2.292552116587379951e-01
-9.897420964890546458e-04
3.566691762537367305e-01
5.113875790297575108e-01
3.933709229998641477e-01
1.727575418573207011e-01
2.727401085028144725e-02
-1.231346169026715023e-02
-2.394257731698242603e-02
-7.021563289307855560e-02
-1.442551341431448642e-01
-2.108348618436935440e-01
-2.566282010128432267e-01
-2.853433444786404594e-01
-2.888435395560610131e-01
-2.533709751580428549e-01
-1.876066559317274562e-01
-1.243066978325771677e-01
-9.647673351203679692e-02
-1.161166043606451509e-01
-1.665668458879588920e-01
-2.128896461178802768e-01
-2.294577076418145567e-01
-2.191301234136123210e-01
-1.972874349525857995e-01
-1.647511511795353434e-01
-1.169930282776003583e-01
-7.272565480753413747e-02
-6.254206114987204135e-02
-8.525659758212660033e-02
-9.476922190468993479e-02
-3.967431962924972827e-02
7.581050026325689140e-02
1.734541812187753163e-01
1.720526152238631423e-01
8.012578003164616547e-02
-1.329768943355142188e-02
-4.042872355275069218e-02
-1.494978742418401688e-02
1.047000332786938298e-02
7.604359829921074343e-03
-2.098530760237921761e-02
-6.079868033026036844e-02
-8.666911231221449685e-02
-7.327207366149782186e-02
-2.522904219480726767e-02
2.086730486392471620e-02
3.784122797537739502e-02
3.785217011199359244e-02
4.752960586065169135e-02
6.153851158019503498e-02
3.893448449748099227e-02
-3.991788896382622576e-02
-1.055230309519548104e-01
-2.627689155918873365e-02
2.105107044025780194e-01
3.712673167112864880e-01
2.182319322704000530e-01
-1.104542521457003434e-01
-2.173386724822881366e-01
3.422934823990890496e-02
3.747729762006006826e-01
5.042755827944174207e-01
3.862865152754247355e-01
1.693469444981057226e-01
-5.947555943465760581e-03
-8.676497632367782820e-02
-9.295071359453797866e-02
-7.022948802423241432e-02
-4.972171467898026803e-02
-5.093853492766349522e-02
-1.037340964002814447e-01
-2.238233052502848763e-01
-3.587945773180318265e-01
-4.086425946301814327e-01
-3.375378308559923712e-01
-2.208409055704643187e-01
-1.433780506560607682e-01
-1.076439966056858821e-01
-7.509065263276629154e-02
-3.976740269955834212e-02
-2.834384140887634060e-02
-5.381564500857917432e-02
-9.137791892122970605e-02
-1.060252860803923003e-01
-9.362261964742375764e-02
-7.457922187554653914e-02
-5.608408797569213594e-02
-2.694533157151471348e-02
2.012375300473301029e-02
8.461369042541995455e-02
1.594988087283684963e-01
2.167641951870439565e-01
2.163585543190897631e-01
1.492169677597247057e-01
5.530628309054658187e-02
-7.991065158148749625e-03
-1.045640715243069743e-02
2.684571253338568358e-02
4.924737316150847727e-02
2.432806023122851408e-02
-2.672602485870285288e-02
-6.904494744819687779e-02
-1.004810553833648673e-01
-1.272226258530808896e-01
-1.276840780503386008e-01
-8.534572691921994692e-02
-2.371059388204241336e-02
2.793761305202849612e-02
6.441407248094142834e-02
7.635661192592299584e-02
4.160541831055403206e-02
-1.451998177594781766e-02
1.505582529462412555e-02
2.091153586388829200e-01
4.488813303736864380e-01
4.737163969978869238e-01
2.053924914993330575e-01
-8.889999206881887828e-02
-8.861511968259404293e-02
2.006575246943597124e-01
4.731809935957945745e-01
4.792140700388326513e-01
2.580724786857807596e-01
2.568555905140593870e-02
-7.635089655012090859e-02
-7.017495798586097233e-02
-4.389746547144830757e-02
-4.487747896110842738e-02
-6.364903272088404118e-02
-7.509021116676742325e-02
-7.658043831026745130e-02
-8.829534270168067078e-02
-1.227001321959110686e-01
-1.667360231668952864e-01
-1.986552337240102273e-01
-2.099499998151466429e-01
-2.039392736131603323e-01
-1.825253443977350454e-01
-1.439439159652270983e-01
-9.400880127079661031e-02
-5.068035989725789420e-02
-2.873404844716444251e-02
-2.623113467747786864e-02
-3.309007712641441612e-02
-4.315843868733738875e-02
-5.101518133243680697e-02
-4.591653924857043434e-02
-1.424096976208091142e-02
5.304303248850442826e-02
1.464444786455513514e-01
2.262402307354610675e-01
2.421617125599399289e-01
1.806714113587019610e-01
8.213184057385609915e-02
1.744770037058306598e-03
-3.427697996348517268e-02
-3.228256243075249693e-02
-9.351079431499185329e-03
2.342270261389686054e-02
5.893162236357584599e-02
8.244467574472902349e-02
7.586149185128598926e-02
3.825093519374643536e-02
-1.085533334460426352e-02
-5.032998530964794687e-02
-6.336674547376659750e-02
-3.360692683103091993e-02
3.158873023915036854e-02
7.885285049509598021e-02
5.128431675434748371e-02
-2.542284780249975951e-02
-1.843204518311978082e-02
1.859075733361957861e-01
4.847472665391999724e-01
5.801877253811760227e-01
3.264199444366052694e-01
-2.540673554383718336e-02
-1.007669324119992854e-01
1.447287096185022326e-01
4.173807411340005880e-01
4.686842188694224642e-01
3.191299709910615512e-01
1.273392619374726920e-01
-1.414747883940787633e-02
-1.089649301452280256e-01
-1.723472697184170455e-01
-1.985443143541162914e-01
-1.936208219475528680e-01
-1.807474759335788161e-01
-1.673658233690661912e-01
-1.429087027601959048e-01
-1.146558143194489621e-01
-1.136200975508603328e-01
-1.526233524462337343e-01
-2.030604235781479083e-01
-2.255411085277825856e-01
-2.075106220908193300e-01
-1.649137244772235222e-01
-1.205671722863005668e-01
-8.504090613560237599e-02
-5.356232242157245305e-02
-2.130923026695498781e-02
3.403371525181891986e-03
5.181002720975038008e-03
-2.351050499385597820e-02
-6.846103346538702505e-02
-8.883635147909518803e-02
-3.912215414535133440e-02
8.606939680577298246e-02
2.261731922560471508e-01
2.903188414346585811e-01
2.372577281099975677e-01
1.127742673830782055e-01
-3.930098774177298582e-03
-7.343820730720951317e-02
-1.055743862309140857e-01
-1.225097543795459487e-01
-1.321970480937403047e-01
-1.270569734789277760e-01
-9.862147804421192432e-02
-5.728909213746494200e-02
-3.054960160384588216e-02
-2.887675101990173215e-02
-2.953334339597284489e-02
-1.380360185054522147e-02
3.081672535880340680e-03
-2.227100859298291463e-03
-3.596495445813560621e-02
-9.210142729065136369e-02
-1.311130992451105537e-01
-6.145661865123773493e-02
1.566029769147109507e-01
3.652821643896227433e-01
3.172529834399158144e-01
1.339177023773593933e-02
-2.276798276981831515e-01
-1.481318821784305406e-01
1.468425663152060912e-01
3.581991449758523682e-01
3.355658671882215671e-01
1.660201086980948593e-01
1.109557004861528445e-02
-5.295591576491939789e-02
-5.606231817275431073e-02
-6.342855262094311553e-02
-1.073377844903197348e-01
-1.731103667518260614e-01
-2.274981091384555842e-01
-2.446546542057908280e-01
-2.161683028723148658e-01
-1.611381485698424598e-01
-1.202394329733581513e-01
-1.161198749184271656e-01
-1.291376242566847354e-01
-1.297842570245250349e-01
-1.158574028714756537e-01
-1.006445877441025094e-01
-8.686752161949135020e-02
-7.034491247314275664e-02
-5.168433982897328860e-02
-3.037920582155394233e-02
-1.746145492287427131e-03
3.026004675662132687e-02
4.721280492773764770e-02
3.326175576205031570e-02
1.508508400638420427e-03
-3.333927802625974782e-03
5.378036018727633955e-02
1.480827056665803831e-01
2.037551050688279075e-01
1.710820028693082195e-01
8.165641323982006372e-02
5.873145481555180902e-03
-2.431836898025235491e-02
-2.792091213918070428e-02
-3.545009649282811204e-02
-5.932336866544199450e-02
-8.867712600638326392e-02
-1.019890877363275328e-01
-8.830173332484841930e-02
-5.407498111084889370e-02
-1.169756449056174111e-02
2.601194562649296674e-02
4.453693280929067744e-02
3.915767422747153115e-02
2.120925182774529433e-02
-5.367420360427796466e-03
-5.254172071272728006e-02
-8.978217672285136730e-02
-8.583289238622962558e-03
2.389015800411515289e-01
4.629388982033511013e-01
3.924776413385501761e-01
7.074972732433025546e-02
-1.357554053790100690e-01
-5.752090132203672990e-03
2.827835175069934315e-01
4.262141970744008357e-01
3.329171071122977721e-01
1.350191630627727568e-01
-9.167177431129613224e-03
-5.347581446939200095e-02
-4.909156570875149173e-02
-5.528362051167960006e-02
-8.461073439653522821e-02
-1.188449823163396507e-01
-1.482603733299166782e-01
-1.762527114650319082e-01
-1.999780009423441363e-01
-2.148437072255022784e-01
-2.366746737264039113e-01
-2.882796311310752424e-01
-3.509910330137197554e-01
-3.611946462560645665e-01
-2.817336428456907460e-01
-1.550070750257817043e-01
-6.167012643916719439e-02
-4.034202307238025226e-02
-6.437387873706615360e-02
-8.618045969433343889e-02
-8.180335801803370610e-02
-5.324143696345950971e-02
-1.212295617293191428e-02
2.943575696616775039e-02
6.598586429727369695e-02
1.034267265167522903e-01
1.470158950252767882e-01
1.806438421791518034e-01
1.727502483365592201e-01
1.141533978862562249e-01
3.636446472476241587e-02
-1.806155098620081112e-02
-2.984362725795611931e-02
-7.276921727434612110e-03
2.160347551431312726e-02
2.349946667211048196e-02
-1.340445862044564555e-02
-7.231034935692512433e-02
-1.287640302007244386e-01
-1.596305272022303656e-01
-1.439592150164714368e-01
-8.473881963798186867e-02
-1.616196006335517132e-02
3.120516483776333838e-02
5.050916229102633132e-02
3.204176535317406621e-02
-3.894560005140575848e-02
-1.158645505708788687e-01
-7.078800001102864003e-02
1.518808213210172675e-01
3.702513222805751680e-01
3.181370531229469334e-01
1.616518123573340571e-02
-1.891711870136212892e-01
-4.290316688791494248e-02
3.143738849545577585e-01
5.375391475805035846e-01
4.590319708871760107e-01
2.033554492160875582e-01
-1.393806620523502932e-02
-9.825015408428594554e-02
-8.634238660599953541e-02
-4.747959376687489741e-02
-2.817115108468891405e-02
-4.643848611258463016e-02
-9.210432088568500097e-02
-1.348721948188560948e-01
-1.504452277615829225e-01
-1.454366231652267638e-01
-1.450890406570812807e-01
-1.522094531049380806e-01
-1.419635831783245261e-01
-1.039250156071258452e-01
-5.856501806977078978e-02
-2.579692612855740905e-02
-6.118496689561918160e-03
2.134891522703914312e-03
-9.453864828258509712e-03
-4.307471693187141237e-02
-7.945053226269080393e-02
-9.342531949970143967e-02
-7.882758389322602754e-02
-4.713840568334838610e-02
-3.011639576798646155e-03
6.847014305646201282e-02
1.719258232996876967e-01
2.602779684916658454e-01
2.609640198385372312e-01
1.600902411364399647e-01
2.767492519366574963e-02
-5.615963029838998144e-02
-7.275094960311656589e-02
-5.386882961193436431e-02
-2.805362005534213499e-02
-1.739118345305660368e-03
1.378443568237164296e-02
-8.099112920090016654e-03
-6.810503228876008119e-02
-1.176247117755638283e-01
-1.138546233817738368e-01
-7.537067154200088881e-02
-4.837459310352245495e-02
-4.145499227959054123e-02
-2.809253311427033217e-02
-1.949010452334066189e-03
9.256858529495495813e-03
9.693027725427724728e-03
8.037014741394077344e-02
2.719074295456014867e-01
4.490928673620537270e-01
3.872437412158112879e-01
9.195853362185059388e-02
-1.344239433358970226e-01
-4.711810981782452168e-02
2.506256984872221594e-01
4.583052993974923717e-01
4.166803752276418971e-01
2.131379792970902187e-01
1.760304143720984107e-02
-8.584733243432947358e-02
-1.143891219800796388e-01
-1.192850522276425601e-01
-1.318959271976583858e-01
-1.443141045663559052e-01
-1.307981933359435855e-01
-9.052307157039547747e-02
-5.469992133294007686e-02
-5.028095303158323232e-02
-7.525350288355273087e-02
-1.108816708073577656e-01
-1.434723434100292905e-01
-1.672866306777497092e-01
-1.713431785709062516e-01
-1.385173210539989430e-01
-6.741874763573850460e-02
1.424945362939350306e-02
6.723231318467293161e-02
6.805270737436160122e-02
2.118855034452383004e-02
-4.627105737411296021e-02
-1.002413200441153729e-01
-1.130438963073425590e-01
-6.715327781755268954e-02
3.994381137221046651e-02
1.808253761462067788e-01
2.917062300506952366e-01
3.049998053116816377e-01
2.099193459398744355e-01
7.394811694827559123e-02
-1.502739817740675332e-02
-2.736469001388001226e-02
-3.813434122529663593e-03
2.082925305531344376e-03
-2.077977640700459996e-02
-4.096572114295071732e-02
-2.644987198363191530e-02
1.703774748801053368e-02
4.756244398605078555e-02
3.117278743766134161e-02
-1.859128543575725573e-02
-5.516394678832563930e-02
-4.915543105318029987e-02
-1.969415608359479167e-02
-1.753372907413765225e-02
-6.188179113468637166e-02
-8.115757636275965081e-02
4.155905227173187916e-02
2.960185924223510678e-01
4.546181343675979036e-01
3.037525307540330788e-01
-3.076543226436295048e-02
-1.872122154036595099e-01
-1.711545799309133892e-02
2.678333564410379508e-01
3.971067683529382331e-01
3.137605755896576420e-01
1.414070489449035239e-01
6.602558228438713817e-03
-5.990019175087460401e-02
-9.599752147062123875e-02
-1.389533997769272777e-01
-1.907645272194191388e-01
-2.296990805023415849e-01
-2.409861781207139064e-01
-2.334569877647082459e-01
-2.237597307129147173e-01
-2.082978699210781270e-01
-1.688582006967909721e-01
-1.110332145236621187e-01
-7.338807505751103466e-02
-8.174552584922183118e-02
-1.096393026410164145e-01
-1.096182582799288957e-01
-8.009651231444724073e-02
-6.368803820360806334e-02
-7.281445631357455484e-02
-6.903910051543143966e-02
-3.197660082616500532e-02
4.189122973842086817e-03
-1.091071080230269358e-04
-3.883557356660194415e-02
-6.452665489358062889e-02
-2.774760710830815463e-02
7.609638949800144603e-02
1.848325415083725276e-01
2.154303863833665900e-01
1.489003966377102639e-01
4.586458679940905170e-02
-2.838367465359354497e-02
-5.849108279762185725e-02
-5.934358707642112957e-02
-4.826247625270205233e-02
-4.343350763563508937e-02
-5.489241568456479370e-02
-7.061324281572789463e-02
-6.855371065253794416e-02
-4.176901422466815228e-02
-5.009227460803595579e-03
2.073732602743509970e-02
2.992056749620182476e-02
3.241982195435903769e-02
1.344783896394641590e-02
-8.336910586634005416e-02
-2.622840349454907960e-01
-3.763416898031308189e-01
-2.400863935079116385e-01
1.111050812180768982e-01
3.698573765241575662e-01
2.796540035391447132e-01
-2.583148568731487987e-02
-1.689792084375865144e-01
1.818272355261916357e-03
2.800932224397917891e-01
4.082575073870614024e-01
3.290869118051230613e-01
1.518541491592862724e-01
8.692129978272455926e-03
-3.905380724767967826e-02
-1.939402666626719243e-02
-2.709948613922986450e-03
-2.937657224303327416e-02
-8.688841093996073350e-02
-1.513486342833007536e-01
-2.227472202897010090e-01
-3.037891653995902774e-01
-3.613650029207032266e-01
-3.464103865678311300e-01
-2.620099833041058535e-01
-1.721049987427693828e-01
-1.265291637860228302e-01
-1.176343567500093140e-01
-1.187452296911684496e-01
-1.205418335336654462e-01
-1.192781041236652129e-01
-1.028972707476671078e-01
-6.070815002517439274e-02
4.714264490808615232e-03
7.555864021911284922e-02
1.281386633414531018e-01
1.489160996201469855e-01
1.417516893059577454e-01
1.298393981260027308e-01
1.478350060991597270e-01
1.971209647247897379e-01
2.180248910164085396e-01
1.604869481892281513e-01
6.532953589347251233e-02
1.776373845191894091e-02
4.126845399866038711e-02
8.635469897964920261e-02
1.029479812139010853e-01
8.150253675769351946e-02
3.672316300780987391e-02
-1.089519420698448725e-02
-4.017674445493536056e-02
-4.382526063753408585e-02
-3.453316058584884884e-02
-1.977384478032487986e-02
1.154346008003313481e-02
5.842224656391439841e-02
8.735149368457507946e-02
6.139651000385665247e-02
-2.373303306030990698e-02
-1.210384246456204238e-01
-1.260479032238852604e-01
5.541544273144594773e-02
3.552615927773032367e-01
5.174309811009046856e-01
3.610689785626750581e-01
4.646416155377121326e-02
-7.930589200699364461e-02
9.886418218890677401e-02
3.508787214452831482e-01
4.071671883484883625e-01
2.396155901314909187e-01
1.888091633902137106e-02
-1.010432502133979948e-01
-1.022627092811347616e-01
-5.950586353867910738e-02
-4.442271716124941011e-02
-7.665772220289275574e-02
-1.299604310192037093e-01
-1.696905593793324729e-01
-1.921308556013849589e-01
-2.195464542198483915e-01
-2.534262839635219033e-01
-2.609303652405797203e-01
-2.214584217426194546e-01
-1.587215341362781529e-01
-1.105114403574129212e-01
-8.769500108278117934e-02
-7.463691070112413173e-02
-5.463493630265097573e-02
-2.694323256284654813e-02
-6.270578605480562132e-03
-6.401352288693697330e-03
-2.191965224241539806e-02
-3.502477154705865153e-02
-4.210148295221109033e-02
-5.082957046967948728e-02
-4.148825297432950227e-02
3.056935050141011342e-02
1.614097778015837203e-01
2.620062359042792943e-01
2.436102364234957740e-01
1.222352732486706450e-01
-3.756481737930063292e-03
-6.276709586084167070e-02
-5.745902233672145476e-02
-2.475043296643635038e-02
5.261821556650101740e-03
1.541097942137745029e-02
1.750980523796285930e-03
-2.305914549299993219e-02
-3.962073207004009751e-02
-3.965378181419262210e-02
-2.971245974084350816e-02
-1.989344208532493538e-02
-1.291208930968761048e-02
-2.061291329322925518e-04
2.481094990172379861e-02
3.694605954053729879e-02
-1.152534475586892114e-02
-1.071477340399374228e-01
-1.272006477036202177e-01
3.251607329585158579e-02
2.670619484833174906e-01
3.205999211808622795e-01
1.095718578248115888e-01
-1.264691212998963754e-01
-1.056090547899325854e-01
1.542595704819018920e-01
3.834318905349562434e-01
3.827658015003365666e-01
1.908230093455184906e-01
-3.182400109787564962e-02
-1.753667167263408266e-01
-2.258192174130709273e-01
-2.154199479467066580e-01
-1.771347934506399824e-01
-1.363253814427231592e-01
-1.162243306874946036e-01
-1.291547833435785220e-01
-1.637894986453211355e-01
-1.964285281832336416e-01
-2.130729671821663396e-01
-2.120536938598094334e-01
-1.954244227147443058e-01
-1.670599882102531963e-01
-1.319493387074293367e-01
-9.349038166691329976e-02
-5.615521418940981613e-02
-3.069620303033883044e-02
-3.250801111741417893e-02
-7.047302463040090725e-02
-1.276341466541573710e-01
-1.523222854110012070e-01
-9.647681684542219749e-02
2.045697879184389320e-02
1.249581118106542627e-01
1.882493124019886110e-01
2.457420252170511854e-01
2.926884045308970617e-01
2.568227615609667280e-01
1.159636103286907360e-01
-3.712222436700704509e-02
-8.740887517680256957e-02
-2.249690794495689400e-02
5.840085625739327435e-02
5.723905509080931542e-02
-2.510757441953676700e-02
-1.103747925210737113e-01
-1.294405239414980202e-01
-8.141611208555583901e-02
-2.798481647454061083e-02
-2.570235594190480380e-02
-6.670868076352536036e-02
-9.776258751722888274e-02
-8.211924546942453440e-02
-3.284074959700315072e-02
2.188515840565842009e-03
-1.266545473268681186e-02
-4.913560982033518543e-02
-8.451612664007063583e-03
1.766473541616974396e-01
3.924810764123877194e-01
3.964363405564496068e-01
1.284565254655137823e-01
-1.341149542012748386e-01
-8.282192618161375586e-02
2.450392904026380547e-01
5.291083552709363591e-01
5.340316260219248878e-01
3.064035820636337171e-01
5.005869401405785291e-02
-9.503070193479380701e-02
-1.313013051616559457e-01
-1.274206732564918398e-01
-1.293019707379948757e-01
-1.404324326678905166e-01
-1.458168290432556857e-01
-1.354583927043542246e-01
-1.074913679245285830e-01
-6.462916662102266563e-02
-2.368640025220757062e-02
-1.561638573245679312e-02
-5.335025795285072009e-02
-1.052279167265402771e-01
-1.214765549836709368e-01
-8.960177234220584319e-02
-4.408118431703167417e-02
-1.485644904593012329e-02
6.027887446442834959e-03
3.163967695227738741e-02
4.606175629273911304e-02
2.729531296400225862e-02
-1.746468489050296419e-02
-5.869226693231255343e-02
-6.728809542961267098e-02
-1.547670283255926996e-02
1.134574570876704519e-01
2.809336248588423790e-01
3.841274262241520243e-01
3.428322822251265167e-01
1.874259063744084797e-01
2.316490919075703606e-02
-7.316982274537457698e-02
-8.809462434491925620e-02
-4.044085271066804460e-02
3.117503740229316672e-02
7.282672523974023648e-02
5.977407569675306787e-02
2.581593296853713568e-02
1.741373492753456320e-02
3.669951404915802740e-02
5.061714139072132079e-02
4.011768410756662989e-02
2.050241334729381582e-02
1.273602918290248770e-02
8.437701904294762911e-03
-1.896034282266709572e-02
-5.544686019218079964e-02
-1.117856386489780168e-02
1.887742449056712957e-01
4.290281978743954450e-01
4.297445315979600555e-01
9.558137446390180259e-02
-2.646374855731744580e-01
-2.664355428506967605e-01
8.459181896672526846e-02
4.370208064311662532e-01
5.165340325092581120e-01
3.385152869897738448e-01
6.974742302245218184e-02
-1.467493704226658924e-01
-2.365276077925440867e-01
-2.079995728217224338e-01
-1.503728675177569418e-01
-1.454822171351135562e-01
-1.855535650393125569e-01
-2.089088111275110016e-01
-1.864497583352620058e-01
-1.464579565978303966e-01
-1.272624150374183638e-01
-1.297857475855938025e-01
-1.318590120410488009e-01
-1.344877424569068392e-01
-1.620600600816195780e-01
-2.138069827257652877e-01
-2.457205970614752266e-01
-2.159685598455698408e-01
-1.288710789558405456e-01
-2.997143517976500610e-02
1.816980643688642302e-02
-3.008393847664541515e-02
-1.471868400736381921e-01
-2.312292739023366073e-01
-2.146150358519413326e-01
-1.326011177819365894e-01
-4.027233905231508010e-02
5.517944857881744436e-02
1.374124984491005008e-01
1.559710547866873520e-01
9.972400327669184161e-02
2.300644122117545889e-02
-2.130480948273921066e-02
-3.093745822632972334e-02
-3.572033914062071325e-02
-5.728708807708596945e-02
-8.896101543767584441e-02
-1.082657287358792797e-01
-1.046450935093022616e-01
-8.586948873608843402e-02
-6.242104442465518099e-02
-4.084992819859988716e-02
-2.573955621032105248e-02
-1.589302477019098603e-02
-8.201142959476642041e-03
-1.328737698730829940e-02
-5.200912212743143137e-02
-1.113750463299884863e-01
-1.033013089802933132e-01
7.167537001415828779e-02
3.549067102316881273e-01
4.963385299765845637e-01
3.290441791656885107e-01
2.675230439617219680e-02
-7.614366121311656743e-02
1.114315201775149949e-01
3.552306751603520607e-01
3.888265131561547960e-01
1.797818173074361148e-01
-8.630406189111571036e-02
-2.174838159950575334e-01
-1.901951555700759078e-01
-1.219566374578531787e-01
-1.060320012556366653e-01
-1.342186026751265304e-01
-1.696570088000288468e-01
-2.077826041634247833e-01
-2.473198480881782513e-01
-2.646186238999412299e-01
-2.452684148095065908e-01
-2.081185839559880069e-01
-1.713205266084488199e-01
-1.211955275241414637e-01
-5.165109168743688833e-02
-6.413873014038076747e-03
-3.112038669372551442e-02
-1.045679424547770325e-01
-1.614904211465665596e-01
-1.641883965514233101e-01
-1.212798667905510552e-01
-5.595905128578756299e-02
1.360918950642668428e-02
6.855172658135591512e-02
9.354862677789756165e-02
1.004381637179453945e-01
1.273996977831317878e-01
1.871798303420953713e-01
2.302888321984300213e-01
1.987550490169610606e-01
1.066907423094068802e-01
2.830138208791707979e-02
1.453117647573949796e-02
4.966502323257896562e-02
8.072593148675966113e-02
7.085306848227959642e-02
2.737817327134398071e-02
-1.342412416201484854e-02
-2.529293499304385850e-02
-1.278224741908479817e-02
2.399900443613264128e-03
4.518493905143743106e-03
-6.288543278383024702e-03
-1.520230268130870997e-02
-7.037635706665184253e-03
6.128103659093936742e-03
-1.526274005063185668e-02
-7.467982284667600001e-02
-7.864480716455771181e-02
8.891985111867867220e-02
3.768762355455225754e-01
5.297372033568662486e-01
3.685504064513712708e-01
6.464964333034692312e-02
-2.886790209341113730e-02
1.946488590357270676e-01
4.878269399317727295e-01
5.639160475575182296e-01
3.856007589413862902e-01
1.253652847590055741e-01
-5.193415061826638784e-02
-1.073336816278293998e-01
-8.917850825434768536e-02
-5.644223917397057921e-02
-4.273700615473820241e-02
-5.534432744555559114e-02
-8.643366031887973755e-02
-1.230963117309171739e-01
-1.568067030733903966e-01
-1.894025695384288777e-01
-2.229879584121721714e-01
-2.432344666490614538e-01
-2.240268449209727175e-01
-1.586573189047498222e-01
-7.912524294280257053e-02
-2.616342768360937696e-02
-6.306189547979626324e-03
-1.365892810810928658e-03
-1.117819547899950167e-02
-5.230580243653994849e-02
-1.089464951622916428e-01
-1.245920151061022108e-01
-6.882720176581395843e-02
2.182413889777611721e-02
1.007809938445113490e-01
1.695424118284449555e-01
2.388366106792270405e-01
2.703160319390517374e-01
2.162168974388306852e-01
1.026447162211324982e-01
1.378502185842924582e-02
-7.750205380203828084e-03
4.627606835215901035e-03
9.156065177452789999e-03
1.050350128814879318e-02
2.683471440392611734e-02
3.963461754793821956e-02
1.729768981806975234e-02
-3.208681512435302557e-02
-7.333083796410251598e-02
-9.362811420975053478e-02
-1.026221530454379804e-01
-9.609523667397124047e-02
-5.940469277251049507e-02
-1.131346877739666974e-02
-2.805753642426704955e-03
-3.859755617595704569e-02
-2.974143153540948631e-02
1.050210686443629610e-01
2.809534808487092472e-01
2.879268150679966665e-01
6.579045823557827521e-02
-1.494066341289286837e-01
-8.691584887050636532e-02
2.019363382334941615e-01
3.954282693581983588e-01
2.978412245513055168e-01
4.324704515045642295e-02
-1.253966741187590439e-01
-1.415216444781115523e-01
-1.025024492273240023e-01
-8.983773773545543351e-02
-1.023859969138952997e-01
-1.089589805796965238e-01
-9.773853211974838084e-02
-8.588246612905856003e-02
-1.012055798110336746e-01
-1.500140366270312497e-01
-2.030668485200522733e-01
-2.246206081762375517e-01
-2.118152956254881758e-01
-1.877896832226706170e-01
-1.648420095603199131e-01
-1.399972386693687787e-01
-1.157893969173566240e-01
-9.738278258728888526e-02
-7.822564148445942944e-02
-5.205028624856901376e-02
-3.085225610418983536e-02
-3.161661630357447822e-02
-5.186481535430831347e-02
-7.080287921765210379e-02
-6.504871849138686712e-02
-1.394418167723296062e-02
9.042877928129466891e-02
2.115609907525623223e-01
2.662937054706583373e-01
2.002114425411831156e-01
5.792689162484677967e-02
-6.001382286428521423e-02
-9.871211240700046574e-02
-8.093044411240032932e-02
-5.752292986356753041e-02
-5.267654298073698449e-02
-5.270942321358160904e-02
-3.465161889624844560e-02
1.269295493450837628e-03
3.034875127505820558e-02
2.994978268016491862e-02
1.608856461995437220e-03
-3.139505519915840315e-02
-4.317681824419749431e-02
-2.485790597229170160e-02
2.652731946070323830e-03
3.747371316261654227e-03
-1.009918043958071832e-02
4.855065195891362234e-02
2.202074461821510454e-01
3.494788004031539885e-01
2.255287195026198510e-01
-8.324154767978626801e-02
-2.425434238982339674e-01
-7.104403229975550516e-02
2.516780060573771682e-01
4.453315331893825113e-01
4.204908813610881979e-01
2.628917780223234968e-01
7.470583019340135134e-02
-7.925466270004610791e-02
-1.545536020501411811e-01
-1.544815744540569691e-01
-1.402476894095517068e-01
-1.616463152077368681e-01
-2.041461895830087303e-01
-2.213341774017732466e-01
-1.923467372393783681e-01
-1.413152657267603418e-01
-1.140010170092444208e-01
-1.318941763154344859e-01
-1.615525958385433947e-01
-1.435415485109994282e-01
-7.030724954871263310e-02
-1.032539216867724673e-02
-1.989223957956222019e-02
-6.693140467802646820e-02
-8.544942328938519294e-02
-6.272577946709168017e-02
-3.397689235789657508e-02
-2.996257965262665024e-02
-5.446551424331319557e-02
-8.354507836284276456e-02
-7.434589010909094242e-02
4.077029636988623550e-03
1.336985020679061498e-01
2.458730278972464656e-01
2.723439442541925049e-01
2.062260183003329639e-01
1.050016948172970005e-01
3.175177918221627066e-02
4.325415995681753181e-03
-1.044448107861636194e-03
-1.340327249452599734e-02
-3.791448752411183398e-02
-5.619812708014709779e-02
-5.049868035231815794e-02
-1.965420147157695419e-02
2.393784474914158536e-02
5.806668376451447344e-02
6.083605024466632455e-02
3.531152850920019071e-02
1.212357098004112482e-02
6.981267545935797639e-03
-9.729787692566665633e-03
-5.704297906213562364e-02
-5.414022499708828068e-02
1.253780641302722487e-01
4.351015861938065110e-01
5.849886901598816413e-01
3.572742825107682041e-01
-5.043544265493436762e-02
-2.145989055961929626e-01
-8.162126133601944195e-03
2.872342948054587564e-01
3.726366186493169641e-01
2.251902782294554206e-01
1.328055980580174558e-02
-1.123847054171208809e-01
-1.212916934267788821e-01
-8.144465071990408811e-02
-6.990464235261513448e-02
-1.046541023222116729e-01
-1.566878203222234200e-01
-1.998529339334378097e-01
-2.304676485309387901e-01
-2.498582326487802652e-01
-2.519592704904079494e-01
-2.444843424002760834e-01
-2.611094611933778009e-01
-3.131985462444275004e-01
-3.497823905517241649e-01
-3.190291745054756323e-01
-2.444654608828236431e-01
-1.856731346102652447e-01
-1.564921415526526194e-01
-1.308573937384991392e-01
-9.569553717805241722e-02
-5.564236074191571818e-02
-1.064909628997281858e-02
3.624277005583262379e-02
6.712367567281921077e-02
7.703318922028612459e-02
9.721482319918825499e-02
1.535044813616932013e-01
2.217113570142271450e-01
2.615445670464807693e-01
2.534066805883745666e-01
1.818412580012551127e-01
5.819672631762781712e-02
-4.589788481439402434e-02
-7.062968641951171411e-02
-4.311561455402022902e-02
-2.607481188112490897e-02
-3.709116639677952076e-02
-5.012793866509242247e-02
-4.573197182928145921e-02
-3.506024624247570248e-02
-3.203759511354354467e-02
-2.140758931543237931e-02
1.948988835386270338e-02
7.883384306738552838e-02
1.116074872903709270e-01
7.287555053972669117e-02
-3.359813585698280536e-02
-9.990335708878018972e-02
3.308960325889419990e-02
3.531838388785121241e-01
5.672424507792125370e-01
4.075573467638340386e-01
2.741615045847690252e-02
-1.394269923824897339e-01
7.979430389285718794e-02
4.172415892850920849e-01
5.316619869455223579e-01
3.629776305637829603e-01
9.702558432488253559e-02
-7.969407414245444077e-02
-1.235024657532972081e-01
-9.562740169833194859e-02
-6.124101950545547679e-02
-4.607652637915241045e-02
-5.481076857671628166e-02
-8.558943151262779492e-02
-1.256394958800630679e-01
-1.599594537861417642e-01
-1.856902087437562188e-01
-2.045805973066188166e-01
-2.092120215588207099e-01
-1.899025747029513544e-01
-1.478647107795980353e-01
-9.472113978103177678e-02
-5.040262912126577954e-02
-3.646098417710577633e-02
-5.139802377029741715e-02
-6.520397276468430092e-02
-5.573297184406322130e-02
-3.193789329246457531e-02
-1.337429292429380065e-02
-6.890920856872214707e-03
-1.309949477676926419e-04
3.977689964304143705e-02
1.404285603702292162e-01
2.682252451022079098e-01
3.246045965025222690e-01
2.408759790783644994e-01
6.294603212902183387e-02
-9.098209379908195338e-02
-1.431493067610157266e-01
-1.065582434762776948e-01
-4.278870982898626274e-02
3.813677041746808827e-03
2.679844698007528489e-02
3.117196849327062355e-02
1.351158090778359702e-02
-2.643929915145011578e-02
-7.334741770560060381e-02
-1.031216866998690695e-01
-9.694018533988668640e-02
-5.327640739226169320e-02
5.404674531828858666e-03
3.838848734704813914e-02
1.629711653372701088e-02
-2.529559402756388631e-02
2.478343123444596424e-02
2.318330041891313864e-01
4.607384259255770664e-01
4.603055113708377499e-01
1.840495187774949248e-01
-9.075317778026037452e-02
-7.823884154813429137e-02
1.818045430505078885e-01
4.122464494217208952e-01
4.300003045593678297e-01
2.780567942025534145e-01
8.824130660535547954e-02
-6.436936556853169178e-02
-1.638215498382216695e-01
-2.019041094551952409e-01
-1.804110359360606985e-01
-1.344249620799665701e-01
-1.068366603062562425e-01
