5.365261835601978779e-01
5.572367990321902553e-01
2.350969352665320811e-01
-4.940176704413962172e-01
-1.367828342514170403e+00
-1.995225509253735430e+00
-2.121587778927708889e+00
-1.753178251130907084e+00
-1.070725158718452752e+00
-2.861351463801707906e-01
3.866879284513256021e-01
7.165119487224682615e-01
5.429442819711003398e-01
-9.806305318494007439e-02
-9.814387083815272472e-01
-1.810655488828994297e+00
-2.271783367304840873e+00
-2.036648109136779183e+00
-9.653176744131981568e-01
5.352162158360106448e-01
1.601524867140845299e+00
1.670151355555436368e+00
9.861264756465990544e-01
1.522898289790088344e-01
-5.463964330911530443e-01
-1.139135170081605475e+00
-1.577288843915806149e+00
-1.652867511116665300e+00
-1.243859637956169051e+00
-4.782594745666293168e-01
3.297560192207227847e-01
8.361059124546320609e-01
8.177687875680074159e-01
2.789738562092990981e-01
-5.581495993944463052e-01
-1.379464495006290203e+00
-1.908958769792636900e+00
-1.975198285075010940e+00
-1.547221472450057256e+00
-7.521493543868835729e-01
1.548319640448128642e-01
8.620225417687065184e-01
1.097402900221522648e+00
7.521735366688897528e-01
-2.776175334578312448e-02
-8.924036454947372743e-01
-1.471195801673838677e+00
-1.548563661946628089e+00
-1.132003301193132083e+00
-4.059815336836909427e-01
3.796360088312956682e-01
9.909656341619165199e-01
1.227431949155405988e+00
9.665049588499406985e-01
2.653501269797176598e-01
-6.134474431137691974e-01
-1.327043339600980865e+00
-1.617088441025138046e+00
-1.397389660136313161e+00
-7.618565126507133023e-01
6.007202136335094284e-02
7.876956894442194157e-01
1.181722117166034813e+00
1.106317008609636110e+00
5.515380094353062868e-01
-3.534473306859329256e-01
-1.300823796355542683e+00
-1.797791037752652032e+00
-1.396100941633492631e+00
-1.760641007727117846e-01
1.098073392579997698e+00
1.664671599477175246e+00
1.533428337275271280e+00
1.209133722974568226e+00
8.738488582904377910e-01
3.170444085220041064e-01
-4.950528681417141197e-01
-1.206444063257894550e+00
-1.412069667525178929e+00
-1.011985747960681747e+00
-2.257479816421485430e-01
6.149090783383863723e-01
1.216106649567587183e+00
1.356237689561085924e+00
9.451487859379991141e-01
1.146754126408918717e-01
-8.070229390065098984e-01
-1.457518000530720004e+00
-1.604468287841681606e+00
-1.222065670448135855e+00
-4.735432810141070314e-01
3.802429746351961848e-01
1.078714965415218163e+00
1.401727677330336652e+00
1.209801675396332543e+00
5.463690567478372007e-01
-3.165632881793988274e-01
-1.009756751400162189e+00
-1.268152327490744025e+00
-1.030994107803303361e+00
-4.190203102610040586e-01
3.410311936119909126e-01
9.911952586368625306e-01
1.302123699341037888e+00
1.136551719574425690e+00
5.183726353395108344e-01
-3.460476065783474886e-01
-1.142435517630988162e+00
-1.591698097375440435e+00
-1.569604696948378786e+00
-1.111917798958344417e+00
-3.383334229413985095e-01
5.549648359072293369e-01
1.245729407203870043e+00
1.375831771835427597e+00
7.919451608454712854e-01
-2.775753649598653450e-01
-1.252319672065672629e+00
-1.482160378608175177e+00
-7.556091318423433512e-01
3.842915270554657092e-01
1.119580767887711437e+00
1.244854757107265453e+00
1.209129970533932452e+00
1.274427069061567774e+00
1.151208783877383901e+00
5.362973936133383912e-01
-4.041978928701803198e-01
-1.186746303938414515e+00
-1.436564202066714646e+00
-1.111379666208135664e+00
-4.233215826869159981e-01
3.515938617468314376e-01
9.726716164058069047e-01
1.235171068928817784e+00
9.973552401894710817e-01
2.823098397687380245e-01
-6.450591513290520052e-01
-1.369971204172824919e+00
-1.577683381774749538e+00
-1.234791812434502312e+00
-5.355451552647421121e-01
2.674558094702323419e-01
9.535145017861360595e-01
1.337297088462775063e+00
1.285770517109642075e+00
7.847977340273805114e-01
-5.181621280182513445e-04
-7.615528055586762157e-01
-1.192200088031698524e+00
-1.139105579647437194e+00
-6.463348494242893150e-01
1.034359810917068190e-01
8.623698094824613358e-01
1.359226109511496361e+00
1.370519700062047930e+00
8.496990074288822692e-01
-2.956974142217308477e-03
-8.353632146887678411e-01
-1.332345704554342314e+00
-1.343505355897312681e+00
-8.892006722733460933e-01
-1.099646776762077949e-01
7.570685640672700778e-01
1.387131293949300348e+00
1.462697638046337234e+00
8.993046345061898039e-01
3.430753547665454928e-02
-5.471803322864208230e-01
-5.662792104669137627e-01
-3.283304684243175120e-01
-2.125563591141662600e-01
-8.394292284105023261e-02
4.270039908462487932e-01
1.240729752119700047e+00
1.794084145287115462e+00
1.620826412799402316e+00
7.592353509584945925e-01
-3.544076357683085821e-01
-1.224619779855074864e+00
-1.527858414613102234e+00
-1.191427091377851077e+00
-4.034788458136579492e-01
4.806966481502218391e-01
1.138833918849917470e+00
1.400402756032222973e+00
1.203801533221560582e+00
5.730681908678649794e-01
-3.148309337506792760e-01
-1.132340208284235761e+00
-1.545742115457286125e+00
-1.389828912664876182e+00
-7.388946039887790418e-01
1.600453291666827926e-01
1.003694423011496140e+00
1.516954982717255485e+00
1.526657906129869069e+00
1.031971278615096965e+00
2.105411135949926127e-01
-6.478144413131152746e-01
-1.231673260771555700e+00
-1.313330175189920013e+00
-8.539363125308494507e-01
-3.725817367082498444e-02
8.092417111041765310e-01
1.362669761224458709e+00
1.435963069531537739e+00
1.021195018800594267e+00
2.599505667050455715e-01
-5.887468348972885179e-01
-1.204686182439538289e+00
-1.346156527767929711e+00
-9.783144231953740944e-01
-2.603532649070681715e-01
5.467362726056208544e-01
1.139886070613503666e+00
1.271729955518731359e+00
9.533113062591809239e-01
5.061249077312444111e-01
2.049787190314683039e-01
-6.835762319017331390e-02
-5.102840764473098867e-01
-8.440430732119820201e-01
-5.500082616070693931e-01
3.877727272775448597e-01
1.376075742471625674e+00
1.813619411279264071e+00
1.530108154840139623e+00
7.372392547850067368e-01
-2.033373668332845718e-01
-9.562296634234529469e-01
-1.302010387411953518e+00
-1.166892041044914397e+00
-6.223409579149585813e-01
1.402030087542923686e-01
8.679025453409066060e-01
1.316209743275112531e+00
1.310244300446878452e+00
8.135381986025398415e-01
-1.291150074952140958e-02
-8.409035668856873480e-01
-1.329547474550851094e+00
-1.303828825267165925e+00
-8.129788377993121262e-01
-5.057434881785999314e-02
7.455839468553979721e-01
1.330369329407433243e+00
1.481185546129146768e+00
1.092694630248323140e+00
2.751920462080457708e-01
-6.615173419036165514e-01
-1.351370824030665441e+00
-1.545500451034627742e+00
-1.215934823437982537e+00
-5.475879656000339768e-01
1.631837935373558757e-01
6.409310576446444196e-01
7.214208077850293721e-01
3.685175431052869488e-01
-3.365214106389154969e-01
-1.182586461019388802e+00
-1.849748255701652910e+00
-2.040464291135967390e+00
-1.656886293090425566e+00
-8.850031048136287604e-01
-1.095189629490668365e-01
3.246239932970307329e-01
3.638100639510305490e-01
2.576653097743182852e-01
2.083596795821130443e-01
2.331843427753810261e-02
-6.105039463909894826e-01
-1.453505495325434493e+00
-1.754274126448904569e+00
-1.136969422959172693e+00
-4.705877431878963124e-02
7.962883737746792034e-01
1.035083901663973016e+00
7.203213889502404488e-01
6.545250367134794467e-02
-6.952424591785317798e-01
-1.330696204651639958e+00
-1.637449222202381982e+00
-1.503525126363507214e+00
-9.710881220346621046e-01
-2.346868296767277151e-01
4.242118596430740074e-01
7.376929090202340999e-01
5.924600666355727130e-01
1.128105198957083111e-01
-4.569052622639404038e-01
-9.295916285046077476e-01
-1.184109369444942716e+00
-1.115346996107523525e+00
-6.966804186078059402e-01
-3.978015533792732261e-02
6.589363024854671957e-01
1.187132920646484457e+00
1.346103936670512091e+00
1.029185501494047195e+00
3.399896608009541632e-01
-4.164777914118572566e-01
-9.163978044131071421e-01
-9.945474663813106408e-01
-6.750115410960767504e-01
-1.062712160087950081e-01
5.091110599821508931e-01
9.721326023066308997e-01
1.131940062285013759e+00
9.210317326966493967e-01
3.952454244412362261e-01
-2.534711817807486778e-01
-7.615261429533001225e-01
-9.167484393581613045e-01
-6.698250635533107289e-01
-1.586456462429697289e-01
4.007750317748342006e-01
8.939783598256794139e-01
1.359840229962283598e+00
1.769484174903302343e+00
1.799701506507730420e+00
1.121742047690535760e+00
-1.566390768906994468e-03
-7.781521615805103709e-01
-7.042196370391733407e-01
-2.222438267630047481e-02
6.960793625706110932e-01
1.116918495213260920e+00
1.214175897020611350e+00
1.033609197706498062e+00
5.977399539081057478e-01
-1.779885829538890851e-03
-5.643717837155590722e-01
-8.836592706505803640e-01
-8.684173039044467135e-01
-5.643271673916425701e-01
-9.010044804186569112e-02
4.161745580227015906e-01
7.981254764335915519e-01
8.983078016514080000e-01
6.409509706701062015e-01
1.066994181723050772e-01
-4.886529642301288834e-01
-8.949487124519044379e-01
-9.386430743352155437e-01
-5.976390062555259064e-01
-6.510593510881526602e-03
6.164642531415881477e-01
1.063853065649504437e+00
1.194352550120298062e+00
9.618790875157446907e-01
4.440298028820843790e-01
-1.632087144416869418e-01
-6.229875367878905390e-01
-7.744675113882718565e-01
-6.006308533427570095e-01
-2.011803433819737696e-01
2.810457256996468645e-01
7.017049212969866945e-01
9.127575149640503316e-01
7.889821840994487578e-01
3.259819137881312390e-01
-2.845097712287944502e-01
-7.373970187271194909e-01
-8.364735212185820945e-01
-6.400773037165912172e-01
-3.356948417276318097e-01
3.044514794761990495e-02
5.892549010198020465e-01
1.306547051265080750e+00
1.716834890987116946e+00
1.322137273169026406e+00
2.952188180103746395e-01
-5.916144838685551965e-01
-8.088740428737315469e-01
-4.970741088843133038e-01
-6.585408003806156318e-02
2.807081517778369784e-01
5.570224329715550704e-01
7.589730562271362890e-01
7.720491143962427971e-01
5.062793581517572861e-01
2.802006383952599516e-02
-4.851704616157266892e-01
-8.677918260720951515e-01
-1.008756231350229182e+00
-8.449109931443468113e-01
-4.145443741014248062e-01
1.005148779318960767e-01
4.768367902692894345e-01
6.023758337414819586e-01
4.940224101125741951e-01
1.992750060016208191e-01
-2.344561268754070393e-01
-6.698164396678453203e-01
-8.698303138935317147e-01
-6.874681336991312897e-01
-2.169294689749613481e-01
3.048535401281941004e-01
6.829505529884999371e-01
8.149685042214059871e-01
6.551671999086697840e-01
2.297567994841485661e-01
-3.195618726447047586e-01
-7.730880758890009696e-01
-9.546733819287158695e-01
-8.348149366645448710e-01
-5.264855795793272897e-01
-1.741998154978775526e-01
1.391729693792865818e-01
3.532784375664372867e-01
3.712173639352699395e-01
1.383118696699072725e-01
-2.539679584561449488e-01
-6.177252441498114477e-01
-8.184544123653086922e-01
-8.461493766610694856e-01
-7.060531869845856345e-01
-2.713635899408823882e-01
5.570228514817060494e-01
1.445583314318945156e+00
1.704875136946838454e+00
1.060039644961567218e+00
5.497751002188600022e-02
-5.910525970801485673e-01
-7.141150356721920334e-01
-5.826400021310986777e-01
-3.964692477115118185e-01
-1.578755492991308351e-01
1.375234896002160423e-01
3.805817962070175420e-01
4.253242425217766409e-01
2.237413148098827687e-01
-1.405900752135531007e-01
-5.265956485881070348e-01
-8.110178175778696152e-01
-9.109257419167217096e-01
-7.929760419173647046e-01
-4.906768612055555367e-01
-9.930830882791456815e-02
2.517550005889126474e-01
4.287783827223816679e-01
3.435033786766760744e-01
2.003216982762905107e-02
-3.889814032620775852e-01
-6.799748431844486740e-01
-7.202881082509967614e-01
-5.165686614433202539e-01
-1.803477715041931217e-01
1.591184186217058927e-01
4.083871979998201507e-01
5.088562022318114941e-01
4.265038308185314375e-01
1.690744961526211010e-01
-1.859576547298446014e-01
-5.042079849858092100e-01
-6.627321396953594901e-01
-6.166769449472739861e-01
-4.033506581920283662e-01
-9.832045771700692605e-02
2.103863340395606962e-01
4.216057990482043327e-01
4.543049219568586761e-01
3.043648178481643818e-01
3.562839530782756226e-02
-2.871609236081489880e-01
-5.993905324905076659e-01
-7.355598802392874225e-01
-4.257055236540304710e-01
3.969571392270396237e-01
1.274856947483383074e+00
1.535263200712822851e+00
1.048667389517124127e+00
3.642122523438773296e-01
-3.368792136928533409e-04
-6.598887110007647938e-02
-1.253811064305568879e-01
-2.824714393156517178e-01
-3.872024134904069603e-01
-2.818546874960751181e-01
4.530743393403896535e-03
2.951079379504700784e-01
4.292101520697925721e-01
3.501310370136752059e-01
8.663536116140446719e-02
-2.707209066021528110e-01
-5.798104465335204294e-01
-7.031855742071740911e-01
-5.980522971945516630e-01
-3.387195563458568759e-01
-3.916150678604444352e-02
2.178862950332597914e-01
3.739005960120913019e-01
3.758950887845212141e-01
2.093120853701920803e-01
-5.800939507979037402e-02
-2.902580102364357151e-01
-3.616988792439855827e-01
-2.389836401826301859e-01
-4.832255464910506504e-04
2.287674401788404865e-01
3.715107367703246455e-01
4.308225206214632008e-01
4.311352489146366707e-01
3.469536502038726433e-01
1.319591450898755514e-01
-1.742772624538290738e-01
-4.271391949509396602e-01
-4.947578433914437968e-01
-3.631974420535082348e-01
-1.205136128154320613e-01
1.273485948077220931e-01
3.102471573637471947e-01
3.849202358486024655e-01
3.078281783885883360e-01
4.638324061821993277e-02
-3.505507838423580491e-01
-6.593346628377029228e-01
-5.314207103409762656e-01
1.476100388253941964e-01
9.255270180192333163e-01
1.148850702007454316e+00
7.552064133401616974e-01
3.135317935257180277e-01
2.243222547941096101e-01
3.054169641493358900e-01
2.151285226466859157e-01
-7.827112929629924387e-02
-3.482090597144912869e-01
-4.244549847871353920e-01
-3.271264694520086280e-01
-1.573691850200422682e-01
1.796858172804820242e-02
1.496655921025712710e-01
1.645015006402641422e-01
1.865533750069151703e-02
-2.291726991125894175e-01
-4.512741000426268023e-01
-5.476301979259703412e-01
-4.923236354883769872e-01
-3.221030800412376105e-01
-1.057573726806916858e-01
9.206218797112213081e-02
2.280155803929154179e-01
2.692138811981680813e-01
1.965157746385478021e-01
4.075289524620583081e-02
-1.107244357097778298e-01
-1.838792593940586362e-01
-1.820586232829469742e-01
-1.459249684517655576e-01
-7.987472881578788764e-02
2.475427931233534218e-02
1.229443654648348511e-01
1.478323185977016285e-01
8.795903453233090696e-02
-3.150985945306578745e-02
-1.950755466059090892e-01
-3.607548000587271764e-01
-4.423436723877596233e-01
-3.856667701120375935e-01
-2.218530969121400853e-01
-2.109490439860368244e-02
1.688349481103325611e-01
3.039452301066359885e-01
2.897415233298412662e-01
4.289402268054808703e-02
-3.120934720660649142e-01
-3.961353816634796687e-01
3.940778509791261625e-02
6.566561381872841885e-01
8.103236559362130276e-01
4.028923417157555531e-01
3.065801274781304597e-02
1.385777805478222713e-01
4.936859281163925584e-01
6.281574572717451010e-01
4.099215413826735044e-01
4.588307975645575937e-02
-2.263089810168997518e-01
-3.184100993696000748e-01
-2.727988352021791796e-01
-1.698041852136406571e-01
-5.329765264735471242e-02
7.825137778432601776e-02
2.096230553350242887e-01
2.560914310155886220e-01
1.261359808845747554e-01
-1.463334579029998139e-01
-3.909916161048783700e-01
-4.583344599679728959e-01
-3.501948986974722788e-01
-1.752114895927631699e-01
-1.613967068691867651e-02
1.204028214410407110e-01
2.379881212318357420e-01
2.979441610602752144e-01
2.646823200705593071e-01
1.573262287155650641e-01
2.487160720294575092e-02
-9.355280653356559672e-02
-1.657876055791905057e-01
-1.595330490506690901e-01
-6.450689679700437329e-02
8.165557198147183060e-02
1.986022044219668548e-01
2.094638948212401153e-01
1.028580439986429423e-01
-5.061851501885621107e-02
-1.616338621608647830e-01
-2.011469045013821455e-01
-1.991908988798786750e-01
-1.736636330990194710e-01
-9.715675231911977128e-02
3.938506285826441633e-02
1.484191173918728290e-01
1.053893060061437403e-01
-4.939188282816504155e-02
-3.983831929142605394e-02
3.256097669113103277e-01
7.582987876607125699e-01
7.339118288052293160e-01
2.320606574703078517e-01
-1.707710110538232517e-01
-7.212309473426413431e-02
3.019245229304481914e-01
5.028220814507643466e-01
3.734484006663447153e-01
7.109147223303899366e-02
-1.976910608778549849e-01
-3.468598539651885915e-01
-3.937013361036934000e-01
-3.794762217342247945e-01
-3.254415895123646818e-01
-2.287175220696403555e-01
-9.246664511965520250e-02
3.093572967159223183e-02
5.324744363556489085e-02
-6.452553969517565990e-02
-2.548129044039613156e-01
-3.958684474348464488e-01
-4.215106135025230572e-01
-3.693608862828186568e-01
-3.139994031417332465e-01
-2.555257354543411519e-01
-1.111030100082352617e-01
1.454940769240787579e-01
3.783106899391555089e-01
3.998103883965715699e-01
1.800600166841762051e-01
-1.166360676452291856e-01
-3.028625933421286720e-01
-3.196061638943594185e-01
-2.226555993151760060e-01
-9.075184489388601894e-02
2.466723663375780529e-02
9.528846209241544074e-02
9.737453996499539910e-02
1.605621555029020098e-02
-1.251672233393177625e-01
-2.567565314820769995e-01
-3.065736276381850201e-01
-2.542446177930661744e-01
-1.439923263969257738e-01
-5.469060541192231895e-02
-5.272099436367438247e-02
-1.227501646104208477e-01
-1.006917829157376876e-01
2.205986250126282799e-01
7.523685646749685985e-01
1.006965608403221912e+00
6.391546070346733055e-01
-2.811955418457050271e-02
-3.614158476574178547e-01
-1.670047529321885271e-01
2.142102410297379300e-01
4.088377724321060613e-01
3.423767341625330030e-01
1.480719774781010800e-01
-4.232710890467002857e-02
-1.767770036802040479e-01
-2.532164787272376816e-01
-2.872850802617254451e-01
-2.966605689237463706e-01
-2.809380677594691678e-01
-2.233574005676572383e-01
-1.301998256268271925e-01
-5.174287845939790770e-02
-4.461947444496497384e-02
-1.179315004427301528e-01
-2.236836304221147542e-01
-2.997131885140609797e-01
-3.168905086501372925e-01
-2.834272990214742327e-01
-2.116162530237971906e-01
-8.990400819859041548e-02
9.849464845473365759e-02
3.214135031372347129e-01
4.790819846538073579e-01
4.674663272865710040e-01
2.775486944750072404e-01
1.978875938633873482e-02
-1.702346039081371609e-01
-2.357695419713997653e-01
-2.021099673656967521e-01
-1.186015567284873368e-01
-2.509567651410325034e-02
4.968327927383624221e-02
8.612442214517042338e-02
6.999392242834490130e-02
-1.049455931063229125e-02
-1.423043550728086970e-01
-2.571920523407421055e-01
-2.707546818160564972e-01
-1.877977526505947570e-01
-1.250948354024219722e-01
-1.588481452311981679e-01
-1.516042615021451767e-01
1.479971906721890829e-01
7.051511202745837092e-01
1.033704694240833888e+00
7.251708632527925635e-01
4.743272388459875144e-02
-3.469172000833290470e-01
-2.149248195782453852e-01
1.163950127054781680e-01
2.729749039076290740e-01
2.160389061287641410e-01
1.342966488960922189e-01
1.478261817516542120e-01
1.824278488238427753e-01
9.853125092475169267e-02
-1.127856359586950907e-01
-3.138002425165081211e-01
-3.928806219157653934e-01
-3.722536239236818867e-01
-3.130119816756232742e-01
-2.083453901831947563e-01
-4.493030731131468503e-02
1.054208748515737676e-01
1.470822025133593780e-01
7.364723870035634612e-02
-4.261001727893588831e-02
-1.379453469332113380e-01
-1.894230853469714149e-01
-1.841230190774635345e-01
-9.286189821902107733e-02
9.846095481849731490e-02
3.208367428761612072e-01
4.330184133044233663e-01
3.453290877549983207e-01
1.078751420227541669e-01
-1.388512215897904634e-01
-2.757080768525997372e-01
-2.787316192779183965e-01
-2.148051757147370067e-01
-1.622682816524101679e-01
-1.273920359915946265e-01
-5.512161588685367264e-02
7.239972960543519798e-02
1.805778873604085288e-01
1.800835862593255510e-01
8.721655315932952401e-02
1.016433900835739951e-02
-3.960023606870819238e-03
-3.942032077334610418e-02
-1.591003111206759080e-01
-2.011236571830103403e-01
1.379724487474927042e-01
8.521556903891972512e-01
1.371077322505054763e+00
1.121063284031470708e+00
3.034363036075819475e-01
-3.093850844172850723e-01
-3.043283837556015614e-01
3.989295874798090558e-02
2.667730498363685143e-01
2.389050877788648219e-01
1.117300117169054141e-01
3.610902900242232705e-02
7.052971835766818492e-03
-5.109606139885584930e-02
-1.610701519281106942e-01
-2.823813894214913800e-01
-3.719877983356037476e-01
-4.100212475415991875e-01
-3.848992912974320002e-01
-2.994695543806238924e-01
-1.884711532665915568e-01
-9.908534722336870271e-02
-5.781370678117891959e-02
-6.952562881755423863e-02
-1.308192094703321262e-01
-2.206869439951036904e-01
-2.868510650291965502e-01
-2.703695952495982491e-01
-1.565034179912023482e-01
3.568840469480614314e-03
1.262901366229744193e-01
1.574103296717429545e-01
1.053939632249763780e-01
1.729404105013519072e-02
-6.888922796686437755e-02
-1.469607315006456472e-01
-2.233817213249798816e-01
-2.809857848574201511e-01
-2.834101568868723775e-01
-2.215244445185406696e-01
-1.262942741409918135e-01
-3.382625099959431225e-02
3.466486852224637955e-02
6.577308271784551574e-02
5.378504276715259658e-02
3.683560616315997155e-03
-8.860505526141780608e-02
-2.446452058120905659e-01
-4.144331874646437486e-01
-3.661814040614499999e-01
1.379531388018940263e-01
9.000314903041707337e-01
1.275279433208841739e+00
9.018613111262847593e-01
1.973385120923190073e-01
-1.801830071751009121e-01
-9.747841435590548498e-02
9.906175869522679256e-02
1.356742838090406189e-01
4.676448341724184082e-02
-1.976629203102699128e-02
-1.326121650134614791e-02
1.754115015228556451e-02
1.833803922673390638e-02
-2.671413281648276836e-02
-1.103897634695820418e-01
-2.183212292319617887e-01
-3.177762682721492205e-01
-3.557343352807954551e-01
-3.003787483836135030e-01
-1.844986735980350123e-01
-8.186714216851899428e-02
-3.217942443114013562e-02
-1.376347519770956818e-02
2.727475798647861858e-03
9.586762869464204168e-03
-1.193362831782311673e-02
-4.879898313813507693e-02
-6.061149286548604687e-02
-2.166475570105662329e-02
5.222173608279603169e-02
1.234951576408565288e-01
1.647537892446587215e-01
1.601975731988352358e-01
1.028382077910957038e-01
7.591719541490113410e-03
-9.290047729339602489e-02
-1.704158153290159516e-01
-2.126402130642481847e-01
-2.223267049373119919e-01
-2.064683644348326574e-01
-1.632972092918575924e-01
-9.006543758901257302e-02
-3.048052969957294051e-03
6.471606316207212384e-02
8.152573786527574085e-02
1.414446396316899369e-02
-1.652097244800840858e-01
-3.863018967057392783e-01
-4.016956429303741305e-01
7.062707539991965738e-03
6.304942818163400409e-01
9.012928093882958125e-01
5.893109304753391120e-01
1.267351208084647185e-01
6.253996743045095452e-03
1.910895834712925401e-01
3.219830992308138629e-01
2.169663762614119085e-01
-5.872653674215768532e-03
-1.471095270781092035e-01
-1.348710604164328752e-01
-3.876334331180929238e-02
4.423137381512604049e-02
6.849658625509773280e-02
3.213493020278926360e-02
-4.255510373251697454e-02
-1.132080832360531641e-01
-1.498017882790987076e-01
-1.646267675011883758e-01
-1.761779707550908958e-01
-1.644764896508037200e-01
-1.004376838059097832e-01
-9.811639343595707913e-04
7.451318185242161718e-02
8.089725745443090976e-02
3.148170731046149445e-02
-1.941330919746431238e-02
-3.248747098778286685e-02
-1.357481194310148666e-02
2.174070322245085819e-03
-6.558334718949575953e-03
-1.263666993731676555e-02
2.759663536094592029e-02
9.859707661154504255e-02
1.261765409867739718e-01
6.383077491424030137e-02
-5.975729347715315332e-02
-1.712395922940923854e-01
-2.065669350386595549e-01
-1.602922502295398566e-01
-8.887857725880292381e-02
-3.924409733972182568e-02
6.717441632284914740e-03
8.668156614104761959e-02
1.812460926255901050e-01
2.024067325172972942e-01
5.870426333442711753e-02
-2.153109766033445838e-01
-3.602378850313843750e-01
-6.908244400520047179e-02
5.628986281385990331e-01
9.495270246893047217e-01
6.924738953123280583e-01
1.501049637310130080e-01
-4.860218779537495148e-02
1.787544935190457651e-01
4.084171951485769947e-01
3.391925428709128276e-01
5.774610549118983777e-02
-1.925076923159529108e-01
-2.768584698409073397e-01
-2.219893242014681356e-01
-1.244941762055837148e-01
-5.551943877376294689e-02
-3.777911884223490030e-02
-7.068066789421191543e-02
-1.430823567075120706e-01
-2.298252479492371159e-01
-2.999216062640036040e-01
-3.343413000918326050e-01
-3.323216336821327999e-01
-2.985301504155439822e-01
-2.295261780937738749e-01
-1.224640517268277135e-01
1.888588311022640007e-03
9.514808349390321829e-02
1.168270697832776983e-01
7.549261227903478200e-02
1.510250377095753369e-02
-3.602514695847630621e-02
-7.675223453483887015e-02
-1.025432537066583299e-01
-9.345562084408229331e-02
-3.873026180062100893e-02
3.359712730657676144e-02
6.295182524726064544e-02
8.369719876823937532e-03
-1.095876221754578800e-01
-2.305406276645783625e-01
-3.076702185708989901e-01
-3.338676836529443359e-01
-3.220988065858887417e-01
-2.639993324113590334e-01
-1.323133643921586555e-01
4.586613991538530943e-02
1.439424179826315764e-01
3.847783503177285014e-02
-1.920306740108483345e-01
-2.281017666806204602e-01
1.646423405536569518e-01
7.241903544448088370e-01
8.603898257951193562e-01
3.969608972330129770e-01
-1.463819337970540535e-01
-2.142447778048057194e-01
1.428904591473513230e-01
4.649314580055008417e-01
4.550550552132996418e-01
1.907327416121853414e-01
-8.449788916275820239e-02
-2.267028571878638432e-01
-2.578550406804955286e-01
-2.517805523444804350e-01
-2.254669925280330667e-01
-1.563008668316666350e-01
-5.896633711947396606e-02
3.870356549710799593e-03
-1.387576625354181893e-02
-9.569686484723248510e-02
-1.874560719355884142e-01
-2.462438769975860697e-01
-2.569666941004455918e-01
-2.245638338731207884e-01
-1.649281965370519021e-01
-9.062068123694518029e-02
-4.181281704501134747e-04
1.040052104019122403e-01
1.954985163198789677e-01
2.330900189541346146e-01
1.918111315019235819e-01
7.412242876610652953e-02
-8.841197234599695864e-02
-2.316098376940928516e-01
-2.811077552368850263e-01
-2.028605206622530743e-01
-2.936722657762823319e-02
1.589420636084026284e-01
2.703768506620241041e-01
2.439369700840093302e-01
8.551928428509880664e-02
-1.267953019215196653e-01
-2.855763130716574283e-01
-3.230833729159638956e-01
-2.406006812529248029e-01
-8.820917792494162302e-02
4.676191450739870803e-02
6.670053501446393529e-02
-2.021454997706551016e-02
-5.072656801539086879e-03
3.256325465164678912e-01
7.935984691249790002e-01
8.878769887683380935e-01
4.410651861530190398e-01
-6.613460624778416674e-02
-1.278644230875561338e-01
1.861885312883129751e-01
4.564646325327690324e-01
4.474905034219429090e-01
2.415209606927376795e-01
1.860167998671194770e-02
-1.305735812814778352e-01
-2.080596507936379180e-01
-2.402720196005200259e-01
-2.461402201162364023e-01
-2.287435817326496090e-01
-1.704941319152943890e-01
-6.362511953520365304e-02
4.198427445827009052e-02
6.143459323291882573e-02
-3.262628946370606936e-02
-1.751470837525573032e-01
-2.765649331073780637e-01
-2.884707458227045995e-01
-2.126473672362919898e-01
-9.140809450010348169e-02
2.444172174009873882e-02
1.236719979838049460e-01
2.212109036241811655e-01
2.935498174721199449e-01
2.800313786191733767e-01
1.589144251587697454e-01
-1.689160268610438026e-02
-1.656425372955248887e-01
-2.328312354320419275e-01
-2.078178265157068494e-01
-1.206133815100716294e-01
-3.275557426750436152e-02
-2.224005250027536254e-03
-3.319829440039139684e-02
-7.815386618028814791e-02
-1.080913737404153446e-01
-1.440517370516506412e-01
-1.929953446297316688e-01
-2.049723478145352162e-01
-1.349495478492593326e-01
-2.221429236265465637e-02
2.138911890683552197e-02
-5.703896156211509666e-02
-1.050301957945574682e-01
1.338808499315932710e-01
6.246904851247487844e-01
8.988926949683019307e-01
5.992090147878912365e-01
2.248147800699137888e-02
-2.372905977938798705e-01
-2.980131664398327773e-02
2.989340761123586709e-01
4.177112691165766889e-01
2.955640570097819997e-01
8.976365633364592755e-02
-5.653208379252678412e-02
-1.104032805193681521e-01
-1.196173209576305019e-01
-1.293838483308541731e-01
-1.430733515102041165e-01
-1.431207852653403612e-01
-1.194159511876885793e-01
-7.638006003711739211e-02
-2.697554867541496204e-02
1.238741895659604617e-02
2.489298319297935519e-02
-3.928409912527509179e-03
-7.970532420686991804e-02
-1.780909974729128487e-01
-2.349971190973593749e-01
-1.906178642372549914e-01
-4.943205337391606141e-02
1.218410813890197092e-01
2.497305458032835213e-01
2.946491388218958618e-01
2.535171761069535679e-01
1.474791181398005246e-01
1.463726356572522813e-02
-9.799826706067471527e-02
-1.550136314030997609e-01
-1.469607946117765795e-01
-8.374695062253184608e-02
4.767546131808495652e-03
5.826246488133633022e-02
1.952019203877090187e-02
-9.787650202935914423e-02
-2.116375708581010873e-01
-2.553764559976500204e-01
-2.248059379280722692e-01
-1.511063283784326305e-01
-8.760288100677736389e-02
-1.018023079922905361e-01
-1.809560644273246754e-01
-1.298611480013235342e-01
2.764921721299054003e-01
8.944295708792288080e-01
1.154648118273720492e+00
6.985315198390782410e-01
-9.500407028930571429e-02
-5.383940919177575557e-01
-4.090053115458654465e-01
-3.208378302844919205e-02
2.126802773564937521e-01
2.279519061748850883e-01
1.269891578792775588e-01
1.486177199785725621e-02
-9.644399535838954485e-02
-2.222507757549191110e-01
-3.388032856904250600e-01
-4.008621831956973858e-01
-3.933568334316753234e-01
-3.376755319405612132e-01
-2.575138661014820252e-01
-1.627273669441069437e-01
-6.447260065570949161e-02
6.755449528437337467e-03
9.917137032326408391e-03
-6.592236291511273383e-02
-1.788561164421390848e-01
-2.660933223343615039e-01
-2.848316565623730812e-01
-2.173673672891482944e-01
-6.748205184398939349e-02
1.215068324953807177e-01
2.626427884228032528e-01
2.790567730895096021e-01
1.723352730105973118e-01
2.115735361073473736e-02
-9.233310859562210426e-02
-1.459784812853365255e-01
-1.662691631775003176e-01
-1.695078086945937812e-01
-1.386903467085913999e-01
-6.179766038464949707e-02
2.943851206441383192e-02
7.282285293438831020e-02
2.853718393014535379e-02
-7.663624341888405911e-02
-1.644599309768269846e-01
-1.861275243767481491e-01
-1.863622454249570237e-01
-2.445336307285688182e-01
-3.080027853824308659e-01
-1.305100185010179270e-01
4.468187312247398624e-01
1.099977598898399300e+00
1.209727531560321756e+00
6.322226634144034740e-01
-5.508844424495662473e-02
-2.739340309458004330e-01
-6.610145586101975890e-02
1.493648853596121762e-01
1.297936636350387196e-01
-2.557533630732675492e-02
-1.037738568544169238e-01
-4.020931969389647531e-02
5.005753524603410304e-02
3.878475351035323704e-02
-8.055787848163778464e-02
-2.159718774677001907e-01
-2.889623639256634902e-01
-3.037380881247055964e-01
-3.019336254107661266e-01
-2.780657518932261318e-01
-1.955418364998026959e-01
-7.212299315052927984e-02
1.530839174642602447e-02
8.522063053527473980e-03
-8.216441134378739408e-02
-1.891108835330224114e-01
-2.329890636465404008e-01
-1.767654179108011370e-01
-4.723065136382964546e-02
9.497804684626337535e-02
1.969292029383264420e-01
2.301251703374229407e-01
1.902256715735384518e-01
9.232074493769526491e-02
-3.382766816333496185e-02
-1.495322150396899696e-01
-2.244870072492985980e-01
-2.527054197455336770e-01
-2.400743715853900784e-01
-1.836736055120455346e-01
-8.128138230203250936e-02
3.979588813365914773e-02
1.172295674014639660e-01
1.012003454976526245e-01
1.667099734563588093e-02
-6.312378225528765541e-02
-1.254650071254725940e-01
-2.309156760574141987e-01
-3.477662551790741685e-01
-2.391420983013160251e-01
2.826497280594991723e-01
9.341189525395990900e-01
1.111836617067198274e+00
6.560848662409458631e-01
9.602820592145884515e-02
-6.442507752017978540e-02
9.322737693170410345e-02
2.097869810689969305e-01
1.490788522562503660e-01
2.947247335338433472e-02
-2.154298489179474335e-02
1.044283541460812141e-02
7.295001924116972791e-02
1.079409665163451881e-01
7.082869658743219665e-02
-4.931782736989585164e-02
-2.033843581473483986e-01
-3.055665858239865473e-01
-3.094629689606855916e-01
-2.443701761985828114e-01
-1.616310664962029853e-01
-7.610593583775494830e-02
1.512901193989166573e-02
8.854519737604807372e-02
1.028750538439962142e-01
4.237707755881224558e-02
-5.869441113254314502e-02
-1.282625674753733180e-01
-1.062137716118028985e-01
-1.687143733278374108e-03
1.098344184708828358e-01
1.607602490582226151e-01
1.498755358016307382e-01
1.207347395690965691e-01
1.021569428877964758e-01
7.922464804766385371e-02
1.564304142951674845e-02
-9.417235601933805766e-02
-2.024391323977503543e-01
-2.500546018829505890e-01
-2.157513417068666617e-01
-1.165224126153675682e-01
7.667293950033560873e-03
1.012301516197105927e-01
1.200023886246600335e-01
6.149908508623761622e-02
-5.169375523005775852e-02
-2.046620258598723374e-01
-3.418619491717679870e-01
-2.789700565101392860e-01
1.702376948026528836e-01
8.308995680924698979e-01
1.146500227828718188e+00
8.171384226656452920e-01
2.398946657491266010e-01
-1.390401090456597211e-02
1.004204038693012196e-01
2.234610825526653077e-01
1.478464067301020202e-01
-2.685521824526243551e-02
-1.373414059059560322e-01
-1.363567990401124974e-01
-6.578551622238554275e-02
1.254051791349228284e-02
3.915754713795634168e-02
-1.871998714727863417e-02
-1.378043739480731000e-01
-2.559914602906066539e-01
-3.253534258623348996e-01
-3.378074630570069292e-01
-3.028687358659680751e-01
-2.227535266819931081e-01
-1.073051092435764325e-01
-1.307584479322495413e-03
3.407777814914829395e-02
-2.347786703874644651e-02
-1.303465851048418167e-01
-2.044176342998683116e-01
-1.864222802495681397e-01
-9.538930927478043997e-02
-1.831900722984437443e-02
-1.873239418637808601e-02
-6.137525863146937183e-02
-5.778825331898020806e-02
1.531898805802916520e-02
7.687569501248893433e-02
3.425908137262713427e-02
-1.071508682271978541e-01
-2.482386769713262331e-01
-2.996399309212818829e-01
-2.594037816130876362e-01
-1.863266110850738677e-01
-1.175759270159539016e-01
-3.793358650141456789e-02
6.750549961345075900e-02
1.542420720786970012e-01
1.289466348659398520e-01
-6.225013471408212540e-02
-3.041056910725737361e-01
-2.907318964776833270e-01
1.789037334023129422e-01
8.093798879241487221e-01
1.000545592542467555e+00
5.949437849007862544e-01
9.796732671307761819e-02
-9.657169590648297802e-03
1.871897432114116577e-01
3.200299766716652172e-01
2.285023490666807655e-01
2.179643172417993977e-02
-1.475383233225822099e-01
-2.206204241175057090e-01
-2.118685767938597864e-01
-1.620081746086615426e-01
-1.169987970053043835e-01
-1.005123226251859458e-01
-9.726914094365712860e-02
-9.380299818226359165e-02
-1.207771527953925006e-01
-2.057822214894559354e-01
-3.036286665401773388e-01
-3.333360849349817912e-01
-2.726472469363248052e-01
-1.688563096173859579e-01
-7.144228089998500009e-02
4.761088063973956466e-03
6.092268026484504162e-02
9.480962251495039794e-02
1.034368521374906813e-01
8.750335602765871301e-02
4.762284888725221849e-02
-1.490267460692053410e-02
-8.633690500664564782e-02
-1.308018226827025454e-01
-1.069644720214771860e-01
-1.944998754283105979e-02
5.149979665743403129e-02
1.332149685326303526e-02
-1.330873166822836018e-01
-2.836240619036877741e-01
-3.400817403035535924e-01
-2.994425955401076589e-01
-2.224326307485278709e-01
-1.438728541691762230e-01
-4.355216960881060084e-02
8.178574681130515445e-02
1.374635217586412939e-01
6.849758651994717826e-03
-2.232569523441549075e-01
-2.098695977253956513e-01
2.621216363579673136e-01
8.465712151521038731e-01
9.216986453076012609e-01
4.170059475709180785e-01
-4.740108280597818413e-02
1.748868683722073353e-02
4.262854207642733928e-01
7.001637483731800726e-01
6.209778691527942929e-01
3.090645721106990984e-01
-4.769979664882739723e-03
-1.762247387370947105e-01
-2.040907473321704746e-01
-1.660289267241097655e-01
-1.202148404062103049e-01
-7.198727884780364850e-02
-1.748703719405786047e-02
1.384613195449995240e-02
-1.923599348540207601e-02
-1.188781062257388277e-01
-2.399112023062954790e-01
-3.262134131622652644e-01
-3.444358317071005704e-01
-2.946546055373670536e-01
-1.980259207652576015e-01
-7.381136340055373390e-02
5.964123583922169292e-02
1.657001675952674002e-01
2.050313620271285164e-01
1.731553269200726275e-01
9.615645100662330302e-02
6.984175434028763035e-04
-8.669007694576574830e-02
-1.318085838813678190e-01
-1.154782285588148993e-01
-5.643763986674282807e-02
5.926406125684201276e-03
4.475649080607040781e-02
5.083053127824630618e-02
1.610831611092517282e-02
-6.455101781729853661e-02
-1.731791323075818068e-01
-2.712530136499147204e-01
-3.191721692695194679e-01
-2.825807734771383362e-01
-1.591032692928952275e-01
-2.403582035377620219e-02
5.429963319691336228e-03
-8.003465207713575391e-02
-8.048255945188582949e-02
2.243332626427720355e-01
6.867394923569535292e-01
8.101822098991480203e-01
3.888387089173501732e-01
-1.318285634165133891e-01
-2.178905387383712755e-01
1.039682998394537983e-01
4.062796312909911500e-01
4.170456620629531264e-01
2.079760820560971057e-01
-1.764263474232032752e-02
-1.491062866114080676e-01
-2.031371246722341040e-01
-2.347824141786620800e-01
-2.574677010100891450e-01
-2.370662800757135091e-01
-1.492675334657269370e-01
-3.871890422612402072e-02
1.740324888931986738e-03
-7.085559741876525097e-02
-1.966477686361138844e-01
-2.779936932863674715e-01
-2.746309872418427611e-01
-2.188815980349481660e-01
-1.586322782735536951e-01
-1.033845723913156683e-01
-2.305133349418056823e-02
1.024200522112123368e-01
2.382787429487356057e-01
3.091316561315463063e-01
2.551797471653959870e-01
8.687253936189978654e-02
-9.650436889827340714e-02
-1.740799004370357228e-01
-1.268866904065714118e-01
-5.504631593814994506e-02
-3.462318318422998725e-02
-2.584825142407809126e-02
2.303717174196292378e-02
6.704604198002342419e-02
2.965537051969671656e-02
-8.686292499206861584e-02
-2.059197241518816446e-01
-2.546699230749383536e-01
-2.159028264581666079e-01
-1.224717836426507944e-01
-2.730797143748535383e-02
9.506344982644229780e-03
-3.252040272489088030e-02
-2.449553139278762975e-02
2.537450684869308470e-01
7.474547165697327245e-01
9.781793112751601127e-01
6.015154051619631126e-01
-4.300333619521071182e-02
-3.262465483093741070e-01
-9.705754197363689051e-02
2.853084607979706200e-01
4.820019146436685387e-01
4.396068847244916644e-01
2.574993251279252271e-01
3.615608964386928664e-02
-1.366369380743667761e-01
-1.909337464244032223e-01
-1.396421082571756012e-01
-8.275078147728036349e-02
-9.053197169656944376e-02
-1.257480839132976702e-01
-1.219913590899514150e-01
-8.443753976713067044e-02
-6.855348479755821178e-02
-1.038568296844916000e-01
-1.763394964021120503e-01
-2.520429426087612002e-01
-2.921115879764656920e-01
-2.696216624610587309e-01
-1.832105813278811224e-01
-4.585191453129170563e-02
1.188556923703518176e-01
2.546575474789769533e-01
2.845799067013564665e-01
1.794197416716286908e-01
-1.258582622959528857e-03
-1.583613404168993655e-01
-2.343378651376062660e-01
-2.343685980303879535e-01
-1.865953035210864419e-01
-1.096269234653927810e-01
-2.117169158612452334e-02
4.361086812466107715e-02
4.707216701070331827e-02
-1.727455501184346071e-02
-1.204322945149363666e-01
-2.135253858577724206e-01
-2.401039376508704859e-01
-1.791004632438767397e-01
-9.985668101114479611e-02
-1.107860863217559194e-01
-1.826331053072241251e-01
-7.073319976397049458e-02
4.172321611552642362e-01
1.017988624291117139e+00
1.132993497101881131e+00
5.566760037733315958e-01
-1.827079281598848470e-01
-4.519328981167636261e-01
-2.102333249463762543e-01
1.274096308659604659e-01
2.541402783446810587e-01
1.802069264806318294e-01
4.257469301713969617e-02
-7.945921765412954085e-02
-1.765175438890401738e-01
-2.584992431882336961e-01
-3.234393401677169710e-01
-3.537128781412487988e-01
-3.363645007566771761e-01
-2.790746904425318586e-01
-2.018146915956714749e-01
-1.243732063649405500e-01
-6.862859265277686249e-02
-6.178765753896268975e-02
-1.171161856561496323e-01
-2.074162958518738498e-01
-2.772183878367031618e-01
-2.903647183393585629e-01
-2.457671960744364226e-01
-1.420690929335586827e-01
3.037889005946421694e-02
2.346859676035857323e-01
3.705113574004090804e-01
3.620804481758617688e-01
2.342768039336835806e-01
6.529314372595584892e-02
-9.140281729258915855e-02
-2.038571844798696964e-01
-2.405590411823507468e-01
-1.978699612313030431e-01
-1.119491616829599856e-01
-2.298451444116833900e-02
4.429180294917617333e-02
6.445709400197820182e-02
1.286344964977948098e-02
-9.685163646633797307e-02
-1.942008156958802134e-01
-2.084503436036803381e-01
-1.608557365488422763e-01
-1.583804981560650027e-01
-2.209309823291801811e-01
-1.325725850054881860e-01
3.469091599272389193e-01
1.014569531456194218e+00
1.247851618844171284e+00
7.645424453388207642e-01
6.497635078842647904e-02
-1.980057774103405055e-01
1.426457264194510438e-02
2.690018318923297347e-01
2.874941113677788596e-01
1.616557623702957469e-01
8.988295808144108889e-02
1.123001148719515174e-01
1.203417815917005723e-01
1.864074921225601644e-02
-1.778372968789176667e-01
-3.622126720832011260e-01
-4.251970288235836226e-01
-3.574088857963185206e-01
-2.458518110665119383e-01
-1.522108234460118059e-01
-6.410168242944010164e-02
1.996837156136672953e-02
5.497151882399476525e-02
2.798621219760261472e-02
-6.277646002994899041e-03
-5.225000915780507460e-03
4.906927420881669090e-03
-5.116578081587719318e-03
3.081959622147421689e-03
8.447203964350052940e-02
2.188165291504354515e-01
3.120214829894384367e-01
2.822499351312098836e-01
1.345808725634199954e-01
-4.775053478576998800e-02
-1.841219242290910996e-01
-2.551095643368767041e-01
-2.787547596964247143e-01
-2.598975975950285622e-01
-1.865740485063420162e-01
-6.868481299356160585e-02
3.687530822759606253e-02
6.173133952994038637e-02
-5.899638876451888947e-04
-7.744973944659790110e-02
-9.431952721497156855e-02
-6.295281750340316063e-02
-8.119229734890336114e-02
-2.124404310743555901e-01
-3.147168202145837479e-01
-7.268444785176658707e-02
5.835104137134990987e-01
1.150368788223460337e+00
1.027813026735404645e+00
3.275170077812329383e-01
-2.377719466082310606e-01
-2.553278742396021261e-01
3.039082459098305100e-02
2.112655958201403728e-01
1.825028155905763505e-01
9.351914593877298787e-02
7.163986203110903062e-02
9.580706667074671834e-02
7.720417944971265378e-02
-1.996111203817165641e-02
-1.547016787727396592e-01
-2.664160983034455921e-01
-3.237789208613143788e-01
-3.266685637006478404e-01
-2.823409867655882199e-01
-1.931245834751627310e-01
-7.686644621592175763e-02
1.527096739840140549e-02
3.466593499882762719e-02
-1.539988258683049581e-02
-9.270565839693654941e-02
-1.584560197994870079e-01
-1.821822158294687244e-01
-1.368587456577033123e-01
-1.758084118226719769e-02
1.403116086910154992e-01
2.639686381268775417e-01
2.806206632245283328e-01
1.755903068448922411e-01
6.253812778301687941e-03
-1.461848753653942345e-01
-2.316731647617259471e-01
-2.515415774040111185e-01
-2.389711366282711857e-01
-2.150362025428520507e-01
-1.629784336831593683e-01
-5.913411836276866174e-02
6.612028724774453303e-02
1.276560807057948999e-01
7.779609645929891348e-02
-2.907893031677779086e-02
-1.149727235298534517e-01
-1.983876147721897742e-01
-3.486279273868921336e-01
-4.723733862690527308e-01
-2.648163554745716630e-01
3.956598161853268625e-01
1.056799824292080636e+00
1.085569833479275159e+00
4.879931844403192498e-01
-9.244230343053580490e-02
-2.133380329112197216e-01
-4.106837383171151046e-02
6.925567974111540570e-02
1.135363988707882923e-02
-1.000604940710335539e-01
-1.435962906142513595e-01
-9.395163133023554103e-02
-9.540855564578763076e-03
2.633715852869979168e-02
-2.939161362999099733e-02
-1.538257105334577546e-01
-2.823469084907817561e-01
-3.538142368422564910e-01
-3.509949872865943399e-01
-3.027018707606173309e-01
-2.390480614628010536e-01
-1.605284784367577711e-01
-6.484273251511771252e-02
1.852394420630219460e-02
4.743067532476572673e-02
1.496710541380761282e-02
-3.761962216038550189e-02
-5.554595170933831344e-02
-1.921462601768495967e-02
3.942119798974631079e-02
8.024349821469263511e-02
1.039409358374573655e-01
1.292520950787849898e-01
1.420359449016917741e-01
1.066641800272681712e-01
1.433704333907067155e-02
-1.063012626713914360e-01
-2.125307863017202592e-01
-2.638694708566988734e-01
-2.356915268789376849e-01
-1.414769492030490683e-01
-2.882256031735700927e-02
6.044236927041712892e-02
1.141637825301730358e-01
1.341357209330899247e-01
1.067173510569454226e-01
-7.652033458093131929e-03
-2.098614811515419065e-01
-3.312843136286205414e-01
-7.931895124659371632e-02
5.692651526361547365e-01
1.113957510280524588e+00
1.025012357965439547e+00
4.419197725707848523e-01
-9.126092325633022861e-03
-1.998610350390757698e-02
1.548224930169599944e-01
1.793984766707035494e-01
2.307055095917485282e-02
-1.412245687734008937e-01
-1.916380994644285851e-01
-1.337001319133838684e-01
-4.976894991264898399e-02
-4.584165479870448701e-02
-1.645305093965234722e-01
-3.166205477457308959e-01
-3.792471090100078546e-01
-3.517964719994374212e-01
-3.317420054119710748e-01
-3.649786513147172395e-01
-3.933289935778009339e-01
-3.408451716741005000e-01
-2.068748283107911534e-01
-6.448173844642818286e-02
1.272760167378940085e-02
1.272157531612675557e-02
-1.861836837402536249e-02
-3.210833290805354540e-02
-1.419991177433846050e-02
1.860431199759833565e-02
4.014131475524162357e-02
3.729350408955371676e-02
3.013636027035803550e-02
5.085331077305925429e-02
9.196383085043467742e-02
1.036244608208121559e-01
4.913287628503137938e-02
-5.572847576958704641e-02
-1.566215431762475185e-01
-2.100161246194802434e-01
-2.175284345536164232e-01
-1.985234051138702882e-01
-1.448532037095360547e-01
-3.780541732650859882e-02
9.676075559295074791e-02
1.760412565126482087e-01
1.079046851361901982e-01
-1.156874494324605929e-01
-3.128917845625076022e-01
-1.744504925802619066e-01
3.650937885290274076e-01
8.656886294147225769e-01
8.263322009807285706e-01
3.745367853277312697e-01
1.009967091040191722e-01
2.437898003013555248e-01
4.717151795542819381e-01
4.394967983526792410e-01
1.849905256415154964e-01
-3.893943174771428983e-02
-9.226219604316746037e-02
-3.691282717341118347e-02
8.669119198417611638e-03
1.040171068529514853e-02
7.835794931496439103e-04
-9.821300565629010465e-03
-4.341624065680566025e-02
-1.040092011291409990e-01
-1.706792222564974815e-01
-2.321967498852021416e-01
-2.916949555802929583e-01
-3.330656671914441480e-01
-3.014690697999517499e-01
-1.468733987507481187e-01
8.796561326630794597e-02
2.597621105819014065e-01
2.646816649110868003e-01
1.556608379336410497e-01
6.150407841723719293e-02
2.793759300108973609e-02
-2.040617533384554184e-03
-7.395240708961375864e-02
-1.436185762482624362e-01
-1.312719073567046868e-01
-2.751831335516182961e-02
8.673306606025706078e-02
1.183937324088575466e-01
4.005003979658917912e-02
-9.608122476107920640e-02
-2.001106503490572008e-01
-2.138394586584242418e-01
-1.637121492453063043e-01
-1.327727993725603406e-01
-1.530061261066060496e-01
-1.478790956371724696e-01
-3.448309250693018524e-02
1.261658257401831462e-01
1.635063118447488972e-01
3.651351510779817650e-02
-1.636687851442100022e-02
2.766892009183964940e-01
7.578960282805954352e-01
8.850714136701796075e-01
4.567155487052887985e-01
-4.232254316238441560e-02
-9.552438876075118601e-02
2.101389540106907150e-01
4.437688030068816514e-01
3.900119067268419948e-01
1.497059963442750052e-01
-9.199759116065379938e-02
-2.278368371443119100e-01
-2.451880798594356092e-01
-1.914391647309263977e-01
-1.260594765332274103e-01
-7.970053015778361116e-02
-5.551139565615781368e-02
-5.603284369148348737e-02
-8.804015239741490306e-02
-1.484309020212625507e-01
-2.188522556238846339e-01
-2.718410730713596291e-01
-2.857673086523662143e-01
-2.569861171383749920e-01
-1.909755485120618324e-01
-9.379416682643358649e-02
1.371859081744417931e-02
9.454702768550128644e-02
1.233497878201960524e-01
9.965070459361739796e-02
3.818605901335499209e-02
-3.433448351824752720e-02
-8.810866657815083491e-02
-1.090970669615417415e-01
-9.504036113373533212e-02
-4.638702701405101464e-02
1.465670584744090815e-02
4.279070767522700353e-02
1.448357674312759913e-02
-4.944610050993798051e-02
-1.179839581911442808e-01
-1.804729217573706745e-01
-2.333790214603578550e-01
-2.505239132519596068e-01
-1.873973353056321844e-01
-4.412911770239989762e-02
7.714694271488509170e-02
4.133018812454448965e-02
-1.205606328385298021e-01
-1.222873548882630473e-01
2.806226529830443961e-01
8.458963654232404261e-01
9.820950224564719555e-01
5.067690098930184295e-01
-5.839273710626328995e-02
-1.605625496225455140e-01
1.451670967336562423e-01
4.173424833381606525e-01
3.999169459419264494e-01
1.835607197575924443e-01
-3.543738847013019888e-02
-1.722903560599612360e-01
-2.511596353812138860e-01
-3.036418394711694058e-01
-3.220771257784389996e-01
-2.842759784272885781e-01
-1.947635185026193871e-01
-1.032308490110832588e-01
-7.779156928490059408e-02
-1.431610270601219592e-01
-2.494941212864888180e-01
-3.216251177258696581e-01
-3.348430987264554570e-01
-3.209314770541813466e-01
-3.041574805482128441e-01
-2.613833158999773199e-01
-1.612382439773091258e-01
-2.373685472364134644e-02
8.954616152286624942e-02
1.355554649244425369e-01
1.064744826306409931e-01
1.027271392809949238e-02
-1.179952834552878138e-01
-2.120381513768926085e-01
-2.253619125842595272e-01
-1.692924533204693827e-01
-8.365185427252774808e-02
4.184918961470493644e-03
7.601950622896506971e-02
1.023919779303569394e-01
5.347259500645963615e-02
-6.564190931450096522e-02
-2.010248230327023877e-01
-2.761723015155109762e-01
-2.406306998534870345e-01
-1.171091306492544892e-01
-9.231807109404709111e-03
-2.177432763336339949e-02
-1.086104712711439130e-01
-2.163946369147147497e-02
4.159878492975416231e-01
9.250370161347789555e-01
9.542878321829444399e-01
4.155133486583449942e-01
-1.270626290993370766e-01
-1.817996540791130544e-01
1.324273461259206364e-01
3.983639702166537067e-01
4.067753566229161399e-01
2.325854848061788549e-01
2.944133483569496765e-02
-1.172269562451090374e-01
-2.004045472751644075e-01
-2.425489956716647133e-01
-2.527338063539011914e-01
-2.238153278474759866e-01
-1.601641801622491201e-01
-8.861191558507022781e-02
-4.127881721179776919e-02
-4.248209227405481264e-02
-1.025187674728943177e-01
-1.969511600930931028e-01
-2.639880836635489225e-01
-2.634935607355408105e-01
-2.263459038041790716e-01
-1.955234160422291978e-01
-1.396906323544743755e-01
3.782937117904030394e-03
2.083552713921218991e-01
3.523541807417584493e-01
3.431241186328926052e-01
2.031177101118328832e-01
2.786938962600034667e-02
-1.077479472501582936e-01
-1.858465354378514289e-01
-2.116069669430619693e-01
-1.808306060035780871e-01
-9.226465168376078718e-02
2.355638012757634708e-02
1.037007775992024594e-01
9.268981108484167231e-02
-1.091570446682839195e-02
-1.479512823402063804e-01
-2.404845426361464922e-01
-2.436367029720773736e-01
-1.672987773565739467e-01
-7.222356576912242199e-02
-4.013370528547964555e-02
-7.838049301726303375e-02
-2.712331751398784283e-02
3.113291649366926039e-01
8.245685975133641987e-01
1.034595466257953733e+00
6.540145674280589683e-01
3.890865011707975163e-02
-2.331485574171517916e-01
-5.464374351339087998e-02
2.377349685593554418e-01
3.682111983988987647e-01
3.278484418197974981e-01
2.151559796415162817e-01
8.972189583241704791e-02
-3.043976537575405344e-02
-1.314494421501884169e-01
-1.968759256948736935e-01
-2.219699712496371879e-01
-2.170683887849692018e-01
-1.894134719955983259e-01
-1.319451209611073317e-01
-4.624777678231221240e-02
2.920281189407918088e-02
4.215192015666151260e-02
-8.388012236407862282e-03
-5.870458467369030903e-02
-5.983171035947025540e-02
-3.821550664091925148e-02
-3.715704804021285890e-02
-3.535617090071885293e-02
2.621830591556711942e-02
1.552068121950177515e-01
2.747616476957322473e-01
2.844922987303741824e-01
1.586873960999152233e-01
-2.710133360304011960e-02
-1.738530307767531535e-01
-2.414705667062346794e-01
-2.485001986560946563e-01
-2.183765953520283576e-01
-1.500144411824467783e-01
-4.337531586313465859e-02
6.219159938723306524e-02
9.950952061377911495e-02
3.565008822823746704e-02
-8.514987742003421456e-02
-1.692154375306998970e-01
-1.516601580972620766e-01
-6.946787096921286375e-02
-4.947285886090493912e-02
-1.528194708669707302e-01
-2.050353007703136221e-01
9.402594169510096467e-02
7.377057607341078738e-01
1.195684278967428238e+00
9.412773479477172245e-01
1.677336949240534891e-01
-3.956444238192485807e-01
-3.605002310541208788e-01
-5.713301653969868332e-03
2.281573897614494195e-01
2.261168430057376721e-01
1.398522820406095102e-01
8.356751590011862740e-02
3.036973108991641856e-02
-7.414299195293348743e-02
-2.194769230364113088e-01
-3.477275656138830162e-01
-4.094081651861346538e-01
-3.960646069236862243e-01
-3.321936800068871487e-01
-2.480635169107365257e-01
-1.679477596337693723e-01
-1.110521988859510811e-01
-9.069453540099597921e-02
-1.121380586808018998e-01
-1.656605744994400498e-01
-2.214251868100831910e-01
-2.430920975746087009e-01
-2.095070770565900797e-01
-1.169333732363527084e-01
2.811824463988784467e-02
1.928460376217636385e-01
3.026848368769230468e-01
2.804461694264874239e-01
1.190742650889643484e-01
-9.429537985968450275e-02
-2.439208324652863968e-01
-2.825930057654656435e-01
-2.515997320470891307e-01
-2.041549968247749758e-01
-1.422575731048614234e-01
-5.040284348086098570e-02
3.990336444585126235e-02
6.494158406504976777e-02
2.842318657598298659e-03
-1.014341102435168535e-01
-1.837625418615689010e-01
-2.215479395860912581e-01
-2.537727918982529141e-01
-3.039516807627655748e-01
-2.448102535178700301e-01
1.388927870769025852e-01
7.855716442879816519e-01
1.193149325515716175e+00
9.277874529838615603e-01
2.159872371428306348e-01
-2.961139501846971056e-01
-2.943165441534202897e-01
-1.722439117736350445e-02
1.755173639457550949e-01
1.798540724259296564e-01
1.072437878954690949e-01
6.727899285917783578e-02
6.659230931843318491e-02
5.118473131402463683e-02
-2.272780271447091827e-02
-1.540501490773148185e-01
-2.959062466432832439e-01
-3.824760113596401556e-01
-3.733615467389771458e-01
-2.817227204391914985e-01
-1.613769411190365266e-01
-6.650189351791128967e-02
-2.245530949156259587e-02
-2.759473718771654482e-02
-6.727567755326246957e-02
-1.200910518171446895e-01
-1.598156124101402786e-01
-1.628224271273597812e-01
-1.175378506219143665e-01
-2.624371299477281858e-02
9.274201621734620704e-02
1.990399868972062003e-01
2.422449928064727975e-01
1.956321193951139070e-01
7.903111573251384026e-02
-5.634889179199848580e-02
-1.648643347331303077e-01
-2.254215837419217550e-01
-2.343967628454128038e-01
-1.909540520417616349e-01
-9.695363567255964321e-02
1.658292728696605933e-02
8.788911270632138173e-02
9.240463375056370832e-02
8.272762021333858462e-02
1.040888340849222132e-01
9.950892922054660472e-02
-3.035768832659242050e-02
-2.606040828812929977e-01
-3.657640064659411494e-01
-8.090833919314197042e-02
5.486478571607753540e-01
1.036389284367418728e+00
9.259080982309262353e-01
3.738260836221757311e-01
-4.143728577230514076e-02
-4.341421281238572183e-02
1.284066514812584048e-01
1.623801319288535605e-01
3.452537073904186210e-02
-8.155965524542636846e-02
-7.124135491679288446e-02
2.330462521733121795e-02
9.031203626738504298e-02
6.820643083541662322e-02
-1.892260006716133328e-02
-1.120289337359596238e-01
-1.801154202099918833e-01
-2.259064859330043307e-01
-2.474326141454274708e-01
-2.276249659422161231e-01
-1.594276022299424278e-01
-5.518668051605472857e-02
5.659657430548042933e-02
1.273871214730719348e-01
1.115103706055918381e-01
1.734890147584035314e-02
-8.342688272648828007e-02
-1.175047460521752574e-01
-7.150293417147335351e-02
1.765532900986712533e-02
1.119106411940779255e-01
1.877850580823928472e-01
2.206333620175550125e-01
1.867795165005326219e-01
8.738673383667359962e-02
-4.242810473103653807e-02
-1.539235314903243390e-01
-2.170002430473439159e-01
-2.369187469626737874e-01
-2.329893695247853280e-01
-2.022887117460179796e-01
-1.280872468826296795e-01
-2.460359135735637470e-02
5.844411358746883639e-02
8.196453784645520158e-02
4.383730965876453389e-02
-4.814329497712877687e-02
-1.962443017259253297e-01
-3.430139480394260865e-01
-2.868981216343182705e-01
1.586256304210396928e-01
7.932925129699802680e-01
1.059736258528223063e+00
7.094629461567442119e-01
1.707876371606915078e-01
-3.357942434273043786e-02
8.280978333875770037e-02
1.786525256717487742e-01
1.023788684569181540e-01
-4.156045020416609947e-02
-1.294133464242753773e-01
-1.265227075803384005e-01
-5.718725162411417845e-02
1.702809592246882706e-02
2.782159095281539971e-02
-4.178719581626157142e-02
-1.494055560697535867e-01
-2.461824584085123280e-01
-3.111670989085937311e-01
-3.379049379538119902e-01
-3.136730270713122271e-01
-2.233081814373169272e-01
-7.694749809579978783e-02
6.870700211994840156e-02
1.355094007519575539e-01
8.804549480859433230e-02
-2.648109767682949728e-02
-1.123808997789124964e-01
-1.096442175543212855e-01
-4.517742511120294291e-02
6.143327599886391939e-03
8.118848676765575562e-03
-5.946282250396952088e-03
6.051165295569505345e-03
2.889270725241904064e-02
1.080761668238178902e-02
-6.493708626245217608e-02
-1.636885447443162944e-01
-2.430238614502657768e-01
-2.751429760158573545e-01
-2.433844198177959606e-01
-1.567311475158224554e-01
-5.252567716918321583e-02
3.857375185654515759e-02
1.088886845768313738e-01
1.419222119840453100e-01
8.919296985477292994e-02
-8.621474028551176505e-02
-3.053987585155505391e-01
-3.213139127009713714e-01
8.653043368057683482e-02
7.405093399577327151e-01
1.079850645592977498e+00
7.943491068291869128e-01
2.391340522011928815e-01
-4.184071105565152771e-02
3.939738997218718286e-02
1.787858578468807247e-01
1.502397677510652896e-01
-9.366895747612024453e-03
-1.598323302712696681e-01
-2.244456839356510913e-01
-2.044531274307837543e-01
-1.326438382909182756e-01
-5.650797802098465883e-02
-3.131708790151907507e-02
-9.235003638916965130e-02
-2.233063247215788527e-01
-3.561806523920008627e-01
-4.206185588601933367e-01
-4.034872067665508100e-01
-3.438940712325962434e-01
-2.689013222849109819e-01
-1.691338404860020239e-01
-4.943978162193599091e-02
3.947744746503428076e-02
5.455950081420296582e-02
1.889893688542142874e-02
-7.367803474735968444e-03
2.090024197459022445e-03
2.257991348596025127e-02
2.622440067547040371e-02
3.024167025106110421e-02
7.640655153025222024e-02
1.599902757621510518e-01
2.121981064305029363e-01
1.671369830706216086e-01
2.383656187836696166e-02
-1.563917608805089343e-01
-2.911860876122195352e-01
-3.263867350371195686e-01
-2.711562373154874916e-01
-1.830506022940582844e-01
-1.063510685946704726e-01
-3.462064956022507800e-02
4.964449069085592053e-02
1.050991496389456353e-01
4.008614632993102306e-02
-1.486359907730551433e-01
-2.425400008152722997e-01
4.146781583211876093e-02
6.176512540302733223e-01
9.513503099310139932e-01
7.002549350539917228e-01
2.221863512122619899e-01
8.823104367083170474e-02
3.278592276344439171e-01
5.149492746824639866e-01
3.872349008840654805e-01
6.992831496292718774e-02
-1.884647673036512205e-01
-2.793375437918663162e-01
-2.523211345151626928e-01
-1.875661713219803906e-01
-1.087975860175164483e-01
-1.682143712778789990e-02
4.680485034750789253e-02
2.039849217305043927e-02
-9.931822061130747559e-02
-2.372777082655428971e-01
-3.143034914513105904e-01
-3.191014800047080047e-01
-2.877219333988410011e-01
-2.371968743600741392e-01
-1.548814478953449703e-01
-4.133443400694762626e-02
6.835010665052837497e-02
1.267718880316775210e-01
1.118033452314486642e-01
4.765216102811244137e-02
-1.640158628936243951e-02
-4.835676850956541206e-02
-4.657795527955031767e-02
-2.353274910096440214e-02
8.608541605044177022e-03
3.946613738593234694e-02
5.280009606253232429e-02
2.672150457234772139e-02
-4.526150598085480758e-02
-1.367496375832165378e-01
-2.066926726300176986e-01
-2.344066083230441633e-01
-2.230643069300156101e-01
-1.742721740238761530e-01
-8.230300541722160301e-02
4.028113283292564240e-02
1.386825063983089523e-01
1.257877057923537378e-01
-3.837199843765660284e-02
-2.154926073416156274e-01
-1.106662493337998016e-01
3.733643463360696857e-01
8.338831026111376277e-01
7.566260577884071914e-01
2.319140446379847342e-01
-1.246172570431504090e-01
1.338633670778158029e-02
3.562678470681122089e-01
4.801634500031574659e-01
2.927580904606371104e-01
-6.970833176081596416e-03
-2.177583441361969907e-01
-2.987525432409182669e-01
-3.099660173655923723e-01
-2.845874176940250688e-01
-2.017350296242111929e-01
-5.922063749979684932e-02
7.069313525610600168e-02
8.882451953705249037e-02
-2.164622465164775175e-02
-1.704299149479294728e-01
-2.621405750519998357e-01
-2.765961382755983688e-01
-2.367825135315556606e-01
-1.570259387410973262e-01
-4.546265681683653304e-02
7.569916997554704263e-02
1.693991981278885062e-01
2.073484140954500454e-01
2.010408914911821776e-01
1.872410981569160027e-01
1.684801928080553457e-01
1.073612381762237555e-01
-5.387381375663007760e-04
-9.055075501601683730e-02
-9.117146389797155248e-02
-6.371720244017329768e-03
8.028653540806135469e-02
8.989879570784706231e-02
2.387935541765158487e-02
-5.988989503701817874e-02
-1.234291537718924386e-01
-1.719473519338322320e-01
-2.125315160753713795e-01
-2.169986555841190989e-01
-1.419701545604413195e-01
5.224939963181012004e-03
1.253744049544136541e-01
8.916316915986452485e-02
-9.582929974324556899e-02
-1.802224287001677472e-01
1.067256791623335949e-01
6.174486097729164902e-01
8.057810705026378084e-01
4.295065062603848349e-01
-5.959752631340058115e-02
-1.213087719147448729e-01
2.003266071051773567e-01
4.749813843894023502e-01
4.617686736640600476e-01
2.575082071835357866e-01
4.886460095743300203e-02
-9.015686273765126379e-02
-1.841459411139904911e-01
-2.553501608087478392e-01
-2.837231825678248609e-01
-2.432424018148839628e-01
-1.492948468911531879e-01
-6.406401034201684996e-02
-5.136665750587555979e-02
-1.209704233651641009e-01
-2.219379989735719982e-01
-2.927868486635516465e-01
-3.111517768905486814e-01
-2.950136421066719694e-01
-2.664180030892871476e-01
-2.194787461334742618e-01
-1.261472401130126486e-01
1.845999865252129224e-02
1.601937768801506845e-01
2.144452486352901588e-01
1.400074329273249540e-01
-1.925593104438087788e-02
-1.696148698924630494e-01
-2.422751675971503704e-01
-2.294726008321367750e-01
-1.568232858113129125e-01
-4.996662055993433826e-02
5.824755544724556644e-02
1.198083620970190194e-01
1.047360641208307103e-01
3.141750238248135207e-02
-5.693188555730131772e-02
-1.336447535408477050e-01
-1.857380140940655400e-01
-1.861265309917548016e-01
-1.124264724439955482e-01
-6.429911807199587513e-03
3.039938147986327027e-02
-2.537445765535146711e-02
1.456822738140671480e-02
3.742868918962942715e-01
8.868263399057069174e-01
1.009571204702672587e+00
5.169199809590930839e-01
-1.209596077810103087e-01
-3.266782274276650022e-01
-7.987846471078768884e-02
2.259806605022813275e-01
3.130849587057537020e-01
2.029338935691066270e-01
3.191365144177045476e-02
-1.237483845270060945e-01
-2.495980027604200457e-01
-3.360846748255459926e-01
-3.673639783243107804e-01
-3.360548910650933974e-01
-2.525461347478029084e-01
-1.500423515866498581e-01
-7.862002155967698358e-02
-8.003093816262314697e-02
-1.526266495986784155e-01
-2.292083820390122262e-01
-2.164421665370048764e-01
-1.081027517155730977e-01
-2.452980530569308371e-02
-5.396046753412398617e-02
-1.092484462117306598e-01
-4.881790621871334723e-02
1.237299309605354031e-01
2.754347027496572564e-01
3.037558051301340600e-01
2.124683515589121940e-01
6.173307032595214128e-02
-9.655768029133807162e-02
-2.219861464311176369e-01
-2.708051882152080481e-01
-2.227834774773859161e-01
-1.113318693715768110e-01
-2.787013444585670005e-03
4.910241067068359805e-02
2.772350836813963076e-02
-4.905083474445283420e-02
-1.457932329392192805e-01
-2.257805452831411208e-01
-2.571781818232318217e-01
-2.227772098882717378e-01
-1.485754410818323212e-01
-1.079332419148611028e-01
-1.282936755358128345e-01
-6.906004819149386131e-02
2.742165156369661405e-01
8.049000054167724238e-01
1.040815191608461587e+00
6.794950623760294128e-01
7.328960683719064340e-02
-1.969931714167699188e-01
-2.436838556237121839e-02
2.622698231084489295e-01
4.121474754658076556e-01
4.165686687035781710e-01
3.068344631583559967e-01
7.962520197543435096e-02
-1.850883134230725258e-01
-3.322785916343831691e-01
-3.137750787581244927e-01
-2.448656044302836843e-01
-2.316125048275151643e-01
-2.410503552014522377e-01
-1.906692835008217402e-01
-8.155764408613704053e-02
8.978598886998132023e-03
2.045211160489670069e-02
-4.155034331237398432e-02
-1.264114920504175454e-01
-1.825687744081516684e-01
-1.888719726956312461e-01
-1.540173292137240746e-01
-8.448462791153245333e-02
3.163654558189105820e-02
1.900674216559211371e-01
3.324522729562636725e-01
3.703786507907796399e-01
2.601691140246129574e-01
5.286052756785675905e-02
-1.404804902277720646e-01
-2.383839667638151805e-01
-2.372614991010632557e-01
-1.810182164078719402e-01
-1.076699988678481434e-01
-2.856103396684739337e-02
4.745195831104238871e-02
8.081400227138733905e-02
2.516075065414735343e-02
-1.055344534522787842e-01
-2.255831441710376140e-01
-2.500243295531199839e-01
-1.771186895733228572e-01
-1.025527345240557775e-01
-1.247432591597425616e-01
-1.847424146354187946e-01
-3.609998149093924386e-02
4.612667223022776652e-01
9.790135683901848296e-01
9.495215980519975396e-01
3.200885149319379064e-01
-2.868099072862518861e-01
-3.570883673070074371e-01
-3.436229322911608930e-02
2.534792787112932766e-01
3.267385951432951741e-01
2.634298498991964332e-01
1.520655008037044564e-01
1.365370521955236102e-02
-1.321311382928453959e-01
-2.467775698794523187e-01
-3.018125608704406715e-01
-2.872137078863457038e-01
-2.168486516602820824e-01
-1.331009681947437906e-01
-7.107482241245548227e-02
-2.901726763270530418e-02
-3.486413790593085628e-03
-1.528894773594761253e-02
-6.925424971217268577e-02
-1.311118163085080168e-01
-1.656743128957505473e-01
-1.655615853758923284e-01
-1.350373769946656421e-01
-6.765417713868485117e-02
4.994225486037203593e-02
2.032804434155610351e-01
3.187042507553002335e-01
3.041641476566688818e-01
1.493045220227704750e-01
-3.975876567089689506e-02
-1.314818137770899509e-01
-9.567005313045263970e-02
-2.602270569458555935e-02
-1.609792907099415887e-02
-4.117046922196187370e-02
-1.351033455936490740e-02
8.025105758428749403e-02
1.553522076146958419e-01
1.158610220786003425e-01
-5.796913164861795809e-02
-2.683388674000702356e-01
-3.613005988483891096e-01
-2.981443596984412192e-01
-2.178468151640687855e-01
-2.207242273087333395e-01
-1.398016878876126579e-01
2.820892935889307007e-01
9.162742079973665854e-01
1.193024207832296790e+00
7.765722937495999068e-01
6.909163808743656876e-02
-2.844769535494947044e-01
-1.648510661446921377e-01
6.018524529764553155e-02
1.168898642277509947e-01
5.968097072937905007e-02
3.373523248950820175e-02
5.375483539922930321e-02
4.110722615928310425e-02
-4.721009044355690271e-02
-1.756871883096426112e-01
-2.766787044843190269e-01
-3.151980296984378538e-01
-3.053618733408462460e-01
-2.682335685207445919e-01
-2.018054440594524990e-01
-1.098711414684052784e-01
-3.161758894222570226e-02
-1.465194082558837242e-02
-7.331511143398000696e-02
-1.823945450741704388e-01
-2.883674818327474632e-01
-3.268248417612031331e-01
-2.577331126339472145e-01
-9.218686869945201534e-02
1.140840400060493393e-01
2.814813027257855316e-01
3.350368756596159292e-01
2.494736679958571013e-01
7.486255400772301449e-02
-9.824251816783471924e-02
-2.023542423382554967e-01
-2.271701954997400463e-01
-2.092437656243761324e-01
-1.842329442718132759e-01
-1.384552067779686035e-01
-3.432941872726277821e-02
9.995392339205748378e-02
1.564764500584657492e-01
7.160386025379474051e-02
-7.556004235653632217e-02
-1.556673140433728342e-01
-1.581227654874990673e-01
-1.898887688799637818e-01
-2.775667408427119898e-01
-2.185559089560232260e-01
2.343724100871648897e-01
9.356741399807610993e-01
1.291826981821680764e+00
9.247243601577150862e-01
2.038628817659601522e-01
-2.089783042532881718e-01
-1.378071705599494268e-01
8.453790754076780101e-02
1.553718946381196508e-01
7.611363372030982566e-02
-7.011765499104287945e-03
-1.884041824976642049e-02
5.159865536937591202e-03
-2.091124187578860191e-03
-7.261234064141440514e-02
-1.950620437548326869e-01
-3.249888245136875464e-01
-3.937918347821384168e-01
-3.495156215120819865e-01
-2.124741343483905476e-01
-6.427401074066904640e-02
2.997901754174756364e-02
5.891564815020081808e-02
2.946581934874751424e-02
-5.173409323630455414e-02
-1.517547613630639280e-01
-2.123199528564816974e-01
-1.987089453908928161e-01
-1.254268986181072965e-01
-2.008436076384146132e-02
1.065974447020300309e-01
2.281762656239936515e-01
2.767269676366284625e-01
1.966456974490865539e-01
1.769580484101008003e-02
-1.552470321677955067e-01
-2.362178335210072533e-01
-2.309833613473228908e-01
-2.047669486404866124e-01
-1.918554408352108054e-01
-1.638665755883114139e-01
-8.882963220143685890e-02
5.390099176826981635e-03
4.980540896139270396e-02
1.222981283888727178e-02
-6.823711084812197902e-02
-1.418360154028333875e-01
-2.219743438672566183e-01
-3.404762099908271167e-01
-3.994086850678389977e-01
-1.608720110514799406e-01
4.381694950757752949e-01
9.942150656317738644e-01
9.809660050400997866e-01
4.410701776129153928e-01
-3.642025333811683974e-02
-7.395635551642151806e-02
1.354161195643904803e-01
2.344724914637434099e-01
1.337790944180982378e-01
-1.093825304455622524e-02
-5.351087279826027832e-02
-4.772807628980874767e-03
2.284710776376788419e-02
-3.730039506213744804e-02
-1.418018618605670078e-01
-2.127568402194059682e-01
-2.296805149689745695e-01
-2.276450355193783692e-01
-2.390799072909978729e-01
-2.514993749497167475e-01
-2.166410599928841885e-01
-1.128382406216230649e-01
1.232968923585925879e-02
8.340478278230400999e-02
6.466221458135271161e-02
-2.191418598399637666e-02
-1.187690675428516585e-01
-1.681509866249233931e-01
-1.459909185352476491e-01
-6.678881428161713429e-02
3.620972503471955178e-02
1.243815035317637346e-01
1.645646801012482230e-01
1.445081999659769412e-01
7.325502842836276174e-02
-2.803880465763213675e-02
-1.259770014532069771e-01
-1.837478266675267313e-01
-1.856899733903314975e-01
-1.444526450324856715e-01
-8.543797862177091029e-02
-3.148490179786329890e-02
8.454425068499069051e-03
4.482429235555346336e-02
9.351518606302150483e-02
1.374546413778925114e-01
1.023464391490864211e-01
-8.107992290195986662e-02
-3.374384155008470776e-01
-3.882853459430851140e-01
2.803940600874603797e-02
7.478992308634587749e-01
1.163718235983954408e+00
8.920034789042077250e-01
2.816019283460491907e-01
-5.961553988906027890e-02
-7.630432811425565121e-03
1.174938895131469041e-01
8.475685336278189486e-02
-5.180931876859538182e-02
-1.500625228601203121e-01
-1.490112798896295054e-01
-7.152536054679055344e-02
1.493507171740277376e-02
3.137612734940032483e-02
-5.651690819567203178e-02
-2.027395323344004519e-01
-3.188594454866208183e-01
-3.472085076927696745e-01
-3.013897476911490680e-01
-2.392124766433535998e-01
-1.898944006949888352e-01
-1.252873989689380907e-01
-2.300660612053539306e-02
7.032075188691450096e-02
8.239676347246506494e-02
1.234198941860943470e-02
-5.876258965039374976e-02
-5.353827747050483865e-02
3.403103026686315341e-02
1.431316620878499424e-01
1.990399416044467407e-01
1.800577425412553945e-01
1.334733769122096458e-01
1.053004937266900087e-01
7.811975109238686321e-02
1.211027269135100427e-02
-8.352105164062190168e-02
-1.591534620423628310e-01
-1.841735652017690572e-01
-1.733849497133967132e-01
-1.577917536350797456e-01
-1.334700500913988674e-01
-6.073382433466838204e-02
6.438833724388502711e-02
1.646973450955888929e-01
1.350666985472980253e-01
-6.279515959366516187e-02
-3.231469801507907413e-01
-3.816569066378446284e-01
-5.946660349378261878e-03
6.450371149142292149e-01
1.017207607059566588e+00
7.809453355778350758e-01
2.744786168306869167e-01
4.451826997379949163e-02
1.675927905416159658e-01
3.052758483367953302e-01
2.271288126465530743e-01
1.844541558462966385e-02
-1.350186747399449438e-01
-1.741094802103855810e-01
-1.647295444961771882e-01
-1.677036502773717463e-01
-1.769985685912850992e-01
-1.739367493543491350e-01
-1.756490492284716598e-01
-2.068615030389016618e-01
-2.656073581944552453e-01
-3.267399313953184836e-01
-3.550284612160680697e-01
-3.195859563233690026e-01
-2.118007471637240180e-01
-5.764616946315338775e-02
8.104994506790891284e-02
1.356067794197167997e-01
9.316021784043587717e-02
2.063493433603627233e-02
-5.687722270384930681e-03
2.020806467894864164e-02
4.986276397861286874e-02
5.147887540895185882e-02
3.887247690348787088e-02
4.159960573240410048e-02
6.077849413646435606e-02
5.859574323205529733e-02
1.339947091821043143e-03
-9.232809532354645243e-02
-1.664995321102730741e-01
-1.878242239202072283e-01
-1.737146489411803829e-01
-1.635525521124212567e-01
-1.697045319757264636e-01
-1.595726002736722882e-01
-9.130261645036695517e-02
2.907495718808962570e-02
1.242997004349921941e-01
8.357388004226956602e-02
-1.356238994314257762e-01
-3.805029300993103547e-01
-3.255071076233484462e-01
1.838166520387682912e-01
7.863956821432536159e-01
9.112697367463932219e-01
5.095211620006713238e-01
1.084734260798588118e-01
7.749466542896632504e-02
2.451991108388057172e-01
2.815848103317808993e-01
1.116992734504523438e-01
-1.117340695991858035e-01
-2.420751624904337318e-01
-2.561740977758343307e-01
-2.054394707344827931e-01
-1.320452067176966227e-01
-5.208870489402538106e-02
1.220479554212678362e-02
2.164082222244603435e-02
-4.347316382062794277e-02
-1.485785436070061472e-01
-2.290726382282763929e-01
-2.504525945845428869e-01
-2.278639599390368531e-01
-1.872215724660447611e-01
-1.308279926023908635e-01
-5.243582822270866084e-02
2.991208888499902879e-02
7.656117692135160080e-02
6.581823855990369398e-02
2.038454167912075871e-02
-1.440163220172629120e-02
-1.902465527138862481e-02
-1.718073535503472637e-02
-3.240612678666953544e-02
-4.457328709555766905e-02
-2.106796430122630237e-02
2.436531454234523025e-02
4.054682475708944883e-02
-1.970158143093743083e-03
-8.582962267452251548e-02
-1.720792873401245648e-01
-2.307253495721196812e-01
-2.488671941302325608e-01
-2.230794635333249731e-01
-1.523937777603740773e-01
-4.085191174093796146e-02
8.842517867655207142e-02
1.741712389256490356e-01
1.284620019211013542e-01
-6.864416095886688440e-02
-2.392832598902749630e-01
-8.003665514430982619e-02
4.456713428619378248e-01
8.749089880231771810e-01
7.364485678820942294e-01
2.178326462134724251e-01
-6.411136290219449085e-02
1.158460739046709986e-01
4.125476149861353470e-01
4.606774169940067165e-01
2.468392792860265028e-01
-2.526996545069275929e-02
-1.950475977752929024e-01
-2.330897138732751228e-01
-1.839380741408579711e-01
-9.873508329081065460e-02
-2.100289629664792157e-02
1.167259104835169196e-02
-1.425468718832924829e-02
-8.551576070244018557e-02
-1.863405234563965673e-01
-2.938115015251989703e-01
-3.582017470505745038e-01
-3.430769121210693884e-01
-2.709458992007618416e-01
-1.805190219340805924e-01
-7.390690576611065599e-02
5.086805016510333871e-02
1.544915751828707107e-01
1.825268739560132747e-01
1.264615560788175941e-01
4.410156442540990457e-02
6.417832773215993020e-03
1.839293667475775870e-02
2.405728985994094044e-02
3.686458951626388463e-03
7.672783108995561568e-03
6.557125874019896494e-02
1.270123474701652655e-01
1.271112832822322014e-01
5.580730789719473561e-02
-6.551957295544331983e-02
-2.191577906674554432e-01
-3.550790513950055072e-01
-3.773137508610413526e-01
-2.407946768473864518e-01
-1.667677749216909047e-02
1.805081462349042432e-01
2.592847153724003872e-01
1.625199460133325280e-01
-3.664553612684590123e-02
-6.314913607767584647e-02
2.921046496518457936e-01
7.671985880055314233e-01
8.161685556800303276e-01
3.469240324242899298e-01
-1.053806298608548214e-01
-9.856325828404254030e-02
2.145266495522164529e-01
4.240091741937835890e-01
3.576522762011929424e-01
1.256416601666007216e-01
-1.018098177905764623e-01
-2.388107784528666344e-01
-2.834873290874579954e-01
-2.609924178369638081e-01
-1.895514651583432297e-01
-9.101261377797956187e-02
-8.619927026332532827e-03
5.998140821951518029e-03
-6.884088225847331821e-02
-1.945167570632615750e-01
-2.907750563158056911e-01
-3.082379236853981519e-01
-2.725520208999621108e-01
-2.282535201374873979e-01
-1.663856031061597407e-01
-5.693852530966873882e-02
7.414522438202378329e-02
1.612718450508513479e-01
1.764328728398049106e-01
1.365153452752027319e-01
5.361222686604658061e-02
-6.679120676596429773e-02
-1.913125389336484405e-01
-2.662114617627410751e-01
-2.583241815484864645e-01
-1.758709011894685204e-01
-6.181763077742912643e-02
2.486920912688337856e-02
3.716387665126290318e-02
-3.091652394609709781e-02
-1.383197982688561256e-01
-2.286999816637690919e-01
-2.702835551403571790e-01
-2.556221809622354346e-01
-1.764498155737908580e-01
-4.051552749381729518e-02
7.621410718035329102e-02
5.755570664186357432e-02
-8.176922828564027468e-02
-8.205511916436010467e-02
2.994478064966084041e-01
8.395837959119292204e-01
9.651353461984381044e-01
4.983041294431366230e-01
-5.608864778157009179e-02
-1.635403517407608143e-01
1.403194796772507802e-01
4.480910036068481150e-01
4.846022893709457935e-01
2.807752111565145481e-01
1.758443431017532588e-02
-1.689856624702684440e-01
-2.534995045795357393e-01
-2.709232115279074371e-01
-2.465371607027418421e-01
-1.805628737829164387e-01
-8.270390529886431641e-02
4.878328806929260741e-03
2.979400225303195995e-02
-2.699986126899975303e-02
-1.328047106295036084e-01
-2.338285579195633901e-01
-2.936074569102429255e-01
-2.920673109954892710e-01
-2.256725437783849986e-01
