2.731140052224774739e-01
8.364846175477611001e-02
-5.448718453953502738e-01
-1.127797423128687582e+00
-9.869117895960003439e-01
-1.667086898816698692e-01
5.521617928077631188e-01
6.277621735676139902e-01
2.687910227247864992e-01
-4.540858539888496109e-02
-1.172890570933224075e-01
-4.511424039735159597e-02
3.004653118264003983e-02
7.065494944034030056e-02
1.140775005335034759e-01
1.834679078797994134e-01
2.541799996608405388e-01
2.867664092446343127e-01
2.613084221897752912e-01
1.831760121429495403e-01
8.361159832194073327e-02
1.369506970785392547e-02
8.448935505097924722e-03
5.233197061473879308e-02
9.722045900567842514e-02
1.099513890076959655e-01
8.744260230611186624e-02
3.710152024030544810e-02
-3.427837660028053290e-02
-1.181370918654374019e-01
-2.041386581540717560e-01
-2.683519394865931385e-01
-2.675295604751327105e-01
-1.863383844767485531e-01
-8.689102349177289797e-02
-6.444314926525469833e-02
-1.467017905891662977e-01
-2.695434353463436739e-01
-3.568407876170577864e-01
-3.842325893841183060e-01
-3.548772073158768525e-01
-2.718178517382910386e-01
-1.610153888370888242e-01
-7.082153994665478514e-02
-2.463261816145057362e-02
-5.118754296058297334e-03
9.202072251379469700e-03
1.837400648534125505e-02
1.166120843605250763e-02
-1.717227009038258673e-02
-6.010073239248375776e-02
-9.002861979250628699e-02
-8.719765541586388391e-02
-7.398890482528167056e-02
-7.821580610078207596e-02
-5.304829378316669453e-02
8.133966272701628752e-02
2.354173183457167751e-01
8.440304338257714756e-02
-5.466434952366379108e-01
-1.223347878269843481e+00
-1.229094468104084070e+00
-4.939438696197178680e-01
2.532537002793874281e-01
4.073277491407590323e-01
1.087612589498692661e-01
-1.474761351287904032e-01
-1.189807542848743682e-01
8.011008355901565181e-02
2.315315820079061337e-01
2.274823273266394497e-01
1.062321606303566757e-01
-1.928093145245419332e-02
-4.969913821846367458e-02
3.469235031626082683e-02
1.679915486269908109e-01
2.676862419650684055e-01
3.036722200158614715e-01
2.928944531899538850e-01
2.553043977266128972e-01
1.986169525104564126e-01
1.342528576343416935e-01
8.806274095617658282e-02
8.348261295545753025e-02
1.128613863559167901e-01
1.412551806660169995e-01
1.486658420973790418e-01
1.471602959823290757e-01
1.437470192782089318e-01
1.189627552737512334e-01
6.083078195459959425e-02
-1.416693382455845064e-02
-9.169465132451089240e-02
-1.765452912136128982e-01
-2.548704818926688098e-01
-2.635958527957384390e-01
-1.388158509014700004e-01
8.896175586346444231e-02
2.756167587534927299e-01
2.841728518748221632e-01
1.310740213301115897e-01
-2.781857939086246692e-02
-7.061347778732643410e-02
-1.614068432632131608e-02
5.761980597769680162e-02
1.216371990625046418e-01
1.845373945191416121e-01
2.386219793434181113e-01
2.580352009089491028e-01
2.204115523410742350e-01
1.239557905295817913e-01
2.146506325188224720e-02
1.783768535291605645e-02
1.369867913594991216e-01
1.708198010613214413e-01
-1.713718637973569436e-01
-7.982547034446834111e-01
-1.106902563479222446e+00
-6.630156689982793505e-01
1.405669160469186774e-01
5.289187084901161295e-01
2.877092754343429371e-01
-1.401809901801372160e-01
-3.142467659318246564e-01
-1.955424837020802720e-01
1.154803509832384029e-02
1.475857401556979198e-01
1.901042922539814550e-01
1.855242695082028881e-01
1.742253829205453741e-01
1.636041446775755581e-01
1.368842345976583330e-01
8.485530711809761983e-02
2.996948139179990075e-02
1.264973000024602508e-02
5.282180926121821107e-02
1.281514275429726235e-01
1.903829942383218898e-01
1.993074493353257370e-01
1.457923511551255102e-01
5.767840198295675486e-02
-1.708894449485460001e-02
-4.752653840697046439e-02
-3.920527257534459770e-02
-1.560581973118700845e-02
1.016222089822589950e-02
4.248277326156283534e-02
8.302004353683935245e-02
1.076961270419847377e-01
7.639555372048233151e-02
-2.832605712359386602e-02
-1.713852337887735444e-01
-2.753369505537516804e-01
-2.728771628779841918e-01
-1.622360847413007456e-01
-1.100313210160695776e-02
1.001751354360791713e-01
1.402344625945968759e-01
1.381232691605248086e-01
1.416864998606265913e-01
1.699795006981499601e-01
1.936768858282393313e-01
1.640318864044787717e-01
7.864205934279841492e-02
-3.900365015191446447e-04
-2.393428043274505729e-02
-1.975645476862254030e-02
-3.289265306757168522e-02
-2.433620463873754913e-02
9.216780072447150474e-02
2.457053430696033158e-01
1.152129415274829871e-01
-5.140039915833426454e-01
-1.242803044487056585e+00
-1.299128452836632253e+00
-5.205888941020350158e-01
3.393065443295199546e-01
5.579228999519372234e-01
2.372996823684834777e-01
-7.208982898018612140e-02
-1.043055755072843510e-01
-1.429538971465995484e-03
3.650689884243844829e-02
-3.707634831899191477e-03
-1.920601632159291833e-02
3.785578995446502171e-02
1.294912268601389471e-01
2.119405744935790314e-01
2.735217355408127715e-01
3.092316615060217710e-01
3.075620005414506086e-01
2.690651691800322043e-01
2.173298365387303643e-01
1.793345045424214190e-01
1.574923814717648363e-01
1.359315439188245600e-01
1.166622411430435768e-01
1.234595440411712375e-01
1.627944617779468472e-01
2.083694925743463655e-01
2.248593924097477825e-01
1.902915162123410275e-01
1.159820656185959059e-01
4.947088133070996069e-02
1.813708619998256888e-02
-2.427009853706412271e-02
-1.432441565849308096e-01
-3.143732814023926792e-01
-4.135621448846584780e-01
-3.399940477841721376e-01
-1.363006658131220850e-01
3.994782862813005264e-02
7.531895678340798372e-02
7.907936449450149799e-03
-4.681202262735698755e-02
-4.074683563180209189e-02
-1.282351243876428924e-02
3.750475297695675912e-03
2.567302009227809961e-02
7.540495004263257639e-02
1.391950055120838026e-01
1.749830463216409115e-01
1.443358957343249538e-01
5.090518559475155219e-02
-2.936300694910091297e-02
1.174135745657696808e-02
1.700678675074687729e-01
2.122700878714358363e-01
-1.490384085595826968e-01
-8.015412042855236674e-01
-1.133988181242453264e+00
-7.240297119747145516e-01
4.451067958463753027e-02
4.380999301090039988e-01
2.507219186389310628e-01
-1.234928069371362541e-01
-2.850282447915361006e-01
-1.878522878516503958e-01
-8.200155775601788294e-03
1.140911884733799980e-01
1.678334953553977382e-01
2.003790547959740098e-01
2.233199667595423543e-01
2.023869406543634675e-01
1.287243034393959762e-01
6.018897443490929533e-02
6.460080458921717284e-02
1.371524433756778905e-01
2.000783028188051482e-01
1.934997176243436479e-01
1.455080859643970159e-01
1.252711207129850457e-01
1.450948440100244541e-01
1.507528235565410157e-01
1.047792140790810289e-01
3.318144274436166108e-02
-2.096974109583468401e-02
-4.600409216464392687e-02
-4.483611022033057864e-02
-8.325367174783996488e-03
6.280252828452798086e-02
1.213802974748379587e-01
9.098770569857037027e-02
-5.926228384515670744e-02
-2.634301592039482443e-01
-4.017147674753793196e-01
-3.977414755566119897e-01
-2.672554101178854502e-01
-8.691549171144426211e-02
6.207455220327127987e-02
1.348825069727339898e-01
1.426350957239689576e-01
1.316652257966885176e-01
1.260983001136880555e-01
1.003405748623550919e-01
2.374611085598915539e-02
-8.036898968405761789e-02
-1.429987873644309182e-01
-1.195291621730427273e-01
-3.832131363318348749e-02
3.439656260583157793e-02
8.572885398600443851e-02
1.776262500643982500e-01
2.937135927858523510e-01
1.897331025381039094e-01
-3.721517109186533445e-01
-1.131850743641356516e+00
-1.395372191046754251e+00
-8.532236533003350054e-01
-2.437834700946478472e-02
3.850950895039933486e-01
2.531270645843081701e-01
-3.840545942766375453e-02
-1.616766690710186860e-01
-1.090644228149488804e-01
-4.046703469698727934e-02
-4.429211055514800655e-02
-7.612211106875935163e-02
-5.424857170516210469e-02
4.809753503927986784e-02
1.866108968773230459e-01
2.856146221672702934e-01
3.039750148986862799e-01
2.669362023823007579e-01
2.168556884346054259e-01
1.569782917490387120e-01
7.596706985454215744e-02
-3.468281812003509712e-03
-3.813286219599629906e-02
-1.123201371929238336e-02
5.070206117612639785e-02
1.000704119958127081e-01
1.091566378843540353e-01
9.224620739529558466e-02
7.530600596242362221e-02
5.315023882832010937e-02
6.338416962608883591e-03
-5.588910237277219806e-02
-1.094728924443995055e-01
-1.561025893084484195e-01
-2.118845110839754076e-01
-2.578287277122732202e-01
-2.325301520372861086e-01
-1.020160451733332363e-01
7.177334764503054410e-02
1.712131559044398343e-01
1.405583098131151787e-01
3.653552255507128144e-02
-4.182885182428623672e-02
-4.613407132222068635e-02
4.719523480369987485e-03
7.133934404578969046e-02
1.358524717012002947e-01
1.998195382915551876e-01
2.470869843200521054e-01
2.283814000921454423e-01
1.152252512784959354e-01
-2.697820732179922673e-02
-5.559279835433203476e-02
9.949800193262053893e-02
2.617018936276689356e-01
8.311334907253285775e-02
-5.029556500685137266e-01
-9.760570246152697749e-01
-7.583482659166910222e-01
-3.952803134161847476e-02
4.170779741139610808e-01
2.684064370097341001e-01
-1.192349218190817683e-01
-2.983525367940992878e-01
-1.991598845013308750e-01
-1.514014917707411090e-04
1.485554723887772544e-01
2.227468559274862203e-01
2.624119656124915267e-01
2.773765832007903387e-01
2.312579140634251629e-01
1.220218009481759541e-01
3.212121243104189283e-02
3.975806253126831780e-02
1.140956237083625702e-01
1.665454397530538588e-01
1.721624580394185977e-01
1.741041650400168839e-01
1.957125309568951699e-01
2.100940423329960838e-01
1.886005882741982054e-01
1.339290936645327335e-01
6.376747669711207989e-02
-3.379098018670309740e-03
-3.825858976384077098e-02
-1.314100618370737071e-02
5.633205353918660507e-02
1.135566566468174665e-01
1.147846482893309233e-01
5.026547828260088252e-02
-6.887486991076742504e-02
-2.039772793700311282e-01
-2.901489782701839326e-01
-2.739592169961336809e-01
-1.493305709224087008e-01
3.334485995659775687e-02
1.895211538940577700e-01
2.568255587675226659e-01
2.415840598699269259e-01
1.980067475716630887e-01
1.628407145609795659e-01
1.259649424359291503e-01
6.086635036003899130e-02
-2.883884887450526707e-02
-8.953221777531636394e-02
-6.025060264784661002e-02
4.098709240193811054e-02
1.192957230369212501e-01
1.405691998300418188e-01
1.951552943491523251e-01
3.154464536875795089e-01
2.703109517050961697e-01
-2.393923164649846835e-01
-1.039458905498285235e+00
-1.404357326556138208e+00
-8.788091741102233012e-01
5.723352678289383988e-02
5.612571515258982791e-01
4.120661792087925157e-01
4.214444774742059918e-02
-1.452844023919679650e-01
-1.311556074145095729e-01
-8.025960541150725658e-02
-6.501815748996164768e-02
-4.046965574974322605e-02
2.890696612403955562e-02
1.161714051896260425e-01
1.853344698032818871e-01
2.326630653160394469e-01
2.643783876011633893e-01
2.668225210138446823e-01
2.183197961472498894e-01
1.255671648142714647e-01
3.544527627382808299e-02
-1.351733823843529782e-03
2.258473169623299512e-02
7.334705877621651438e-02
1.219391403754366277e-01
1.693865394310613004e-01
2.202059006823803566e-01
2.478001158988487329e-01
2.105398429964567830e-01
1.087088860218708986e-01
-9.161911042560961713e-04
-6.804131132186884423e-02
-1.011789893470516899e-01
-1.355312175926016438e-01
-1.813767091309472224e-01
-2.221856043595530072e-01
-2.217987659416140178e-01
-1.375962947930632896e-01
1.152710016637092938e-02
1.194655361685522110e-01
1.059714600971236598e-01
1.666189390266056142e-02
-4.049481941677370023e-02
-1.786423708398614252e-02
4.838385218822915945e-02
1.093755398449027944e-01
1.557517318907093162e-01
1.905614393908775239e-01
1.850951356967721340e-01
9.993850560091763202e-02
-5.270135195270405498e-02
-1.855460871854649196e-01
-1.782717751661936911e-01
6.530735302631009848e-03
1.734519110362121586e-01
-3.363355717484219770e-02
-6.686087226388860438e-01
-1.176052710963593206e+00
-9.468834717598979545e-01
-1.556052248635396151e-01
4.145446826140190000e-01
3.449156250953980263e-01
-5.924556790562268693e-02
-3.098923466242962665e-01
-2.535573325949389001e-01
-5.448146040689312575e-02
9.270645474274250009e-02
1.388955900934845389e-01
1.354490334101963733e-01
1.196485191263872566e-01
8.962392453975541462e-02
4.604782325536159460e-02
1.026594899911929815e-02
8.849272680481716155e-03
5.134006433529628155e-02
1.151069664348204208e-01
1.585751654917212372e-01
1.600325382961561294e-01
1.344723781029739107e-01
1.055023444321615128e-01
7.463792598068286210e-02
3.242619756008140175e-02
-1.283512722472403278e-02
-4.027765485278821805e-02
-4.144420991507379720e-02
-1.803485983927746727e-02
3.077837142633848416e-02
9.275228168768351322e-02
1.263715925003237595e-01
8.490625964641555778e-02
-4.129476790220041466e-02
-2.080544308676315068e-01
-3.366922297683993537e-01
-3.557202350920827261e-01
-2.463698940329088205e-01
-6.316314377151775739e-02
1.001970977235703830e-01
1.789922340965258707e-01
1.726365139518943881e-01
1.223736058819248074e-01
6.699092728462720248e-02
1.266083878745711232e-02
-5.485728665922681713e-02
-1.184735504521969435e-01
-1.167476703463155852e-01
-2.188350912627311934e-02
9.485834329505854479e-02
1.395848116556197560e-01
1.323098710143776890e-01
1.892827515776564218e-01
3.222398547138659031e-01
2.998182543500736430e-01
-1.546750834256549467e-01
-9.128534087691345666e-01
-1.341833964158957171e+00
-9.576069241026314849e-01
-8.752413486974919277e-02
4.822725183670482085e-01
4.236935531472272864e-01
7.229489681408894641e-02
-1.514260558829839121e-01
-1.622826735616161586e-01
-9.320612102678577093e-02
-4.000149775045174633e-02
-3.767933394172994811e-03
3.759491540333313037e-02
9.127789161922091055e-02
1.531437896963575851e-01
2.050138978687452429e-01
2.202014328509199481e-01
1.937188242426542140e-01
1.632250086505933617e-01
1.787379211024411330e-01
2.282128988826730154e-01
2.232546887312516770e-01
1.183871744328390818e-01
-4.765796201036207741e-03
-4.908841048893378134e-02
-1.906723402281277138e-02
3.283697549123294757e-02
7.497115288861461169e-02
8.457564270587740463e-02
5.508456045291369729e-02
1.365324926201980614e-02
-1.381366239016445022e-02
-3.426752634611679449e-02
-6.868190843127167100e-02
-1.205141485809805846e-01
-1.656046722974461038e-01
-1.682495262607575648e-01
-1.152801058176688292e-01
-3.516945456435081885e-02
2.592043935972639795e-02
4.881500551383732150e-02
5.511769076754212404e-02
7.587722331880625282e-02
1.253674559918396547e-01
2.053497149583685399e-01
2.942018187065524315e-01
3.361880546006269510e-01
2.947215530055476429e-01
2.029918814822310180e-01
1.178847554434627048e-01
5.277760394766532748e-02
-3.194720160121973691e-03
-1.976906726823356164e-02
7.214031095348566458e-02
2.592231062603536640e-01
3.160354489775047404e-01
-5.053904427466640592e-02
-7.422642402452021004e-01
-1.141077311730319455e+00
-8.012121054837286760e-01
-9.067455611935826276e-02
2.760659127250382205e-01
1.267686202639838888e-01
-1.435916976571520454e-01
-2.016382500991593663e-01
-7.035582700201914452e-02
8.034013606340752178e-02
1.694964058958970399e-01
2.105327764854539041e-01
2.165310296474012020e-01
1.821492778654001943e-01
1.285920339225369025e-01
1.069501985066677735e-01
1.466207964891523829e-01
2.193817898229740437e-01
2.675108762671562501e-01
2.655762969077242186e-01
2.359221823472276991e-01
2.026579641194604098e-01
1.617514907877126151e-01
1.029745421477574474e-01
3.543002543715963876e-02
-1.372168936137074802e-02
-1.841066953381362281e-02
2.305768068497790479e-02
8.631262524253019430e-02
1.452284746967482665e-01
1.828448912313239416e-01
1.776034456483743251e-01
1.004012772598611991e-01
-6.099001014351038835e-02
-2.672234149906543843e-01
-4.227123228133669031e-01
-4.399599331378292177e-01
-3.259112583847716405e-01
-1.735863236113521502e-01
-5.329151054552469513e-02
4.372721361909054361e-02
1.317280293088280430e-01
1.682613620464383786e-01
1.199569575526385073e-01
3.343511083958614072e-02
-1.862969717661013339e-02
-1.987590874527585261e-02
2.126641167973225902e-03
2.882555743033179615e-02
5.399829210926160999e-02
6.073293126180853707e-02
3.579713020954783387e-02
1.624202098395101379e-02
7.593640893120542912e-02
1.825209602219778626e-01
8.624120331347154278e-02
-4.378364041662001216e-01
-1.120085827105119280e+00
-1.278962418664147949e+00
-6.565687720184304466e-01
1.613597937009793315e-01
4.733759421288902813e-01
2.551347171376062151e-01
-3.885705676667064457e-02
-1.246544265719836952e-01
-7.145576632899347524e-02
-2.460568247830744945e-02
-1.290917311377046475e-03
4.400689913638677203e-02
1.123765807937541217e-01
1.748476483353829380e-01
2.156134992597082967e-01
2.217122886232286705e-01
1.770186449454461686e-01
9.158069648051604672e-02
3.447034014541603894e-03
-6.110227585121518618e-02
-9.894055036945317849e-02
-9.836781189882820575e-02
-3.589986314644771220e-02
7.665661865015872822e-02
1.745567462411313775e-01
1.981928758614590058e-01
1.515704745413744559e-01
8.473510798506593555e-02
3.868904835240145890e-02
2.438172368956996461e-02
3.271778363632645709e-02
3.975231662589128606e-02
1.379104559870354685e-02
-5.238967492230770656e-02
-1.172288511075805090e-01
-1.305117345303573317e-01
-9.521053789990756300e-02
-5.526181364708990934e-02
-3.674234148640107694e-02
-3.457968558569853024e-02
-3.261878130282587496e-02
-1.236080383866365248e-02
3.234669510479234317e-02
8.284233300591219151e-02
1.194812931322097871e-01
1.432816674181560390e-01
1.538495755927188624e-01
1.335608811221188907e-01
7.403863494697950076e-02
-5.529929097458516352e-03
-7.158524742815074171e-02
-7.896520559649768123e-02
2.314005546499997221e-02
2.013464483669379079e-01
2.274400341047621843e-01
-1.663354083678893203e-01
-8.436242918181873218e-01
-1.188158199621106137e+00
-8.000206825151529033e-01
-6.135284840619716074e-02
3.463105516970159115e-01
2.443078659843886669e-01
-4.069393663893334373e-02
-2.085402932172570056e-01
-2.094269008514087482e-01
-1.047689500555361308e-01
2.442997883103452741e-02
7.485208742357579714e-02
5.748170546497708561e-03
-8.560847287078264534e-02
-7.575606137675933160e-02
3.731235723241898422e-02
1.640752322700395616e-01
2.407753375241297733e-01
2.648470834165111421e-01
2.603620692105940160e-01
2.481115359941813148e-01
2.348780431601389662e-01
2.142263045572577185e-01
1.772909926078295451e-01
1.273159129978449766e-01
8.668489372865037512e-02
8.254310331671205203e-02
1.166666657612634855e-01
1.611581068807301509e-01
1.931410917368748259e-01
2.123252397992800300e-01
2.102346287230156263e-01
1.519548033633379702e-01
2.070077490174266482e-02
-1.354978053887788414e-01
-2.324513500644010966e-01
-2.181880146091733363e-01
-9.869595051407484276e-02
7.913023251714962347e-02
2.447355484144227433e-01
3.315512424729179508e-01
3.230962484783879152e-01
2.609405489690190816e-01
1.950348649118707756e-01
1.455545273247084992e-01
1.148622164740798895e-01
1.081804516886707146e-01
1.296248342278921162e-01
1.708386942654203378e-01
2.126281477452801882e-01
2.307398644055416170e-01
2.050767608856997604e-01
1.538790605413326573e-01
1.513650690919129960e-01
2.254763478966955170e-01
1.996546000228028861e-01
-1.969236349706149913e-01
-8.708675472903375514e-01
-1.211600612620397310e+00
-7.664353359784530362e-01
8.743858196876250211e-02
5.640820755904848438e-01
4.028008739541566463e-01
1.994925620746115791e-03
-2.078818665581381175e-01
-1.688245010400991342e-01
-4.167930773814006173e-02
6.656998819268017398e-02
1.528671378522639679e-01
2.363035745997445758e-01
3.181573333808093151e-01
3.855795985019945804e-01
4.101927422983357996e-01
3.641282693266772452e-01
2.632735388568284152e-01
1.698005483978735075e-01
1.292575992481604097e-01
1.315005976070422189e-01
1.488904180221060358e-01
1.767360763411016666e-01
2.144324966539090105e-01
2.369902066308540445e-01
2.091043436513898846e-01
1.189234949744297082e-01
-4.869882371191342277e-03
-1.052335330702543897e-01
-1.358471120791259756e-01
-9.561446219323746498e-02
-2.531107856847375492e-02
1.949154681391210286e-02
-3.580926025813950704e-03
-9.513415421507194492e-02
-2.069135883616022853e-01
-2.781889786390879804e-01
-2.829415745189821640e-01
-2.428077683523292563e-01
-1.997288890413772555e-01
-1.736267270428727139e-01
-1.451028508850586152e-01
-8.444590873110574547e-02
6.159899727048145576e-03
8.651440903906906787e-02
1.077133615001395067e-01
4.740952814326956921e-02
-6.387412968854810913e-02
-1.522397577721634754e-01
-1.676215800380500554e-01
-1.412729033988378013e-01
-1.321350024021048508e-01
-1.142159790721660184e-01
1.191964259817875765e-03
1.647325583038318775e-01
8.714765253722407679e-02
-4.569581656909536549e-01
-1.164398101634050331e+00
-1.353534899929158319e+00
-8.005367483529997052e-01
-7.671812785527194756e-02
1.940670882765800076e-01
2.540331044033768138e-02
-1.816411858224493969e-01
-2.015992252329402434e-01
-1.013558313458922666e-01
-2.084267680089249217e-02
-1.442526807664912952e-02
-5.768756405935807074e-02
-1.117321255445962447e-01
-1.574532458597964757e-01
-1.885052918358643415e-01
-1.879392473938583386e-01
-1.303579057852182199e-01
-2.139881243270222097e-02
8.585479928078945666e-02
1.358769145270750378e-01
1.169386352656179434e-01
5.527481680668025477e-02
-1.712386989206738513e-02
-7.863474318439088451e-02
-1.098789269929375395e-01
-9.145046304376977520e-02
-2.801240085463431798e-02
4.047911648219336411e-02
7.419039046021488892e-02
6.997362565613940433e-02
4.757372222723589561e-02
1.247355392916286304e-02
-5.027333531426281255e-02
-1.449584436524436193e-01
-2.348636123863362402e-01
-2.564540581416349108e-01
-1.774270266796781348e-01
-3.167010583898504511e-02
1.150738746401201440e-01
2.160645586298427789e-01
2.520053199151708334e-01
2.244822650889552462e-01
1.614328498588475935e-01
1.001362961119138112e-01
5.017384326031947700e-02
9.013455783551740930e-04
-3.082736242180993125e-02
-4.031624415654551721e-03
7.770402488000924257e-02
1.390180298590422137e-01
1.069637356648725640e-01
1.006718790191478766e-02
-2.088453811559513526e-02
9.033059572326299080e-02
1.700670274414362859e-01
-1.218066496092132522e-01
-8.131584685563892911e-01
-1.322598610165698796e+00
-1.025115284630856882e+00
-1.095430146468429067e-01
5.805528787195689544e-01
5.649638931100742223e-01
1.457182979213570428e-01
-1.520192292886463348e-01
-1.506032730551331578e-01
-2.578657747264215608e-03
1.205185435508990127e-01
1.996262466529078738e-01
3.042155839675074191e-01
4.416862900283225479e-01
5.179550362773380767e-01
4.647363052636206415e-01
3.385517847616900111e-01
2.369271683722030675e-01
1.858793330661741294e-01
1.613903746992073618e-01
1.553311718596589730e-01
1.730955452380146253e-01
2.027182339916568932e-01
2.238064782202698333e-01
2.422488957780064567e-01
2.839952307359483452e-01
3.300677796575561262e-01
2.997261917160650713e-01
1.622007695291056151e-01
1.741277193373289706e-02
-1.529750843662017711e-02
5.907982647957467359e-02
1.361759946271225985e-01
1.297675073925901035e-01
3.453362415603648122e-02
-8.244478594921186843e-02
-1.358349321661009301e-01
-9.769093387867201772e-02
-2.316657110232746633e-02
2.000229329093774350e-02
3.463456984153295143e-02
7.360606550317547181e-02
1.489037713395459095e-01
2.092457241954213676e-01
2.113554319576044227e-01
1.668118829787582358e-01
1.097124351662527864e-01
6.044150689966862333e-02
2.986534570955511406e-02
1.927591280931873624e-02
7.432178751878168455e-03
-1.665082581799011766e-02
7.174426380469058409e-03
1.593336492276751781e-01
3.428726249628381018e-01
2.238037809602481665e-01
-3.882282851381742006e-01
-1.085428039785350407e+00
-1.163093818409859370e+00
-5.130953957223565176e-01
1.980120738001560632e-01
3.796803152878294729e-01
1.260955802401628190e-01
-1.143036866444807065e-01
-1.053297348407539191e-01
5.694495868481819212e-02
1.758114859673107766e-01
1.699771935783208898e-01
1.016675799954706860e-01
6.121633854409444520e-02
5.055419134278443805e-02
1.036239544500289038e-03
-9.044448759964075768e-02
-1.140856957178185693e-01
2.613688970960217905e-03
1.701177868004068727e-01
2.397001127154470002e-01
1.682820287809433102e-01
3.085527975238452555e-02
-7.403644391016638016e-02
-9.633804126058052864e-02
-4.603207615108693973e-02
3.090863299042289486e-02
8.489496935158651059e-02
9.488874456446091954e-02
8.245559789010455110e-02
7.869199388738935819e-02
7.321520429918425277e-02
1.980491745916265409e-02
-1.035174322525059531e-01
-2.578851918718005343e-01
-3.691487358011721898e-01
-3.863088033569864743e-01
-3.124625110827351504e-01
-1.818042941139317026e-01
-3.318801690107268942e-02
8.637813561952284447e-02
1.333787103889629289e-01
1.046789965436899783e-01
4.171851655505392359e-02
-7.767255649054755073e-03
-2.074012430238521623e-02
1.190633768157440837e-03
4.780196204713505620e-02
1.089884843672048464e-01
1.645300028817968663e-01
1.741325903318579060e-01
1.044062882752373189e-01
-7.244133658617748703e-03
-3.672342682766292776e-02
8.563914891145481267e-02
1.780337179199065478e-01
-8.903026904129730801e-02
-7.109541822741084482e-01
-1.128610513092682899e+00
-8.303641745277299258e-01
-7.511664218786667790e-02
3.982637568483588519e-01
2.835765795440182702e-01
-8.258888332414340838e-02
-2.937542332139404522e-01
-2.707038568867832784e-01
-1.429445460863512096e-01
-1.404424384276325641e-02
9.735832181154187304e-02
1.918112368777025178e-01
2.433851309309410516e-01
2.271092810271304330e-01
1.612822989029659149e-01
9.767317513218941316e-02
7.165967521656710360e-02
7.491540818525629919e-02
8.267867886069978078e-02
9.236538363203174173e-02
1.164066184424455141e-01
1.507055327128477007e-01
1.715534932285315561e-01
1.572553767294768423e-01
1.048729933820274768e-01
3.383269361165333611e-02
-2.414534939053479892e-02
-4.605945313448540912e-02
-3.042676396866907454e-02
1.157069050376694462e-02
6.481947781756859650e-02
9.911278140559731664e-02
6.934584967231560704e-02
-4.266118939542037219e-02
-1.900276376544396129e-01
-2.892670668414972224e-01
-2.887327004483069559e-01
-1.991484075813034493e-01
-7.253363083633999897e-02
3.252330292000502054e-02
8.238815094177658060e-02
8.532159677256255514e-02
7.764078346502284456e-02
8.817175384201823840e-02
1.077838362817777340e-01
9.845368433038827194e-02
4.710779004562588163e-02
-7.155042846241036793e-03
-2.248853441873030490e-02
-3.703254822416513804e-03
3.011828218775263952e-02
1.055789637194786273e-01
2.665516496775110489e-01
4.385249447622829311e-01
3.549281726637832923e-01
-2.040418701956391301e-01
-9.812163145081953530e-01
-1.298348268094086988e+00
-8.269511806357729977e-01
-5.504913501744987392e-02
3.260763542991259034e-01
2.096695102464194438e-01
-2.491374348869929839e-02
-9.264295231269789599e-02
-2.067439156436850015e-02
4.288103711366259008e-02
3.260241996812415083e-02
-1.130426332809625171e-02
-2.679446326854776836e-02
9.222706027868706261e-03
7.911098062735157088e-02
1.500045902233763662e-01
2.004277136330765985e-01
2.276749134619287518e-01
2.286810690532822266e-01
1.880767767161568849e-01
1.039378572368921810e-01
1.427547831116621202e-02
-2.999642822755750268e-02
-1.490840060453127967e-02
3.506766944071527947e-02
9.090522317610273684e-02
1.314065132835035843e-01
1.420027298532878790e-01
1.261579888187032983e-01
1.039119244257308700e-01
8.332924924459716998e-02
4.652947123704596205e-02
-2.698622704621439841e-02
-1.322425577668051300e-01
-2.326390997393576743e-01
-2.761992757481598892e-01
-2.277891018529902556e-01
-9.672749029199576021e-02
6.099530596909204239e-02
1.674720862280860423e-01
1.685132623304856914e-01
7.850393784862227942e-02
-2.041925341487912937e-02
-4.068275459896662088e-02
3.853652845878002831e-02
1.548353501928230458e-01
2.204578200620388451e-01
2.079684805722497032e-01
1.662709369631499012e-01
1.373132427222620577e-01
9.653423454795773129e-02
2.055579303471005009e-02
-2.218618537280925285e-02
5.335463642353001357e-02
1.386965113598744859e-01
-6.545471716631590109e-02
-6.197248099136444255e-01
-1.023618781761719276e+00
-7.250309591388428565e-01
7.066882773805957529e-02
5.861448031456325536e-01
4.568021592589117663e-01
5.048910055023320131e-02
-1.598808204515639320e-01
-1.050572382481659572e-01
2.166111063040830620e-02
9.535556242811105143e-02
1.334325267771792056e-01
1.785408701434154921e-01
2.234733653840451084e-01
2.347466202835957194e-01
1.978028556948540073e-01
1.295577070480204429e-01
6.360622090655196348e-02
3.147019720003908089e-02
4.772512316718343500e-02
9.906327415636162481e-02
1.509808188585503030e-01
1.743975058406401213e-01
1.622874110620784183e-01
1.217234414595297909e-01
6.473196760187117926e-02
7.579713253662380239e-03
-3.666086676100981101e-02
-6.383362378478839305e-02
-6.794179650816725702e-02
-3.831454929378122487e-02
1.837060354836517195e-02
6.410380475882432316e-02
5.227697566954700448e-02
-3.120990225136012139e-02
-1.470704131469115494e-01
-2.239719033837749285e-01
-2.102065201637579872e-01
-1.143081079762445357e-01
3.772050153433022246e-03
8.501395089080024392e-02
1.149497245750865926e-01
1.193718153167630525e-01
1.307830139382152035e-01
1.593567720471585347e-01
1.787032241456917858e-01
1.454332662459528747e-01
5.571898843226869708e-02
-3.304130430260937556e-02
-6.369505384820225991e-02
-4.204164525424054777e-02
-5.898562365016148806e-03
5.896888872802379111e-02
2.071433810514304308e-01
3.597180117225520779e-01
2.089713325978735659e-01
-4.425149502421327763e-01
-1.181990824068839263e+00
-1.239772245246447469e+00
-4.772045671603900585e-01
3.409976893531087017e-01
5.135832671092095403e-01
1.645669777609019002e-01
-1.466879266409170657e-01
-1.430483886937838345e-01
2.985366555299035982e-02
1.281522545328497575e-01
8.260817983152363153e-02
-8.364616213662148803e-03
-3.253327342736504757e-02
3.526874327343863108e-02
1.383838077765478791e-01
2.052202036105604810e-01
2.147819368313411970e-01
1.998164675587988659e-01
1.910348619222311528e-01
1.814256490768582086e-01
1.521485824948165810e-01
1.066509187229143785e-01
6.115391982268437998e-02
2.023361912918001521e-02
-1.574416411831293383e-02
-2.715600946143088140e-02
1.990966989705859544e-02
1.292245770008934314e-01
2.137359958245416969e-01
9.992553362148084983e-02
-2.982097916437510543e-01
-7.688602818392932248e-01
-9.384781788968520333e-01
-7.169571883852218219e-01
-3.988376947725289501e-01
-2.285562047503992555e-01
-1.244514927491444239e-01
6.181606786854600133e-02
2.613264740311169176e-01
3.055788135530440597e-01
1.793784753551286304e-01
2.676397231451223269e-02
-3.185365992259837908e-02
-8.480031099010185754e-04
4.742182612083797877e-02
7.058425701569161215e-02
8.881642157497351975e-02
1.417689398868590411e-01
2.216704317367836075e-01
2.546688212925529715e-01
1.723169046165270446e-01
1.199651309940286126e-02
-7.799001650099512961e-02
1.983541299855437479e-02
1.950094351349917488e-01
1.069056761150803114e-01
-4.250543328212428307e-01
-1.007823811755657273e+00
-9.900255804972966089e-01
-3.221552650723524813e-01
3.068674206926502168e-01
3.464252093942799537e-01
-2.794993262919434618e-02
-3.169159949772266671e-01
-2.992661641946280926e-01
-1.037837406167702037e-01
7.261610195279369351e-02
1.605909035776987015e-01
1.957473755260532300e-01
2.138999138048273685e-01
2.102807119509475520e-01
1.744277953221279598e-01
1.240960320283000240e-01
8.779267890056743906e-02
6.998770033811357871e-02
6.353323524788233312e-02
8.472506998397606737e-02
1.482977207948840137e-01
2.171356608035214797e-01
2.312364919015418574e-01
1.800199255416020938e-01
1.073221848271275480e-01
5.784761523605469469e-02
4.491646113624787190e-02
5.854574594318037728e-02
8.554449359171290013e-02
1.227334879544910162e-01
1.695656110015744122e-01
2.007442803172278800e-01
1.625292881724945959e-01
2.286285625859106260e-02
-1.744527363109899532e-01
-3.244850350880850720e-01
-3.440936533174839829e-01
-2.387067110032627393e-01
-8.278693011132690072e-02
5.161570361442513466e-02
1.364848457270957105e-01
1.755613391739548057e-01
1.752637517435376158e-01
1.396523617255967797e-01
8.323190175841621574e-02
2.797207650284837255e-02
-9.708307605560930614e-03
-1.932708964289420531e-02
3.384125784857991946e-03
4.602909486759123453e-02
8.130242870926544796e-02
9.821100427789003495e-02
1.344622429440172351e-01
2.336535974499290014e-01
3.035865570572722771e-01
7.979147576169506872e-02
-5.402233089205974448e-01
-1.112820049325074390e+00
-1.002115673934079076e+00
-2.479633298871600777e-01
4.050819782258285873e-01
4.699062250369060445e-01
1.890240710813265446e-01
-9.289547537071222993e-03
-2.764987533590708771e-02
2.877312927384389693e-03
1.812358908867252967e-03
-3.753062575890688153e-03
2.647327224600404955e-02
8.715557519670415199e-02
1.484084573853743094e-01
1.924247486963847897e-01
2.202094442217689685e-01
2.321056632509254924e-01
2.104881273885915727e-01
1.367480347863307133e-01
2.801326219055507577e-02
-5.850290568835049554e-02
-6.679905354127396722e-02
8.903622932819430999e-03
1.141029585939274393e-01
1.769462580001325558e-01
1.646955755184839332e-01
1.005051636806716386e-01
2.927024596254219554e-02
-2.379174720420994260e-02
-5.260315043983603001e-02
-5.552849090751788702e-02
-5.246556818885365209e-02
-7.912968893222796507e-02
-1.304804651482878164e-01
-1.543977811822743462e-01
-1.176209293961855695e-01
-3.375937733861223561e-02
6.526951410032028056e-02
1.415528871565912561e-01
1.553344091421163808e-01
1.024319087595954580e-01
3.385684327741422112e-02
7.011726871176463677e-03
3.422530627508570122e-02
9.281947698011540349e-02
1.580053444065376289e-01
2.147743964160683250e-01
2.525964255649911228e-01
2.518350034403074589e-01
1.838598149427390360e-01
5.203869926592774586e-02
-5.864280862110086978e-02
-1.795308189797822918e-02
1.816131606228778561e-01
2.793691032883875436e-01
-6.633351444308982492e-02
-7.678533489715783089e-01
-1.170637170528607385e+00
-7.819693161980586504e-01
2.719518859339858929e-02
4.726876128932568921e-01
3.139126602801627364e-01
-5.001965632908771109e-02
-2.216062845414831228e-01
-1.572581002050999488e-01
5.412534215597593693e-03
1.701101592530362694e-01
2.984608413502664592e-01
3.539140360317143963e-01
3.105120858031825692e-01
1.933875137813584333e-01
7.160502981141826651e-02
5.033602071014187454e-03
9.336981869459430941e-03
6.513087510927320634e-02
1.408901648733908440e-01
2.074789443555519197e-01
2.436231605939897515e-01
2.347179366285825908e-01
1.760410165203117605e-01
8.446280512366824422e-02
-3.082830008470210589e-03
-5.664379376336869248e-02
-7.284703774339820748e-02
-5.675860744998868085e-02
-2.367519887479210133e-03
8.211184369770926916e-02
1.462150779736623718e-01
1.280589855899933738e-01
5.623688636593454984e-03
-1.883149948404240492e-01
-3.736404409207725319e-01
-4.523503055137904072e-01
-3.760002976244246620e-01
-1.932410852404866097e-01
-1.071486774500608058e-02
9.575585708221502623e-02
1.239451540811947472e-01
1.073185299779424035e-01
6.178669188342349877e-02
-8.916268987712482746e-03
-8.044902374628457031e-02
-1.199970107523853219e-01
-1.184037046649065034e-01
-8.706418620662602359e-02
-4.455613244107922005e-02
-1.563224521074334239e-02
-7.503927263364009934e-03
2.453300127547328527e-02
1.294162591680274865e-01
2.082943969672308993e-01
-2.862463860503271229e-02
-7.241222588389286674e-01
-1.441957410074375723e+00
-1.454699652612058580e+00
-6.650352394258911559e-01
1.881051332611285432e-01
4.409889511810533569e-01
1.750870942609246694e-01
-1.422208418839611688e-01
-2.512212666586825516e-01
-1.956606185792261199e-01
-1.032441600547453625e-01
-3.504329290123248813e-02
1.416268840469629697e-02
6.323683771286615907e-02
1.183125319432151712e-01
1.723287991527072960e-01
2.078117506922685931e-01
2.090283507809723718e-01
1.783099906925636746e-01
1.282816207066115322e-01
6.603910015457040150e-02
6.884002700808626585e-03
-1.430708077690124452e-02
2.028917465320671104e-02
7.829064411184592787e-02
1.150389981797599048e-01
1.276235860228762953e-01
1.372392777292979482e-01
1.409361613476876052e-01
1.165583067012669338e-01
6.091225889507233260e-02
-9.026541407123472860e-05
-4.035944288390043433e-02
-6.642054171696012976e-02
-1.055572494270146239e-01
-1.569797765090794606e-01
-1.796863147695727525e-01
-1.416408038767673350e-01
-6.006758824797863577e-02
1.717601317253395626e-02
5.308083436100071578e-02
4.247947246305784630e-02
8.463578044125478692e-03
-1.784042403152655970e-02
-1.567243278859458550e-02
2.233747186894614878e-02
8.884925494177758898e-02
1.580631184566781700e-01
1.955815304071396865e-01
1.782042018682929163e-01
1.051504329452457032e-01
1.780749619343702933e-03
-7.112890363163204555e-02
-2.374213378855839773e-02
1.783072345497488664e-01
3.701758519443797968e-01
2.181977239639773802e-01
-3.862908308811492386e-01
-9.814931076432481527e-01
-9.404703057989659554e-01
-2.929088742337233597e-01
2.731915239977091292e-01
2.933732145420538395e-01
-1.625473353822769890e-02
-2.071202989607678624e-01
-1.256677647618984484e-01
7.182521906974211057e-02
2.017582566926710563e-01
2.243546024599386013e-01
1.907493327177024189e-01
1.411090594985111302e-01
9.504818353839643297e-02
7.605123138973900188e-02
9.758415177214865843e-02
1.463451205234259922e-01
1.972451336013242573e-01
2.382987099660870689e-01
2.728204302038664264e-01
2.941796137009059509e-01
2.755303023083301994e-01
2.015107883708614489e-01
9.484738167754076799e-02
4.170909585993415672e-04
-4.435672080298777575e-02
-2.614050533756006461e-02
4.009341759087766549e-02
1.232624202766308408e-01
1.961790824417685430e-01
2.358443101147528476e-01
2.119134090096405076e-01
1.042687475626176974e-01
-5.938982568547550994e-02
-2.059690527453436060e-01
-2.692909670346571027e-01
-2.326526483925596689e-01
-1.242796836190272758e-01
1.216704590935342029e-02
1.389293152412463261e-01
2.262244881543781505e-01
2.497270302510607998e-01
2.062469145829024797e-01
1.319456639715484714e-01
7.975430769185649915e-02
7.033573963445888255e-02
8.567547212299761461e-02
1.140366632758899740e-01
1.694761009958442866e-01
2.459259071733378987e-01
2.842309440171681412e-01
2.382101680945473421e-01
1.673899595590812861e-01
1.844375379802792869e-01
2.455676909117216755e-01
6.872184929999909653e-02
-5.268213650709692164e-01
-1.174005109681641956e+00
-1.210483491494325659e+00
-5.403815572561566638e-01
1.739752202116537916e-01
3.552377818292941636e-01
1.018008595776667136e-01
-1.734303039097023214e-01
-2.603970910806245320e-01
-1.946268896140014582e-01
-8.070144071237023153e-02
3.219156925117892809e-03
3.700849085719821324e-02
5.956291335383785690e-02
1.142620363818191154e-01
1.848510452419202810e-01
2.045267354555699579e-01
1.333027478629120466e-01
1.323873347525855726e-02
-6.696697613224410206e-02
-6.155729764123354930e-02
-1.644363867931297393e-03
5.958555238298648277e-02
9.907191739351341175e-02
1.159242262792567202e-01
1.118740713425569466e-01
9.284850951473588854e-02
6.553513056649215573e-02
2.792055046607397339e-02
-2.001286987853093113e-02
-5.679772356181076592e-02
-5.054441069482813048e-02
-2.299992833355036723e-03
3.424760772275738802e-02
-1.361047074607322051e-03
-1.099268510279209077e-01
-2.250428428576143614e-01
-2.706211524479953945e-01
-2.206469909961832621e-01
-1.130518353895273165e-01
-1.445468626490051429e-02
3.412197730412259988e-02
4.421228254613584346e-02
5.834209771223120705e-02
1.034740350582245005e-01
1.608302928988579739e-01
1.801676220078994306e-01
1.286864981966005239e-01
2.823522997532712520e-02
-6.095551443486526416e-02
-1.032527635983155889e-01
-1.229190090936687491e-01
-1.390627108293875369e-01
-8.148701159829731255e-02
1.158375091175295607e-01
2.812708067060076811e-01
4.071062739245794038e-02
-6.772715372184369143e-01
-1.295503775192082818e+00
-1.153289802354727778e+00
-3.870360824091733098e-01
2.222110584882647788e-01
2.428883500215639757e-01
-4.201614305075242195e-02
-1.975592227231494080e-01
-1.293500542543968013e-01
1.615151725019759940e-03
6.727010883251652307e-02
6.402653258387697166e-02
3.244775955945658485e-02
2.995949256711431113e-03
1.958451841900124210e-03
4.019300110046308827e-02
9.219368605941552497e-02
1.240948807467758819e-01
1.407984564921002935e-01
1.685468056946067272e-01
1.952790753789939437e-01
1.742874459125096365e-01
9.227996880085501119e-02
-2.195745316901309696e-03
-4.528633920267425422e-02
-1.452208539067611180e-02
5.700613576443103181e-02
1.132993768284455000e-01
1.305570079898470959e-01
1.336356847313699692e-01
1.456652513839012952e-01
1.435564020903677129e-01
8.359915218297374329e-02
-4.311859793853872053e-02
-1.905715075997333474e-01
-2.837214914863711579e-01
-2.659710034144309176e-01
-1.371281217645020922e-01
4.483222899692868024e-02
1.994281213082271520e-01
2.718918180772346704e-01
2.639925792389790082e-01
2.201299888072556776e-01
1.734540359120002040e-01
1.085289157555185124e-01
-5.813241831902758727e-03
-1.360133386873762229e-01
-1.724981738153598398e-01
-5.246909955862404107e-02
1.382218528723850592e-01
2.461603433531265595e-01
2.105221309302736377e-01
1.226245731810539641e-01
1.301149995459948416e-01
2.197536322857350788e-01
1.057745808673544036e-01
-4.566346424075513610e-01
-1.163675820163493135e+00
-1.295198475568492436e+00
-5.928946067878657633e-01
3.223532881944671802e-01
6.781697352438703641e-01
3.875042397262004612e-01
-5.248447713719915642e-02
-2.149492655946685093e-01
-8.285587771749002017e-02
1.181110147650110964e-01
2.238061958305904708e-01
2.383517310183044802e-01
2.368678497547531403e-01
2.596417855433700295e-01
2.973300701575944949e-01
3.171341614330402958e-01
2.937048264795405483e-01
2.372052565782147848e-01
1.824222117810314903e-01
1.481443503377574966e-01
1.285705306757267130e-01
1.200668608754469902e-01
1.323814863589436452e-01
1.706207413555229924e-01
2.163162494142659986e-01
2.312780286474782898e-01
1.864828004763239289e-01
9.324526474495091477e-02
4.084659216090104177e-03
-2.305629566254742413e-02
2.718334033711021155e-02
1.074596352886299233e-01
1.431899347372134201e-01
9.321689802404481417e-02
-2.230014975290618706e-02
-1.440822410160922940e-01
-2.205304916117962477e-01
-2.325354521019952769e-01
-1.804648716457410151e-01
-7.542056797314773686e-02
4.987719018762577089e-02
1.477537077781800046e-01
1.858563928758684980e-01
1.720412785640323960e-01
1.512605779182307764e-01
1.557205154733634356e-01
1.445077616652268582e-01
4.069132478637953881e-02
-1.354093327515707434e-01
-2.406298522405643514e-01
-1.834574345278858487e-01
-4.065295743330417377e-02
8.090673253564137357e-02
1.910340238291107495e-01
2.989903399727739663e-01
2.234284906349926214e-01
-2.539811920285975910e-01
-9.393389970730900984e-01
-1.207157157509640699e+00
-7.308450359242326666e-01
2.233076453517160442e-02
3.651860016220395688e-01
1.935426688783551119e-01
-8.206980776730500582e-02
-1.447408430688120751e-01
-2.864530593910993156e-02
8.651096674535080355e-02
1.093200562040733265e-01
6.924505582972419193e-02
3.204350979298725699e-02
3.118305364721809386e-02
6.043607889080387929e-02
1.000755900559415074e-01
1.374706397730376950e-01
1.696353078657959756e-01
1.916138536858409402e-01
1.877972755203339006e-01
1.476041239754735668e-01
8.571932787298230938e-02
2.934712103320648302e-02
-6.041543751338995273e-03
-1.426384891050475751e-02
9.836119109222749707e-03
6.087383743443665340e-02
1.154573947677007967e-01
1.366831836238147913e-01
9.049435620587872875e-02
-1.295056912588435534e-02
-1.029544806304028143e-01
-1.272715657276858869e-01
-1.261037625208760171e-01
-1.636723458629734951e-01
-2.261885306356724301e-01
-2.464944102188571518e-01
-1.847947035149262729e-01
-5.197292999195177177e-02
9.667117438527916828e-02
1.796035673069801275e-01
1.515430611903431646e-01
5.076816461874833486e-02
-4.166496224952018212e-02
-7.282892739448229569e-02
-3.803862584762277704e-02
4.310898089932665295e-02
1.498087907802952978e-01
2.495204760481739004e-01
2.821191943680392278e-01
2.013246691366322449e-01
3.650078835984325171e-02
-1.056286148767778682e-01
-1.010766216747775031e-01
6.068437918809652110e-02
1.446501711543271285e-01
-1.643952677107157201e-01
-7.721273302168124575e-01
-1.068551224825929902e+00
-6.491029940519116304e-01
7.936021663367406886e-02
4.008617628053308679e-01
1.625908597825924118e-01
-2.073277616248818400e-01
-3.258476920889161743e-01
-1.910639172586512946e-01
-8.667800508427674772e-03
8.723594512695165282e-02
1.123610314433554913e-01
1.338998730220783417e-01
1.682578610882970727e-01
1.775346462674022852e-01
1.352728047575310899e-01
6.748755222929808673e-02
2.210321180022260107e-02
1.896562866726338170e-02
4.421751876792092556e-02
7.792508768071870762e-02
1.132142522580150690e-01
1.485553470472808224e-01
1.683322425666046451e-01
1.494411473049927497e-01
9.174527404723331614e-02
2.399424339860163624e-02
-2.425048537384390246e-02
-4.256417154455122837e-02
-2.909970695714360345e-02
2.030429843236876766e-02
9.340897476545807765e-02
1.447845876974865331e-01
1.209430504189472344e-01
4.035764645712838078e-03
-1.668438939221985051e-01
-3.098370104701688721e-01
-3.468068900419159495e-01
-2.565332770851241895e-01
-9.203306088493759529e-02
6.122560378194498443e-02
1.560731110777019981e-01
2.054518643781728104e-01
2.275321237550502196e-01
2.037152997353443296e-01
1.213793783776659641e-01
2.581081015930496159e-02
-1.269899161492474456e-02
2.337814207714932965e-02
7.143401194043945412e-02
4.490261165192813153e-02
-6.155017157929797145e-02
-1.255622351639041900e-01
-1.254361099652868267e-02
2.288025552455895950e-01
3.084490963968022914e-01
-8.192696210696021053e-02
-8.445773879420203079e-01
-1.343294630580485149e+00
-1.025457379571403704e+00
-1.524787818027628639e-01
4.923572156217794760e-01
5.368392003354286457e-01
2.505593939578251717e-01
1.129593842045514135e-02
-6.763226013716727714e-02
-6.060900573817610409e-02
-4.036900896854968973e-02
-1.402361873917480975e-02
3.327089070172451618e-02
1.002101909363067589e-01
1.716915150000380974e-01
2.268170010440566098e-01
2.463724667732015983e-01
2.197559182261736577e-01
1.487147231289004667e-01
5.837849964059300262e-02
-7.630341760286873942e-03
-2.223564162620440821e-02
6.088941974736831672e-03
4.870464758829410462e-02
7.850394928778829662e-02
8.881693720261282787e-02
9.456131811378509777e-02
1.001737034042941704e-01
7.996334019628602297e-02
1.366954505724379473e-02
-7.044852452094541029e-02
-1.153998818837741885e-01
-1.030907643645549293e-01
-8.097574443845760583e-02
-1.047548493460316726e-01
-1.685274132767935473e-01
-2.105066122769654879e-01
-1.802476455518386977e-01
-8.697855666841930455e-02
1.164305192945519485e-02
5.806725310814552649e-02
3.794649737664636258e-02
-1.179553942619825276e-02
-3.135949508571782285e-02
1.469183205499025903e-02
1.011008958092877025e-01
1.622323819127734768e-01
1.658408747571176733e-01
1.443455475474341998e-01
1.321799420840230610e-01
1.050571467573314516e-01
2.121804763211236622e-02
-7.805657245685734824e-02
-6.064759655109875497e-02
1.136608795864789412e-01
2.033263948346394068e-01
-1.272104831227989785e-01
-7.858048860695677762e-01
-1.152026531134012766e+00
-7.943178728760512675e-01
-6.872673763258475843e-02
3.379777328959548410e-01
2.278295210230086854e-01
-5.695719879948058645e-02
-1.700723377068705522e-01
-6.825953778354988677e-02
1.014696617867191786e-01
2.169134106028803577e-01
2.557180694060566251e-01
2.405389048191242940e-01
1.910761096005655912e-01
1.350877882630888149e-01
1.110035211560248397e-01
1.330866908379611246e-01
1.724444464734245508e-01
1.864928887325166540e-01
1.674361408850263688e-01
1.500707345078594324e-01
1.582205125278608460e-01
1.657516795257692743e-01
1.370493352246060503e-01
7.898239808346506352e-02
2.601015001687335265e-02
9.896395742613915344e-04
1.078035070718243518e-02
5.340408628663045887e-02
1.105215869354809477e-01
1.495424617566347425e-01
1.455488401450391878e-01
9.594830139106291789e-02
1.623134985894076135e-02
-6.740222140621490721e-02
-1.285892959392838375e-01
-1.578742160549998219e-01
-1.561637307279298836e-01
-1.124076085263130964e-01
-2.316784368383274090e-02
7.909005955213863071e-02
1.679736131784213549e-01
2.638304140825121213e-01
3.642685528007442164e-01
3.797523685841434626e-01
2.408328591123422846e-01
3.428236913479779102e-02
-7.420067721325668275e-02
-2.779025251177263262e-02
8.671027386560223316e-02
1.577148052084198782e-01
1.451975124283689522e-01
9.129618982792729598e-02
8.645022777404161307e-02
1.793682209347508272e-01
2.340991445224934464e-01
-4.231723759412409774e-02
-7.056264511394040317e-01
-1.251778874038646183e+00
-1.068585834399724321e+00
-2.566747376605432729e-01
4.289221117260658689e-01
4.948044902907405285e-01
1.485037260590843788e-01
-1.576094174089194833e-01
-2.308605992365443116e-01
-1.502231105924186627e-01
-3.652839771450558382e-02
6.272024198547170026e-02
1.387658818779208270e-01
1.833266683010832954e-01
1.979355751870371105e-01
1.968721287995826019e-01
1.888157408312311492e-01
1.665987987853494445e-01
1.174614219261901626e-01
4.577979301696017550e-02
-1.440927552473679832e-02
-2.022556533875020240e-02
3.810439763485608949e-02
1.211146949237913578e-01
1.736955809803404638e-01
1.708604214319736081e-01
1.238173755300809864e-01
5.173848048561133922e-02
-3.100795067445843295e-02
-1.007238135247433136e-01
-1.236949636655999829e-01
-8.230233897149458189e-02
2.527110053232972664e-03
7.176535782162041244e-02
5.925494614709951591e-02
-4.963184553783514530e-02
-1.895541605876774616e-01
-2.697930498303068858e-01
-2.498346660231018923e-01
-1.524294004487761756e-01
-3.869277833173947329e-02
2.583353765489948550e-02
2.818513201123562170e-02
2.299280363356129980e-02
5.710772557667125743e-02
1.124692276282231451e-01
1.408158137812874078e-01
1.145531300929591711e-01
4.313098517863614423e-02
-3.422802998601839203e-02
-8.147738794381105543e-02
-9.751576821723847988e-02
-9.985046006893243120e-02
-7.184983642732345466e-02
4.676051590217593368e-02
2.468563214126460736e-01
3.047758761615723122e-01
-8.255496648813448468e-02
-8.268900620638665044e-01
-1.297244880174706516e+00
-9.948982140651023709e-01
-2.324586061913323509e-01
2.499626940338008918e-01
1.769075152891543268e-01
-1.100182353291769555e-01
-2.135059691409856297e-01
-7.730575278441501053e-02
1.067290898584724035e-01
1.680558573847130699e-01
9.151845722269186245e-02
-2.400472769060273126e-02
-7.575093532917917538e-02
-3.489215289902342088e-02
5.579378840535215156e-02
1.384330490412056247e-01
1.836832065439353012e-01
1.929094540591614337e-01
1.796961352637281295e-01
1.540153571871384908e-01
1.167925049949767868e-01
6.757260894260833095e-02
1.871736446047972402e-02
-3.823551980030443637e-03
1.742730299535344071e-02
6.742262217972048999e-02
1.075628441354214704e-01
1.146080511638436772e-01
9.682278134984871609e-02
6.961007370250654747e-02
3.606077531738124259e-02
-8.029492831354552093e-03
-6.761979501935112824e-02
-1.413310974490346039e-01
-2.080860073504700591e-01
-2.304644766432117353e-01
-1.821812407876045592e-01
-7.179562219024386571e-02
5.488293322519045836e-02
1.339801083962428585e-01
1.241410663093510391e-01
4.257581817518589495e-02
-4.283166820881648129e-02
-6.028419188515254240e-02
1.487937295163895522e-02
1.353576008246453188e-01
2.182969517487085287e-01
2.253047906056841465e-01
1.887257654921234429e-01
1.472551420515904597e-01
8.818848922145744451e-02
-9.978554303410602788e-03
-8.750735698149585129e-02
-3.469653453480661676e-02
1.071586906148121743e-01
5.113241402115729917e-02
-4.090646297482045113e-01
-9.530104362239213422e-01
-9.567908142819846473e-01
-3.226407906651833635e-01
3.088358422523640456e-01
3.744266738231706859e-01
1.366818825698307149e-02
-2.806423805307729502e-01
-2.707831745656683053e-01
-7.868285338163726050e-02
8.532012404412708806e-02
1.431158947967532957e-01
1.538366237850248008e-01
1.832773301757347206e-01
2.081775884717503855e-01
1.637341600634468763e-01
5.556227118940383625e-02
-3.021213680482804850e-02
-2.732909584972149919e-02
5.003969689019254624e-02
1.497888766301229135e-01
2.359971997077991157e-01
2.901642557004422418e-01
2.979295071010260587e-01
2.569614196679531060e-01
1.861397946750722454e-01
1.143754252208211836e-01
6.234322600884865950e-02
3.763699631909703941e-02
4.104224604688987837e-02
7.207384858668980376e-02
1.306441838693179480e-01
2.073003998216835231e-01
2.557725772619742211e-01
1.938914554857379680e-01
-1.044457105648810558e-02
-2.518633274642969044e-01
-3.600246568538247871e-01
-2.773894859763054166e-01
-1.003373889877938185e-01
5.493224723474661453e-02
1.547077356721615060e-01
2.185666248400866818e-01
2.531623618677897869e-01
2.381286367720532871e-01
1.620760888900853458e-01
5.239196049641627745e-02
-4.271896714420392316e-02
-9.038551603849630245e-02
-8.355983781872722282e-02
-3.689279842489681660e-02
1.773613768448450284e-02
5.455912800217160852e-02
9.136217418608812146e-02
1.777826417409607840e-01
2.743422491996587720e-01
1.479977731448394451e-01
-4.039076710193109654e-01
-1.097648603648904375e+00
-1.254660891896161257e+00
-6.377234241494614819e-01
1.566163794568273260e-01
4.424679080095845207e-01
2.105407341300509771e-01
-8.552735371190522962e-02
-1.598628272095747038e-01
-7.928772262365242629e-02
-1.144966229371504295e-02
-3.594992171650653739e-03
-3.771812757150886514e-04
3.944590255726344863e-02
1.017336945684781113e-01
1.580801835355752638e-01
1.991951361497213968e-01
2.249793470892636482e-01
2.270250128955548785e-01
1.903039046185719674e-01
1.119528289758671136e-01
2.036685399512639175e-02
-3.296866433796044604e-02
-1.491170076705253082e-02
5.384486924418815934e-02
1.168601417865081510e-01
1.387659527586340980e-01
1.278412351576234396e-01
1.033394114676469133e-01
6.857651305730426416e-02
2.567470403565373302e-02
-5.371118826736217926e-03
-4.347449500601884356e-03
1.404528491401900621e-02
5.439498230172009133e-03
-4.919708255481711895e-02
-1.094106600765368531e-01
-1.140252066491993788e-01
-4.594602812341261333e-02
5.223707319966584828e-02
1.206049381960567490e-01
1.303998360290023473e-01
9.343818715230399474e-02
4.381685373716497772e-02
2.078844522494274760e-02
4.512061692171841221e-02
9.729934045892980887e-02
1.373511633329131676e-01
1.448203696105003491e-01
1.210438802334746766e-01
6.732539397211485810e-02
-1.656691063020402158e-02
-1.100430398306971452e-01
-1.457824682713682873e-01
-4.207713794870001495e-02
1.532785332497540731e-01
1.660519233770092473e-01
-2.555033367805480959e-01
-8.868586401282209097e-01
-1.099029531413223015e+00
-6.260678485879400679e-01
3.790523376772284014e-02
2.769887255742717880e-01
6.970793329849027387e-02
-1.681890778579384071e-01
-1.625720230105845987e-01
2.245213150795414767e-02
1.988311159559029151e-01
2.694983216989104702e-01
2.492843226912518917e-01
1.888561072565626830e-01
1.305159412445704992e-01
1.054436566871342768e-01
1.279708436273937766e-01
1.844445513721461871e-01
2.407898590472608014e-01
2.681614421973741447e-01
2.622796293437642534e-01
2.345790585905560000e-01
1.839487968770101844e-01
9.666330658804278553e-02
-1.216871329937752391e-02
-9.021835630072853884e-02
-1.073676101964130963e-01
-8.905949104071353428e-02
-7.153547884810532165e-02
-6.164479745935045468e-02
-4.802679787392440114e-02
-2.043493974520629169e-02
1.161593771616582088e-02
5.395238953481967109e-05
-1.079637516219807691e-01
-2.964873794044098343e-01
-4.703797311623231225e-01
-5.282996835583373407e-01
-4.364757256179679912e-01
-2.480739557653326433e-01
-5.686673518726357429e-02
8.597139502222217455e-02
1.914147224328493768e-01
2.507707779207802301e-01
2.040777165716026742e-01
4.929654062963721717e-02
-1.013021443516016057e-01
-1.473632280229242586e-01
-1.043265295583804680e-01
-3.358140889906371246e-02
4.300213858804044498e-02
1.150530736259196690e-01
1.487752170195982271e-01
1.363841869613600932e-01
1.374750916242875320e-01
1.939848271685072345e-01
1.764764817622701265e-01
-1.627089230263634168e-01
-7.946607055691008448e-01
-1.194006252391189404e+00
-8.799343203156004822e-01
-1.078337086676747630e-01
3.986384508433373219e-01
3.201719600666532717e-01
-4.079281746576715606e-02
-2.812892085833980649e-01
-2.869852133160140650e-01
-1.657878695142530612e-01
-4.014112453188983798e-02
4.682278268745629357e-02
1.095264811015204953e-01
1.678895487503734296e-01
2.186846112427137667e-01
2.417587169945021597e-01
2.235657416493601057e-01
1.725478432438739829e-01
1.189198769469831940e-01
9.511920083492156341e-02
1.032516683829348969e-01
1.134905636151724573e-01
1.106962065035671933e-01
1.236161192283157101e-01
1.817105611628052619e-01
2.519765432718659159e-01
2.493796814513686566e-01
1.262673955159561989e-01
-5.696439534111978620e-02
-1.738167815826488216e-01
-1.550222816172963924e-01
-4.790911066933410678e-02
5.047485129892471251e-02
8.039067887817155644e-02
4.073901642122407935e-02
-3.020190810668629475e-02
-8.576322046449905145e-02
-9.995473724236621227e-02
-7.065042074601535216e-02
-4.048825517305799579e-03
9.043286295626443150e-02
1.913318976254383408e-01
2.634267658818177371e-01
2.822923272723789623e-01
2.648810745007897927e-01
2.535056020233760199e-01
2.599150482513515881e-01
2.515134347253978886e-01
2.053431189879119656e-01
1.450640044457454647e-01
1.051738524843171263e-01
8.897901618645305544e-02
9.370615027686060583e-02
1.590054662146945519e-01
3.209091794171362033e-01
4.558880339412441085e-01
2.582827284931278333e-01
-3.945219189252104908e-01
-1.051123476969471504e+00
-1.043532177095347402e+00
-3.572686342518208713e-01
2.992394163927165618e-01
4.094338708789680981e-01
1.624878673923741412e-01
-7.165272732132528521e-03
4.270232449051680756e-02
1.714287897453785903e-01
2.254712887290206136e-01
1.793695398130777385e-01
1.000725793627635363e-01
6.015017198807164761e-02
8.469368829839221680e-02
1.446665656055036997e-01
1.952898197206612008e-01
2.301434004841501069e-01
2.756511876333210820e-01
3.240856071604660826e-01
3.196632203987592180e-01
2.328108390164127794e-01
1.061747677279972768e-01
1.010552460888250806e-02
-1.945287284525450133e-02
2.974984761664582061e-03
3.854091345931053014e-02
6.372994309212642872e-02
7.995345268117683146e-02
8.666432576693300360e-02
7.134192452481155633e-02
2.652553962795157691e-02
-4.985819426475038285e-02
-1.630373083106142762e-01
-3.015330130531956865e-01
-4.137961834012610640e-01
-4.328797996286202765e-01
-3.345505696766487569e-01
-1.626630180033864781e-01
2.246835859686342057e-03
9.212966018532088575e-02
8.218270221900768335e-02
1.097863054308829273e-03
-8.251684475174976552e-02
-1.068370576578243497e-01
-6.572789850851212812e-02
-3.595251844487567378e-03
4.142636251582763190e-02
7.272984708296914569e-02
1.053198591097064124e-01
1.198469644358371722e-01
7.122194631279843424e-02
-4.308057380808226478e-02
-1.315489080877278172e-01
-8.789777987272927307e-02
1.005288804385041923e-02
-1.379911646049793439e-01
-6.755315263383170343e-01
-1.184700202350854159e+00
-1.044464205293696102e+00
-2.927401028351932499e-01
3.319012265558315411e-01
3.248336255343730050e-01
-7.249719260708742397e-02
-3.543729519571608977e-01
-3.320717898987731176e-01
-1.546801852127022980e-01
-1.472929886774881035e-02
3.452847808273487584e-02
4.653618584326663088e-02
7.316999589625355904e-02
1.106439079484700660e-01
1.197373590730681642e-01
8.056253259206984374e-02
2.353335286193593279e-02
1.781994208059980989e-03
3.537205478415062637e-02
9.025851438935549031e-02
1.183357491983750842e-01
1.115087982095464836e-01
9.846898807169002232e-02
9.324699800049651710e-02
7.549520672848322733e-02
2.659774068065771935e-02
-3.906203670577813869e-02
-8.772361309474033253e-02
-9.663873692666270776e-02
-6.665880969076394547e-02
-1.485720859610953522e-02
3.535944178696154294e-02
5.317371032558201871e-02
4.420211580130162937e-03
-1.189037362362815597e-01
-2.687540875229938453e-01
-3.573901406783654977e-01
-3.235101606162164023e-01
-1.870375046152867038e-01
-2.927687261168825453e-02
7.531849555320342671e-02
1.010409683544545023e-01
7.470504573996947228e-02
5.328099745557533101e-02
6.575389001819087476e-02
7.762907848932787402e-02
4.599848253512363316e-02
-1.121577423517797212e-02
-3.905817163236627310e-02
-2.190007774988684056e-02
2.701501866688880635e-03
1.663491295860472161e-02
7.834739899209289260e-02
2.424740767138439113e-01
3.713509910956843685e-01
1.276461451798134306e-01
-6.030758612660029883e-01
-1.300075754395235927e+00
-1.236441572268095479e+00
-4.306012225983842368e-01
3.127513463973152219e-01
4.238477133978487688e-01
1.288929122223515522e-01
-7.690968740405820792e-02
-5.080205771321728153e-02
2.800268006342144025e-02
2.007650869746203243e-02
-2.087729183882712156e-02
2.188683479769513995e-02
1.700937547844056374e-01
3.393730173705495345e-01
4.376297604461364954e-01
4.503599792017606296e-01
4.299312662368721671e-01
4.124023739959941093e-01
3.747224064308437574e-01
2.872785951796718029e-01
1.755157215817028660e-01
1.012655680668992919e-01
9.648092573700600694e-02
1.343639041498360387e-01
1.680876256274845271e-01
1.833361587083724709e-01
1.913238279534644204e-01
1.863005304535179374e-01
1.508331203726303305e-01
9.267987018693808754e-02
3.666002020474033035e-02
-1.256142882398526145e-02
-7.034165162156637285e-02
-1.384999885562861743e-01
-1.898675268642232850e-01
-1.882221836341024801e-01
-1.166522918746766418e-01
9.226871734786683960e-03
1.385573521135957109e-01
1.988932169108026948e-01
1.488871625055960823e-01
3.122388275146007613e-02
-5.537932699579666690e-02
-4.847130845590728876e-02
2.875321608535158502e-02
1.094031537203602467e-01
1.580592303066402637e-01
1.906413732825540663e-01
2.209598407447502799e-01
2.130085651775354416e-01
1.167842907610105452e-01
-3.827712215458348166e-02
-1.107291788526666015e-01
2.302863252040477510e-02
2.419880612052215663e-01
1.587398453062229542e-01
-4.450323444587829802e-01
-1.135186961373753078e+00
-1.165691688599827414e+00
-4.561959407014010148e-01
2.408875222548779171e-01
3.200157222730286577e-01
-2.962795589968474086e-02
-2.820951799750608946e-01
-2.306057889084049406e-01
-3.747461145453399867e-02
9.954881093954939808e-02
1.454252094909962434e-01
1.456639913504122474e-01
9.791556845856251579e-02
-1.005790767813023213e-02
-1.072798995112673737e-01
-9.875744935650898615e-02
6.336273594667096720e-03
1.095113552894526748e-01
1.406716696449801796e-01
1.116803447567297214e-01
8.488622862345855669e-02
1.087459023724331175e-01
1.598697001121035799e-01
1.628048180917300303e-01
8.989434347933941694e-02
3.588214259653770000e-03
-2.579133392437171074e-02
-2.306494730211456484e-03
2.400135621578181055e-02
3.651549377258139772e-02
6.120975416732038488e-02
9.569440983717004967e-02
7.705967467106382418e-02
-4.240469697985855407e-02
-2.145562274544698944e-01
-3.278603235685627615e-01
-3.094052432697149690e-01
-1.770900910614079393e-01
-7.660950234923701724e-03
1.278359392745274659e-01
2.034668038464503281e-01
2.301390558904275185e-01
2.213264971389930502e-01
1.743339309408552251e-01
8.756494302437403676e-02
-8.325971342074380693e-03
-5.624867156761818171e-02
-2.524297962580139554e-02
5.233050737779322559e-02
1.080416793437334877e-01
1.041382982929563994e-01
7.968831358985986602e-02
1.251476400623202367e-01
2.626677760419116603e-01
3.085380116988024612e-01
-3.908028106305147520e-02
-7.676710434265781036e-01
-1.290002013402415715e+00
-1.012171001895447953e+00
-1.516800415335519125e-01
4.808748440561971260e-01
4.798303345624966854e-01
1.538087485991568304e-01
-6.620436971557233652e-02
-8.840058757116683874e-02
-5.079678176190410149e-02
-4.860899024672574176e-02
-5.652141794785466716e-02
-1.768382894570193209e-02
7.239230797951413943e-02
1.616101743143181779e-01
1.896691786227382159e-01
1.476853544454816980e-01
9.082241874149556138e-02
7.272640477728488373e-02
8.925809451696671559e-02
1.076893401946123902e-01
1.148710745003470035e-01
1.222618954074712189e-01
1.500399637890685589e-01
2.058967524081102285e-01
2.695491356658650806e-01
3.040966099951066814e-01
2.815103725503977361e-01
2.006630148414836057e-01
9.466637274212073849e-02
1.467711738584145248e-02
-1.129800209230290287e-02
-5.402106122676933117e-03
-1.862900995614431149e-02
-7.696200438478842387e-02
-1.490513399808927886e-01
-1.728489472061792986e-01
-1.149506777261551649e-01
-5.463301015955508017e-03
8.251459695195477451e-02
9.701958376242089677e-02
5.745591425157392518e-02
3.253126071169278044e-02
6.642797864161124888e-02
1.385313788746524999e-01
1.972405298139803809e-01
2.135055874515033036e-01
1.906063109633653052e-01
1.416197490571890483e-01
7.417891443293199438e-02
-9.317134582508400376e-03
-9.192636454715755190e-02
-1.100855465495615693e-01
1.379809788869432348e-02
2.176089360505802650e-01
2.036809972332533358e-01
-2.846093977279778864e-01
-9.803293949175255761e-01
-1.194358553323340733e+00
-6.520051013139011031e-01
1.008756602345610709e-01
3.883904872883141013e-01
1.561954351659640694e-01
-1.689637078854570873e-01
-2.557015693982945814e-01
-1.089417681340248689e-01
9.143041698025310138e-02
2.015213271801372108e-01
1.781877476495965507e-01
6.661565491257506744e-02
-3.409126699905619395e-02
-5.473256260452521310e-02
-1.125637664758575261e-02
4.689128337670897539e-02
9.871868899862498714e-02
1.439718963279424113e-01
1.815469567881092816e-01
2.087122064968729984e-01
2.203913449060075913e-01
2.077605667101074249e-01
1.641740026649233797e-01
9.674010007194890071e-02
3.424080595756633094e-02
1.185414738170139856e-02
3.736518088628478645e-02
8.405134239838558952e-02
1.262633677115621578e-01
1.619505330210405381e-01
1.824654540835411176e-01
1.453564390584585475e-01
1.528798713337242189e-02
-1.716189306496304356e-01
-3.152209821225420705e-01
-3.315077305948930242e-01
-2.163898493513069510e-01
-3.850299077264046632e-02
1.149626529243851086e-01
1.952974735815846685e-01
2.139572099676547434e-01
2.059466173909124120e-01
1.803992359460132866e-01
1.276803353451606005e-01
5.794078984920098679e-02
3.097437847313800480e-04
-2.707443573818150637e-02
-2.389574168326188616e-02
1.058016455975295013e-03
2.659495596415698340e-02
3.283466833240317184e-02
4.397603557643451483e-02
1.136586593500167608e-01
1.942283764054264783e-01
5.315547531485907001e-02
-4.899461819465106838e-01
-1.152351321658833472e+00
-1.295142830605899853e+00
-6.897161192062366553e-01
1.097716358485216204e-01
4.304560653748240595e-01
2.140387501097395506e-01
-1.282882788142269415e-01
-2.837985309675285506e-01
-2.457562359044159206e-01
-1.421567886447371032e-01
-5.567090630084522290e-02
6.234333968663279685e-03
6.250658222127866703e-02
1.197755573728942341e-01
1.642121573371150001e-01
1.729655672962963908e-01
1.356469865348223780e-01
7.225663495480888487e-02
2.542101597019781264e-02
2.353958364009828275e-02
5.526883972056058358e-02
9.044608197590371657e-02
1.148007298663327597e-01
1.315800709622166609e-01
1.420411896735199742e-01
1.368018755203942172e-01
1.028724436875507464e-01
3.849989450623175768e-02
-3.637080191212382907e-02
-8.838074571574928984e-02
-9.420838455627963959e-02
-5.930119874556595561e-02
-1.993513608452171168e-02
-2.468034851077419850e-02
-9.412098716795054554e-02
-1.887872185337757247e-01
-2.358642750080307826e-01
-1.985225354605591463e-01
-1.050208853676281306e-01
-1.206816117704553187e-02
4.093447102993242465e-02
4.650836994115350315e-02
2.644087677950262769e-02
2.465673939357733435e-02
7.671822072284596727e-02
1.662977171196540482e-01
2.284470455512074283e-01
2.107445382657790189e-01
1.227326414939477611e-01
2.085577910534943194e-02
-4.430765861301193265e-02
-4.940101369083407801e-02
3.141328917578093544e-02
2.199695349916557519e-01
4.236253844901923804e-01
3.731299327691486867e-01
-1.397578127921194624e-01
-8.621336060297628556e-01
-1.158289514963709355e+00
-7.375720318173342172e-01
-5.895542840856934919e-02
2.573207955257441615e-01
1.311637133444306658e-01
-9.172937845106585164e-02
-1.559428998916155551e-01
-7.527472150268253726e-02
3.134120532352396848e-02
9.505609141553263142e-02
1.080323625625605882e-01
8.333182026646497598e-02
4.662120118648677147e-02
3.268824041921566947e-02
5.674697185498353558e-02
1.023353083216928527e-01
1.507181690028857046e-01
2.003189359213544130e-01
2.454588558572405599e-01
2.579382522805482858e-01
2.082782705099080200e-01
1.106606397613349169e-01
3.562137639509727061e-02
3.958524456898580152e-02
6.795614641419632507e-02
-8.036168851368633362e-03
-1.946624301837190929e-01
-2.978679665449743830e-01
-1.667367583969256162e-01
7.789581227106845418e-02
1.979165937035308465e-01
1.123174820320962941e-01
-8.484683007375667940e-02
-2.636206117306971741e-01
-3.430751028606269237e-01
-3.073077860647035475e-01
-1.843286662064061443e-01
-1.370789059878167737e-02
1.628156798887017420e-01
2.957731521829198296e-01
3.370560343546478710e-01
2.721069192018196192e-01
1.486576213212672803e-01
4.949727989464745848e-02
2.051713952618930067e-02
4.705433044248209795e-02
9.832957652752961908e-02
1.573953736868257403e-01
2.060393233590943340e-01
2.122286440695118903e-01
1.569873324735169828e-01
8.443590584599566795e-02
8.905627936191397309e-02
1.736146703826732529e-01
1.267223389308740067e-01
-2.782919654469491189e-01
-8.463404079739874630e-01
-9.818097255260941347e-01
-4.248359259184374404e-01
3.121131413034076152e-01
5.701103899900900052e-01
3.069285690569367175e-01
-4.540845030783011160e-02
-1.819786174756894137e-01
-1.262792888628534449e-01
-2.069049205638196984e-02
6.729897309192371668e-02
1.533513615809920239e-01
2.500360390688374235e-01
3.132014581546722076e-01
2.817892125251381108e-01
1.626183553510260060e-01
4.371872794404702001e-02
3.499426280645823780e-03
3.329719062408548896e-02
7.501533056042244962e-02
1.016954344178885583e-01
1.239889060125858450e-01
1.435554356491019756e-01
1.399567399410477364e-01
9.986436171117939187e-02
3.832971908162413621e-02
-1.618478116804459785e-02
-5.201143570008553985e-02
-7.459999079225880514e-02
-7.771786478659502284e-02
-4.478090551471693853e-02
1.239697204494961437e-02
4.758920846902658236e-02
2.066585856661150300e-02
-7.373839855526237441e-02
-2.028365610784147177e-01
-2.999031056585464428e-01
-2.974528840148400466e-01
-1.868831166848794190e-01
-3.460448330527249317e-02
7.811180108909930586e-02
1.227297719247877061e-01
1.255367092284416231e-01
1.202656868194998119e-01
1.126866633041752469e-01
8.849780946430924056e-02
5.533171097458487731e-02
6.723707541500138773e-02
1.643685752628618324e-01
2.699337245107968908e-01
2.056856244932516731e-01
-1.119229356893223226e-01
-4.717791774964995022e-01
-4.911313607424311889e-01
-1.175337558560091283e-01
1.206765861350028723e-01
-2.905416675480066990e-01
-1.052163113568392871e+00
-1.291589491207991269e+00
-6.830978856509604125e-01
1.428157208043853155e-01
4.572367193305921229e-01
2.314673567121848241e-01
-8.045322742094718205e-02
-1.616322815346100394e-01
-4.522208028672286551e-02
8.106386781955034204e-02
1.040930648900027372e-01
4.910227830680168049e-02
6.207790984478104429e-03
2.974850953440363877e-02
1.055206297397861953e-01
1.922111147634640582e-01
2.616876317326515822e-01
2.989759278747987636e-01
2.932386673107241770e-01
2.406198982425606925e-01
1.508709071705109928e-01
5.141268617566663313e-02
-2.236953573824039532e-02
-4.919260376252390654e-02
-2.886336856088252828e-02
2.763531399075908057e-02
1.005474029326781232e-01
1.594177624069666732e-01
1.740693118792532579e-01
1.371262003705479293e-01
7.711401622745459039e-02
3.248994733636070831e-02
3.190995096051970487e-03
-5.005894385144985664e-02
-1.458407350220944365e-01
-2.384207895398793298e-01
-2.468319292884752769e-01
-1.317238097661451168e-01
5.315736403913600555e-02
1.950715364234855698e-01
2.186618628379195794e-01
1.448560435570162563e-01
5.737500405404918902e-02
2.687375176898443296e-02
6.251721604366186624e-02
1.180393078916942562e-01
1.461616507943238608e-01
1.498527630865948701e-01
1.635818840923451145e-01
1.834043806626873274e-01
1.493820131329851586e-01
2.758282499192656056e-02
-1.007614067354636461e-01
-8.851039415987328740e-02
6.802205357462853819e-02
9.305313348886511127e-02
-3.024416556591476013e-01
-9.128756323077819035e-01
-1.086851389702222503e+00
-5.446003037265368940e-01
1.783825451776878401e-01
4.114617681145627537e-01
1.319109839747064639e-01
-1.998521475769275413e-01
-2.719579050791418595e-01
-1.394596273419370924e-01
9.055603011627860743e-03
9.037946108523828292e-02
1.407734090490631029e-01
2.009670012445259335e-01
2.462831752480960368e-01
2.144728461747210657e-01
7.681879467655070015e-02
-1.046466752837508923e-01
-1.975172151763052997e-01
-1.252150943896810087e-01
4.830864213488163250e-02
2.091425904627235433e-01
3.073699140856634981e-01
3.374752220298793959e-01
2.953123998800796790e-01
2.033017746747468879e-01
1.156224455845329263e-01
6.941325954354030103e-02
6.027473195765853387e-02
6.733503970748189182e-02
7.871650897472706743e-02
9.487969742161878051e-02
1.210771255918775963e-01
1.434965439033932810e-01
1.109131387187874684e-01
-1.961934039317831877e-02
-2.070355143796804853e-01
-3.374354053689210264e-01
-3.251344867708659825e-01
-1.806271667079739907e-01
1.465616449342006106e-02
1.746141238365495618e-01
2.526779222255359780e-01
2.478806800914726827e-01
1.897016411798460311e-01
1.164240769798092906e-01
5.432260263972385483e-02
1.090558885672449421e-02
-1.423959941273377980e-02
-1.682378134816153725e-02
8.987863743003967829e-03
5.264309429144319041e-02
8.316677708831851645e-02
8.598754587743503985e-02
1.074988235897345462e-01
2.050656009033780813e-01
2.806187702976207787e-01
5.081702126016178489e-02
-5.844635808124348797e-01
-1.170202504544223920e+00
-1.083841054612945110e+00
-3.680024029419947107e-01
2.696408519048741348e-01
3.488609924893905090e-01
6.278504070547605287e-02
-1.712435130599590238e-01
-2.001657477233888260e-01
-1.270408852079513429e-01
-7.183094850765087136e-02
-5.105845021667602263e-02
-2.222295182483090270e-02
4.001107426250798821e-02
1.267289912670163388e-01
2.137784982382893717e-01
2.733882589553554565e-01
2.836802851157356198e-01
2.426221793936355897e-01
1.687189509990270064e-01
9.074853650745934308e-02
4.170136038800059675e-02
4.563742139409615595e-02
9.347004525668327346e-02
1.450696579885735471e-01
1.705166277303525324e-01
1.715420042996662620e-01
1.519837081050174621e-01
1.013906767458412211e-01
2.664799680227891016e-02
-3.418510738029059692e-02
-4.778781680397078263e-02
-1.629328813968311529e-02
2.333976953378611580e-02
1.849812908150930829e-02
-5.447253423457475152e-02
-1.528445920865301455e-01
-2.034871533935894150e-01
-1.777839800760265820e-01
-1.025050201807630734e-01
-1.196220227789315284e-02
6.902101843799095249e-02
1.121763447294824023e-01
1.066282671580641994e-01
8.428379962949690551e-02
8.682090848208751099e-02
1.173453994985819010e-01
1.434790719280266136e-01
1.326226240948142898e-01
7.716404519769722026e-02
-1.329433605465814294e-03
-7.085778992658160746e-02
-1.103094813287293224e-01
-9.657949167853742412e-02
8.771799120786072379e-03
1.804942890022834534e-01
2.150431057166266868e-01
-1.427586655799753246e-01
-7.860361187681915718e-01
-1.138331737446402592e+00
-7.884315882233212669e-01
-8.453693697097060256e-02
2.772264043393963262e-01
9.432452652701457663e-02
-2.573584988551132491e-01
-3.975372172111846236e-01
-2.848014891009361671e-01
-9.026283914000568509e-02
3.595948469395535141e-02
6.071670640495566151e-02
3.321882021527208795e-02
9.355778945333622504e-03
1.125566920725494524e-02
3.464402588482238393e-02
6.995309223610284011e-02
1.122922699824837889e-01
1.552658041725562543e-01
1.811101677387958186e-01
1.716985373741087284e-01
1.290462900499141641e-01
7.088053017761473951e-02
1.690997071281734321e-02
-1.251127156598068856e-02
-5.397023632949650082e-03
3.014186462805956007e-02
7.434470287603683891e-02
1.093460275119995662e-01
1.222709225651635173e-01
1.096671631410315595e-01
8.291221968281067833e-02
5.274379128762789193e-02
3.571005324064727669e-03
-9.107754055625186251e-02
-2.109598527823247638e-01
-2.714647867648375956e-01
-1.948894277437767941e-01
4.677184661399966942e-03
2.285868588006280400e-01
3.767350934968263232e-01
4.036143683634137447e-01
3.191297491805356046e-01
1.787506804764759094e-01
6.367560425768582777e-02
3.110162736002164072e-02
7.293959433041026508e-02
1.334807377027267539e-01
1.678072685739248060e-01
1.712932157414085166e-01
1.506694031870602080e-01
9.792026171861868689e-02
2.926820318573997853e-02
1.979050287448691145e-02
1.076193957605509899e-01
1.358800799574901574e-01
-1.638738024872768428e-01
-7.512874362535313377e-01
-1.085180186313604578e+00
-7.079795763944655151e-01
7.394640320193547611e-02
5.171504331698848489e-01
3.451037622036869368e-01
-7.077220177741122553e-02
-3.023706451820858954e-01
-2.795477545382214490e-01
-1.634879769564281105e-01
-7.162053390923278640e-02
-2.252221907398855270e-03
7.994627671903245525e-02
1.716916627697392672e-01
2.323742188853767654e-01
2.256195829864304780e-01
1.564899942679612022e-01
7.143489905924610417e-02
2.124215366514046674e-02
2.190573757044105355e-02
4.951264718879187787e-02
7.598462468064021147e-02
1.044083238216828302e-01
1.525286308865063112e-01
2.059756878353396492e-01
2.173740161292585515e-01
1.614203540728506026e-01
6.808580746641518244e-02
-9.131425597798618204e-03
-3.941981975996561999e-02
-2.313534743024094759e-02
2.616931604073586062e-02
8.867920659889694246e-02
1.241611961443416096e-01
8.052161738015091441e-02
-4.266044438560824548e-02
-1.492986292340450216e-01
-1.192968526854826655e-01
4.658280268916163008e-02
1.975100973763027901e-01
