3.196150627783112874e+00
2.743724035409477402e+00
1.856672277230093426e+00
1.337787315759266127e+00
1.542768193057261428e+00
2.027731530937517679e+00
2.210513370183519566e+00
1.973166670769333164e+00
1.566846436434422785e+00
1.231654083927082199e+00
1.023414802315572469e+00
8.783354195480985727e-01
7.436260172031092797e-01
6.455514578345931120e-01
6.459201808840029368e-01
7.431299912621998072e-01
8.398343145464935988e-01
8.237514634811466951e-01
6.732656419197061703e-01
4.714158865980780933e-01
3.165722799521288877e-01
2.331975400640365903e-01
1.803107061640147890e-01
1.303068733147422775e-01
1.108224416604041695e-01
1.640066260586047209e-01
2.744779730054621170e-01
3.513980698985119111e-01
3.063404382699326800e-01
1.571315824516972270e-01
2.029180898824511914e-02
-3.133366013887703416e-02
-6.269636651229038016e-02
-1.630306089787433299e-01
-2.766645264772011337e-01
-2.491820756834355333e-01
-4.183935360751922516e-02
1.862513496699742532e-01
2.354757074090605973e-01
6.256844807692107935e-02
-2.013268272591949293e-01
-4.048679971557521129e-01
-5.111103643948267106e-01
-5.716760893605727922e-01
-6.107968600324544806e-01
-5.832259496378817687e-01
-4.449315940362487676e-01
-2.346962537640469859e-01
-7.391952644251054139e-02
-7.534827607210980993e-02
-2.348628270877668456e-01
-4.358309999395296175e-01
-5.764999440159145339e-01
-6.414257158662233227e-01
-6.350050189913132304e-01
-5.375839249722390578e-01
-3.876228359173359284e-01
-3.171187799845955335e-01
-3.585168909355517797e-01
-2.561899363913537897e-01
2.532680837301338195e-01
8.796046094307194974e-01
8.938309525834919889e-01
8.673964945852177810e-02
-8.035576539446158684e-01
-9.816034763711010136e-01
-5.158836959450715520e-01
-5.578950784036281613e-02
-2.753748916225345900e-05
-2.441272430666366067e-01
-5.204046335295972048e-01
-7.096527696459834500e-01
-8.382482517134092204e-01
-9.343695598467146590e-01
-9.735620495728311008e-01
-9.301089829175914758e-01
-8.210633809954644979e-01
-6.909375442252132515e-01
-5.850027334750361740e-01
-5.472111704820032951e-01
-6.026045085447243599e-01
-7.184251063466055021e-01
-8.219695072083884613e-01
-8.734900087096978405e-01
-8.822396529687759337e-01
-8.508700494218633947e-01
-7.564128992674207241e-01
-6.011503920396416012e-01
-4.501871121524413377e-01
-3.909617297550523340e-01
-4.525081749138923914e-01
-5.829742876048645828e-01
-7.122001776810382712e-01
-8.076807582372783623e-01
-8.551740282458261122e-01
-8.211731010210270298e-01
-6.745222992561131781e-01
-4.426895880993737542e-01
-2.239429433680714121e-01
-1.268548911652040978e-01
-1.897595881054189026e-01
-3.634753668691491635e-01
-5.673882077662649737e-01
-7.410543935752157418e-01
-8.434374673851651183e-01
-8.385327081961893025e-01
-7.167878029767442705e-01
-5.291472911571419857e-01
-3.671505882227102391e-01
-2.948591482405790165e-01
-3.147572310871741275e-01
-3.942984311849030976e-01
-4.972182594900690367e-01
-5.880826994398475893e-01
-6.332873634822183684e-01
-6.167251250132164131e-01
-5.622369376100231353e-01
-5.221003404465929254e-01
-4.749165055527468926e-01
-2.285545076616930793e-01
3.848882452853358282e-01
1.082577780425052039e+00
1.197623038763815817e+00
5.018257855604570938e-01
-3.471512138631903666e-01
-5.801868442030970741e-01
-2.120365176884946579e-01
1.957523656033912651e-01
3.109392566536169911e-01
2.249540347387824213e-01
1.180887185590840938e-01
3.033325877749945554e-02
-8.323202183828229406e-02
-2.292474780977436510e-01
-3.557638311439337286e-01
-4.105494755774748428e-01
-3.706810190184130493e-01
-2.321499234647427801e-01
-2.517352749882750818e-02
1.665135568140229949e-01
2.494074718727547491e-01
1.924071841268144289e-01
4.821670454963887520e-02
-8.822006960918575558e-02
-1.482617391277462893e-01
-1.352363395021402015e-01
-9.994179295787161688e-02
-6.682861748361854093e-02
-8.397700029175517167e-03
9.334713951409660815e-02
1.894217938965024328e-01
1.969948607862944123e-01
8.601442010561415052e-02
-8.077457318690099697e-02
-1.942902931478191486e-01
-1.809095056837114746e-01
-4.884752075958023049e-02
1.281837650192096389e-01
2.680756553880406790e-01
3.262275742937389422e-01
2.966154409331769881e-01
1.949724207084190530e-01
6.060213600465588768e-02
-5.136931908631531957e-02
-1.155923361723452392e-01
-1.576426458496420491e-01
-1.986515819287114071e-01
-2.022468990893357965e-01
-1.166797611546976365e-01
4.114913580509425156e-02
1.776571423120275606e-01
2.032877552607681437e-01
1.172163134050578370e-01
1.336875660148620359e-02
-1.783912496941455345e-02
-9.055600266234278134e-03
-9.382373076366543052e-02
-2.877973975981417132e-01
-2.955396510118619702e-01
2.806164637337948964e-01
1.336742675890716825e+00
2.042590339966948054e+00
1.655785657778804820e+00
5.125997029744316924e-01
-3.113289100693991673e-01
-2.982514292018063617e-01
9.756689459201008108e-02
2.781187475732815884e-01
1.903712188611310641e-01
1.208225083038671210e-01
1.990379388530054139e-01
2.938106990059892176e-01
2.526985031139546978e-01
8.281400687304193986e-02
-9.532341640174427089e-02
-1.942225247810479005e-01
-2.295742801923756071e-01
-2.523080159827648106e-01
-2.473488656631881999e-01
-1.572341299111388591e-01
-3.145446304449392438e-04
1.118859066675012004e-01
9.487363629127669451e-02
-2.698071746660192158e-02
-1.678142250945831859e-01
-2.637511707083965984e-01
-3.017307680488659494e-01
-2.969379415527554356e-01
-2.568497008772204770e-01
-1.709639912113167515e-01
-4.099337481897735724e-02
9.188416890943737481e-02
1.676234389076972087e-01
1.561968067445065333e-01
8.921309322894348248e-02
4.296371993309145570e-02
7.086138113746877354e-02
1.519290615134213651e-01
2.299131139479801689e-01
2.889169639749497587e-01
3.451941078458303780e-01
3.782518605213266438e-01
3.359156112365505042e-01
2.132451993162488013e-01
7.224737874078573929e-02
-2.581699327473434974e-02
-7.544076929542489762e-02
-1.075018888997689576e-01
-1.264946468046078965e-01
-8.476619229724344229e-02
5.327614164047394379e-02
2.250256009976202010e-01
2.999253992133066316e-01
2.286766505445561315e-01
1.184987391431723963e-01
9.045171343170259337e-02
8.345749120391504627e-02
-5.191705295570547829e-02
-1.855903967886827766e-01
1.303317162928055162e-01
1.021323244232905214e+00
1.799070920910081917e+00
1.627597756023044573e+00
6.352461612814260805e-01
-2.015385349432537998e-01
-2.820924834382961266e-01
6.038191447957702573e-02
2.255344344574303772e-01
6.838437211841782992e-02
-1.436047334915017959e-01
-1.734407073739810679e-01
-4.341401341001699388e-02
7.783984172637037346e-02
7.952387691354617649e-02
-2.597385999128538209e-02
-1.702798469618044264e-01
-2.974556941002450827e-01
-3.818300090879103714e-01
-4.177888537076557829e-01
-3.950919543420503000e-01
-2.922157663092194158e-01
-1.188767969223084864e-01
4.650586851878011491e-02
1.010895784095012517e-01
1.139560421768624071e-02
-1.553801520538281855e-01
-3.009422351468732937e-01
-3.782578898866219563e-01
-3.986330851112546703e-01
-3.799151399548800212e-01
-3.081079004748277228e-01
-1.617054378132637971e-01
2.513674118203719499e-02
1.546184000541568904e-01
1.515472801738335928e-01
4.735585563681896787e-02
-4.707051588071046316e-02
-5.823567034797434011e-02
-2.191653901353832895e-02
-1.520402696269626194e-02
-3.826102554748760098e-02
-2.125238650359072973e-02
5.581380097356142267e-02
1.198404719513849331e-01
9.422327128044780120e-02
-2.044153901320665961e-02
-1.637159610127778553e-01
-2.749709692589364929e-01
-3.263843165669618185e-01
-3.170486175238369508e-01
-2.575799797349652698e-01
-1.766810112042766223e-01
-1.196054802990001026e-01
-9.993550113633201115e-02
-7.713987847428740996e-02
-3.366972721887551145e-02
-4.632294720217217804e-02
-2.106868259824848377e-01
-4.623641642218303538e-01
-4.853515041951755871e-01
6.778736524284932619e-02
1.063952127926876878e+00
1.727230304547681561e+00
1.408988565112524016e+00
4.652338803811031376e-01
-1.409468211375117797e-01
-3.871777936548847360e-02
2.833375877363368267e-01
3.000516551891997952e-01
1.863916719186188217e-02
-2.466997600920503020e-01
-2.912481996004434581e-01
-1.423250558587114967e-01
5.289670795637210765e-02
1.628055105936541125e-01
1.331047908754263431e-01
-9.919466092943342306e-03
-1.876351245938787105e-01
-3.242788175319562538e-01
-3.906995529712090076e-01
-3.889386028446448207e-01
-3.132976582199724080e-01
-1.629559636268710365e-01
9.789671598037459621e-03
1.097495025911053440e-01
8.466790235528338926e-02
-2.337515553468855201e-02
-1.333373476681082304e-01
-2.098214372693423535e-01
-2.719450107443999731e-01
-3.255251090492012889e-01
-3.161189736376105452e-01
-1.899701339396011601e-01
6.621707706515329861e-03
1.465677242493335919e-01
1.538665814912001661e-01
7.891752995084101718e-02
2.557526759468023783e-02
2.383451167669864423e-02
9.475214732352670727e-03
-6.807819623541933041e-02
-1.647548777710940993e-01
-1.912264947937923065e-01
-1.142826827866703920e-01
5.827416515950407591e-03
6.800455692417073372e-02
1.974567947807667062e-02
-1.020792854997962240e-01
-2.224766567252602911e-01
-3.042571764120285960e-01
-3.457476242721183590e-01
-3.306054715026326973e-01
-2.408092149004966431e-01
-1.025019070178797148e-01
3.894700477034029884e-02
1.600220847427997750e-01
2.123638710834238053e-01
8.476729421621685689e-02
-2.501801706338094289e-01
-5.149389588992033806e-01
-2.463537546123211464e-01
6.138100183240053909e-01
1.363805528341674567e+00
1.227547300963295340e+00
3.939448476465158278e-01
-1.860936085036840881e-01
-5.020877081463898106e-02
3.408647484029693198e-01
4.146125757571180737e-01
1.463285778711576612e-01
-1.533685699596024909e-01
-2.810522733738939349e-01
-2.372944214889627368e-01
-1.079447070589022312e-01
1.365998937918182221e-02
5.929739767071239703e-02
1.770636171626718131e-02
-7.342543148926915231e-02
-1.734578727434106793e-01
-2.632013099433219705e-01
-3.341733420424364276e-01
-3.686581884940903220e-01
-3.329381589492096394e-01
-2.067027960603127490e-01
-3.203587913442439150e-02
9.396588129809765877e-02
1.083927914822055555e-01
4.547462046459727070e-02
-2.611944908206930219e-02
-1.047347940963362783e-01
-2.376836737342915840e-01
-4.024223755850279693e-01
-4.715693633599249979e-01
-3.448010051990229030e-01
-8.042678393874873322e-02
1.606912156398130342e-01
2.796133842452271367e-01
2.942997617788858378e-01
2.555175396425405365e-01
1.787184316735441758e-01
6.331925448293784786e-02
-7.257330567602492122e-02
-1.888277187223610931e-01
-2.330006339163051277e-01
-1.669645603859800098e-01
-1.522328014253586208e-02
1.227137185571209460e-01
1.442161658966509552e-01
3.760857981606233191e-02
-1.139976913493150473e-01
-2.254409368879158049e-01
-2.791230280454629065e-01
-2.940729622045449299e-01
-2.622637259734736381e-01
-1.491917579146920803e-01
4.136222631090269442e-02
2.134440375635726639e-01
2.114491651544296857e-01
-3.387408599779465068e-02
-3.222166062287748489e-01
-2.129018019373788428e-01
5.102978556376956965e-01
1.347316795391354294e+00
1.459106118707341748e+00
7.355248841136627913e-01
4.940982680738309485e-03
-5.027160811785763572e-02
3.459625543220865018e-01
5.873811116639160446e-01
4.517398253171540645e-01
1.303554870262020049e-01
-1.439519489051022672e-01
-2.801338532496818745e-01
-2.894031710727358320e-01
-2.165826442782392003e-01
-1.127173478480183177e-01
-2.723774743813610691e-02
5.842491547405168073e-03
-2.053613448184256340e-02
-9.811310734093443842e-02
-2.161231515303672357e-01
-3.439997566389977335e-01
-4.155653778419098332e-01
-3.679047601971907056e-01
-2.114946710535171304e-01
-3.571496874414374634e-02
7.965529521811688662e-02
1.273692483102086548e-01
1.206693506180538528e-01
3.864898424330775323e-02
-1.186146570043033477e-01
-2.756962383685205853e-01
-3.512964302633098668e-01
-3.401323027445403158e-01
-2.737533752910747409e-01
-1.526083678948789712e-01
2.864753802920048248e-02
2.240217065991097767e-01
3.479619755118825153e-01
3.390028036792641641e-01
2.034072672840570584e-01
6.055285334865080638e-03
-1.744118012503761139e-01
-2.827315517916997312e-01
-2.912995107833828423e-01
-1.976040877304161281e-01
-4.079572990284818096e-02
9.539240031094589622e-02
1.300957464100704619e-01
4.939251395965935099e-02
-8.069917347306612698e-02
-1.748309830941206511e-01
-2.075025043170630745e-01
-2.178951875131055205e-01
-2.282839922211916672e-01
-1.893408428308372138e-01
-4.806798161625006061e-02
1.268148215592137251e-01
1.530060390813177407e-01
-2.837833414451393366e-02
-1.345466022108866289e-01
2.282687178618244828e-01
9.597439536878646926e-01
1.338914722002177982e+00
8.645670923116139939e-01
1.223748075441935534e-02
-3.246282325464436291e-01
4.429647002597508071e-02
5.308815092885845743e-01
6.179954924717533382e-01
3.328415093703321892e-01
-1.658262232919820167e-02
-2.279285029202507695e-01
-2.987460470877647545e-01
-3.053007369590681752e-01
-2.779188735991223180e-01
-1.951894444992846589e-01
-6.667310527235062456e-02
2.933043314682926353e-02
1.597226344555835453e-02
-9.580933855356207896e-02
-2.206053642090477496e-01
-2.908090273890802657e-01
-3.046499693329713376e-01
-2.845214127379946945e-01
-2.260108845397189592e-01
-1.106763585864326827e-01
3.875465723242739469e-02
1.432019819538514482e-01
1.356225557441493035e-01
3.650334005261855752e-02
-7.019631995020951531e-02
-1.311915106216085813e-01
-1.604641681545205534e-01
-1.856019662600364439e-01
-1.963057708471343810e-01
-1.494326739420814287e-01
-1.553481905291932350e-03
2.373496378817000485e-01
4.517955440532431255e-01
4.815578567199922944e-01
2.903405697684484088e-01
1.421426641991099804e-02
-1.969230597953556261e-01
-3.057565233403025107e-01
-3.327771903860148317e-01
-2.767999481801375339e-01
-1.403011337958965654e-01
1.737848358029021184e-02
1.012336651138426857e-01
6.099774751490220914e-02
-6.587174993402258871e-02
-2.007502224735353835e-01
-2.981254147275895772e-01
-3.552799005783692787e-01
-3.595258568284829814e-01
-2.690721585137553218e-01
-8.560322779974272045e-02
7.115919273003563916e-02
5.016948223964518006e-02
-8.771136990443278991e-02
1.154364610309950925e-02
5.952327953460931909e-01
1.276919157823758866e+00
1.287765272575102315e+00
4.784581502562275657e-01
-3.532257659813753392e-01
-4.399940173249622388e-01
7.006149403709412138e-02
4.905141599449396317e-01
4.658337973463811399e-01
1.740339815772287690e-01
-8.438426773920311430e-02
-2.112458981853320705e-01
-2.713497548032512419e-01
-3.198153809856260077e-01
-3.353826972691283936e-01
-2.671118331297127058e-01
-1.096433519215712360e-01
5.869197057915924443e-02
1.267851299733668557e-01
5.846223791708541478e-02
-7.631215828783183275e-02
-1.902173271165583657e-01
-2.579120442201054408e-01
-2.945585597194024796e-01
-2.985406654306947960e-01
-2.402164459663757856e-01
-1.057957902073501516e-01
5.257734893384787694e-02
1.382810566460183077e-01
9.924574049155929223e-02
-2.769108407146516834e-02
-1.658488994988023546e-01
-2.654368860699496957e-01
-3.218578458059861425e-01
-3.463886092687301077e-01
-3.229802900471694382e-01
-2.084513314598933909e-01
1.346062045574289434e-03
2.209500798924285414e-01
3.291111336663896658e-01
2.732299046689299349e-01
1.010523072078807205e-01
-9.674477750848395341e-02
-2.517009779614701737e-01
-3.321739679737892303e-01
-3.262625493716194702e-01
-2.429222554274320101e-01
-1.223927393326072199e-01
-1.873998183987674732e-02
2.467806522187356369e-02
-1.224154391160178768e-02
-1.100141666163793885e-01
-2.167683862414937490e-01
-2.945266262239892852e-01
-3.375561860925804236e-01
-3.345932340432434260e-01
-2.473422920028325867e-01
-6.182144222004549300e-02
1.324340469362941808e-01
1.637039668493453226e-01
-2.499915690896771514e-02
-1.777612825193715385e-01
1.142086224943421879e-01
8.562023404997443077e-01
1.389672653609704822e+00
1.087838969440386272e+00
2.532610938600800554e-01
-1.996186147274510159e-01
7.703713066311834723e-02
5.548004344480845784e-01
6.553838725123234399e-01
3.780744674668130578e-01
7.270786983172035367e-02
-5.487510215216537257e-02
-7.579967252013845858e-02
-1.180605482595902256e-01
-1.729600696041248831e-01
-1.476491745115181553e-01
-1.730625283182868346e-02
1.417443991453662955e-01
2.338094124134550977e-01
2.099072475091884882e-01
7.614193843610524148e-02
-1.109745909856117846e-01
-2.667709714242885721e-01
-3.351530089409120450e-01
-3.084629761142908544e-01
-1.921844568989957702e-01
-1.012232334370125400e-02
1.566066560408555519e-01
2.076959414071400667e-01
1.181074499816265888e-01
-4.020091140531512758e-02
-1.728567801793505776e-01
-2.399704045467892510e-01
-2.594759796316947753e-01
-2.465177279129966426e-01
-1.705594200155020057e-01
-1.266365546117566299e-03
2.013689924473190951e-01
2.954087174383212555e-01
2.060629557562361769e-01
3.026908585671634830e-02
-6.375688394498736644e-02
-1.669505795141125459e-02
7.435734920160849692e-02
7.969446633169388616e-02
-5.389632727438391745e-03
-6.500641841635800000e-02
-2.770400422285059991e-02
5.002272675643811006e-02
7.686997531916660298e-02
1.955740310964496770e-02
-1.136815818814174012e-01
-3.042537132839724934e-01
-4.932928022603437213e-01
-5.715988125310570434e-01
-4.667259975737980682e-01
-2.300240648526492848e-01
1.037017083606612405e-03
1.163714622311798341e-01
1.001452636257482709e-01
1.109093567799421948e-02
-9.405562529281839834e-02
-2.251605255444625031e-01
-4.060400525998815735e-01
-4.933694482064098774e-01
-1.472582572977971238e-01
7.490907932721556639e-01
1.642153852600789943e+00
1.717932084691192074e+00
9.148627366280752682e-01
5.997755000022828020e-02
-1.693178970500612557e-01
6.605140337711909448e-02
2.348320981852795586e-01
1.285956833092329332e-01
-7.385842939811353147e-02
-1.494040188777951417e-01
-6.337977792233609464e-02
6.149295512395418911e-02
9.929190530127499081e-02
2.227633681297152418e-02
-1.105998212737732966e-01
-2.242052515820752434e-01
-2.838573015026481516e-01
-3.013210256489883831e-01
-2.922223736500219604e-01
-2.392026556268834203e-01
-1.227342235905372891e-01
1.949115178909372609e-02
1.077089019513540608e-01
1.008737367848315802e-01
2.549382929435559109e-02
-7.497892192297574143e-02
-1.751139228347983745e-01
-2.505646266163999436e-01
-2.700062546647764572e-01
-2.145052510738761908e-01
-9.198737438306134329e-02
5.652202344972447057e-02
1.645954148139520401e-01
1.792301283303698867e-01
9.515228030271888349e-02
-5.270819711910028349e-02
-2.078098382089899054e-01
-3.032196590731984776e-01
-2.889565941911556579e-01
-1.607946585533963635e-01
3.966276100885270106e-02
2.388140903737634990e-01
3.463468710008515972e-01
2.971550408046242930e-01
1.104993804602923957e-01
-1.084740110570749094e-01
-2.509529642061431587e-01
-2.880025858948621620e-01
-2.706570458964033810e-01
-2.527126049697411836e-01
-2.273008940195983818e-01
-1.549612405371518509e-01
-3.708784244912591982e-02
6.269408590337466336e-02
5.738033211685852203e-02
-9.829456003197323266e-02
-3.373409757833832345e-01
-4.922279599668166750e-01
-4.457674840393627269e-01
-2.578024745770772230e-01
-9.817147512929895459e-02
-7.569934496921432165e-02
-1.078952325928282940e-01
8.378097795529773628e-02
6.941585567748104202e-01
1.408979250078427725e+00
1.530500671795937739e+00
8.165958010934948330e-01
-9.755560701033813564e-02
-4.365150599589053826e-01
-1.365385028350134811e-01
3.026829438200507316e-01
4.916191763314070040e-01
4.150671668589671071e-01
2.338123461058000119e-01
6.346914392122475490e-02
-7.016379860456986584e-02
-1.775316777861831730e-01
-2.615524097636948153e-01
-3.106022582831102774e-01
-3.052495972720542516e-01
-2.310758675409123331e-01
-1.045457107978172845e-01
1.764483159215410324e-02
7.483712957407361033e-02
4.580890350224520874e-02
-4.590630177340024320e-02
-1.529293493895655387e-01
-2.304170381674590928e-01
-2.573535337751152730e-01
-2.328136171028981349e-01
-1.589294920943445100e-01
-4.927503641449101912e-02
5.017334365604290275e-02
7.531824913495969998e-02
-5.734023680611688087e-03
-1.533405337874141350e-01
-2.739083642382003081e-01
-2.973309855896961729e-01
-2.446697284261443728e-01
-1.948069812590324523e-01
-1.751053238664913303e-01
-1.311351803740705424e-01
-2.905804695286157147e-02
7.498196604227488904e-02
1.119481758776723485e-01
8.928626210910750594e-02
5.691312680896390419e-02
2.884724982136124133e-02
-1.686354081960093204e-02
-8.043031318611353064e-02
-1.179874326456915729e-01
-8.785453192639118558e-02
-6.169181788186865745e-03
6.198478126224617191e-02
6.253288724127870069e-02
-6.960613630490613754e-03
-1.052929624788967455e-01
-1.872417653847235075e-01
-2.364126945451092976e-01
-2.512332823298029094e-01
-2.103538390375075673e-01
-9.812323935756969706e-02
2.398060375304252728e-02
4.059574930283654792e-02
-6.805345990740799267e-02
-1.783002527386182146e-01
-2.145057239288795381e-01
-2.736333144315062915e-01
-3.902337357310453059e-01
-2.854851480341499270e-01
3.424167701937838593e-01
1.217124672340357483e+00
1.553999304462488684e+00
1.012380120188912880e+00
2.128937810357315885e-01
-6.583519250639205400e-02
1.701292147750921024e-01
3.700593191317256836e-01
2.575770208679596940e-01
1.896572311803749328e-02
-1.077295066356341868e-01
-9.446017867590533745e-02
-2.147314526508619856e-02
6.144728549863599787e-02
1.239709328985783704e-01
1.161666891902342486e-01
5.713328187762761225e-03
-1.664203240316681487e-01
-3.005748559762941863e-01
-3.275480748341195736e-01
-2.668503110602424844e-01
-1.740454445476858625e-01
-7.237739016299772621e-02
2.810912535858183306e-02
9.329562390119126858e-02
8.719644698682467443e-02
9.378218654923546616e-03
-1.038945499578819986e-01
-2.047419077320671854e-01
-2.544677011470747874e-01
-2.272213775403805203e-01
-1.219926799539781115e-01
6.391388586142344314e-03
6.640963976242451883e-02
3.122959820388680405e-02
-1.908247631492043447e-02
-1.855171374533678627e-02
-1.511536333365732371e-02
-7.449552306582341021e-02
-1.585995354755599107e-01
-1.734334837772216198e-01
-8.127947834448322195e-02
8.219410225187956387e-02
2.511570948319845065e-01
3.491578856165469258e-01
3.157147292215974343e-01
1.635300137582515190e-01
-2.071518335811812009e-02
-1.624490981146716750e-01
-2.579499559171424261e-01
-3.302796334283764068e-01
-3.577103469672462399e-01
-2.829803832331508340e-01
-1.050716176623564951e-01
6.888060974279762438e-02
1.133876347514009286e-01
2.119119891253937876e-02
-9.878554682719997704e-02
-1.528485788303827198e-01
-1.426541590014953620e-01
-1.270389540069610246e-01
-1.587263431495540278e-01
-2.451293488982574376e-01
-2.870808606362501014e-01
-4.550766199091153125e-02
6.391824399422697534e-01
1.430322751663136716e+00
1.577298687345944472e+00
7.931303228285562223e-01
-2.218994648030085115e-01
-5.777976768383995543e-01
-2.230562388115699402e-01
2.309511808907341590e-01
3.795025571289010191e-01
3.086810418795715161e-01
2.301308237570267590e-01
1.902672378031157185e-01
1.223620515536978787e-01
-2.708259819994176913e-03
-1.400233138517379128e-01
-2.370333524156409966e-01
-2.834117425497429399e-01
-2.828627961787310574e-01
-2.190558604207890059e-01
-9.349045038531647589e-02
2.895064163261444612e-02
6.707394182546683181e-02
1.008605806058261722e-02
-8.673550107901048523e-02
-1.798505368090461132e-01
-2.627087912758554467e-01
-3.274152141850628639e-01
-3.437494138814708444e-01
-2.758437792905729102e-01
-1.220145571865159650e-01
4.774377437993981843e-02
1.258970979253366262e-01
6.821474135129881877e-02
-6.715957842019773527e-02
-1.922652638922835444e-01
-2.663870475846130681e-01
-2.951270673522934374e-01
-2.833764940692034551e-01
-2.068947398387749048e-01
-4.123286156051384627e-02
1.754092014752000328e-01
3.334761404361705206e-01
3.343388673770685826e-01
1.790596396550340197e-01
-3.421877833830960086e-02
-1.988982085218749529e-01
-2.772974152757169408e-01
-2.891161049207136569e-01
-2.485700486636527595e-01
-1.474960329314883578e-01
-7.291777413660684853e-04
1.271220797500505484e-01
1.666703644365996329e-01
1.079675666245800553e-01
-1.148946834955144602e-04
-1.088440549908194915e-01
-1.974148912358388019e-01
-2.394047987589487947e-01
-1.942866179669721638e-01
-7.985802075257575350e-02
-8.793716307576941379e-03
-3.230260734230640945e-02
6.787632136794607973e-02
5.959647093918196692e-01
1.364283605515193676e+00
1.616637542995368992e+00
9.400614935196007771e-01
-5.011878065626038103e-02
-4.305946396525826558e-01
-7.467140388139352492e-02
4.147830800397827034e-01
5.618765852265713567e-01
3.914569198892388635e-01
1.475754065828360495e-01
-2.463188176211866809e-02
-1.272061229708222885e-01
-2.059858728695979635e-01
-2.684306913564000197e-01
-2.829448257450326576e-01
-2.242430944290381700e-01
-1.083840650389372023e-01
9.718618318755232327e-03
7.250661352739523613e-02
5.548296754459309393e-02
-3.097092649408319381e-02
-1.574317759161277530e-01
-2.803275060725937684e-01
-3.519910635817812272e-01
-3.468947977380442693e-01
-2.687902191347687486e-01
-1.343149066479347176e-01
2.144646385407193365e-02
1.305450556028087405e-01
1.320101461573168766e-01
3.605091616588325387e-02
-9.027876717136285034e-02
-2.120709225844393531e-01
-3.541430533272172942e-01
-5.049743622853597458e-01
-5.520024068728484057e-01
-3.953120778666051049e-01
-8.921008479616228393e-02
2.007059449068396839e-01
3.417824895748273750e-01
3.014394548456126866e-01
1.351882173983491586e-01
-5.636916836385325036e-02
-1.964355838234150831e-01
-2.734123995187154321e-01
-3.017287412773945188e-01
-2.700876360205658466e-01
-1.659421182713318732e-01
-2.813260794231022682e-02
6.853069013775463236e-02
7.864167952870146361e-02
1.302895313645210593e-02
-9.752326253158738467e-02
-2.374847878650779842e-01
-3.750815216450245071e-01
-4.193357633318124389e-01
-2.877483805679034168e-01
-3.636794506940704830e-02
1.370317074299539362e-01
7.258265139729688786e-02
-1.228919611753707813e-01
-5.618501512908587181e-02
5.404715455701507576e-01
1.288855564354626448e+00
1.392040259571965866e+00
6.394467777315808732e-01
-2.017900419858217609e-01
-3.320535514544957212e-01
1.480033768712742392e-01
5.625846590260989988e-01
5.310986474061947238e-01
2.058078515455509794e-01
-1.077071685138529522e-01
-2.777415171776310698e-01
-3.428654754419100392e-01
-3.641085242681347256e-01
-3.471233592431878789e-01
-2.712940787823625577e-01
-1.515903770135559048e-01
-4.886203917571146221e-02
-1.942075530432901126e-02
-7.408596273808215615e-02
-1.848118582701354096e-01
-3.077885736128046501e-01
-4.009856917283950439e-01
-4.383515601877321921e-01
-4.135277707949531756e-01
-3.315814916649177935e-01
-2.073149921189975098e-01
-7.888065694918669490e-02
-7.156993039977166057e-03
-3.466041479218502641e-02
-1.406820162727924761e-01
-2.525335458914889086e-01
-3.118177745036598836e-01
-3.222558207749080528e-01
-3.156838730011066185e-01
-2.834784337139346633e-01
-1.812170201649552226e-01
-5.562243179420355878e-03
1.700254164754298192e-01
2.501165600666933053e-01
1.938017993420593221e-01
3.980040129255300874e-02
-1.317215171609352198e-01
-2.596289052320215340e-01
-3.192970407062989957e-01
-2.938886534212962753e-01
-1.749399366084370411e-01
-7.437487018233140262e-03
1.096105141256757676e-01
1.033525529363460704e-01
-4.152366512949371563e-03
-1.256523082466941832e-01
-1.983902541553020649e-01
-2.264991197034524617e-01
-2.348669005009811350e-01
-2.049419460994772457e-01
-8.746742492160128335e-02
1.060459503100572298e-01
2.401259613705479801e-01
1.514075602816391808e-01
-9.822033371788262135e-02
-1.123339632588772619e-01
4.408731609557693387e-01
1.224910576726495171e+00
1.401623350175358107e+00
6.846169120914795680e-01
-1.745568834463045726e-01
-3.255048885284613225e-01
1.617749729654447965e-01
5.863777683963165011e-01
5.469551808620154443e-01
2.179929901966973227e-01
-6.572990686619531453e-02
-1.735127885052725472e-01
-1.703374600137562700e-01
-1.446802704731923184e-01
-1.085175134153932158e-01
-2.783436857921595467e-02
8.787794495546800977e-02
1.641787934111099134e-01
1.411549557270174449e-01
4.459603994918109882e-02
-3.856802448755054097e-02
-4.554773749844340941e-02
3.768944622978952913e-03
3.942811445452954616e-02
3.855515933772193926e-02
5.291474205175517032e-02
1.204627738650091984e-01
2.082250525693342125e-01
2.643199447858772255e-01
2.667308850343519389e-01
2.148730436349662321e-01
1.239254213015590911e-01
2.470050841951524842e-02
-5.037491730660129813e-02
-6.879539840305520793e-02
-4.361818041536034973e-03
1.288086500920849198e-01
2.751949069433399786e-01
3.842536800744854042e-01
4.256880253885255150e-01
3.759874990666309258e-01
2.395689662941726250e-01
6.845562646278929853e-02
-7.189197299501147442e-02
-1.403787663083864434e-01
-1.195805838770395840e-01
-1.741629768954644497e-02
1.176863837349980957e-01
2.095965163385021535e-01
1.883423420458436304e-01
2.710619984556237455e-02
-2.080827828774207411e-01
-3.710154561445473398e-01
-3.685178816594473772e-01
-2.454721007559814705e-01
-8.740803494562648934e-02
7.485362127638613139e-02
1.986586405080479345e-01
1.724388043872998322e-01
-2.979718452503202220e-02
-1.426404388353152142e-01
2.147767905656899068e-01
9.544394661796894441e-01
1.347091820562967168e+00
8.559465907279608654e-01
-3.832823194340999329e-02
-3.817592540216540598e-01
4.091670542342448758e-02
5.821799416629079849e-01
6.609885409251532451e-01
3.157954325833834952e-01
-8.776380931459859536e-02
-3.138952691765399816e-01
-3.707129473970414146e-01
-3.617118594718818358e-01
-3.332376390353885554e-01
-2.600098785526087641e-01
-1.327178570287297910e-01
-1.036519582964758740e-02
2.727357923148274882e-02
-4.360966924586067578e-02
-1.736316909241338025e-01
-2.901463907788959240e-01
-3.567863766817462867e-01
-3.816523506643464403e-01
-3.728731154366052292e-01
-3.116166761918970907e-01
-1.915709997931266395e-01
-6.555093895023338113e-02
-1.275859468993697371e-02
-5.934431041843521437e-02
-1.596224483156091778e-01
-2.527153476488118722e-01
-3.112251797069216508e-01
-3.345426719293408957e-01
-3.198265688779429183e-01
-2.572658607480344251e-01
-1.503657167410875350e-01
-2.396201013793687953e-02
9.268651476822982460e-02
1.769665077244054752e-01
2.039951573428293585e-01
1.453577838883697293e-01
-3.226978907075871150e-03
-1.921818661568709119e-01
-3.320869178472881100e-01
-3.495060180537774008e-01
-2.415671815095843944e-01
-9.095011059325926184e-02
-1.107672169570515439e-02
-4.877698829488284760e-02
-1.521687106795937550e-01
-2.442954556096146312e-01
-3.027893569374171534e-01
-3.548639291532270645e-01
-4.094498599842814612e-01
-4.126455291257967728e-01
-2.944011058586621932e-01
-7.962091902871480664e-02
6.793600315726321115e-02
-1.671307789952162712e-02
-2.449416842229881208e-01
-2.032502820706962032e-01
4.264037249991476375e-01
1.259758089262887681e+00
1.399271590761426154e+00
5.636234865328360044e-01
-3.981690242517560430e-01
-5.536502768048779943e-01
5.102794573398017342e-03
5.083082274885374341e-01
5.128677580915392831e-01
1.764932119431644186e-01
-1.638162008887041055e-01
-3.480534492206820429e-01
-3.959630478181135338e-01
-3.560573802819790856e-01
-2.446071139338716338e-01
-1.059975941717015702e-01
-3.417640681463210428e-02
-7.300873087268612560e-02
-1.538487327281644335e-01
-1.970794010192218892e-01
-2.141076282211803461e-01
-2.517107185836838790e-01
-3.046360001950058627e-01
-3.252239737449003076e-01
-2.699584144706330124e-01
-1.308900187532307247e-01
4.066120084269407575e-02
1.514625384965174182e-01
1.381268275923987487e-01
2.070028081674147452e-02
-1.202201607892352392e-01
-2.085640731190805397e-01
-2.207036233234081490e-01
-1.911428547954138746e-01
-1.657440826186781513e-01
-1.317199376377993780e-01
-1.793031200832401195e-02
2.005212725691201125e-01
4.158343347762001874e-01
4.591656029144356443e-01
2.816304870554066642e-01
1.842016869552944025e-02
-1.642464133518600489e-01
-2.275774616634722580e-01
-2.203695473481393219e-01
-1.583986269370196986e-01
-2.786525078222603161e-02
1.259856394864971862e-01
2.033401647982474858e-01
1.571791387354587455e-01
3.963793286664449994e-02
-7.125560317485438167e-02
-1.447765788666907638e-01
-1.840373719871048752e-01
-1.709698645618212554e-01
-6.374430302644312762e-02
1.149731900878011859e-01
2.171185786277089746e-01
1.209883618564797647e-01
1.580655954691197879e-03
2.656945086877740003e-01
9.739280735703930159e-01
1.483881278044222762e+00
1.124168143645887685e+00
1.656779037716726855e-01
-4.326934736892633637e-01
-2.238981434107195634e-01
3.275571997416163450e-01
5.962859729965191979e-01
4.474650463059625105e-01
1.279789110529235274e-01
-1.261050720763430000e-01
-2.540793132455439474e-01
-3.010000299888514474e-01
-3.116163271133860491e-01
-2.869553092208328993e-01
-2.030755218016225827e-01
-6.431279270528236780e-02
6.253483768731765702e-02
9.002945724507481484e-02
6.855842282432128912e-04
-1.274684877409243133e-01
-2.043856460426332344e-01
-2.156769962860037582e-01
-2.053192678189145193e-01
-1.881337829963840302e-01
-1.217411258508553917e-01
1.642217044143054819e-02
1.608623559247309709e-01
2.094125473407033589e-01
1.311555149933747166e-01
-1.199157528621432392e-02
-1.453081430037720112e-01
-2.416151300577213390e-01
-2.901872380161510390e-01
-2.536884961645950454e-01
-1.012164276675291685e-01
1.321248178432395115e-01
3.450910685563552960e-01
4.285898315729016472e-01
3.411676546082977324e-01
1.422559081686715632e-01
-6.841486395874916970e-02
-2.361670412489543236e-01
-3.503187758777224770e-01
-3.896548082166907956e-01
-3.182050394579237773e-01
-1.427505724226927342e-01
4.359748080358556710e-02
1.137490901623749162e-01
3.231341711831618724e-02
-1.081050788477855296e-01
-2.080844097206499266e-01
-2.588307262184475488e-01
-2.860863666746201739e-01
-2.761580006835429035e-01
-2.147255934874682248e-01
-1.579356612022535522e-01
-1.852424315732007498e-01
-2.130722068600791885e-01
7.542003836458625876e-02
8.512301274183948774e-01
1.635968158898436720e+00
1.614077700551296735e+00
6.841107411378060110e-01
-2.749511018582660449e-01
-4.635494278061600415e-01
-1.774342784451664323e-02
4.119529611807835057e-01
4.759140377604990091e-01
2.813612364872859484e-01
4.849410553115507394e-02
-1.265824808028776505e-01
-2.471254222044994286e-01
-3.275609414657218443e-01
-3.711296141451228547e-01
-3.735757566861344081e-01
-3.114448248904883032e-01
-1.609538475269514379e-01
3.443597795035055475e-02
1.536882180669139342e-01
1.111517237421703053e-01
-5.000379756805074100e-02
-2.181640036101249180e-01
-3.210716273450458513e-01
-3.452140567361677848e-01
-3.020460674977730742e-01
-2.047715313762594191e-01
-6.660355444360763211e-02
7.404906111792011747e-02
1.460185850765906290e-01
1.049824431901950073e-01
-1.231951499950580120e-02
-1.284704907498023796e-01
-2.008515759307919757e-01
-2.300002072066750503e-01
-2.136822238513399197e-01
-1.253580764184515917e-01
4.790125393920974944e-02
2.521534853024380296e-01
3.790576787588820218e-01
3.522196584307333289e-01
1.912656066509594299e-01
-1.559101683333830382e-02
-1.841181226715941921e-01
-2.761040910585753627e-01
-2.930850582875401678e-01
-2.447110378707188783e-01
-1.346592592039098646e-01
8.136903493385305719e-03
1.087633402658088333e-01
1.054260218747329059e-01
2.003405581761652510e-02
-7.397707001850731268e-02
-1.353260671512436786e-01
-1.671852716962338725e-01
-1.776818361911865762e-01
-1.760369348914629928e-01
-1.922740799940906575e-01
-2.265385960384391772e-01
-1.282841503612652534e-01
3.461709785904954484e-01
1.129400146614436107e+00
1.605861860560390264e+00
1.204777222963978600e+00
2.202590934972835368e-01
-4.506754198362436514e-01
-3.848189638095220189e-01
3.819000791326523925e-02
3.168275386699337948e-01
3.465437657716569086e-01
2.615069285566783974e-01
1.422134253692132755e-01
-7.407501154241803720e-03
-1.607396097848484973e-01
-2.638349030696360287e-01
-3.092747611646562977e-01
-3.478357549148701766e-01
-3.960654655796733703e-01
-3.760075465310568354e-01
-2.188323903823590211e-01
-1.036477865498517531e-02
7.025864008703525121e-02
-3.685733560923686036e-02
-2.195383379175445682e-01
-3.473994688583532109e-01
-3.866261394802086859e-01
-3.653557262908307401e-01
-3.014329490123683897e-01
-1.936899773224370347e-01
-5.965480809400938722e-02
4.980515848381256161e-02
8.464870640476655772e-02
3.234800466872256308e-02
-8.264450656127791950e-02
-2.123727195714122939e-01
-2.952118165680615580e-01
-2.839529811885504462e-01
-1.783103802031760776e-01
-2.162103137814677667e-02
1.275926722152276871e-01
2.112346641341160958e-01
1.845375141272093678e-01
5.142706388862700040e-02
-1.194421674187938903e-01
-2.481056790600726925e-01
-3.124735746239958312e-01
-3.436012211598997168e-01
-3.599280863131423258e-01
-3.292240700384356789e-01
-2.084457495153302642e-01
-2.081774509827591380e-02
1.288880867628100224e-01
1.396130821723709226e-01
1.016657404748992979e-02
-1.582284119445578618e-01
-2.514205703875278530e-01
-2.476927227308294011e-01
-2.453974035694794220e-01
-3.337984287670078265e-01
-3.784617748020525640e-01
-3.416429214597100500e-02
8.072209367005156455e-01
1.597741701400378966e+00
1.549029785974249895e+00
6.308166859372427160e-01
-2.768360444661812636e-01
-4.514560064617183510e-01
-8.676523480833452096e-02
2.178140640209035583e-01
2.442689850608774360e-01
1.779985283300343779e-01
1.790481994957220380e-01
2.052680091029117637e-01
1.537643580706121171e-01
7.506231607844697680e-03
-1.608381949198521843e-01
-2.689794545278614279e-01
-2.929802619036848688e-01
-2.607970665853185377e-01
-1.930837312490051860e-01
-8.822485344064298629e-02
2.961924332555696329e-02
1.006404376964104980e-01
8.783107015724789246e-02
1.046447055377342818e-02
-8.671314806393493058e-02
-1.697940208334596246e-01
-2.200450744640467249e-01
-2.226193473813356527e-01
-1.618241637045045311e-01
-3.698128606182904399e-02
1.105008238702945844e-01
2.042938462406028999e-01
1.900339412644755643e-01
7.999565108979608818e-02
-6.504017796835870335e-02
-1.802886952864054815e-01
-2.200100417358798466e-01
-1.663405366930200135e-01
-3.544716083096366432e-02
1.277816346156130933e-01
2.629319862534271746e-01
3.114369221722566583e-01
2.451734930568539861e-01
8.956519494866196918e-02
-8.820483395959408113e-02
-2.219653127287836425e-01
-2.852337949405708839e-01
-2.893412663696220966e-01
-2.453593880578814612e-01
-1.490175768960074754e-01
-1.819918995155613006e-02
8.011712331148172772e-02
7.950257960457104978e-02
-1.002204397487232133e-02
-1.103595025501241944e-01
-1.588222423542445527e-01
-1.522880893794698320e-01
-1.277819259742122848e-01
-1.371210625981636178e-01
-1.981202880647033315e-01
-1.900224319798200778e-01
1.488347360504782002e-01
8.966156533572620102e-01
1.576208447108170985e+00
1.479417705336288025e+00
5.772716570657345780e-01
-3.027260669725534425e-01
-4.673717746233663761e-01
-9.828595113237952041e-02
2.181215992294970318e-01
2.559848235310380193e-01
1.878063149159382994e-01
1.712318292782181728e-01
1.702603016243984246e-01
9.536134113682490088e-02
-4.508148424976424901e-02
-1.639016971773786246e-01
-2.113898996819089937e-01
-2.108160322027887446e-01
-1.842458095191544520e-01
-1.188837061234402914e-01
-2.375691267307813645e-02
4.735626409656436969e-02
5.115745373684000424e-02
-6.626256056318361939e-03
-9.008705528919769279e-02
-1.603210696528390988e-01
-1.929768900842222801e-01
-1.959759862291670651e-01
-1.942088780256145397e-01
-1.743713757436234635e-01
-8.601487849825398269e-02
6.198297552592297449e-02
1.642127572078460607e-01
1.362221001870347892e-01
1.537932158439092763e-02
-1.005875861977082175e-01
-1.627810213538322670e-01
-1.807309738754868389e-01
-1.550525949870081299e-01
-4.583387996483516413e-02
1.627378752676514051e-01
3.831297897437030975e-01
4.726429968928343994e-01
3.786258022773084098e-01
1.857714171518002888e-01
6.516590042486780643e-03
-1.224938484148235945e-01
-2.165138818635003182e-01
-2.672633199280593508e-01
-2.349002860254438274e-01
-1.068246638353085587e-01
6.191463842915263804e-02
1.790044237267625349e-01
1.839161235508618153e-01
8.735669314428681775e-02
-4.840142591588256216e-02
-1.634205175073866201e-01
-2.334203087300260604e-01
-2.450953488522459034e-01
-1.630541578354458843e-01
1.810899454263404165e-02
1.812085425941940553e-01
1.484402340520171448e-01
-5.568763318951135133e-02
-6.591762533641533361e-02
4.563568650436093388e-01
1.224707531578776765e+00
1.431643534920160832e+00
7.436150117943584048e-01
-1.515988660103010366e-01
-3.839444619491735322e-01
5.499891082065883063e-02
4.991311139313785450e-01
5.105324593500993879e-01
2.129645133664977430e-01
-7.358598631003551716e-02
-2.039084596323776921e-01
-2.307761048869889642e-01
-2.425735391035074850e-01
-2.540388606211476108e-01
-2.228991333625955917e-01
-1.295007862960929623e-01
-1.817718249758283264e-02
4.462912715955949516e-02
3.374793951191874114e-02
-3.528046214126896035e-02
-1.453987372168344394e-01
-2.740175143934016067e-01
-3.713320455472752246e-01
-3.887386202878951313e-01
-3.159647183842011486e-01
-1.760693941623009962e-01
-1.442510814517851576e-02
1.034796170666971854e-01
1.195741724031852971e-01
3.105294198274402562e-02
-9.593667913090465904e-02
-1.826916238937790482e-01
-2.127924944228554160e-01
-2.231344116081364071e-01
-2.173551075885143680e-01
-1.455208357697629906e-01
-3.277107324527787479e-03
1.103103127086816349e-01
9.922855348827343269e-02
-1.385015914141276422e-03
-7.233185725137197819e-02
-6.687881618595073463e-02
-5.348979163256054742e-02
-1.016179263772305497e-01
-1.817019012597496097e-01
-2.096824919306933266e-01
-1.695205134641071532e-01
-1.435941984872370347e-01
-2.003545156636184488e-01
-2.997784878670193831e-01
-3.598207406373494233e-01
-3.707599762643085661e-01
-3.810531365818516369e-01
-4.057373435211035217e-01
-4.063654574683399079e-01
-3.491692350958572888e-01
-2.475251612268344337e-01
-1.463918006166175789e-01
-8.730942272135046311e-02
-9.045209831095352149e-02
-1.586160198116892683e-01
-3.000554481325077849e-01
-5.129583453659192216e-01
-6.687115262056880782e-01
-4.506888525431157477e-01
3.384419788182476130e-01
1.285151747927373522e+00
1.550980765910106474e+00
8.751121847602336690e-01
1.559269311512956335e-04
-2.722617234622001781e-01
-1.777871918091565584e-02
1.613975109800034891e-01
-9.577187261631502080e-04
-2.683904277469603139e-01
-3.435620998790068770e-01
-1.851518729596702828e-01
4.988839103626339921e-02
1.948065105246401529e-01
1.805353468350003598e-01
4.318752651907527274e-02
-1.251079990109693341e-01
-2.401225387771666608e-01
-2.724937412099360801e-01
-2.484740020641200975e-01
-1.973320600280200066e-01
-1.092145683088902308e-01
2.873310145927440717e-02
1.660454216468065514e-01
2.058134668419844271e-01
1.061476857399544366e-01
-6.377593261521947998e-02
-1.874217802168590130e-01
-2.085082968716089891e-01
-1.635905432978837781e-01
-1.073585740486708850e-01
-3.075668553903585650e-02
1.050763565106103969e-01
2.650791328415217363e-01
3.389254912128395469e-01
2.625427653425554397e-01
8.587342719669080471e-02
-8.770853008136851592e-02
-1.701847793228911110e-01
-1.160140110900581972e-01
4.061554207187390020e-02
1.945256061813250559e-01
2.743255303259651279e-01
3.038155568500178205e-01
3.204649391282344828e-01
2.883241605907420624e-01
1.496656104181046387e-01
-6.256837725880763645e-02
-2.294834915294288735e-01
-2.788226019049195314e-01
-2.504244344364967567e-01
-1.963874821790049519e-01
-9.729252700795203157e-02
6.340358219095314218e-02
2.159795954431339149e-01
2.608260749739521600e-01
1.744109778746573136e-01
3.164356388464469039e-02
-6.443282243085646233e-02
-8.434901589588308934e-02
-1.120394304778133537e-01
-2.268572048624520887e-01
-2.849670258596094241e-01
7.715124299983883160e-02
9.718116153078990571e-01
1.807136165496039837e+00
1.746246543020973707e+00
7.848637606606080341e-01
-1.300620735600029887e-01
-2.723670139884192265e-01
1.031166089448809914e-01
3.605655852229195935e-01
3.077545367435864931e-01
1.729874849051526997e-01
1.293960417559240073e-01
1.225866261596186974e-01
4.585688645699934757e-02
-1.006328782294106661e-01
-2.320506733451241921e-01
-2.884714798102872568e-01
-2.897397466076566674e-01
-2.839046389501187484e-01
-2.725920759289145456e-01
-2.246873320226042969e-01
-1.484751315312016207e-01
-1.043517985716792412e-01
-1.439280638091068876e-01
-2.625914973626438664e-01
-4.062856213986654197e-01
-5.061551435678917077e-01
-5.204551511880457504e-01
-4.620579794181344235e-01
-3.764603623294116019e-01
-2.935707107542225858e-01
-2.258605618624957012e-01
-1.982974867133279750e-01
-2.322712752632970501e-01
-3.116308734076989606e-01
-4.048965634509180123e-01
-5.029092353209027033e-01
-5.973734886559681767e-01
-6.337119290463461008e-01
-5.352984972594887481e-01
-3.048233434165413813e-01
-6.682309472098016401e-02
3.686839099551596916e-02
-2.783731019898564099e-02
-1.961482073671096116e-01
-3.899240994347432654e-01
-5.505363783398868893e-01
-6.375185386073808358e-01
-6.476694586651173813e-01
-6.065260394449083492e-01
-5.206799398668668921e-01
-3.821165115862908412e-01
-2.286997765729300025e-01
-1.425031147525710196e-01
-1.677846003402447828e-01
-2.684913115045811094e-01
-3.690682080742742066e-01
-4.080597786154193107e-01
-3.749936827205226364e-01
-3.308140164027667529e-01
-3.484398163050488884e-01
-3.550589595159732714e-01
-6.656405781434918123e-02
7.185322358152824718e-01
1.638554477694296185e+00
1.881091338013980652e+00
1.130619444735277312e+00
1.142356659539875141e-01
-2.428494990206992998e-01
1.094592408928338478e-01
5.449974712256815401e-01
6.695348629982078581e-01
5.880904593105824585e-01
5.125556439382569218e-01
4.884749897511810324e-01
4.631545489429865214e-01
4.092184465581982789e-01
3.394672200212611735e-01
2.746607385512149224e-01
2.395601839941851052e-01
2.681482192709822576e-01
3.739030137861055203e-01
5.148378684713447173e-01
6.101504603039776820e-01
5.981470333980996035e-01
4.835181514033634054e-01
3.394393980982913228e-01
2.513785837890362695e-01
2.405914413840049282e-01
2.595310734458623481e-01
2.724078796860326390e-01
3.010270926481785070e-01
3.687522274998354943e-01
4.419857840216175893e-01
4.638775708673147924e-01
4.177930328237762225e-01
3.266878167537277111e-01
2.174592068005794798e-01
1.141758982512277726e-01
4.394088353396960467e-02
2.931967175083189520e-02
8.218286556217535566e-02
1.962613418660236198e-01
3.328049523056036407e-01
4.264882303988916656e-01
4.202243370086925500e-01
3.051930382214251836e-01
1.315532282227653837e-01
-3.401079807544295230e-02
-1.566247811193512418e-01
-2.224527193208904463e-01
-2.085490325478324691e-01
-1.057145242905226379e-01
3.674442610425436573e-02
1.267206047801027191e-01
1.033592345804267010e-01
-1.718610744275844704e-02
-1.677151208478407096e-01
-2.831457582719173471e-01
-3.304317879147414261e-01
-3.052643222520444732e-01
-2.236867408563247839e-01
-1.399400419362734904e-01
-1.343836451348660033e-01
-1.800226529635876871e-01
-2.591707481288527126e-02
5.536796944126877174e-01
1.256194885173370412e+00
1.339894358778032757e+00
5.531392887437753814e-01
-3.859050070763588858e-01
-6.447126090275168142e-01
-2.428023480145669599e-01
1.950542316519757180e-01
2.762965964208071723e-01
9.363531794182287926e-02
-1.106216236316570622e-01
-2.327196872971152575e-01
-3.049433535655697858e-01
-3.807852371050439166e-01
-4.709096577621427748e-01
-5.346614843242899484e-01
-5.094696905751928684e-01
-3.784259722279648686e-01
-2.162415852119287663e-01
-1.369675830809705397e-01
-1.857885902252831567e-01
-3.074916460736247803e-01
-4.221724823253417136e-01
-4.963330990380813157e-01
-5.307299869767316824e-01
-5.123255864435738438e-01
-4.126852954184873079e-01
-2.412280118553853103e-01
-7.525977418279371223e-02
-5.676022177994424073e-03
-5.354020126925983225e-02
-1.613848456647213325e-01
-2.626078547669645769e-01
-3.339393471223285337e-01
-3.822671929365772936e-01
-4.067333071899296715e-01
-3.780532377699653002e-01
-2.552001567794647818e-01
-4.586857837799653004e-02
1.560276925937936210e-01
2.357649380900263547e-01
1.623255281314220089e-01
-3.740856271999271065e-04
-1.741781526146288783e-01
-3.232017473158890764e-01
-4.275150859271988901e-01
-4.444120787059613886e-01
-3.426799151152720158e-01
-1.677754817136947463e-01
-3.130601331328075609e-02
-2.169969706721351643e-02
-1.327696614964833099e-01
-2.792187185129855753e-01
-3.812940969263853841e-01
-4.297146605764821103e-01
-4.547149820591292468e-01
-4.480009273552457705e-01
-3.641514462266791652e-01
-2.190523134218923529e-01
-1.325032184709005190e-01
-1.709970188714817763e-01
-1.408442895464573630e-01
2.588351478665860128e-01
9.155559210733330566e-01
1.197836325270810631e+00
7.186014255719066490e-01
-4.604653005496822660e-02
-3.272387570818859892e-01
-1.311439148116854900e-03
4.325985288000929740e-01
5.544144174413980775e-01
3.654852508343170991e-01
9.016285468302601136e-02
-1.070638349561950087e-01
-2.061710401642033175e-01
-2.562969091107824005e-01
-2.842412243488567913e-01
-2.689565674539626250e-01
-1.830027971809682907e-01
-5.029306216260787804e-02
5.248883056854714707e-02
6.383663883145100637e-02
-6.434389077286380848e-03
-9.890262414003449243e-02
-1.676910862014215631e-01
-2.116987682589411834e-01
-2.456656138614630169e-01
-2.495498223307159036e-01
-1.763964945027597653e-01
-2.586823314294815074e-02
1.235386556110072281e-01
1.809177035916894050e-01
1.258018598871440408e-01
1.674236730515350768e-02
-6.896475283723925431e-02
-9.934718108673780412e-02
-9.908223341491202707e-02
-1.026811023968548231e-01
-1.008211601155970666e-01
-4.346467388125545978e-02
9.491415671943505272e-02
2.599693388087411794e-01
3.425752456085651154e-01
2.727244476325767497e-01
9.272681136770988264e-02
-8.073102618302364919e-02
-1.746000823973432314e-01
-2.030715953697198040e-01
-1.874794590950346063e-01
-1.079922530842838541e-01
2.560394220886149166e-02
1.273060843726250280e-01
1.170468569068047887e-01
9.283409989936489831e-03
-1.148402673645245869e-01
-1.932194598104428340e-01
-2.213504822572171793e-01
-2.192460498372263145e-01
-1.717786786714960434e-01
-3.289167457212624490e-02
1.736687376232724511e-01
2.911281750061517348e-01
1.672807122736884589e-01
-7.877110421119393191e-02
-1.996160982799402919e-02
6.070547751200988662e-01
1.358117029356114003e+00
1.407596613591291623e+00
6.261342358970941602e-01
-1.390266606374691016e-01
-1.456582833018133516e-01
3.781025779234213902e-01
7.256406971142701501e-01
6.021176949641812159e-01
2.433144515569265753e-01
-3.443359787435887331e-02
-1.308481080081900505e-01
-1.215589719716440031e-01
-1.084326963197842220e-01
-1.259269269377856215e-01
-1.292791006793348185e-01
-6.341723332387950995e-02
4.473854446423513459e-02
9.775866967346229230e-02
4.389557915584740150e-02
-6.757948088427850886e-02
-1.558399477075328443e-01
-1.864994099771809521e-01
-1.671678740610489378e-01
-1.006463955299404245e-01
1.717533988572575096e-02
1.530046822258511185e-01
2.343281137027940775e-01
2.161781475567551569e-01
1.267201642709930298e-01
3.109890496577205968e-02
-3.443825547444569202e-02
-7.747114704933255602e-02
-1.036916869004964048e-01
-8.679431729197027712e-02
-9.932008602453103879e-03
9.005611339127972403e-02
1.582246397220096190e-01
1.794753643942621490e-01
1.685681876004127833e-01
1.285285854147080742e-01
5.252696254620416172e-02
-4.815502813746051769e-02
-1.399184116984933390e-01
-1.831358926625878125e-01
-1.517279871780790046e-01
-6.039409837600481085e-02
2.271086360667004533e-02
2.106950353836386375e-02
-7.592747325412219084e-02
-2.015495068149086300e-01
-2.854967706802252203e-01
-3.202849220349150428e-01
-3.372015567433360173e-01
-3.402870211608227113e-01
-3.012612749112251187e-01
-2.087692466852698048e-01
-9.048315697042066952e-02
-7.016785565355650525e-03
-5.032768903631047036e-02
-2.690020088371561924e-01
-4.879650103782766091e-01
-3.032315749300726337e-01
4.596834500508369947e-01
1.271242542066451930e+00
1.315474439790639938e+00
5.473017909147375182e-01
-1.597424976686612763e-01
-1.390087148934762706e-01
3.145757493296367224e-01
5.288286353436325582e-01
3.034858319620793998e-01
-6.879962251647328553e-02
-2.935440314719050536e-01
-3.279505101369481479e-01
-2.645847213695370903e-01
-1.658579560611060932e-01
-5.444415293414903850e-02
2.865170068945462056e-02
3.297968261313327654e-02
-5.200747768827540529e-02
-1.889885644436660739e-01
-3.231916113577428251e-01
-4.088931520169372114e-01
-4.213678783877839451e-01
-3.589867620937532977e-01
-2.376523919119664929e-01
-8.996096056880031888e-02
3.020350288009768236e-02
6.685710435032250765e-02
4.647179922855218873e-03
-1.156300168214880741e-01
-2.307941411826391898e-01
-3.008778652804783293e-01
-3.216343014488720620e-01
-2.988108838488635066e-01
-2.266392863767468235e-01
-1.097607183892181648e-01
2.447093034264423341e-03
4.046452955306293481e-02
-8.145197286609725390e-03
-7.136965707179594720e-02
-6.929114507115095856e-02
-7.450032571880139259e-03
3.139529511089311081e-02
-9.272857564383077400e-03
-8.625732942851269125e-02
-1.057086822969443146e-01
-3.894154170485485816e-02
3.693324524561233946e-02
2.615651912809431601e-02
-7.710861371748675697e-02
-1.908575038326965623e-01
-2.437701327486085645e-01
-2.371269918473272453e-01
-2.070223414647607563e-01
-1.643661027789920237e-01
-9.831035884892237731e-02
-1.446214547335158279e-02
6.747721436015910457e-02
1.387840325506002892e-01
1.726967797659628989e-01
8.211988050227957137e-02
-1.887372166888113545e-01
-4.599743639300479803e-01
-3.073475446362166630e-01
5.003487997143377664e-01
1.490155346968802696e+00
1.766723482811753732e+00
1.073383118497900135e+00
1.873469766744164655e-01
-7.198424724158623833e-02
2.111560974998649698e-01
4.208769589981479209e-01
2.789328214694735686e-01
-3.363287198655126597e-03
-1.483291138170056978e-01
-9.173593934500834379e-02
5.881845931187596604e-02
1.682918585368889386e-01
1.725280122553038420e-01
9.440927189585407442e-02
-1.546933952827850463e-02
-1.357263122013769585e-01
-2.508549760212043234e-01
-3.038648048088301024e-01
-2.324754971425578576e-01
-5.749328991731283284e-02
1.133361350962561881e-01
1.926062850812163274e-01
1.817560822636172246e-01
1.157302426483897417e-01
7.468217799064189033e-03
-1.269034746736094899e-01
-2.473828038156271059e-01
-3.163816828002335990e-01
-3.186474821755576614e-01
-2.538494467704114910e-01
-1.309924693944275464e-01
1.663030103489246056e-02
1.189761961864586187e-01
1.082108012561672494e-01
-5.718261779241364667e-04
-9.801873730661665729e-02
-9.430142015105222320e-02
-2.170903853785112816e-02
1.995832056283789596e-02
-1.191193277985933864e-03
-2.179122241101895396e-02
1.081555593133278620e-02
6.251411276216624346e-02
6.453958562105756303e-02
-5.651148196465809702e-03
-1.211376346157710254e-01
-2.432312957109094287e-01
-3.385576172299728515e-01
-3.782319636153794740e-01
-3.368182911051763040e-01
-2.081476338391457792e-01
-3.618143604536032398e-02
9.445730225197752905e-02
1.280805276443076901e-01
7.840217189837048184e-02
-2.225658374481562923e-02
-1.854625941052880644e-01
-4.115918899818201138e-01
-5.236718702821873128e-01
-1.756741441371429957e-01
7.042826416031743308e-01
1.511806109420582800e+00
1.468536527060616770e+00
6.333440031442516549e-01
-1.105172119635224881e-01
-1.886593265440932865e-01
9.873654024266145801e-02
2.112453501869678840e-01
3.193205666449920599e-02
-2.084171596045966690e-01
-2.983666678522156057e-01
-2.059033756068206766e-01
-4.209758129864365345e-02
4.794346654841265959e-02
7.032816158159355298e-03
-1.041947810281676212e-01
-2.037797135097095258e-01
-2.734578581525757279e-01
-3.346360696232324461e-01
-3.833613365468789280e-01
-3.757547535199341482e-01
-2.755216457995653956e-01
-1.079420681026107415e-01
4.238416645895259904e-02
9.079287274114680728e-02
1.455050814755340545e-02
-1.328584064259300535e-01
-2.664368918155206600e-01
-3.362692390404439791e-01
-3.494777914959701359e-01
-3.232582592442219127e-01
-2.417874506346819885e-01
-9.292606284178189791e-02
6.853163826197686270e-02
1.464878536552801369e-01
1.103648889208893452e-01
3.862680095337038544e-02
2.299852376550277216e-02
5.532991371890180754e-02
5.538027796534403940e-02
-2.554478370949443689e-04
-3.946922486830430066e-02
-7.490505043679877156e-04
8.038359746890511026e-02
1.201402562875690805e-01
8.347509452530399443e-02
6.910783197713345899e-03
-6.082411811043209743e-02
-1.186234905647678139e-01
-1.955542172990491767e-01
-2.754186461717925138e-01
-2.780391392856960686e-01
-1.515490121941722446e-01
4.427399583507349995e-02
1.900869776885964479e-01
2.150018573648071196e-01
1.081824338239005812e-01
-1.213929096086030085e-01
-3.665592006849843765e-01
-3.103035642537275707e-01
3.318603162592966838e-01
1.252985668309803069e+00
1.575380076250340045e+00
8.794935959316908525e-01
-1.072550546086726009e-01
-4.034965550860533101e-01
4.886569790917685840e-03
3.915744945367946039e-01
3.424571658462658430e-01
5.131104899850510298e-02
-1.682928606867670762e-01
-2.261623068280539384e-01
-1.688777097836341445e-01
-4.414279274211436316e-02
6.932672939026762737e-02
5.468358031921340123e-02
-1.101442799591851457e-01
-2.917891214486175167e-01
-3.588817798046002872e-01
-3.299961614158594680e-01
-2.944997622836801332e-01
-2.662399521307758921e-01
-1.962921476751134653e-01
-8.201813541749838898e-02
1.086560374496985462e-02
2.784807191326277298e-02
-2.181243720655359764e-02
-9.030063204150175216e-02
-1.317213235331018695e-01
-1.292854270752638868e-01
-1.088540114457672847e-01
-1.040124305891887979e-01
-1.003658672486997527e-01
-5.082385086034404975e-02
5.013059257355982623e-02
1.437428085217405116e-01
1.700740538373602395e-01
1.341160121513235437e-01
9.143240862138138358e-02
7.384480721195038622e-02
5.693695981865239120e-02
1.374882018079895060e-02
-2.715002126457663825e-02
-8.961229786082774637e-03
7.531685778334211434e-02
1.583360366741252967e-01
1.567759096029195665e-01
4.729956347628935104e-02
-1.116160225408175666e-01
-2.304933429653647503e-01
-2.661751132031923706e-01
-2.439781040576009807e-01
-2.020294662316534373e-01
-1.397535594168783646e-01
-3.713736859618659014e-02
1.013911937904698468e-01
2.291264168319132599e-01
2.474200396527967416e-01
4.770694271938205611e-02
-3.170408149852776414e-01
-4.911707348044406785e-01
-5.137923153320743397e-02
9.159396086840949636e-01
1.632818713405870481e+00
1.411955350351388416e+00
5.491976627207046935e-01
-3.200096633312751737e-02
5.696956650888732737e-02
3.742287758224090988e-01
4.136502619543276360e-01
1.589211692824318289e-01
-1.206581146183392378e-01
-2.483438583109627562e-01
-2.268726807543839374e-01
-1.486367828073308361e-01
-1.108367690723885135e-01
-1.433503890855111207e-01
-1.916967568009343148e-01
-2.050772930434165697e-01
-2.077714685747992229e-01
-2.442012993858165282e-01
-3.028461870870668982e-01
-3.324762442059176482e-01
-2.952755098885462282e-01
-1.856849408408308422e-01
-3.452534500118117911e-02
9.229145513875221252e-02
1.291078500997038525e-01
6.081658441408566151e-02
-6.351795802028059601e-02
-1.675730734815741307e-01
-2.088549593633376722e-01
-2.046950991240099327e-01
-1.834668866515093422e-01
-1.314415937840438808e-01
-2.738936116455495048e-02
9.312797427876862155e-02
1.592419375605120535e-01
1.422312212831424172e-01
7.535455619470951549e-02
-5.858768120022284087e-04
-8.143739556950593816e-02
-1.756782666846938568e-01
-2.567241364161507722e-01
-2.688755086147255335e-01
-1.871187322671283570e-01
-6.059482214926488475e-02
1.765080702515132299e-02
-7.264941758791304549e-03
-1.074875721590346500e-01
-2.103623597348006358e-01
-2.692207146729017064e-01
-2.996325598513179256e-01
-3.429301356502552078e-01
-3.822137154722063390e-01
-3.320723420598289399e-01
-1.547931447099572533e-01
5.446211004470889738e-02
1.378477814334486407e-01
9.162674683550371679e-04
-2.925659127959762684e-01
-4.555770760510445272e-01
-1.117890749734915812e-01
7.403327750342809654e-01
1.450588829876189756e+00
1.321874264864899784e+00
5.257925421379311404e-01
-6.959344102184460146e-02
-1.121354528373194256e-02
3.235879990661495453e-01
4.215843716263917851e-01
2.241711233524253943e-01
-4.685640021096230956e-02
-2.561219052811513630e-01
-3.764523222433965310e-01
-3.609588628081370487e-01
-1.940843457342200651e-01
9.436627736926224419e-03
9.742097148594126843e-02
3.620747620603060463e-02
-9.101938169993413486e-02
-1.975592718069965892e-01
-2.597196667122387281e-01
-2.886133847134884078e-01
-2.728934731644186984e-01
-1.846222543952107387e-01
-5.127397363495982824e-02
3.102490428236773234e-02
9.480455273382960846e-03
-5.298747523793846670e-02
-8.962992212504129752e-02
-1.385715085410238745e-01
-2.429791065900984148e-01
-3.298911710906012873e-01
-3.000382059901107179e-01
-1.715590875666694048e-01
-4.639792551308857121e-02
2.027283673337130707e-02
5.566464337402682316e-02
9.847628779966986767e-02
1.431314720519201444e-01
1.549832549081374966e-01
1.067674821988690292e-01
4.515386899497222939e-03
-9.773243291531116816e-02
-1.236120781323352402e-01
-4.327510674798649981e-02
7.701384813526677975e-02
1.147431813193889039e-01
1.320321531589340423e-02
-1.472124172688417110e-01
-2.385286401409614232e-01
-2.254226041001133329e-01
-1.775959503883073609e-01
-1.699679826165793606e-01
-2.014604188521862682e-01
-1.972153884242283939e-01
-8.789040403218591202e-02
9.504921838836268011e-02
2.102484428935909866e-01
1.259921618627847240e-01
-1.071975672038612964e-01
-1.885429454646308511e-01
2.036761821634264780e-01
9.419327868461212505e-01
1.359000727868612479e+00
9.789857454814405724e-01
2.100719282102913033e-01
-1.322150551529288065e-01
1.470558863344656464e-01
5.255290215402684817e-01
5.456503106299555039e-01
2.590680896765261698e-01
-4.414902328913802854e-02
-2.046294381544950802e-01
-2.349940647383983172e-01
-1.826996313282475137e-01
-6.810909689404696932e-02
7.553984427274754165e-02
1.757760099305728796e-01
1.643807843026753313e-01
3.736769781463789714e-02
-1.330469431614809128e-01
-2.513768059277586286e-01
-2.789786635409947091e-01
-2.516751465421366851e-01
-2.055094410425114260e-01
-1.233023214995327133e-01
8.316821067154433339e-03
1.281346971019188818e-01
1.460075117169968018e-01
4.769586517735334430e-02
-8.991964421284776021e-02
-1.840322834780322436e-01
-2.164425582034082696e-01
-2.175116840301863641e-01
-2.013145910485631684e-01
-1.400541985193626826e-01
-8.313115893218214064e-03
1.665910714550768723e-01
3.077498825414863304e-01
3.355509688178333061e-01
2.228409776925598385e-01
1.865235880781756714e-02
-1.832601669732738803e-01
-3.003195131642187321e-01
-3.018887258521384398e-01
-2.193882455546385390e-01
-1.110548266227758124e-01
-1.789240206806689409e-02
3.318169665426580484e-02
2.280036808084655309e-02
-3.433787401507512604e-02
-9.919689936795410279e-02
-1.580154283100061452e-01
-2.231104265971781409e-01
-2.815507070567891956e-01
-2.702811612583247425e-01
-1.291466271516503728e-01
9.353056533801970551e-02
2.119315460076453272e-01
7.600701225442643705e-02
-1.571689542153853480e-01
-3.491176999384131702e-02
6.582214750177182161e-01
1.390416886929493945e+00
1.333617376899557838e+00
4.666321041018350879e-01
-2.879492413178240118e-01
-2.426393612502391606e-01
2.825842869250800860e-01
5.783648186234288113e-01
4.158911942001773943e-01
6.363450015418189998e-02
-1.859376722115171077e-01
-2.594898686378162567e-01
-2.330834315842962023e-01
-1.935090041328286214e-01
-1.694699800822911939e-01
-1.404406016405720103e-01
-8.540996477886911298e-02
-3.131165233409862608e-02
-4.268213936635692485e-02
-1.395333691743338433e-01
-2.549846535475656095e-01
-3.094518755133127685e-01
-2.957972673247360462e-01
-2.526371609777797733e-01
-1.832633280096254702e-01
-6.482371144907062011e-02
6.552699084259093476e-02
1.118825407934528615e-01
3.462213369407250024e-02
-1.003157397592834565e-01
-2.130264302953507882e-01
-2.870023451418816096e-01
-3.370429694131134579e-01
-3.578030022536178856e-01
-3.139927588332259711e-01
-1.630469677621155522e-01
7.953378806213873276e-02
2.933836841194661371e-01
3.315582730361084085e-01
1.648814001828514120e-01
-8.663025293048298714e-02
-2.736315868996710421e-01
-3.408321109243056535e-01
-3.251533189545398606e-01
-2.700648570059412390e-01
-1.844669062750079469e-01
-7.986924074962302444e-02
-3.056685477748401995e-03
-8.109226465837672884e-03
-1.033780672960794983e-01
-2.339933350303766701e-01
-3.287417663464092255e-01
-3.659166199042802603e-01
-3.652989494297954609e-01
-3.215243959949822816e-01
-2.110064194212937783e-01
-8.708073116920521384e-02
-7.273195966009808611e-02
-1.399173138610185496e-01
2.592618935053428442e-02
6.514732557509881339e-01
1.325137887770217793e+00
1.278852070119913531e+00
4.373284606755436510e-01
-3.346971587617773025e-01
-3.203090596847934513e-01
2.280771481567245851e-01
6.003116834054372797e-01
4.968723557952696712e-01
1.570641571367039635e-01
-7.895240779301550271e-02
-1.201475290613947949e-01
-1.039815626936803072e-01
-1.537551305511795363e-01
-2.385555895053113051e-01
-2.560278227490698222e-01
-1.612053629460954152e-01
5.603775462473065128e-03
1.558537646677400634e-01
2.008625262630790997e-01
1.073388299191162382e-01
-7.065098238748063197e-02
-2.271734349204831693e-01
-2.866216674190714686e-01
-2.547945719315512503e-01
-1.831745429688045046e-01
-9.513039040782192424e-02
1.553780141466245407e-02
1.179562470719845851e-01
1.392359932606588302e-01
5.307240002684992380e-02
-7.483378098578928606e-02
-1.633583898675955715e-01
-2.012383163647784856e-01
-2.195983280891684319e-01
-2.056827519641964974e-01
-9.563788163815689636e-02
1.295805756456884228e-01
3.668190682209892528e-01
4.460809076067849266e-01
2.861929331928268483e-01
-7.525654948388887933e-03
-2.337649890151819454e-01
-2.938359449966262971e-01
-2.521580503359331926e-01
-1.969438276080735795e-01
-1.289016432421555280e-01
-1.771414486816148132e-02
1.080332704303455099e-01
1.746335734871423684e-01
1.355486778288913507e-01
7.500139085308353548e-03
-1.449486363121135768e-01
-2.514639962594328870e-01
-2.724759650878050832e-01
-1.982768900516831134e-01
-4.575176641968443925e-02
1.000782169707142705e-01
1.017678140871400572e-01
-3.657771972304069141e-02
-1.095695229739415688e-02
4.960076953785816367e-01
1.250720913599754791e+00
1.512493018841350123e+00
9.298075802039909021e-01
7.208185714112802511e-02
-2.735414846200711070e-01
-4.576716691787288682e-03
3.974249953733162144e-01
5.377101847833208881e-01
3.948957907798147371e-01
1.390265802896815950e-01
-8.567884842601582174e-02
-2.157192850017028707e-01
-2.539610873185976780e-01
-2.484459678587521980e-01
-2.417392064840794830e-01
-2.334322728615134679e-01
-1.990915330563777508e-01
-1.319618027679636263e-01
-6.905008915074503650e-02
-6.739709569374513487e-02
-1.386930262430803862e-01
-2.335152104241280668e-01
-2.993622232512513359e-01
-3.170061937591062140e-01
-2.755831976104156089e-01
-1.596427707876420521e-01
9.190829763324925156e-03
1.516298820742950082e-01
1.943300126740835354e-01
1.324409004760014330e-01
6.597531861230330336e-03
-1.400169904045938385e-01
-2.707779225475296370e-01
-3.653653118367123920e-01
-4.039010381331030186e-01
-3.258215852311417970e-01
-8.715459527143784579e-02
2.210406884418344153e-01
4.119731566861515870e-01
3.838650128480712853e-01
1.957131804998360480e-01
-2.709137403164812302e-02
-1.966444557298127616e-01
-2.807939086307699728e-01
-2.825619833851191753e-01
-2.201368443340880054e-01
-1.140205411159327387e-01
2.705838543474890431e-03
7.749330350205638207e-02
7.294276417045668370e-02
-5.187913837644692050e-05
-1.019686183204826097e-01
-1.993162859204138104e-01
-2.664017285199077323e-01
-2.728032328067831469e-01
-1.926510073406715318e-01
-5.236200950755752481e-02
3.346477183302772052e-02
-2.476315899237062010e-02
-6.524508952240280768e-02
2.691654787820623174e-01
1.000614548999535947e+00
1.498054963623459468e+00
1.135185367981802029e+00
1.995612130373123072e-01
-3.874096804940081462e-01
-2.141331493456768709e-01
2.811172556503820363e-01
5.363357402841825161e-01
4.423874426419271977e-01
2.046363802820864441e-01
-2.592481255379168112e-03
-1.391398817810187427e-01
-2.249074428160825201e-01
-2.770044032820827562e-01
-2.926556924207976418e-01
-2.495427045936947641e-01
-1.353258619175952138e-01
6.414291227840474702e-03
8.445888525388833834e-02
3.308484461340558541e-02
-1.328269372681706306e-01
-3.256456429293657084e-01
-4.368880744980234709e-01
-4.144583573843270141e-01
-3.094799911701877071e-01
-2.262781284796145653e-01
-2.144809293595807964e-01
-2.200945712039499569e-01
-1.621484473611715937e-01
-5.362397937443610235e-02
6.620277263326701522e-04
-6.553427048206575400e-02
-2.036104048843628833e-01
-3.104795398194379885e-01
-3.230224682715342466e-01
-2.506426192192688363e-01
-1.430730513008184324e-01
-3.197043174924066311e-02
8.461246400276122015e-02
1.802810766321666092e-01
1.723886476513348809e-01
1.547247208271118959e-02
-2.202050733919394543e-01
-4.057838042509128718e-01
-4.561147374344797223e-01
-3.712177626865640900e-01
-2.143952387351668876e-01
-6.284417337742453924e-02
3.044653956540003398e-02
4.736096912563393657e-02
-1.496941915084260000e-06
-7.843431356439961588e-02
-1.500339595318000430e-01
-1.927872464831641708e-01
-2.059164860683043996e-01
-2.025411900798083920e-01
-2.081206709869582450e-01
-2.413397857999218243e-01
-2.369578788517255341e-01
1.104724832358898456e-02
6.464541609601283101e-01
1.347004701589069153e+00
1.423350834601518677e+00
6.690872147433030159e-01
-2.091781466733656780e-01
-4.191356250496933722e-01
2.203053551310035774e-03
4.497803126230532911e-01
5.544688604189257353e-01
4.003519495956999186e-01
2.007537136081815610e-01
4.611504877707778283e-02
-7.817524600939465551e-02
-1.839741048448364225e-01
-2.518068693870759711e-01
-2.680113774863525644e-01
-2.324567739662433685e-01
-1.409934917716150760e-01
-5.344155345449776162e-03
1.152981423826742735e-01
1.441341688996507497e-01
6.503706498598439689e-02
-5.266529867535742204e-02
-1.316204419984252638e-01
-1.681753900577963590e-01
-2.061850683029962383e-01
-2.453846875904839298e-01
-2.191046959257525462e-01
-9.268088343898314707e-02
3.971840236573410954e-02
4.086672444493378437e-02
-7.722091653896473451e-02
-1.632981141124040247e-01
-1.504244899506775868e-01
-1.389063038441481768e-01
-2.164389419519608670e-01
-2.958285205674013874e-01
-2.069776422865446941e-01
6.655365034829140158e-02
3.276505227168923229e-01
3.918711328238934088e-01
2.903526656335709277e-01
1.649293996481835944e-01
5.321753767132268720e-02
-9.976030276950208220e-02
-2.783783649606499933e-01
-3.727238390600450257e-01
-3.078618656932901598e-01
-1.231840272217514243e-01
7.137972594330600773e-02
1.766607735001585466e-01
1.559323725510711744e-01
4.560200176889614432e-02
-8.112077081357768615e-02
-1.690021276078510770e-01
-1.936222713867182255e-01
-1.429301103312635990e-01
-3.833295555725557691e-02
3.268677896249493064e-02
-2.216492555114852117e-04
-9.237379548561498732e-03
3.122793669465963595e-01
1.021282576532411390e+00
1.572930368468199669e+00
1.312267619828387577e+00
3.895217512372303736e-01
-3.074849396712029947e-01
-2.459398359168429582e-01
2.193721849288348125e-01
4.817317231018722334e-01
3.859476851845869971e-01
1.706570396680128776e-01
3.410367239025651614e-02
-3.300083391487770856e-02
-9.972464938323831463e-02
-1.739883301581572894e-01
-2.288960189549308355e-01
-2.354895167651776533e-01
-1.611034740570920776e-01
-5.245240239539525340e-03
1.537563729371524968e-01
2.039326213164546486e-01
1.176739551709921061e-01
-1.651273528909939781e-02
-1.022118916883558160e-01
-1.294917071297851108e-01
-1.382016408283813502e-01
-1.361364678730389022e-01
-9.639459178613130064e-02
-1.901088174616005766e-02
4.628796466272497301e-02
5.404575622431955634e-02
1.208620834129368014e-02
-4.458456704294524314e-02
-1.004450336113848485e-01
-1.609401988399922767e-01
-2.291345904830800195e-01
-2.847055835616705832e-01
-2.780127440120717108e-01
-1.664818438080153673e-01
2.764549438514093960e-02
2.089647900838197125e-01
2.722369074862077132e-01
1.857937978711760307e-01
1.899621972751604562e-02
-1.247802741641935859e-01
-2.057582825570087870e-01
-2.578284928147596688e-01
-3.025772157468906154e-01
-2.926680435881528486e-01
-1.741219702583304829e-01
-6.075272551561781975e-03
2.927407795102610066e-02
-1.650836134758391360e-01
-3.509060309578694303e-01
-8.626073090284920586e-02
6.718134790677083856e-01
1.238647452809265914e+00
9.164955816580373504e-01
-8.762571941698105160e-04
-5.117135217546290304e-01
-1.954340497483131878e-01
3.878674918827503260e-01
5.700347625204291724e-01
2.906438225074001180e-01
-8.789061703709545592e-02
-2.839552324608299871e-01
-3.008226229988405498e-01
-2.938545612431525678e-01
-3.580360503240672676e-01
-4.504195839649640098e-01
-4.648200673066846811e-01
-3.441234762190986118e-01
-1.385335884620660929e-01
2.396880037903949268e-02
3.776077490232909728e-02
-9.042510438319453780e-02
-2.452762002328506274e-01
-3.015951668855738621e-01
-2.267407695226719422e-01
-8.579223209271648332e-02
4.096597680509367345e-02
1.209784667107025452e-01
1.584079306724947012e-01
1.532833053578991911e-01
8.922352083457957272e-02
-3.836911470455027506e-02
-1.942521796742848472e-01
-3.191744912656786504e-01
-3.746696933551254549e-01
-3.628383695413204268e-01
-3.046870845973445596e-01
-2.163970298614553145e-01
-1.156648165041982285e-01
-3.698625160069928669e-02
-1.563103355784264958e-02
-4.601250698279735901e-02
-7.839891985940991570e-02
-9.634984942595517521e-02
-1.869005610446716203e-01
-4.377144482957046057e-01
-6.918017991097473729e-01
-5.117516578802463467e-01
3.620326891123477608e-01
1.450635997923297671e+00
1.794571287448774699e+00
1.067027257721028466e+00
5.445970893546855929e-02
-3.365653104666784801e-01
-1.156671573054833535e-01
1.099705769910747089e-01
3.729636410320171652e-02
-1.317016504942465083e-01
-1.075458833441140655e-01
1.597308515174086507e-01
4.623998737586401120e-01
5.243985798581194402e-01
2.699419306029275933e-01
-9.619567012285173968e-02
-3.195661126333044222e-01
-3.361552053538439666e-01
-2.520399479036021240e-01
-1.737564453761675232e-01
-1.081354486502588419e-01
-1.220394833972998291e-02
9.751882239865443391e-02
1.399728828855498763e-01
7.396460456133960304e-02
-4.979479303127935103e-02
-1.595031051084642160e-01
-2.386661249878346824e-01
-2.942574588769891197e-01
-2.899554430180505959e-01
-1.831782715879863854e-01
-2.157879105438342479e-02
6.933255443154776043e-02
2.479240173492646901e-02
-8.132746033591917167e-02
-1.404636623899705172e-01
-1.402341754976476063e-01
-1.331930648977474319e-01
-1.274134810235439397e-01
-7.494463039860385645e-02
5.385250457316369949e-02
2.221721078715756525e-01
3.451289890567164620e-01
3.495852698316110896e-01
2.292775665179238864e-01
4.678560112400199922e-02
-1.171598880554760719e-01
-2.160726897173274041e-01
-2.544000793621122858e-01
-2.599102859414267885e-01
-2.329680066636498070e-01
-1.404801365405627944e-01
1.468691041051606479e-02
1.451844708384634197e-01
1.464394780878061630e-01
1.089499991651146638e-02
-1.495591084532588988e-01
-2.114509244770831631e-01
-1.839387829464687041e-01
-2.153908145079928560e-01
-3.696479931064142188e-01
-3.897550584399224749e-01
1.180796156032126037e-01
1.071512728694626881e+00
1.687396410950733339e+00
1.292017118811135346e+00
2.515758542664289221e-01
-4.217717554872035812e-01
-3.079873032943006850e-01
1.127104636916293201e-01
2.840835546214140472e-01
1.723055492957558943e-01
3.923153383497160474e-02
1.536218340372591529e-02
3.056131064080722451e-02
-2.207985704330492349e-03
-7.543964229225733065e-02
-1.397273038649412269e-01
-1.853625440643890676e-01
-2.327929593839585531e-01
-2.691943904405199040e-01
-2.387157924987501345e-01
-1.095134144578049223e-01
6.049365675572818124e-02
1.518949231232326891e-01
9.916294880112408450e-02
-4.544413597607566135e-02
-1.793487011611422655e-01
-2.455087992489336235e-01
-2.532840854833247612e-01
-2.369053541835210719e-01
-2.028302163125668967e-01
-1.251785727017021288e-01
-3.870435177758415821e-03
9.924960749520662928e-02
1.104773116428210411e-01
2.019186881433950725e-02
-1.064630084063302173e-01
-1.914034498225057057e-01
-2.024635757730471053e-01
-1.434173602228974997e-01
-1.674477456274257869e-02
1.569373129452829307e-01
2.961365285546777582e-01
2.969650278717520520e-01
1.410538065481887759e-01
-6.665236230664089989e-02
-2.008552012862171721e-01
-2.332270073822948764e-01
-2.194014067949718039e-01
-2.063461594489504336e-01
-1.860026592048922289e-01
-1.211340474362151143e-01
-5.341016622903293695e-03
1.032831321639172267e-01
1.297101938404945920e-01
6.607780553972150694e-02
-1.881065860335726439e-02
-5.875948585720869310e-02
-6.746119619689909530e-02
-1.383439869680491707e-01
-3.242196832819442265e-01
-4.439421260700993077e-01
-1.001489026325508985e-01
8.462632381858974373e-01
1.800759266939601311e+00
1.857029389274543307e+00
9.056468744225857348e-01
-1.274488568019827017e-01
-4.078188364340070704e-01
-7.494698814185526969e-02
2.343562726333580648e-01
2.365591135217666729e-01
8.160486824811991058e-02
-6.033200647560688079e-02
-1.627976584418484585e-01
-2.220209182141450466e-01
-2.220534170752856418e-01
-2.020165409123499123e-01
-2.199209489363300185e-01
-2.709049107127518563e-01
-3.018017858136350373e-01
-2.672773951836296402e-01
-1.546769579535142158e-01
-1.232733633906735876e-03
1.060092265518921828e-01
8.947989613576819157e-02
-4.603184418831868241e-02
-2.124789647681246674e-01
-3.133084358289367488e-01
-3.232004364492121473e-01
-2.914608441046127596e-01
-2.626199282145315617e-01
-2.207917009043473267e-01
-1.334919718491869578e-01
-2.231176573510205985e-02
4.270590853557888755e-02
1.330037773357853684e-02
-9.009825186505505956e-02
-1.975643474656535725e-01
-2.438713487430523852e-01
-2.076592003201822578e-01
-1.087611976972682054e-01
2.080694249068625393e-02
1.484541708974385088e-01
2.294107139651088978e-01
2.166081675343853874e-01
1.027329746440102248e-01
-5.918528577633831722e-02
-1.959709331329217430e-01
-2.763209399752704631e-01
-3.189077124004509600e-01
-3.395547973521173546e-01
-3.164531209361787778e-01
-2.237203376488673401e-01
-8.585770106703786986e-02
