3.424022575470082180e-02
1.154297025270705802e-02
9.582806336992351348e-02
3.353396699502813605e-01
4.984633892510770270e-01
1.780538449386405431e-01
-6.401232603651534347e-01
-1.239013665015981758e+00
-8.702286241996630700e-01
1.945037201823186512e-01
8.703548816477026939e-01
5.885157174642489109e-01
-1.358097803195715825e-01
-5.210085770124972537e-01
-3.866962428078774550e-01
-8.156917551892786666e-02
7.941250912310014731e-02
8.475429664811916231e-02
6.647114582276686390e-02
6.920452218469987093e-02
3.726851908972137611e-02
-4.086647253893466170e-02
-7.744732303790484440e-02
-1.939883379352583086e-03
1.306834043734692863e-01
2.010648663766530786e-01
1.625360947017519542e-01
7.423009511038862474e-02
1.842470591454028334e-02
1.396520179948675805e-02
5.143536411756004928e-03
-6.614443900970606860e-02
-1.744787895913872955e-01
-2.248959006976543606e-01
-1.680423277638607160e-01
-6.141394184156029334e-02
5.213109625346415768e-03
3.926327482362450619e-03
-3.295164982678511906e-02
-6.923243639798394578e-02
-9.028828347874505444e-02
-9.274685843333412005e-02
-7.359271099438237373e-02
-2.923370862568895265e-02
3.519747869431723297e-02
9.023737529808086022e-02
9.168061400168302233e-02
3.221013427797547735e-02
-3.321556344237241998e-02
-5.450765719171571377e-02
-5.924357066481127088e-02
-1.064902357927958870e-01
-1.759131877981262304e-01
-1.486816492063504913e-01
5.401846350238874439e-02
2.726114806525799517e-01
1.319434099977032093e-01
-5.122753827863708587e-01
-1.145425126298845520e+00
-1.009483583918025396e+00
-1.117002216688163518e-01
6.339422702536268162e-01
5.091249521682649215e-01
-1.983917393524288753e-01
-7.075290148759563191e-01
-6.796558876194384036e-01
-3.867210608074274081e-01
-1.968415438729397560e-01
-1.910489225409112701e-01
-2.412874196489216971e-01
-2.389407554839752534e-01
-1.747541128367582908e-01
-8.754375256459370758e-02
-2.385581338262348153e-03
8.279750535539104339e-02
1.642088906240194157e-01
2.070228086671608847e-01
1.768366205138056368e-01
9.326690200339096681e-02
2.461333965423097292e-02
1.266234964816280797e-02
2.050268807776553862e-02
-2.120937432924049210e-02
-1.215931958724066619e-01
-2.043716404764989170e-01
-1.858384681635673052e-01
-6.866623714782699173e-02
5.885881284280228276e-02
1.136250948086419688e-01
8.969189447308328900e-02
4.299852258677963612e-02
2.637571356757659885e-02
4.724706489352751421e-02
7.984859507733360617e-02
1.056826360046036056e-01
1.296106945710457925e-01
1.591580557335844359e-01
1.839423574532198791e-01
1.842314369672690688e-01
1.598632713065085698e-01
1.352164541448786506e-01
1.184102181108512564e-01
8.317004306434949701e-02
3.095506497570435500e-02
4.728599600368167677e-02
2.219164638388090027e-01
4.561071065051064410e-01
4.056646289002005523e-01
-1.737343966404902296e-01
-9.245995214674563867e-01
-1.038567054389153643e+00
-2.250838720784274494e-01
7.538887878075835047e-01
9.288916366398891622e-01
2.577445033911232031e-01
-4.778751696758426482e-01
-6.768531451744312921e-01
-4.242802420457607582e-01
-1.233931760915927545e-01
3.792628206261885321e-03
-1.070019173219935102e-03
-2.305139298720479402e-02
-1.714118365066225058e-02
6.330332250918554310e-03
7.007319771808265263e-02
2.248391664729945116e-01
4.296681704927111656e-01
5.321730395542025871e-01
4.420811335834370359e-01
2.500618787075935545e-01
1.138661087622409307e-01
9.243905655052388204e-02
1.248052204787599706e-01
1.189264487056884145e-01
4.479397161806946553e-02
-4.042808772011933366e-02
-5.735648318873730334e-02
1.173762916570493878e-02
1.094529174860541382e-01
1.621554528074270474e-01
1.452600058415902673e-01
9.350017768877165458e-02
5.562545512118554497e-02
5.167743125975111235e-02
7.477261611234484184e-02
1.174221124038650893e-01
1.802432193657449722e-01
2.542632988097071056e-01
3.069647437017322122e-01
3.001817261962533290e-01
2.284498583912003278e-01
1.335256639429649728e-01
6.641335461265079898e-02
3.244901623678294461e-02
6.278176617614469879e-04
-8.925253515919769759e-03
1.023464134655229646e-01
3.419251730005056222e-01
4.336949643215067263e-01
2.191061835921327000e-02
-7.470116843238164828e-01
-1.095039799502119271e+00
-4.831541125399260173e-01
5.425949899950406330e-01
9.050095864186109562e-01
3.126932135797829693e-01
-5.019103387647063652e-01
-7.906824252230412187e-01
-5.359617790342141586e-01
-1.801429131837757880e-01
-2.385896735723940648e-02
-4.310943919348787789e-02
-9.193327593772701589e-02
-9.588480989020720102e-02
-6.062007985366810181e-02
4.367451273834463410e-04
8.352979143838797083e-02
1.611639168096926367e-01
1.838556374210871536e-01
1.346447496904776830e-01
5.710657949510089537e-02
6.928734534494692190e-03
-9.343778028928519802e-03
-3.213275464182593216e-02
-9.583143369121958910e-02
-1.839511831973032197e-01
-2.387208646965475745e-01
-2.200541725531836301e-01
-1.438724934304111414e-01
-5.833662995744856583e-02
-3.356030889174482605e-03
6.008684568067968780e-03
-1.951319886843153745e-02
-5.218485320530876631e-02
-6.065921880999775029e-02
-2.007879917031943004e-02
6.960520970230459070e-02
1.679282509543907342e-01
2.178562044947859877e-01
1.937522234513544273e-01
1.234202984345032089e-01
7.620269623110809132e-02
1.148825425545891565e-01
2.124407152577236779e-01
2.413020349829693156e-01
1.264094051183871636e-01
-1.233321980543470794e-02
3.409722790219369554e-02
2.877687810661189172e-01
4.400411323528841123e-01
9.048467874796205235e-02
-6.957781197184758071e-01
-1.175149391965260470e+00
-6.782916518184356480e-01
4.201433416582240898e-01
9.961874421521935696e-01
5.227272774067339700e-01
-3.832965506980205994e-01
-8.492326469833024749e-01
-6.950276155815507950e-01
-3.347664461441774986e-01
-1.308069003285203813e-01
-1.133708270022113079e-01
-1.517502710625595885e-01
-1.564417319415932206e-01
-1.172451019812135870e-01
-5.570571458951977667e-02
1.254267173395594293e-02
7.885967532600009211e-02
1.272590841274368056e-01
1.346853096550569562e-01
9.185912862456498129e-02
2.325707087569181541e-02
-2.522725924133820130e-02
-3.139444477801486139e-02
-2.259539124533638949e-02
-4.146559205265838016e-02
-9.334227036386751053e-02
-1.442320216618520057e-01
-1.573920439941768057e-01
-1.147688448431550129e-01
-2.839507128455140764e-02
5.145742485635154684e-02
7.606975039768563984e-02
5.860676326106516870e-02
5.279253000935697770e-02
7.603741537662679628e-02
1.039346833453829999e-01
1.248591290952682092e-01
1.486070955591776988e-01
1.733653275106972480e-01
1.798454496549883042e-01
1.558638859273725474e-01
1.142266382645565903e-01
8.173425679951114298e-02
6.630523020819251157e-02
4.980939645055995624e-02
4.046120006447126438e-02
1.149321631850144659e-01
3.303899489677840084e-01
5.348896020421030073e-01
3.599202795782974196e-01
-3.522488565609530609e-01
-1.082596274379684864e+00
-1.008621617552546645e+00
-7.018301223748119044e-02
7.878034289601866247e-01
7.350820698104263418e-01
-1.213501984182041582e-02
-6.375500910182871905e-01
-7.049406445551701372e-01
-4.181595655162122505e-01
-1.583098290210584458e-01
-6.565025611396162197e-02
-5.646511827254921401e-02
-3.715301249628771146e-02
1.165986933764420926e-02
8.289494403419608859e-02
1.680901748506327953e-01
2.459306114089944983e-01
2.930368302406965442e-01
2.966148021688452263e-01
2.493811002631259044e-01
1.617144854433550938e-01
8.031832048851023087e-02
5.220811034437772974e-02
5.982362945176591951e-02
3.861205544541177620e-02
-2.947972746960807536e-02
-8.814075679513286299e-02
-7.853904517576697220e-02
-8.284393421656467693e-04
9.361364670945555855e-02
1.464513546033724134e-01
1.339649589323416989e-01
8.136395863756318292e-02
4.014984584668192247e-02
4.732496446919880195e-02
1.030504956413057921e-01
1.806519727333917857e-01
2.456753589363349366e-01
2.699603738459185887e-01
2.473527690472431539e-01
1.994860900089389100e-01
1.584022444881006964e-01
1.400872001542809997e-01
1.302412208491363910e-01
9.706255237547675718e-02
3.718821954415699182e-02
2.336799356201840761e-02
1.585040031777008029e-01
3.827215840139980840e-01
3.497612768248134496e-01
-2.506690434725681871e-01
-1.098499843888807392e+00
-1.320444746918642664e+00
-5.378168620191834393e-01
4.892845933856386220e-01
7.300910933943705050e-01
1.059736055234621332e-01
-5.877771574019435841e-01
-7.272076918983102489e-01
-4.118341936275450310e-01
-9.033157878101333305e-02
-7.240099769660977153e-04
-5.883967751659806983e-02
-9.875964402353656912e-02
-6.811716376979988496e-02
-8.224898147858348413e-03
5.488977445843468139e-02
1.324562582456145221e-01
2.135998763449365456e-01
2.520126473105473996e-01
2.208219072071595235e-01
1.466935475005854139e-01
8.178262363992788719e-02
4.992256725231222769e-02
2.394990173446332957e-02
-3.533514437925362045e-02
-1.200976780626815676e-01
-1.735561679154680459e-01
-1.487463155339540932e-01
-5.318911223741513289e-02
6.073844884462377414e-02
1.334209541993226500e-01
1.352834771977170503e-01
8.426450464025447840e-02
2.666244648659847616e-02
1.841339032357871587e-03
2.677073393912820023e-02
9.473235978727125028e-02
1.705711415999762726e-01
2.038391495208722592e-01
1.709549888596680611e-01
9.762200921286487421e-02
2.748053794702736904e-02
-1.788299122778102060e-02
-4.198758696781670213e-02
-5.663391511399920586e-02
-6.110985120588625918e-02
-1.249056065630227419e-02
1.523544559015828914e-01
3.660017145307091213e-01
3.185732803385507572e-01
-2.557055792791281257e-01
-1.040675364716401319e+00
-1.222667369268299220e+00
-4.635602987369906169e-01
5.140263335364794184e-01
7.485966207186997012e-01
1.749388247447920819e-01
-4.751380382633109134e-01
-6.452980756630263270e-01
-4.188743332280078224e-01
-1.558135603036288064e-01
-3.608224553404421053e-02
-1.311955464448312861e-02
-4.591196506776780775e-03
8.287986093935028817e-03
2.187495941423726192e-02
5.409621732029329388e-02
1.201293730906579649e-01
1.961870173960345853e-01
2.359521270563822992e-01
2.105072560377452551e-01
1.232663467385044370e-01
1.642460220186810899e-02
-4.658296893163261371e-02
-5.549831102285048001e-02
-7.714454536955316077e-02
-1.526949946082964416e-01
-2.255247828714683489e-01
-2.128761688204557356e-01
-9.964249842470374041e-02
5.462965232207749738e-02
1.648120741514855214e-01
1.756501015508270536e-01
9.373707977598980112e-02
-2.100370208808029562e-02
-9.258233398207837972e-02
-7.648602705248044864e-02
1.228322855512731064e-02
1.194698636915026285e-01
1.931065021061537934e-01
2.065174195172014837e-01
1.654165739519233569e-01
1.013476695806926620e-01
4.803791478110450153e-02
2.171668549429589534e-02
2.022741135600516008e-02
4.182428197506547762e-02
1.181238085813415412e-01
2.882162086273169499e-01
4.517032275556617793e-01
3.081269150751483887e-01
-3.024239020081857521e-01
-9.458332507963802538e-01
-8.710303095815898899e-01
1.077667802076567871e-02
8.220590756861740900e-01
7.409533500052987165e-01
-3.053735364309304035e-02
-6.527324776632897896e-01
-6.748959347271913378e-01
-3.371122582078129315e-01
-6.368997466592667134e-02
-1.157181782064033507e-03
-4.265604302851023349e-02
-7.082685964929665012e-02
-6.234363852952379964e-02
-2.865906352885090255e-02
3.665642706680195817e-02
1.333585622770885049e-01
2.259822817622373359e-01
2.672909094988675238e-01
2.427827433020065540e-01
1.828923445584224872e-01
1.316010103774276074e-01
1.041616462153255873e-01
7.340824070405144175e-02
5.848785488365115283e-03
-8.269151723892924355e-02
-1.285123905454388371e-01
-8.660817140505612521e-02
2.335360691111990766e-02
1.334906311331166828e-01
1.766524962818708244e-01
1.358990575731041373e-01
5.681783491466856767e-02
5.317035464615647508e-03
1.594203540875930095e-02
7.846569493713122234e-02
1.584291599518119764e-01
2.239261459420181510e-01
2.597411751051415529e-01
2.628343528110380078e-01
2.329074599456670003e-01
1.771005793034589326e-01
1.163031288454298151e-01
6.804929746483764919e-02
2.665650027790573973e-02
-1.209040453022811393e-02
1.625752750192532500e-03
1.506313681459288123e-01
3.937716495457782573e-01
4.364518826317437261e-01
-3.523729209809839391e-02
-8.139888963174094494e-01
-1.115217603923614798e+00
-4.674648640031067726e-01
5.232403172065895891e-01
8.175336718311051465e-01
2.213391366189997322e-01
-5.029997290509249375e-01
-6.835062886585568931e-01
-3.886826991790605090e-01
-6.473952825152361201e-02
4.729730055168612779e-02
1.338389180172626196e-02
-2.969744643020647001e-02
-3.085965994496052411e-02
-5.040470199187776536e-04
4.893054552239677751e-02
1.072292757859018564e-01
1.528913179423364577e-01
1.656111893886955122e-01
1.413435958030758444e-01
8.950423892533658499e-02
3.350791680641083958e-02
3.059119974819936479e-03
-3.036568853363199889e-03
-2.620292036393237836e-02
-8.823241164473785703e-02
-1.481083917553538687e-01
-1.513173302777866824e-01
-9.413094555745990522e-02
-1.315769819511174513e-02
5.436642987540549893e-02
8.189459776482634068e-02
6.120489312806624144e-02
1.500549400629316681e-02
-1.406134089719114112e-02
7.940730828009336453e-03
8.398004534984236658e-02
1.797446445030161932e-01
2.445678786631512169e-01
2.494531697980402474e-01
2.000744962135339589e-01
1.220113277850687905e-01
5.353395089765287940e-02
2.932362008132944134e-02
4.039849960204369705e-02
4.579621125611133686e-02
5.530259313588511971e-02
1.456999342226889260e-01
3.258454947967650006e-01
4.002633524560116896e-01
9.710005409198785298e-02
-5.190503082202126972e-01
-8.616141120674825071e-01
-3.951697967858977534e-01
5.645342029925295435e-01
1.054019464763817915e+00
5.984669571084312301e-01
-2.820367156354833815e-01
-8.164744778574803963e-01
-7.948903136015335047e-01
-5.052283924526937975e-01
-2.493479924311688412e-01
-1.254528992664721010e-01
-9.450389422461510924e-02
-9.364387051431766196e-02
-8.983637188963591869e-02
-6.475989125885897590e-02
9.028185958458176744e-04
9.997149972321082989e-02
1.863842590983448844e-01
2.128434981618730348e-01
1.725280919526301637e-01
1.068318476958741714e-01
7.230329201134008676e-02
7.747904364847314762e-02
6.236885640733441649e-02
-1.747524672319232530e-02
-1.130845085190772814e-01
-1.453020302238920980e-01
-1.024820305835756895e-01
-2.463026531519700579e-02
4.745789110266823707e-02
7.784298304996717377e-02
5.676923234208584162e-02
2.176577204983940611e-02
1.560352275893969395e-02
4.174540705031722088e-02
7.770662417658645571e-02
1.074134965856564095e-01
1.322477814505812477e-01
1.578496259911877087e-01
1.752088664956381048e-01
1.694361448744253207e-01
1.472615912563633722e-01
1.290076295460660383e-01
1.109646018230135700e-01
7.102919432502415031e-02
2.752743721775376129e-02
6.529043066863175759e-02
2.494411531643593305e-01
4.546793036402591026e-01
3.303299423793323863e-01
-3.305026371149307751e-01
-1.094772115452923300e+00
-1.135491714803350760e+00
-2.666626167419913207e-01
6.541575033901685376e-01
7.205733845874922050e-01
1.788557178299145234e-02
-6.523071435612119995e-01
-7.638483751231269769e-01
-4.596442223053183174e-01
-1.498685039966589638e-01
-4.623405767763977270e-02
-9.653361295543674836e-02
-1.592941082711262779e-01
-1.497314272917394107e-01
-8.384024740169274126e-02
-3.244398275999964276e-02
-3.648509289463357230e-02
-6.820442859365397070e-02
-7.273840630086973735e-02
-4.194729531205919348e-02
-2.441272869383993155e-02
-4.938678400895819137e-02
-8.176505352105477298e-02
-7.827703394701773787e-02
-5.242471893203731748e-02
-5.903176551389881233e-02
-1.258061186451076008e-01
-2.118999887201606647e-01
-2.438429458442320785e-01
-1.953753264953725088e-01
-1.159944830507679270e-01
-7.285744033512445150e-02
-8.377127568396541824e-02
-1.173151170270783500e-01
-1.343210032431852718e-01
-1.089924814090427047e-01
-3.379957442156848735e-02
6.073780275141298785e-02
1.076328581932955997e-01
6.599389397194334317e-02
-2.646138197762490721e-02
-9.347623886097516932e-02
-9.968653963530915707e-02
-7.203575263301906229e-02
-6.221074491890381947e-02
-9.226458624730392299e-02
-1.068636504087396993e-01
6.324939254818573268e-03
2.561367777100129195e-01
3.637597864081180132e-01
-8.039877592499163061e-02
-1.020437817608970565e+00
-1.652639873340721266e+00
-1.227776178032627286e+00
-1.017699628594946892e-01
5.842947158459048662e-01
2.842854408360700469e-01
-4.431629510679004347e-01
-8.022333266447773115e-01
-6.237673995126327142e-01
-2.742165482082388750e-01
-8.564614891699849630e-02
-8.865304648743332905e-02
-1.470917254576261102e-01
-1.471591619925432248e-01
-6.051935562253894091e-02
6.125425727842314511e-02
1.353645136495941481e-01
1.452507875424263184e-01
1.607671212715292008e-01
2.105788016713672217e-01
2.166778621561488982e-01
1.320665631696391340e-01
3.898908206760014206e-02
2.066496421118213175e-02
3.542656573084585619e-02
-4.155977636538933477e-04
-8.365137821180093636e-02
-1.401785003394306894e-01
-1.220317722130357802e-01
-5.231884670706043322e-02
3.377592997015224294e-03
-5.996975230924267430e-05
-4.441301233512558871e-02
-7.519936326827550421e-02
-6.088573048823103795e-02
-2.218999901586079376e-03
9.142789966431136284e-02
1.978904332758180395e-01
2.736933941452449059e-01
2.830721193786688850e-01
2.318164852609947979e-01
1.590985209427247526e-01
1.012562359341333540e-01
7.080596939016822744e-02
6.095064666276770599e-02
6.103690594482250736e-02
8.376751970766947719e-02
1.863787100046983003e-01
4.061295520055153707e-01
5.952282355810801784e-01
4.028007955281813768e-01
-3.155006804917994123e-01
-1.036303180562373472e+00
-9.400446940698371501e-01
3.306699071533489298e-02
9.524053092853301816e-01
1.009961139382187456e+00
4.081332134961847546e-01
-1.199083389301931479e-01
-2.113901139002458962e-01
-2.147141604791464459e-02
1.813198939615115468e-01
2.846312358115777319e-01
3.193106064588810966e-01
3.515241522744997904e-01
4.137790292094250533e-01
5.020384334415441963e-01
5.991477801004928549e-01
6.853847001868245137e-01
7.370727197144900655e-01
7.339824612964069850e-01
6.827701673401959104e-01
6.248557526536200335e-01
6.023777378212840095e-01
6.174741433165326088e-01
6.335400815761338400e-01
6.174466348808386185e-01
5.763085849431384133e-01
5.465286303660101819e-01
5.575890620330669067e-01
6.173843562925379613e-01
7.069594569061251610e-01
7.773172739146736454e-01
7.876942259073373975e-01
7.539615538227809610e-01
7.306562378376355582e-01
7.576769793060679214e-01
8.417043681598039839e-01
9.600553649406323720e-01
1.066475746944025582e+00
1.114439866003556379e+00
1.087635741855463634e+00
1.011808526101430017e+00
9.424604405161327580e-01
9.271317332857438309e-01
9.633290936421363693e-01
1.007922950406417995e+00
1.044758473155903866e+00
1.123512687665680909e+00
1.288829284830768529e+00
1.437995902283061289e+00
1.301625342691041798e+00
7.300554296977436186e-01
7.618046959849527830e-03
-4.060673588529262190e-01
-4.532243092247995042e-01
-3.203127311176642289e-01
1.715389706527332692e-01
1.203092270590216950e+00
2.163876923889108461e+00
2.208427314109345563e+00
1.401976782492500462e+00
4.553895933371401306e-01
-3.130817567169891236e-01
-9.080539129249028951e-01
-9.820729444535730712e-01
-2.424210769788418263e-01
7.267668330191010551e-01
1.021886750306348679e+00
5.710064140770246821e-01
-6.620746501916316418e-02
-6.740129826546258363e-01
-1.395091343055518962e+00
-2.090252461106822501e+00
-2.378345510472484214e+00
-2.192351312303814748e+00
-1.846034382399718732e+00
-1.619679745397757165e+00
-1.555955008912390802e+00
-1.609214724332201030e+00
-1.761723478125450937e+00
-1.980363571404154976e+00
-2.242190662950243052e+00
-2.586848822751239396e+00
-2.973677273180853842e+00
-3.162323536613159902e+00
-2.925071641110267517e+00
-2.350011842727797173e+00
-1.810701747293091302e+00
-1.598012747580232151e+00
-1.622237184807662658e+00
-1.569593891150634635e+00
-1.344938193936220383e+00
-1.172442392398622690e+00
-1.197962439153578806e+00
-1.248723322253391110e+00
-1.124270353971588809e+00
-8.735326911691199125e-01
-6.443712083005592728e-01
-4.453269458683286608e-01
-1.620675387319557292e-01
1.943050815393200792e-01
2.615920129689709439e-01
-3.998765127133676600e-01
-1.527396560224845379e+00
-1.972323260027613046e+00
-9.169720193483972270e-01
8.712134615118913850e-01
1.727863899858296026e+00
9.784454047745321237e-01
-5.218479421156807518e-01
-1.548401382248927094e+00
-1.539499653286319436e+00
-7.211661883767145342e-01
1.510898983613028213e-01
3.772429378967191993e-01
4.343941660183917031e-02
-1.323699741872290114e-01
1.540045364484575741e-01
3.436442975445276327e-01
-2.089072953561050272e-01
-1.279981803019539122e+00
-1.856968908285867359e+00
-1.280600634302912821e+00
-7.242278664910362096e-02
7.155674693364960648e-01
6.491809650453043146e-01
-4.070473813148428599e-03
-7.784301507270400267e-01
-1.165357632854871150e+00
-9.095567603983873983e-01
-4.085887578929494612e-01
-2.245896916079902217e-01
-2.434698001310055815e-01
9.249498626184537997e-02
8.576101521947069317e-01
1.467014921286527329e+00
1.423623502691793385e+00
8.908575087924947011e-01
3.999829619518908697e-01
2.649029183374985719e-01
4.481036330949870194e-01
7.302919590674054051e-01
8.720921978324763790e-01
7.757568215288883628e-01
5.212855153707540712e-01
2.606159564824085950e-01
1.719455031626876962e-01
3.620625563778171463e-01
6.469078218190340568e-01
6.269990919032846222e-01
1.910839562340489739e-01
-2.245698253922496224e-01
-2.216315003907581294e-01
-1.565854051809633662e-01
-6.296892981843711379e-01
-1.288656281520967006e+00
-1.107367416798975324e+00
-1.123988705947764899e-02
8.131469358462729558e-01
5.055828170535976440e-01
-4.252365660811900372e-01
-9.210008374615475946e-01
-6.206838988650090760e-01
9.912148947733928628e-03
4.219004372463577845e-01
5.175226222483797489e-01
5.364480019337881656e-01
6.564551066964117165e-01
8.613664244959621241e-01
1.128440466930070496e+00
1.453297560825365542e+00
1.692240779104018378e+00
1.675340280388233571e+00
1.445007782743973124e+00
1.216947591462646416e+00
1.179671441643841412e+00
1.342927669057597528e+00
1.497653175722333696e+00
1.394311952562292678e+00
1.024219867849992749e+00
6.404656027705535326e-01
4.675879390624881893e-01
4.739473256273541435e-01
4.742039917120729475e-01
3.958148684684864582e-01
3.515244882207453347e-01
4.349075331784745813e-01
5.260309854269912266e-01
4.083360199127130108e-01
1.156609702605857354e-01
1.671762446971300498e-03
3.057690940652213474e-01
7.893214746419179306e-01
9.493759644709601764e-01
5.369737732951831433e-01
-1.358616971401057083e-01
-4.344210664579065684e-01
-5.086041686921077831e-02
7.000319466021684978e-01
1.265540732366615462e+00
1.337097426082756169e+00
1.076841592922534119e+00
9.876246149394037888e-01
1.261985573708337860e+00
1.366040651997023403e+00
7.742816951219676502e-01
-1.940908207877243066e-02
1.052762125237887980e-01
1.328183709775438981e+00
2.421047603592573871e+00
2.292626521404359963e+00
1.298341990959481773e+00
5.089463451578664088e-01
3.469363060586685421e-01
4.694307263858397139e-01
6.009993371932463857e-01
9.473324308923789516e-01
1.707175417317851940e+00
2.548018559205560418e+00
2.943565875853848102e+00
2.878923370456744735e+00
2.893292276639802818e+00
3.478065185789567693e+00
4.507233222076377110e+00
5.209940958460085092e+00
4.893248080836485769e+00
3.744032464589214459e+00
2.596026433983574577e+00
1.977099752332297955e+00
1.791813943121820074e+00
1.720261251593559582e+00
1.458717900165261039e+00
7.785108703006266007e-01
-2.503226457054739118e-01
-1.196459460788779072e+00
-1.674969341980529602e+00
-1.775456342015789168e+00
-1.936596535163326527e+00
-2.423326163426446023e+00
-3.059267873013513661e+00
-3.494072588082596020e+00
-3.594918988801401927e+00
-3.476120955850652283e+00
-3.308926740062741345e+00
-3.269579927378038153e+00
-3.463505446804896692e+00
-3.720521600699735920e+00
-3.705085469273316168e+00
-3.359293670079453786e+00
-3.011219216412474697e+00
-2.984197334686650382e+00
-3.285740860496854321e+00
-3.662698384377007788e+00
-3.761801981946043760e+00
-3.331360899505586115e+00
-2.584671371992702582e+00
-2.285028982330224334e+00
-2.967128230302904068e+00
-3.985070764905668916e+00
-3.988291222500206068e+00
-2.614333057671947014e+00
-9.951237154823966424e-01
-3.093613436812014394e-01
-5.572966534847164644e-01
-9.833315733668130942e-01
-1.069222048837266570e+00
-8.377508205671120312e-01
-5.358198358214013579e-01
-3.067959846126090406e-01
-1.355000289667351865e-01
1.543800469883976900e-02
9.582348972744755833e-02
4.578999584109721965e-02
-4.952665750882995210e-02
-1.382931339893789247e-02
1.991546040708374599e-01
4.684902193405510729e-01
6.620942393339102061e-01
6.993113559207594365e-01
5.622245616510859190e-01
3.771290346071167199e-01
3.403005480802527849e-01
4.866285618532180113e-01
6.630073846019333139e-01
6.983558391745736671e-01
5.221925384417888116e-01
2.280058862576277989e-01
2.449081429014443589e-02
8.147312213199919828e-03
3.925421313777455179e-02
-5.188781662616745449e-02
-1.830088359088581362e-01
-1.058223279507951031e-01
1.594761990196331691e-01
1.990138987090090683e-01
-2.572283840261716525e-01
-8.551442962016599925e-01
-1.032128219808102099e+00
-7.852789831125519537e-01
-5.317765874115284452e-01
-4.007567486903569343e-01
-2.787171778916553988e-01
-2.227251669044024718e-01
-2.594328506763785569e-01
-1.594485309988810107e-01
2.372641107954591433e-01
7.085169739964403135e-01
7.306344624104225138e-01
-9.052507548091326406e-02
-1.387721492566764470e+00
-2.011705444103921714e+00
-1.231132173903014104e+00
2.059408302526365420e-01
8.858863518746695753e-01
4.110601506919491221e-01
-3.843108307636244891e-01
-6.603154893420217775e-01
-3.734848181749832463e-01
3.422409043745192059e-02
2.319868829609967320e-01
2.091164543308808854e-01
1.349763906588272444e-01
1.424113830981533768e-01
2.383436124542387402e-01
3.598793679825870173e-01
4.511318849679657461e-01
4.908621316835915516e-01
4.926835287918527317e-01
4.900986471536605271e-01
5.028050755589530407e-01
5.181434413048717769e-01
5.227191902800337742e-01
5.391917466230706779e-01
5.940707483173860437e-01
6.520243551776840896e-01
6.373997786376495167e-01
5.441760627039644582e-01
4.680078269250453893e-01
4.903529980471900696e-01
5.837751069945004145e-01
6.695702637843212734e-01
7.159732978217516752e-01
7.450972004450221453e-01
7.892786149055031064e-01
8.648004637791052440e-01
9.515520145898631599e-01
9.931208506251063550e-01
9.499049106913357576e-01
8.465772224945297131e-01
7.461043209465536563e-01
6.925025344961739382e-01
6.933292895943380385e-01
7.342680164618951011e-01
7.861841883339678594e-01
8.171613930424439509e-01
8.358971818503697637e-01
9.080253631599085606e-01
1.036721332004335361e+00
9.886108998761469202e-01
4.372082036343358791e-01
-4.805774459474023708e-01
-9.671867032201113545e-01
-4.060342503046387996e-01
7.108012580949005788e-01
1.264092054465296933e+00
8.490614897944406270e-01
9.180706207900045379e-02
-2.851485656208189723e-01
-1.893755230915631638e-01
4.741202282226528175e-02
1.796147978488747132e-01
2.059216028839703783e-01
2.195665961153134282e-01
2.667844050905454623e-01
3.307218125466254710e-01
3.781528374752035071e-01
3.983663926359103935e-01
4.006874192922604272e-01
3.812523341436115931e-01
3.189171610187480632e-01
2.170629244945755931e-01
1.220922655766546183e-01
8.463385042121546187e-02
1.117385955142068954e-01
1.564990753984516203e-01
1.577571046377257424e-01
9.971893157194075541e-02
2.570305930011970719e-02
-7.860482707927288204e-03
1.797925845205640416e-02
7.352210341514550662e-02
1.160491045903627866e-01
1.372496564051643442e-01
1.582752615944224561e-01
1.817660056239050470e-01
1.859326127287705965e-01
1.674739102312223782e-01
1.522587564209301747e-01
1.531944353250779267e-01
1.439838435507277414e-01
9.663496559379866624e-02
3.099950652889055247e-02
-3.644778921789867954e-03
1.093321379910597302e-02
4.770132746685483427e-02
7.299517024721326186e-02
8.955489155016468916e-02
1.479151402830704842e-01
2.576077695131929746e-01
2.297090328723463415e-01
-2.270193001531299326e-01
-1.010299840294919926e+00
-1.407247484515560920e+00
-8.429468043322931869e-01
2.315137890659820785e-01
7.513140332234231611e-01
3.172277065932664342e-01
-4.565219228168851950e-01
-8.329467539150773314e-01
-7.004734187424587200e-01
-4.053788075965607529e-01
-2.365325490391298469e-01
-2.282706296436749493e-01
-2.751187946570655685e-01
-2.753943369939712005e-01
-1.923423722622420728e-01
-6.158310008721477880e-02
3.618404857457564738e-02
3.903414827201388826e-02
-3.858454897890823548e-02
-1.244369212481137993e-01
-1.646421095709119931e-01
-1.584215868681858042e-01
-1.288725041386534209e-01
-9.917573551519187625e-02
-9.506544065976291202e-02
-1.316042666048199139e-01
-1.907273289151282247e-01
-2.343929101878519106e-01
-2.391437355709192247e-01
-2.084329318799957032e-01
-1.596218170095524413e-01
-1.056706752144744438e-01
-5.880782995748454201e-02
-5.389957730728990593e-02
-1.242423088447500157e-01
-2.232333988952080461e-01
-2.325599899007447513e-01
-1.084139915928458431e-01
4.176141246635371035e-02
8.901335080779865239e-02
2.923173640636511639e-02
-4.531335297078949859e-02
-6.670319899842325206e-02
-4.242860098680335812e-02
-1.464999993834301129e-02
-2.356881386967286246e-03
3.224451081541150621e-02
1.617199691718497756e-01
3.537581664858728270e-01
3.329652514178768619e-01
-2.101181650065447049e-01
-1.079395468238395717e+00
-1.472870580047668687e+00
-8.419696719879681268e-01
2.702707167520226328e-01
7.617274987234353700e-01
2.814451484782399260e-01
-4.944117761940471367e-01
-8.262619941593201123e-01
-6.544096010789068885e-01
-3.664814675482227502e-01
-2.315594217117728226e-01
-2.220734858131339362e-01
-2.037689977097657534e-01
-1.230325207125174125e-01
-1.841094948263089989e-02
5.724419006766378465e-02
8.513789179209607649e-02
8.164279045588637707e-02
7.508818686896477634e-02
7.308014917380087350e-02
5.860403208695014188e-02
2.752384364967443847e-02
9.932545820961126426e-03
3.277652020239749803e-02
6.413264422743591986e-02
3.011241412480746005e-02
-8.631518576354438310e-02
-2.034857552829301142e-01
-2.289770456807848631e-01
-1.527232455695691216e-01
-4.133978697625353277e-02
2.884461084935669231e-02
3.313084765059855219e-02
1.343418094973707066e-02
3.468126287035674937e-02
1.187037112204277767e-01
2.188883529888459578e-01
2.640364476682677264e-01
2.276050969267676416e-01
1.494903437592542406e-01
9.212171288005854830e-02
8.437953140546607111e-02
1.105221560997385610e-01
1.402902460219965786e-01
1.532697896411418237e-01
1.464456790594353408e-01
1.561284529544033350e-01
2.568295019924094480e-01
4.368115704965575552e-01
4.407543374262081759e-01
-6.606275466960109810e-02
-9.512955603557172735e-01
-1.424026301372329772e+00
-8.439138636030500962e-01
3.381577172670239828e-01
9.777188394195075460e-01
5.794172207223039495e-01
-2.593462191753722612e-01
-7.285456147488076351e-01
-6.417164931998923239e-01
-3.393616674278599477e-01
-1.453733511284691915e-01
-1.031464435236504190e-01
-9.425018816854977000e-02
-3.740923545642238501e-02
5.456313234842249948e-02
1.400047544179769121e-01
2.050278161838810509e-01
2.523959626267996970e-01
2.685259853696067012e-01
2.275846637168083553e-01
1.362937934734348155e-01
5.832486869877352709e-02
6.008011517631482723e-02
1.311670643435681183e-01
1.899168947008563757e-01
1.694126933240714949e-01
7.550006410276416391e-02
-3.613516636247908476e-02
-1.097934453278666539e-01
-1.116670758040017170e-01
-4.507677070111755502e-02
3.823083099289188713e-02
8.187155405795505658e-02
8.837862297222555397e-02
1.067281724286288369e-01
1.638030852850300145e-01
2.351396515671876353e-01
2.768366455524757241e-01
2.701413014566069193e-01
2.302096177059777260e-01
1.776773575538556638e-01
1.231955172363489170e-01
8.096978412072147746e-02
6.578090667557108528e-02
7.068153742599242451e-02
7.317921965945842211e-02
7.501120440515146592e-02
1.303942033820896795e-01
2.915680473459178468e-01
4.456230441236043727e-01
2.609179825464327807e-01
-4.360056766780321391e-01
-1.162029389841529703e+00
-1.081469072950852262e+00
-7.866684492671453810e-02
9.035406437090046650e-01
9.396432614085497015e-01
1.579192868557599549e-01
-5.936323541847640106e-01
-7.719007623437814658e-01
-5.169544996415620375e-01
-2.241749486696801852e-01
-8.404733574500677928e-02
-5.400704981712321773e-02
-4.652352701829581827e-02
-1.627098006726576326e-02
5.540582173397524957e-02
1.570118628148876039e-01
2.374483249540944862e-01
2.531274636938126710e-01
2.188859420894459784e-01
1.813849078085922883e-01
1.597912197851421578e-01
1.440782103709404571e-01
1.330288688074589276e-01
1.360642731218406065e-01
1.394155208708499627e-01
1.017525410400641483e-01
6.125128836150513061e-04
-1.232570754857466311e-01
-1.840366548623575960e-01
-1.287161269957163567e-01
3.710889342488404158e-03
1.148146918909370151e-01
1.398269626231887497e-01
1.034305584849310317e-01
8.833197826572332378e-02
1.467287360033184551e-01
2.392724307186132049e-01
2.780186685085888065e-01
2.312405565190348289e-01
1.530170459740549938e-01
1.055818693138994707e-01
9.468227250453747912e-02
9.263721757947517010e-02
8.685333627783406452e-02
8.494497799125444448e-02
9.088424349394394475e-02
1.075577247907287121e-01
1.717459630351058086e-01
3.076114872941959621e-01
3.494651649558871420e-01
-4.310479432373142544e-02
-8.880458393853603027e-01
-1.500095338155898128e+00
-1.125378046016624944e+00
-7.428173598132747912e-03
7.531301888134204203e-01
5.174916037597210305e-01
-2.495945181948986402e-01
-7.425826870092998577e-01
-7.153518844584555447e-01
-4.627977974833554775e-01
-2.717347523556855604e-01
-1.650025665218863846e-01
-7.075757791597828139e-02
1.577450015293990759e-02
8.161681961907653327e-02
1.452916703341349258e-01
2.035526671317545722e-01
2.253322079738841743e-01
2.106733893515392309e-01
1.852226221320564803e-01
1.506614972157959975e-01
9.923832980997417119e-02
6.087251021044851745e-02
7.929993379767297235e-02
1.400514147651376884e-01
1.676496680382886795e-01
1.066882343913135023e-01
-2.274939864592847444e-02
-1.519823382051733729e-01
-2.152987987453423013e-01
-1.822962483704529124e-01
-8.181199513931020073e-02
9.865394116153444054e-03
4.314197406078262853e-02
4.962886947608584343e-02
9.117214438934742593e-02
1.699174100757984140e-01
2.252835440692257385e-01
2.127471634393606204e-01
1.496520504040271815e-01
8.359039961609429636e-02
4.598099680029801850e-02
3.936610128557448129e-02
5.073815020755473998e-02
6.513782000758637503e-02
6.481067832589662570e-02
3.900941376129336835e-02
2.742283987529494163e-02
1.251220829626585873e-01
3.370770914469676249e-01
3.887510981841032498e-01
-1.107496954328019562e-01
-1.063403594549225284e+00
-1.632094185744555448e+00
-1.082900482141896603e+00
1.762252386360256551e-01
9.518354452683399636e-01
6.621837996233759238e-01
-1.454274704467797552e-01
-6.504947789079837950e-01
-6.196141939534306475e-01
-3.441580992422867968e-01
-1.218312829268435454e-01
-1.123105524584824821e-02
5.913495552464886895e-02
1.393957795305146297e-01
2.309131029796253898e-01
3.189361985505485553e-01
3.822996036987850177e-01
3.927563504690975149e-01
3.401175321829312814e-01
2.564684262101307177e-01
1.932347194656433842e-01
1.707925551369243178e-01
1.661931613919014894e-01
1.545585230951591338e-01
1.418157765400467896e-01
1.389999184310866387e-01
1.189785980086212752e-01
3.469870228069365375e-02
-1.041877421175352175e-01
-2.079436373578652519e-01
-1.966104817458024234e-01
-8.776232063044830944e-02
3.480235128997730132e-02
1.107462469162152352e-01
1.387750555026698029e-01
1.457608364242481691e-01
1.446614866240317210e-01
1.273555570362668588e-01
9.004450764011996677e-02
5.193459728325686836e-02
3.804781443411510422e-02
4.639449054592695298e-02
5.562466625471323978e-02
6.713460811118433791e-02
9.821418704373499620e-02
1.275327227310281142e-01
1.124254409964409174e-01
9.102191113271068668e-02
1.779940060879328378e-01
3.420004188770209286e-01
2.499008621110158090e-01
-3.967192376499653617e-01
-1.260959762469963774e+00
-1.464288871616675092e+00
-6.233942167852413174e-01
5.055078056937625242e-01
8.498800597242757160e-01
2.531084070299294275e-01
-5.164432985650140306e-01
-7.748021519559515902e-01
-5.383151547691031880e-01
-2.189260130948877947e-01
-7.206825455052523477e-02
-5.233935275892245137e-02
-1.808383175050747027e-02
8.296449269273567517e-02
2.014649152519451536e-01
2.684616473757234223e-01
2.576218161669664442e-01
1.913209619582350307e-01
1.169297467319933698e-01
7.537374591608839158e-02
7.372480292004474078e-02
9.108198588178087474e-02
1.151291864908360052e-01
1.463108556255096893e-01
1.601873755868106763e-01
1.120938663496501009e-01
1.187474627668173507e-03
-1.067866362458502333e-01
-1.448515554270868866e-01
-1.107955456854090026e-01
-4.898198081250421804e-02
1.100491955159563218e-02
6.946095008770751533e-02
1.270843983298677871e-01
1.739634110915289078e-01
2.031708339872589086e-01
2.109235512546749070e-01
1.900898849084893261e-01
1.440567934220837176e-01
9.648893065392366575e-02
6.859481152388431646e-02
5.793025824865045970e-02
5.709506126853178265e-02
7.590676923088059136e-02
1.111556349193889154e-01
1.165591762624577227e-01
7.418894127776788638e-02
8.091563814260793741e-02
2.258056019759800692e-01
3.227025116263533278e-01
-3.175283238173541578e-02
-8.648125502209043081e-01
-1.436873340208064898e+00
-9.540374933166906324e-01
2.909623944430224096e-01
1.083054334938739816e+00
7.257279503557174660e-01
-2.361116737591693604e-01
-8.537269968640541773e-01
-8.179780683290773791e-01
-4.776737392285188011e-01
-2.134830831966486042e-01
-1.007792243462599518e-01
-4.245062805613968038e-02
3.107503859376970629e-02
1.223450312256753325e-01
2.077162012218047304e-01
2.576439073973060823e-01
2.481695308999802840e-01
1.923490342743533477e-01
1.408924933046812322e-01
1.272062252268380267e-01
1.419226990661398569e-01
1.723338139749929221e-01
2.164648986420717458e-01
2.427779939877517945e-01
1.951986066218519833e-01
6.748149868896688441e-02
-7.080949556352482410e-02
-1.403738324718928898e-01
-1.153821787394656156e-01
-2.818847661457989442e-02
6.182380199233411533e-02
1.140149016762532497e-01
1.321904850592121872e-01
1.409005191728486817e-01
1.504125000935552792e-01
1.542170815499010472e-01
1.446769875132933869e-01
1.240626748225338027e-01
1.039399474798833323e-01
9.131178330967640311e-02
8.218290069272485288e-02
7.799767538732138572e-02
9.397234079312941080e-02
1.283439869348762530e-01
1.424674955929532416e-01
1.187666352285830923e-01
1.249601841468459401e-01
2.400317066101942398e-01
3.612559702655328553e-01
1.616370112157908545e-01
-5.327366282465682001e-01
-1.255849950710369756e+00
-1.177296537175429370e+00
-1.701804215977262003e-01
7.987448416424793862e-01
7.754862881074069403e-01
-5.808632444175197695e-02
-7.790797476999683502e-01
-8.692305209891370010e-01
-5.541101934855292566e-01
-2.603084255134887059e-01
-1.371430690385078977e-01
-8.700928938662244594e-02
-6.523495895671674663e-03
1.066048409349963366e-01
1.960888366644311376e-01
2.147931808782865271e-01
1.630704996741818569e-01
8.577324423373017259e-02
2.575550308482910458e-02
-1.211013557614341353e-02
-2.930855387680702043e-02
2.374394453746342740e-03
9.112956498792250393e-02
1.665787669388448522e-01
1.359591217516947781e-01
-9.736977223175003610e-03
-1.847318324747944385e-01
-2.870518661265734073e-01
-2.652892826393568604e-01
-1.431993215751472537e-01
-7.525385277791084293e-03
6.344900781664900014e-02
7.633482389278538338e-02
9.322556524642211517e-02
1.382507568001057341e-01
1.819873481035761686e-01
1.962573360891747554e-01
1.761188787944835688e-01
1.239946048151635699e-01
4.645441094602823645e-02
-3.135669796274120902e-02
-5.966564205627907652e-02
9.581537704124030996e-03
1.662412204459883247e-01
3.120952258263790524e-01
3.371412917122195152e-01
2.646478785725799310e-01
2.507884789177187157e-01
3.265636623985999076e-01
1.987877330663449793e-01
-4.257743213832569928e-01
-1.219009322907889548e+00
-1.318900821726425310e+00
-3.962276639014610802e-01
7.142938210689218081e-01
9.321446810581759390e-01
2.010551363717608120e-01
-6.189187017288059200e-01
-8.675621706788204657e-01
-6.286723775310369966e-01
-3.054331441758748600e-01
-9.403506618633397651e-02
5.064365919904385838e-02
1.837597217437099417e-01
2.694731943342937308e-01
2.679909896756948462e-01
2.156457087359412439e-01
1.723910004536754192e-01
1.438514624636863803e-01
1.068112463346295865e-01
7.088423367643285899e-02
6.825621198875379825e-02
1.066203025941196147e-01
1.608638279233594037e-01
1.895575276301813550e-01
1.468355756041341553e-01
1.981441191809856991e-02
-1.276853684077849105e-01
-1.959798303949658871e-01
-1.525362156825449400e-01
-5.774246294617475794e-02
1.531618542061322433e-02
5.033148638913120115e-02
7.891136357997667605e-02
1.337296331101559821e-01
2.093260200280512018e-01
2.594921872609715630e-01
2.447713149644133446e-01
1.797583508219905424e-01
1.172833298329032659e-01
9.083262074250604556e-02
8.963690939026608406e-02
9.047088463282065840e-02
9.575646758300362937e-02
1.254071745106327684e-01
1.719291913104248060e-01
1.893410780015215011e-01
1.690651802167322248e-01
2.039944317760900572e-01
3.493330563917708687e-01
3.753146087621200278e-01
-1.035324820494371856e-01
-9.947905247938347850e-01
-1.466700452466077387e+00
-8.369262056295116992e-01
3.919881315133404431e-01
9.992384446427191591e-01
5.103712885798324939e-01
-3.810096284153480228e-01
-8.170599944729299846e-01
-6.655985150542396145e-01
-3.459233977366209523e-01
-1.792716467038384109e-01
-1.324322087305264684e-01
-4.702103989321672339e-02
1.015102159072940186e-01
2.112052568468432145e-01
2.132960557315592420e-01
1.456701508754863761e-01
8.670661466319801169e-02
6.983676378731595857e-02
7.584365766175234225e-02
7.918339375089464283e-02
7.864389938214660924e-02
9.020684220880770265e-02
1.205187256746338420e-01
1.471925034879119631e-01
1.293285334370718742e-01
4.325069599543057697e-02
-8.625597026150447211e-02
-1.882437011977549646e-01
-1.982114022972683021e-01
-1.204267010476438304e-01
-1.747406507690215868e-02
6.570740145207917826e-02
1.369225926621987777e-01
2.114348283864460332e-01
2.659435520103726747e-01
2.615736536845062465e-01
2.002214557784817717e-01
1.278610230039502194e-01
8.205670571533514590e-02
6.852993845540210349e-02
8.615239541450149530e-02
1.372280436752764121e-01
2.082653369544515964e-01
2.587012159817820289e-01
2.395200113093544358e-01
1.493040977584051132e-01
8.237914715467004045e-02
1.421607978180711995e-01
2.116235531975012019e-01
-7.592149949349875915e-02
-8.434704955645910829e-01
-1.480928658667184594e+00
-1.158555015574471936e+00
1.850316908795263116e-02
9.388514358916197899e-01
8.008421983835820601e-01
-2.807234222862428630e-02
-6.609532376721125591e-01
-7.090992886239343429e-01
-4.193753104655306707e-01
-1.511873570551033330e-01
-2.137471326973626115e-02
3.684030399702643843e-02
9.329172888549264187e-02
1.530944734454373346e-01
1.888083413566499502e-01
1.840564418563509219e-01
1.507922666867813621e-01
1.212382580928142439e-01
1.189820811206777351e-01
1.323728911543327613e-01
1.338649190694374547e-01
1.321150288670903394e-01
1.660230509584827152e-01
2.233106715360146377e-01
2.145534229350201938e-01
7.534223930846327411e-02
-1.341841357737877938e-01
-2.700657812326474061e-01
-2.380324007488222593e-01
-7.791092173935228182e-02
8.068605744132900659e-02
1.469012332686830680e-01
1.426171500879978848e-01
1.434001533551683139e-01
1.760078814135075109e-01
2.017918731010653055e-01
1.845295182400079337e-01
1.380162106380995735e-01
9.742957831892001819e-02
7.007346104868861225e-02
4.109967574230408149e-02
2.099951965402556062e-02
4.930942614338364172e-02
1.271503171247403141e-01
1.829200378809634764e-01
1.619791238297130787e-01
1.325894686884566687e-01
2.123349181353416659e-01
3.266585126361128411e-01
1.282458046912368088e-01
-5.947038143938929711e-01
-1.378506907390389058e+00
-1.367407609439650340e+00
-4.009302162301014993e-01
6.109720238205466059e-01
7.366082507876602348e-01
6.087639093568537885e-02
-6.176530761398667524e-01
-7.715368501242079180e-01
-5.147353658470947835e-01
-2.131987783456860130e-01
-5.599814700109100735e-02
-4.651945653788213883e-03
4.231875315664912485e-02
1.280237971156455434e-01
2.246798045671387356e-01
2.821217610844632406e-01
2.780765311138281848e-01
2.307951230991706071e-01
1.731675719943653879e-01
1.270170034114953550e-01
1.078842169668433604e-01
1.331501398466635733e-01
1.989633240889321086e-01
2.568813180558978670e-01
2.389839799564494605e-01
1.164525447196619323e-01
-6.596571897591382849e-02
-2.106308933269122052e-01
-2.347676935080611760e-01
-1.444227122157634713e-01
-3.286832399246668313e-02
2.165139372485886185e-02
3.405525912199355160e-02
6.320055920760135615e-02
1.216341941996511716e-01
1.662627037097147986e-01
1.587904212355397693e-01
1.102495739069172948e-01
6.230379300366528650e-02
4.183747792567512475e-02
5.122240186947135676e-02
8.757530480732336753e-02
1.451268162568778441e-01
1.980488621006930572e-01
2.032438225773655072e-01
1.512701799360429700e-01
1.142968360410969997e-01
1.809373584648668876e-01
2.767610411168024420e-01
1.064595911055774280e-01
-5.136907445833160946e-01
-1.191940868425949152e+00
-1.164828618612959055e+00
-2.511449455914515072e-01
7.216479680036880229e-01
8.276513585739575518e-01
1.058844749905340360e-01
-6.394633648650638325e-01
-8.378487168038660782e-01
-5.937305583497343164e-01
-2.984607147248920511e-01
-1.541085108927263414e-01
-1.066808723962277272e-01
-4.016206801985272579e-02
7.474745118873343808e-02
1.767929105699769521e-01
1.983667050208100524e-01
1.419320736290075047e-01
6.964514363043800005e-02
2.580426256045738678e-02
2.589096410086566200e-03
-1.200492655599993269e-02
3.919322496841275844e-03
6.713809684413504786e-02
1.398696021278791057e-01
1.585644234879758918e-01
1.017397856831163822e-01
-3.567196863865251810e-03
-1.233419557084834556e-01
-2.229611774844217076e-01
-2.524992961172278783e-01
-1.775983946107409783e-01
-3.128321870368493129e-02
9.920883024797137739e-02
1.543933902518014600e-01
1.512601939857727007e-01
1.403894749579384094e-01
1.389177656934046379e-01
1.253080817318386886e-01
8.892051287218531719e-02
5.533878597787774550e-02
5.503615829200064063e-02
9.399606114060309048e-02
1.607250906075263219e-01
2.309313562064735648e-01
2.627521484606248348e-01
2.299450247750067788e-01
1.861075648497467483e-01
2.420802470838000764e-01
3.721438935845691742e-01
2.747609093667996438e-01
-3.115960964348259421e-01
-1.041148082164836230e+00
-1.087360169394139486e+00
-1.751050746323914442e-01
8.644355662410084795e-01
1.015797840464122803e+00
2.645515974206761878e-01
-5.524758080451057651e-01
-7.970814424654961705e-01
-5.341232974932265121e-01
-1.823279104426765995e-01
-1.678126715773781141e-02
-1.984666412102442309e-02
-4.003730713326342228e-02
9.852302997375998045e-03
1.009227735121302344e-01
1.576551597177895392e-01
1.403488705396729874e-01
7.871976337998137785e-02
3.360913334628010118e-02
2.564699855089530231e-02
2.921757753334333282e-02
3.859124253971901036e-02
8.076320073544285272e-02
1.398535771566911945e-01
1.376249693057970125e-01
3.668149167783873316e-02
-9.066627024489362641e-02
-1.467266260037546621e-01
-1.162660300627861854e-01
-4.947584921557706544e-02
1.290229249315390063e-02
6.058099571372494579e-02
9.908409415930197195e-02
1.394562431687211002e-01
1.843345892073991188e-01
2.182301904490782096e-01
2.219892182442466111e-01
1.960575351607914685e-01
1.597089115874459897e-01
1.281006321491004185e-01
1.035391756262670632e-01
9.225173972878257522e-02
1.119323284531458240e-01
1.668069580512548944e-01
2.207005120402632248e-01
2.222737491092573181e-01
1.858534676888588533e-01
2.096072729960795356e-01
3.032295115057452861e-01
2.079365302300237306e-01
-3.615331694093767423e-01
-1.141317628094126402e+00
-1.311125165130787362e+00
-4.646045128736767671e-01
6.661678986612098452e-01
9.770656070310376196e-01
3.039821900871630955e-01
-5.319240005016790951e-01
-8.185765434340640523e-01
-6.027273003448812005e-01
-3.153467483783017888e-01
-1.816467256125363083e-01
-1.314126149729258619e-01
-5.637405484937203087e-02
4.159374322831095594e-02
1.068032684070248650e-01
1.123348398798141301e-01
7.577701043074616671e-02
3.658723546607110105e-02
2.403135729385522806e-02
3.328610422407227154e-02
3.778599996105300868e-02
3.346795170006530706e-02
5.109545312141085260e-02
9.948117428022740238e-02
1.177830344909439747e-01
3.205984478761519929e-02
-1.421413674987491715e-01
-2.947400731049997780e-01
-3.225809959097054036e-01
-2.167221060126037491e-01
-5.810113628197722396e-02
6.254799669733680789e-02
1.217449329016781490e-01
1.537298595482635144e-01
1.805118868392562859e-01
1.908094435074119688e-01
1.789804527274362622e-01
1.563927635367783620e-01
1.271630309800549918e-01
9.082770063541240058e-02
5.971373055982202860e-02
5.038116599632362635e-02
7.214659720966316858e-02
1.198503400698359839e-01
1.545718510552209768e-01
1.278046614088495792e-01
7.304747678764701713e-02
1.183894321282171064e-01
2.943984632998744577e-01
3.338232046234351769e-01
-1.283137346227826991e-01
-9.647866292426995338e-01
-1.380501651368645888e+00
-7.610437496561521797e-01
3.996135253339941906e-01
9.552411329682869434e-01
4.675826321650672357e-01
-4.039206656128673800e-01
-8.418826493932413113e-01
-7.041011585117167293e-01
-3.634070556697462928e-01
-1.261182485270483100e-01
-1.554026587389851013e-02
5.948258147376085658e-02
1.370168470828578289e-01
1.941182691617501788e-01
2.090412944783126004e-01
1.948289254296703132e-01
1.747306806926512690e-01
1.440077605534889060e-01
8.707839853879989489e-02
2.865746199745453776e-02
2.943053206698987428e-02
1.160040080617831121e-01
2.310261478295488891e-01
2.693508994250222721e-01
1.721462993910761186e-01
-1.769753706279872732e-02
-1.942641403353442542e-01
-2.658642345572294619e-01
-2.027838796730752347e-01
-5.338590653914904172e-02
8.551592555746537205e-02
1.541416024479002611e-01
1.800384714020397403e-01
2.164752997511227850e-01
2.560919355824612942e-01
2.461232660321185650e-01
1.781917903119958346e-01
1.141872016373277759e-01
1.044897115228695939e-01
1.221548265388592847e-01
1.123917808466772666e-01
7.917459561856848849e-02
8.181878946849296952e-02
1.404559866885746744e-01
1.833883462907120732e-01
1.453376998729747349e-01
1.032908050103724384e-01
2.006534901584389186e-01
3.604494358294393908e-01
1.950996929418797876e-01
-5.332202830470252897e-01
-1.333576703216536208e+00
-1.297012398074881334e+00
-2.554878121254312018e-01
8.178021091914087215e-01
9.333411656912254939e-01
1.929880213873101102e-01
-5.487116009640835568e-01
-7.308862921190513173e-01
-4.714663181654098478e-01
-1.679444845662801944e-01
-3.464099466349707113e-02
-1.517862934198832905e-02
2.790702689127727912e-02
1.342988148074319987e-01
2.383212905730808517e-01
2.754744978083505380e-01
2.490350276620209025e-01
1.998281684630042188e-01
1.586131989792426977e-01
1.421101552094545806e-01
1.580716849369294685e-01
1.962948590056443898e-01
2.356742660130731193e-01
2.637166514983959043e-01
2.675691069360913721e-01
2.098113669448647689e-01
5.140412093781102781e-02
-1.747377042541110592e-01
-3.350896199221057858e-01
-2.999986215375324838e-01
-9.235823369828037588e-02
1.285832647581371391e-01
2.430081980931937946e-01
2.625624765077481659e-01
2.536213282069035291e-01
2.462275118915829841e-01
2.295193668467967463e-01
1.919691491103815983e-01
1.433932675816315672e-01
1.028143738868898954e-01
7.747116636915106491e-02
6.032535517096114519e-02
4.807050453741574386e-02
5.254778599020058089e-02
7.540838231191543395e-02
8.403795420580811859e-02
6.694307949632875843e-02
1.029816688245020623e-01
2.482292601689261857e-01
2.930586944983943343e-01
-1.575641716547265536e-01
-1.083269974172118566e+00
-1.697421832814280274e+00
-1.221120660287763560e+00
-2.119506233197177014e-04
7.589113600674931570e-01
4.408306189733448011e-01
-3.748719678611160955e-01
-8.195476377096604370e-01
-6.882816405387292003e-01
-3.503902710035975421e-01
-1.392322006597977446e-01
-8.050769852097772183e-02
-4.609751440617887441e-02
3.645134346062120501e-02
1.321436239950306568e-01
1.720208415375261701e-01
1.379834678129507608e-01
7.710145804746826315e-02
4.639565795780931090e-02
5.868684139721810911e-02
8.733483915206641246e-02
1.130312417924917573e-01
1.471293367013893350e-01
1.957414065531074832e-01
2.181591418352581968e-01
1.571648294337182339e-01
1.118235949575456870e-02
-1.477560409905801786e-01
-2.269702313184881470e-01
-1.834669692958061649e-01
-5.992369352809356203e-02
5.484184220055018238e-02
1.153959921208955464e-01
1.490366599891540522e-01
1.875642000935053566e-01
2.128090336678657712e-01
1.952072454884622721e-01
1.479342041918135786e-01
1.065041623104460156e-01
7.874339151783142643e-02
5.388501902634727087e-02
4.573595082217446484e-02
8.284133012023627007e-02
1.554883567320141102e-01
2.027587225124479475e-01
1.685415266305517468e-01
7.860834316620862738e-02
5.035730754232005391e-02
1.612991054060280705e-01
2.464866372505352121e-01
-6.040665473021092358e-02
-8.231693471608401147e-01
-1.391952315088856640e+00
-9.842454366209703043e-01
2.072556732854926032e-01
1.049615199589287728e+00
8.039684951330406948e-01
-9.571316682566169409e-02
-7.467714776389977605e-01
-7.819111719372840996e-01
-4.796034368431660866e-01
-2.129092145620049004e-01
-7.392676874647188812e-02
3.205476484846641466e-02
1.511910551419128890e-01
2.339848437156707150e-01
2.397229285225203066e-01
1.931415734914738447e-01
1.420876499676471116e-01
1.103884430588815413e-01
9.871037520007937272e-02
1.013500188617434267e-01
1.156623687091246772e-01
1.452584639321703452e-01
1.897893368036541462e-01
2.322336500771060852e-01
2.443700633773083497e-01
1.960685500526810343e-01
7.010920184625391016e-02
-9.111008215728262638e-02
-1.787601828157732164e-01
-1.236217762681040971e-01
1.944514233535434705e-02
1.427403159156248047e-01
1.961482688284720555e-01
1.940092907694015156e-01
1.677872682785406522e-01
1.474549658252113093e-01
1.506453644605504349e-01
1.624515883954625317e-01
1.543452862306997631e-01
1.367680869095241059e-01
1.519320978992741711e-01
2.041866389023819783e-01
2.493913056226845504e-01
2.517243905190394981e-01
2.046558158019385343e-01
1.290567821035606411e-01
9.776904658485378874e-02
1.971015091970114985e-01
3.535839891531469825e-01
2.355760689998412649e-01
-4.189170192712369789e-01
-1.243307462756020776e+00
-1.366170324992517893e+00
-4.635892480713051933e-01
6.353430739156122886e-01
8.644456848429380447e-01
1.628916880230689701e-01
-6.356944773226796963e-01
-8.785733707871730136e-01
-6.279877758347510719e-01
-2.891941352626316020e-01
-9.951146401738537872e-02
-3.069692559481585967e-02
2.132359305034734961e-02
9.079410684012907684e-02
1.506503726686231615e-01
1.757318037401009447e-01
1.638977092270643143e-01
1.230297343786776049e-01
6.642357272206064756e-02
1.749681286862779517e-02
8.047323524852930537e-03
6.131895319614637935e-02
1.566454964281567830e-01
2.160829069888656750e-01
1.638405405457052655e-01
9.316683355733750699e-03
-1.545684925197300941e-01
-2.393247018207068089e-01
-2.249144171505227940e-01
-1.440667444413773202e-01
-3.941637815067338541e-02
5.732357507871688879e-02
1.284750731645235566e-01
1.702171746168136268e-01
1.896081382659852710e-01
1.875817608854947194e-01
1.457053082830798707e-01
5.934253669907908757e-02
-2.402411944547815786e-02
-4.486469286740578377e-02
3.651788491959325270e-03
8.924626194482951358e-02
1.843407533149626354e-01
2.575105602716325492e-01
2.598242491480459160e-01
1.695307210140109544e-01
5.392333745743311396e-02
4.978822424792821166e-02
1.978903954491498807e-01
2.547921081896845075e-01
-1.569033371633450635e-01
-9.747115462396324093e-01
-1.441757550406433719e+00
-8.857881815931372138e-01
2.910032641480312932e-01
9.398651459949042275e-01
5.218718616450902514e-01
-3.666025750332742583e-01
-8.591872907725796038e-01
-7.344732147053673055e-01
-3.588602280221741547e-01
-9.249159933883277507e-02
1.092214996401999483e-02
5.777779315616442257e-02
1.007149770733469923e-01
1.169474443889222809e-01
9.283018793861358420e-02
4.913146962798780465e-02
5.971306361026697263e-03
-2.730726792793938817e-02
-3.493876048176657728e-02
-3.099968410336590915e-03
5.714284219944733983e-02
1.197658734162723587e-01
1.687405525555507879e-01
1.892541026554652450e-01
1.466955560561497007e-01
1.524597854616462425e-02
-1.621626408806459974e-01
-2.792039817151655834e-01
-2.588854411061318750e-01
-1.264386307512094798e-01
2.735745171324821534e-02
1.386675051938665582e-01
2.002525291963397625e-01
2.236484673751581165e-01
2.204888138037473799e-01
2.040399482985855717e-01
1.742056717383530517e-01
1.233753139898116219e-01
6.512402184697149710e-02
3.125154405682484954e-02
4.628039398234955193e-02
1.124038304228716090e-01
1.988154461381412275e-01
2.451081194962940191e-01
2.017595276351379086e-01
9.078173777110906673e-02
3.017295110510284650e-02
1.422723867686352950e-01
3.402363045209064185e-01
2.539281507187953757e-01
-3.675020487376630673e-01
-1.095878587523056558e+00
-1.068282947986972875e+00
-8.792489826530160146e-02
9.222183874061449238e-01
9.691965150044400401e-01
1.452239172605466477e-01
-6.503424350612627691e-01
-8.296565847053181120e-01
-5.568827037087714649e-01
-2.592066194574010329e-01
-1.079091721253322284e-01
-2.197287011341250360e-02
7.516888579299473017e-02
1.524717251780083882e-01
1.617581274982187733e-01
1.247115769125364676e-01
9.720710645734860489e-02
9.197083080732273985e-02
8.214172841096871458e-02
6.222998426741700728e-02
6.513197217982695519e-02
1.155976337139664328e-01
1.840468152833220072e-01
2.013091691824976937e-01
1.260738224214854597e-01
-1.281674536341880985e-02
-1.500075694604268151e-01
-2.375013623043589206e-01
-2.484070559747206530e-01
-1.643409439314981180e-01
-1.186610508395330443e-03
1.691444868740088481e-01
2.625275575938275652e-01
2.546133013771081366e-01
1.933207375974124453e-01
1.415788220990486512e-01
1.220762564377802922e-01
1.172682858768702985e-01
1.099527005919790773e-01
1.064743743568929563e-01
1.153895391324741004e-01
1.310338846594609197e-01
1.520699905748645331e-01
1.829837747233888645e-01
2.044510071077693114e-01
1.800059121490313052e-01
1.222675817792005376e-01
1.306425746453444836e-01
2.765671191091375603e-01
3.850242833815802346e-01
7.215654121687706257e-02
-7.241555568185029657e-01
-1.330624681606999982e+00
-9.581254841383028964e-01
1.746167454114906370e-01
9.208443313920722240e-01
5.875914764900883602e-01
-3.143251906240582261e-01
-8.630712624421799095e-01
-7.615356461190082582e-01
-3.703599535943862264e-01
-8.403022059874748484e-02
2.231378787895064650e-02
5.698163809063048341e-02
8.692294124617529205e-02
1.021547018431312459e-01
8.876805448110132446e-02
6.192291482614111636e-02
4.763445037799160509e-02
6.232149450582072370e-02
1.038884544655716696e-01
1.506695443709867022e-01
1.788258793052306395e-01
1.904842524886888877e-01
2.044772235570802843e-01
2.064349532378211005e-01
1.408748955752984755e-01
-2.134897526880701751e-02
-2.265345521986254773e-01
-3.649928317402260092e-01
-3.535534226525169910e-01
-1.995333295944327068e-01
1.517980614375207676e-02
2.056267280970804912e-01
3.160672272620672629e-01
3.145294931600693955e-01
2.194550162128553472e-01
1.106003040823266975e-01
6.132323905026555722e-02
7.712699384832424898e-02
1.190741902314328693e-01
1.558935814206746651e-01
1.832450700060693771e-01
2.167349562974736910e-01
2.660485379914627746e-01
3.025350294636705017e-01
2.675650952334075461e-01
1.400475947578720959e-01
6.176222202920323215e-03
2.993384241831222037e-02
2.559534328926955093e-01
3.928668307618073396e-01
-1.087006502184211312e-02
-9.132221782205758309e-01
-1.492037141750118812e+00
-1.010357233402449761e+00
1.208784195842436682e-01
7.415902591851046832e-01
3.620022435863307075e-01
-3.999495580802608918e-01
-7.557558923548273189e-01
-5.739040024274822960e-01
-2.157474046661903011e-01
2.884418103072828449e-02
1.350257614131971373e-01
1.727044854643973726e-01
1.705371165380941689e-01
1.397885450137738295e-01
1.108258131336898183e-01
1.029662217461586454e-01
1.009270334659884416e-01
9.364579855716254064e-02
1.075845486654577327e-01
1.641265927149727355e-01
2.283240800922633484e-01
2.424108670082734673e-01
1.936519305623112253e-01
1.127208424012458299e-01
2.081970273534652915e-02
-8.467693361086607584e-02
-1.962216159640932933e-01
-2.721436467337638443e-01
-2.540381485031797393e-01
-1.201022376676106895e-01
6.920484547913074991e-02
2.052348134876923191e-01
2.300474404955196450e-01
1.804859299730285360e-01
1.292027066041238625e-01
1.093367578350957769e-01
1.015251192139174363e-01
7.403464454762585800e-02
2.976241250470375299e-02
1.087014342540001260e-02
4.735345727703206553e-02
1.149270824073075903e-01
1.605167370551247863e-01
1.495990862493919993e-01
7.582343587106495086e-02
-3.420172150475614403e-02
-9.035395961195676062e-02
1.824651632773941629e-02
2.245459562515725593e-01
1.663114685080268607e-01
-4.544383247619720456e-01
-1.267712140084445549e+00
-1.374860427384376749e+00
-4.501090929574267929e-01
6.602953909627322648e-01
8.937452078877247130e-01
2.045715963198139475e-01
-5.745592701830644078e-01
-7.988371354944093783e-01
-5.279679119685636302e-01
-1.588176861385992567e-01
6.444846865946650405e-02
1.361034591736327570e-01
1.274383676244736363e-01
8.629172203158400056e-02
4.548283044447791468e-02
3.631943593640012125e-02
6.644580234378956451e-02
1.090154761447978821e-01
1.377748846250565484e-01
1.593373096264318611e-01
1.866675461462199981e-01
2.049505315617892176e-01
1.966531157621660419e-01
1.668985031511633077e-01
1.099397069505368418e-01
-2.938287755231073356e-03
-1.638901500818306101e-01
-2.994647353874728135e-01
-3.292060052091687061e-01
-2.305028451857391580e-01
-5.476375496925672132e-02
9.912296765805661547e-02
1.548107502623163600e-01
1.177953870080627879e-01
4.798440326414831619e-02
-1.004864393072312997e-02
-4.621160584605862875e-02
-5.887421229534473693e-02
-3.743493442929923809e-02
3.180231566588038322e-02
1.453897412042415016e-01
2.645248282199310630e-01
3.292054096207218672e-01
3.045139854330341511e-01
2.038637441766999181e-01
7.105646457692739448e-02
-2.545033307925643334e-02
8.322526469387256723e-03
2.031901732893037771e-01
3.682279175163533091e-01
1.391748185567631968e-01
-5.666390245935792880e-01
-1.167237406103173170e+00
-9.111657679607498839e-01
9.798469210839877430e-02
8.518704167461322863e-01
6.377488974867794314e-01
-1.727222234992271399e-01
-7.385061439078585144e-01
-7.139205817610730920e-01
-3.641217050241540854e-01
-4.789311987863536374e-02
1.146542338407773309e-01
1.699361807583316675e-01
1.744816754834311590e-01
1.609657856548921961e-01
1.497630520802717691e-01
1.385433084181547647e-01
1.183968047349498454e-01
1.056425347598367870e-01
1.238708469142772023e-01
1.658830205475593234e-01
1.999709850006387846e-01
2.044488659942172437e-01
1.806293213564172384e-01
1.350142174103610426e-01
6.238008739839133454e-02
-4.194811444394494493e-02
-1.560750040262343652e-01
-2.294089785349409938e-01
-2.098240540379177343e-01
-8.282068949693240090e-02
9.540704856099516129e-02
2.173538401778122853e-01
2.127600662957583322e-01
1.148125125099908744e-01
1.895098698826507347e-02
-1.357817248965079854e-02
4.599608576253189085e-03
3.380124482970538191e-02
6.519550840493426591e-02
1.148411722657475681e-01
1.785221228168160923e-01
2.234335745789439442e-01
2.237244647455229329e-01
1.800733919541289973e-01
1.050892958334956884e-01
1.590782829586204900e-02
-4.221936888551023476e-02
1.945379370127382074e-02
2.407215279623626802e-01
4.219080605328768829e-01
1.713211513727104229e-01
-5.663863483042318459e-01
-1.125216471583334155e+00
-7.598300388197467559e-01
2.817870517270786301e-01
9.021838712126482029e-01
4.980361680104501421e-01
-3.823579292928161455e-01
-8.517002463018571445e-01
-6.709237620664194601e-01
-2.455920608013238970e-01
1.121774588909364018e-02
4.091147040998467654e-02
-4.063026912436370347e-03
-1.239938718800355152e-02
1.971067910683385604e-02
4.855094967763851077e-02
4.177346955038337833e-02
1.217004991512793746e-02
1.582874490637224685e-02
9.004469221739551388e-02
1.915561497181812456e-01
2.360528153326500733e-01
1.976746084789167690e-01
1.279755063951147076e-01
7.469158460108696329e-02
1.805499371530935176e-02
-9.190208930128924980e-02
-2.473686913655903652e-01
-3.572870087592318611e-01
-3.210696423946457490e-01
-1.302147096566526607e-01
1.027675298165848516e-01
2.315829376679679474e-01
2.061982203738629005e-01
1.098918301443534140e-01
6.498757616109787638e-02
1.129542511505936681e-01
1.919269063986536183e-01
2.226908971141104698e-01
1.960858144819811466e-01
1.649279653515774990e-01
1.720813065675619868e-01
2.099792035052297501e-01
2.377530567377485471e-01
2.165144224593223143e-01
1.318873771736367162e-01
7.126585091938636776e-03
-7.777715993243668191e-02
-6.350488025020743776e-04
2.603982491409341793e-01
4.315926531001103017e-01
7.595711618361494777e-02
-8.010986313584677054e-01
-1.425557548245467654e+00
-1.029990774626104555e+00
6.378520211541310880e-02
7.150388597144805569e-01
3.618506388866100099e-01
-4.176326454016371925e-01
-7.901778044731251338e-01
-5.798769388599678276e-01
-1.702862381642981093e-01
8.603629994748057674e-02
1.279134127818547795e-01
6.266401175281753611e-02
3.296026701608296278e-03
1.284323518713903836e-03
4.261232773867820040e-02
9.165179522114223765e-02
1.420279228768526192e-01
2.075409397155553171e-01
2.748632154180469800e-01
3.048993423870775543e-01
2.813374714161350210e-01
2.230173696223335944e-01
1.522965514346940330e-01
8.198287076737674484e-02
2.412062807221258126e-02
-1.384388485597755694e-02
-3.538216283769303472e-02
-4.044381092078980222e-02
-1.220824411181521685e-02
5.793754215863503726e-02
1.371140853153819117e-01
1.736171955661978961e-01
1.534491498154699762e-01
1.118484329430302487e-01
9.075739614447722592e-02
1.032890939405322617e-01
1.404157528221642304e-01
1.880291797903067275e-01
2.226197456170320443e-01
2.143873039901798283e-01
1.596405255647173338e-01
9.729009471034111289e-02
7.277237346082202074e-02
8.610043883662636677e-02
8.613931718385360592e-02
3.335951441392923794e-02
-1.249446451890956662e-02
9.750301951325994476e-02
3.824286352094244390e-01
4.901107078476956702e-01
-5.829148165713723961e-02
-1.110811469196311352e+00
-1.675139604055589260e+00
-1.018479536831156773e+00
2.387358391857893058e-01
7.963028997337753268e-01
2.644954092151572400e-01
-5.705424937437276744e-01
-8.919219804426926634e-01
-6.502128387660145448e-01
-2.740803144174741579e-01
-6.829615852845036250e-02
-3.072051323030097411e-02
-3.359864939058281041e-02
-1.274037297796205490e-02
1.623739001061885734e-03
-2.971378972503459573e-02
-7.325648794106358330e-02
-4.622699631287925659e-02
7.649529822725083250e-02
2.126938279426907052e-01
2.533910146426023302e-01
1.767278576468183648e-01
6.590164326638021930e-02
8.638313140135460422e-03
-1.184762720857684450e-02
-7.802724031748987932e-02
-1.830273187164217219e-01
-2.033795981254251928e-01
-7.266435656030283130e-02
1.039777332029975104e-01
1.756609782027964972e-01
1.189767356724249214e-01
2.567373924196363760e-02
-2.537504721959881263e-02
-3.032086892550399024e-02
-2.237022902333428431e-02
-1.323516261599241156e-02
1.342433738856483455e-02
6.703963883088950859e-02
1.336270672758568812e-01
1.854021862370477114e-01
1.935542399901760413e-01
1.502567946529023701e-01
8.263709739494369544e-02
2.112373542671813764e-02
-3.607409954353930914e-02
-8.335234095933578835e-02
-4.300305107634884438e-02
1.597852113155729947e-01
3.763324756677178251e-01
2.086516112847518478e-01
-5.179667484476955241e-01
-1.254618975636697664e+00
-1.147566638823531715e+00
-1.530095186567848320e-01
7.448168893645679134e-01
7.033511841742987603e-01
-3.638552272821084232e-02
-6.264729885819237953e-01
-6.274204506266485293e-01
-2.709298506215842561e-01
2.919903576656676658e-02
1.171053210437280612e-01
8.534278300065145650e-02
5.038555109094076945e-02
4.323699224774840005e-02
5.452791092539224782e-02
8.521307433225638883e-02
1.386588434699332073e-01
2.051014476888891325e-01
2.593927008279376945e-01
2.661306811147927665e-01
2.119826971235583557e-01
1.360033762551432490e-01
9.186333744199275120e-02
7.762523459403791737e-02
4.030655540514847812e-02
-4.378500663630578715e-02
-1.270020310895874083e-01
-1.421522286602459328e-01
-7.396857711963264470e-02
3.151382028784038142e-02
1.121430353374214539e-01
1.381602781012801207e-01
1.253690838474154634e-01
1.047068038048402788e-01
8.669949821774683429e-02
6.782423265184044092e-02
6.437381749215501103e-02
1.100561874163915599e-01
2.019949736259857298e-01
2.751628331197768507e-01
2.644624340308663890e-01
1.825548324865140515e-01
1.163322715813487340e-01
1.407830938063436010e-01
2.239149310018217764e-01
2.480322305684949935e-01
1.841624303253914796e-01
1.839288059191015456e-01
3.588409544937350981e-01
4.818695364842267015e-01
1.290327933342027278e-01
-6.914191174952947216e-01
-1.238982565130354985e+00
-8.065774979574498182e-01
2.653673338925303105e-01
8.856169153028502494e-01
5.397867139239820311e-01
-2.183734414077256325e-01
-6.134257862105751968e-01
-4.804359330480681423e-01
-1.683600977834323054e-01
7.715144039507855489e-03
1.852258488452732110e-02
-2.004318062141601312e-02
-3.828738728604572789e-02
-3.487584769259843148e-02
-5.094980886051254758e-03
7.120321028166812227e-02
1.784526985636556984e-01
2.584178265554333831e-01
2.705928747271415524e-01
2.273006945018443414e-01
1.630938670299165172e-01
1.081859801459015141e-01
8.755492484248771079e-02
9.357638871106122025e-02
7.266352756389585221e-02
-6.187199227292361145e-03
-9.468684494079437908e-02
-1.207346053516313994e-01
-6.672959907396466828e-02
2.680823122223558938e-02
9.766090658623602372e-02
1.049060829420798840e-01
6.365530437469144043e-02
2.409028586036117067e-02
1.841781096931002781e-02
5.294222973174794733e-02
1.245451171363132908e-01
2.110532843194725394e-01
2.737346991969564769e-01
2.892400061736287165e-01
2.611845199190558353e-01
2.081344580747530315e-01
1.513894461956419857e-01
9.714215869783963953e-02
3.450296573461060501e-02
-2.442413487771237166e-02
-6.739345444532942458e-03
1.682944204055960569e-01
4.179389221540950605e-01
3.943695952760089551e-01
-2.163330274536275910e-01
-1.124304809283961815e+00
-1.453855877956338194e+00
-7.302912886140354720e-01
3.750096037220216894e-01
7.773292646368967773e-01
2.675830615110567079e-01
-4.212486968976565382e-01
-6.421250632481897425e-01
-4.290645937103140795e-01
-1.575659898340384391e-01
-4.355949622157212486e-02
-5.100659959032022989e-02
-6.334630236114000001e-02
-3.205705728272528754e-02
-1.266689512862558507e-03
-2.277915707132239023e-02
-6.354271909733537338e-02
-3.649400844955896089e-02
6.986086134164679051e-02
1.555499583389689799e-01
1.373999370985344581e-01
5.516854747396230524e-02
5.012532895654429194e-03
1.194470046164074033e-02
2.038507141166667758e-02
-1.256953740974387813e-02
-7.215733528812887099e-02
-1.285741049265828329e-01
-1.653891691268251918e-01
-1.601474989854763664e-01
-9.528036047228673200e-02
-2.687574995561100872e-03
4.935314517277456653e-02
3.052891161615657253e-02
-1.478565541285817991e-02
-1.598876894652018557e-02
4.872188154691763085e-02
1.377436283723561528e-01
1.979235960322123233e-01
2.075140891318051350e-01
1.753357487972425632e-01
1.273602515262018120e-01
9.556158303203092508e-02
9.854922057229538457e-02
1.193905705404907647e-01
1.142527708447897139e-01
7.566530414239683311e-02
8.589319067466257007e-02
2.321360933405801907e-01
3.956340586491691735e-01
2.175742663807724853e-01
-4.760236639999092523e-01
-1.192627900704750221e+00
-1.122338185947272526e+00
-1.868406408527798213e-01
6.917733355438866472e-01
6.757826183778216089e-01
-3.692572749072293992e-02
-6.332585613560200999e-01
-6.833807020349003114e-01
-4.119179183114016762e-01
-2.122825454128333955e-01
-2.027172432467490848e-01
-2.396222207375065805e-01
-1.839642639236296895e-01
-5.734960861096069507e-02
4.609851328773617585e-02
1.014907924222947788e-01
1.359622204215478469e-01
1.443355590502530261e-01
1.059072466348909697e-01
3.902085455283735987e-02
-1.498501755123460635e-02
-3.592698107742235691e-02
-3.286021774779836896e-02
-2.668059164390882559e-02
-3.318802405850779930e-02
-5.752518780301458384e-02
-9.864785515591480147e-02
-1.479845895397423616e-01
-1.821474922879164071e-01
-1.731878413981984555e-01
-1.164895912499612912e-01
-4.225861977810033837e-02
7.885845432813365710e-03
2.145286347265577820e-02
3.489320596523338286e-02
9.596310160011189971e-02
1.974935175148894995e-01
2.771167709660101730e-01
2.900286284143904769e-01
2.467562548451490423e-01
1.834305815357779867e-01
1.343229029298302069e-01
1.211534979817882052e-01
1.340349073269913871e-01
1.351343785051244695e-01
1.066186815249804409e-01
9.344057277291596686e-02
1.834198882698188648e-01
3.964408866753977856e-01
5.340034952730234874e-01
2.348182385272872819e-01
-5.692568153309669476e-01
-1.264188229604838121e+00
-1.053261116789022456e+00
-8.218890464129074980e-03
8.549530698523786221e-01
7.722769836870100324e-01
4.568838696321801673e-02
-5.200010788299057607e-01
-5.548960383334103907e-01
-2.815678732115206584e-01
-5.256618690680691514e-02
-6.767742656315738070e-04
-4.285762065589483055e-02
-4.751888854305627574e-02
2.307998587286273426e-02
1.064274852404139965e-01
1.466980086272442196e-01
1.524274505687163717e-01
1.536053459056176407e-01
1.625335274233934701e-01
1.743079395575011237e-01
1.708647123581440441e-01
1.400900710677920324e-01
1.035760082673385651e-01
9.594154718351922961e-02
1.111090648265703473e-01
9.988305766264929386e-02
2.863967320105374401e-02
-7.415710242729137147e-02
-1.341494785397392697e-01
-9.625331755411797863e-02
2.049214165606008317e-02
1.343341856749045993e-01
1.726770198479380958e-01
1.394344906035795140e-01
1.092443183811116492e-01
1.455199386388589533e-01
2.310180977865713137e-01
2.911783227211315328e-01
2.756015787828616226e-01
2.029114100194086556e-01
1.312821895836917829e-01
1.002776368241228427e-01
1.064620195596427121e-01
1.233176542928869912e-01
1.309992487005126882e-01
1.290475190957033336e-01
1.416253053174064136e-01
2.215252553208037212e-01
3.888085406183399151e-01
4.790250476322592266e-01
1.512418354450245639e-01
-6.686054665893015336e-01
-1.364452832337105459e+00
-1.135002596021742249e+00
-8.336107140578927210e-02
7.431641734366000174e-01
6.152149773724473469e-01
-1.115760565696150147e-01
-6.465687257475976057e-01
-6.673228623372952084e-01
-3.966227088193892136e-01
-1.491972959389374354e-01
-3.483566573947723122e-02
9.253603072767662557e-03
5.936335529619220230e-02
1.204831987806810611e-01
1.624929830289130184e-01
1.840060420095811777e-01
2.078642324958558107e-01
2.344966552699591922e-01
2.367759520670889017e-01
1.988447230708802749e-01
1.411103632107424677e-01
1.084616464313983702e-01
1.289842594764309125e-01
1.743319425377398701e-01
1.765204159400371453e-01
9.268768179457582967e-02
-5.527807930527680463e-02
-1.958100549418563541e-01
-2.556624833046826084e-01
-2.137632666049449903e-01
-1.203865429667083792e-01
-4.652686239276082603e-02
-8.207006293392181406e-03
3.329740516622926860e-02
9.852502450725057759e-02
1.593944605193003128e-01
1.819431399124993853e-01
1.613325993842881501e-01
1.131450482422740877e-01
5.704263936435060439e-02
1.453074642214160182e-02
4.315735499938648002e-03
2.738240839845343388e-02
6.158538725938116076e-02
7.589609741846163604e-02
6.078583069305019959e-02
6.369265272276766754e-02
1.688896518209810904e-01
3.558769220980023129e-01
3.491444902398872507e-01
-2.108838717429969423e-01
-1.201278622768622739e+00
-1.776087969813235912e+00
-1.193210470758159225e+00
1.252349624727687460e-01
9.387968204733799782e-01
6.387174475327616063e-01
-1.950203609100369939e-01
-6.903763944700590516e-01
-6.112914070355579543e-01
-3.003878673752828909e-01
-9.686317622388200543e-02
-4.409680331108020712e-02
-2.569919509373888231e-02
2.951230750629126737e-02
1.067385869400637594e-01
1.670530905689199264e-01
1.908450385286635798e-01
1.768557148039374971e-01
1.337631747129418291e-01
8.282507770959618432e-02
5.018741495969506611e-02
4.928749131343047180e-02
7.900851246575291142e-02
1.240203160981707131e-01
1.446559213976341962e-01
9.820960743806810000e-02
-7.596228512876987415e-03
-1.114419161043067041e-01
-1.612362992364495262e-01
-1.519687362318427604e-01
-1.093028577009720198e-01
-6.802034268827139574e-02
-4.583343720204070826e-02
-1.701719651765749158e-02
5.498986923142861610e-02
1.524599644693350464e-01
2.117495801552513879e-01
1.972354503752761223e-01
1.332120523717459926e-01
6.959484186826370156e-02
4.106647143453090454e-02
4.765006548976510881e-02
6.325061881243884687e-02
7.301118540007837943e-02
8.465528363490984476e-02
9.111293679992643613e-02
7.435947367232235983e-02
7.542171298551895997e-02
1.767455638888043301e-01
3.134464514038217686e-01
1.693520406429545599e-01
-4.858382934810818177e-01
-1.262429365795594061e+00
-1.317635354919094448e+00
-3.868412026045791041e-01
6.893628701591687502e-01
8.978258641831626807e-01
2.190692240186647155e-01
-5.356971871767229887e-01
-7.628818661151016700e-01
-5.443607743647543851e-01
-2.717940244409344785e-01
-1.627245716296393807e-01
