2.024620585501600845e-01
1.563854452430551989e-01
5.163389094962202164e-02
-2.003003598839251179e-02
4.707862487198562901e-02
1.912240533754639704e-01
9.638782645641186253e-02
-4.711034068774053174e-01
-1.162849134355455005e+00
-1.261986199749136395e+00
-5.953874181553978628e-01
1.811546614170233827e-01
4.051635766737766708e-01
1.072608249160134503e-01
-2.448649163438234577e-01
-3.379238874546267035e-01
-1.998345241683080753e-01
-7.680221024358252491e-03
1.235102895521108662e-01
1.856510374677033670e-01
2.100870548837097396e-01
2.114270797603781671e-01
1.881069084292401605e-01
1.453266224509066340e-01
1.013931296338783788e-01
7.069033001530408700e-02
4.862349196818215730e-02
3.484306338631690952e-02
7.113638717768551445e-02
2.032779739026155663e-01
3.739937181228970009e-01
4.263345812754602004e-01
2.859781516770491527e-01
7.388937738194514826e-02
-4.066761101096408315e-02
-3.524346624908544778e-02
-1.781996891115371698e-02
-6.774954404389903206e-02
-1.452636367819933050e-01
-1.507005768480030317e-01
-5.164497571334905612e-02
7.650605589593523215e-02
1.433892255558113782e-01
1.343309362896555337e-01
9.153877814486002795e-02
5.436983938254559556e-02
4.291516909574727423e-02
6.229789653475055478e-02
9.851629406226232455e-02
1.281997998636769387e-01
1.412935302257235792e-01
1.410845056681522269e-01
1.249575180795832463e-01
8.593986978518260156e-02
3.299317951293192358e-02
-1.586074881464116099e-02
-5.828087908123128630e-02
-7.948910446405849095e-02
-1.141865228824721912e-03
2.294545998546049792e-01
4.199541998263891518e-01
1.742271766633308461e-01
-5.802904016325840519e-01
-1.245366484026951603e+00
-1.156259561577235528e+00
-4.477744381971193177e-01
1.348948892618462292e-01
1.771328745014856543e-01
-7.787553579851651253e-02
-2.217411711724532053e-01
-1.282929810464860099e-01
6.983657617684990715e-02
2.078448706975548066e-01
2.206196052520063566e-01
1.406223348766217351e-01
4.441831599363055272e-02
2.619599070491364715e-03
4.056440731139544092e-02
1.276708492763375391e-01
2.147781553621590789e-01
2.750132560563098294e-01
3.006470700723818945e-01
2.874725076003376012e-01
2.410781577687244881e-01
1.825142801221200095e-01
1.338142770816335425e-01
1.007384082202762571e-01
7.765572510925586314e-02
6.902318890955840003e-02
8.995070112763317582e-02
1.311910107469857478e-01
1.367786235664732175e-01
5.492980460344739496e-02
-7.900594185036571848e-02
-1.612742863128581727e-01
-1.440121074894651909e-01
-8.403166457335040085e-02
-4.857855835717109216e-02
-3.352981891077644327e-02
2.684395610335121862e-03
6.902209729852576414e-02
1.313892656154912464e-01
1.546983958472434306e-01
1.356297639595838989e-01
9.470260970501793996e-02
5.068187051650653585e-02
1.069043402777987775e-02
-1.966056577647507658e-02
-2.479005102749810840e-02
8.555813032085517189e-03
6.078618769559681473e-02
9.075950062572776811e-02
1.098294211802757075e-01
1.999881735939078309e-01
3.545357978458981707e-01
3.129901583463224335e-01
-2.143235355097803663e-01
-1.015104005696250367e+00
-1.369055616832718814e+00
-8.794493777249146049e-01
-2.481106477104430552e-02
4.391433479338578416e-01
3.299897501387634158e-01
2.086690652353319353e-02
-1.405980467116544896e-01
-1.240799472238187512e-01
-6.374074738610747970e-02
-3.852152950756519006e-02
-3.182155012843194963e-02
-3.758716541476929754e-03
6.131476294477730682e-02
1.502663240080026053e-01
2.249607887408828222e-01
2.432295219372709039e-01
1.968798234827183746e-01
1.194709001438406526e-01
5.016423542804383795e-02
3.204828657421327290e-03
-2.232118626397174357e-02
-2.006285774732936844e-02
1.654831160751514540e-02
7.279940140974076879e-02
1.203959418728746678e-01
1.406718521528860788e-01
1.255375327097129068e-01
6.659269773696044337e-02
-4.069721479829281618e-02
-1.747414958295862020e-01
-2.738664090504620008e-01
-2.663463433720932305e-01
-1.294990521506753367e-01
7.981284969769530946e-02
2.540255288788263455e-01
3.091408560658843174e-01
2.466061359003015596e-01
1.362996808642396029e-01
3.943701470014022992e-02
-3.362627819829384218e-02
-9.337480173944487372e-02
-1.308917424332892154e-01
-1.208058659367707288e-01
-4.747366203734058876e-02
7.749953000957261751e-02
2.108063445109571721e-01
2.868015186674808814e-01
2.503066834922660355e-01
1.213163140850593152e-01
2.950924638105395167e-02
9.256067088652919495e-02
1.871856350043380190e-01
-3.261036601720372630e-02
-6.603970474854791162e-01
-1.178843800213831727e+00
-9.813585189060485270e-01
-2.133868248569235071e-01
3.774997446476897611e-01
3.757164669162135207e-01
3.726517060661907466e-02
-2.133871815189071208e-01
-2.364012899380700250e-01
-1.380143397694726937e-01
-3.634206920770024357e-02
4.243801383043310088e-02
1.134888863431283285e-01
1.689093800759329800e-01
1.867873143903967803e-01
1.692376086768558885e-01
1.383095051112947227e-01
1.083792215711369411e-01
8.652834909487065740e-02
8.460297202365596458e-02
1.104598670885025002e-01
1.581963336669486575e-01
2.108166612661996620e-01
2.409880914013222963e-01
2.229851636558658479e-01
1.601559541162702605e-01
8.721561003770283982e-02
3.597873433769692431e-02
3.940542085617355222e-03
-3.958237713348045778e-02
-1.084964445279747725e-01
-1.652100333940893229e-01
-1.532504846864998493e-01
-6.606750509955829076e-02
3.839961432290149579e-02
9.278432401791522621e-02
7.417279146751104557e-02
9.601269983416966733e-03
-5.168850217169949218e-02
-6.998360633714119372e-02
-3.687288577886775609e-02
2.159916296092763768e-02
6.822920540594004657e-02
8.617537980328479619e-02
8.284863921249005503e-02
6.991771514423697487e-02
5.275026890508828503e-02
2.953783965424316635e-02
-1.294733665522086394e-02
-7.726335221219496341e-02
-9.807021748800470728e-02
3.758746735316472604e-02
2.955129901602650544e-01
3.375488934060817403e-01
-1.887443186979061993e-01
-1.053902036251586960e+00
-1.466149955369228097e+00
-1.001993568089346587e+00
-1.826217952438519143e-01
2.132328095698678427e-01
5.438977752224719714e-02
-2.192176885730349190e-01
-2.508257274414248394e-01
-6.001144643125137790e-02
1.471812551261108548e-01
2.248765759898625205e-01
1.576006178938967051e-01
2.514002422739106124e-02
-5.705079611233730003e-02
-1.854933482101340722e-02
1.157668376378793162e-01
2.585144112176278597e-01
3.304249188995981301e-01
3.117314368353688026e-01
2.430985630390265495e-01
1.683016636376262476e-01
9.704679904603495666e-02
3.357962434770922489e-02
-9.994453014026538976e-03
-3.659498359521720645e-02
-5.190931563125714826e-02
-3.744814030512740033e-02
1.680182634396361341e-02
5.237364951774558380e-02
-2.848303579662012780e-02
-2.216797504645076355e-01
-3.652087949868458860e-01
-3.238913651610842992e-01
-1.696247798071137680e-01
-6.539123189316031759e-02
-4.704067248731521461e-02
-2.797770184498322640e-02
4.591043970268585128e-02
1.381447486154100401e-01
1.905501503889530657e-01
1.874280387121217140e-01
1.487936034679680497e-01
9.377684347563940148e-02
2.930904439423616045e-02
-3.210573800769406932e-02
-6.615980592790701720e-02
-5.795539941371253417e-02
-1.836784295738901757e-02
2.631887109535043651e-02
6.990602480344791647e-02
1.581722138449328519e-01
3.246596492994738847e-01
4.165323692238271369e-01
1.030372738172746494e-01
-6.755630606046314490e-01
-1.344033629878991887e+00
-1.215503040845440808e+00
-3.859815475296314302e-01
3.552873898285047738e-01
4.893015541473325625e-01
2.107874803758306714e-01
-3.308979549226465783e-02
-5.741459576127523612e-02
3.801702410818835753e-02
1.135233856245393830e-01
1.377996766774222392e-01
1.535034833637624885e-01
1.898159527044478434e-01
2.405547920517515648e-01
2.930369608405414827e-01
3.416538637047393245e-01
3.780388879860276385e-01
3.805023863708790199e-01
3.219931098810722703e-01
2.074609408907648889e-01
9.305683940320647052e-02
4.124407339323536703e-02
6.904468770141228284e-02
1.497302987951202313e-01
2.412469109313019333e-01
3.078432882825091754e-01
3.284557475971758289e-01
2.879642536334933167e-01
1.725447034566679472e-01
-5.139229028009612357e-03
-1.803146972889723421e-01
-2.627413875042523550e-01
-2.058497532139571817e-01
-4.681090228873899250e-02
1.235650788693602037e-01
2.247533801630023365e-01
2.302621885597710971e-01
1.716723500537531144e-01
1.038172679826138284e-01
5.586703705819993926e-02
1.953780817073290377e-02
-1.578650295108165527e-02
-3.688408000191320535e-02
-2.236645850992751913e-02
3.326812954172052306e-02
1.149575132922667775e-01
1.854239579366735169e-01
1.892473048609294439e-01
9.980578425226241390e-02
-1.369835682828592083e-02
-7.329158848259915982e-03
1.626419007543885298e-01
2.572706149829092626e-01
-8.372695319857606511e-02
-8.005774454488595593e-01
-1.239610940521840288e+00
-8.895548252232073905e-01
-9.531972887434270181e-02
3.719945243827411652e-01
2.406560006028704013e-01
-1.349300773504014117e-01
-3.565535412827081641e-01
-3.511239792096915169e-01
-2.466319724212647224e-01
-1.388274991262122005e-01
-4.118947912870834366e-02
4.635634971040100694e-02
1.064863693444408621e-01
1.267346741266950350e-01
1.131017618381961465e-01
8.283269714321893351e-02
5.414640235079126729e-02
3.475140592948551543e-02
2.023931340233440027e-02
1.187380872703351110e-02
2.585507599029330389e-02
7.218472539616679895e-02
1.282271921380255530e-01
1.458910013526511507e-01
9.812607334459592934e-02
1.277431893281111459e-02
-6.232561380056397121e-02
-1.209459289536727183e-01
-1.894935550442339300e-01
-2.578219805534631148e-01
-2.633401264316316270e-01
-1.638340364251434644e-01
-1.069302636855038596e-03
1.301859353929753493e-01
1.678793019121036512e-01
1.246155936233921124e-01
5.516232324016374922e-02
2.246244802707736757e-03
-2.234276966363228645e-02
-1.707422554536839471e-02
2.664519925101551182e-02
1.055619177790021040e-01
1.803248918056712669e-01
1.997661142969588965e-01
1.552686703216919206e-01
9.027341551047513013e-02
4.969781190573070717e-02
3.517974184596450032e-02
2.765639793701047885e-02
5.879816024507467098e-02
2.017687836304568050e-01
3.908198893920890593e-01
3.090182322582736840e-01
-2.737032668653533451e-01
-9.965463679638231209e-01
-1.142142253441723598e+00
-5.500062783192389837e-01
1.370701874948467291e-01
3.089753316846907127e-01
4.149159074134405045e-02
-2.116764526943203939e-01
-2.071905593656159505e-01
-3.967904738911280649e-02
1.058072453341662722e-01
1.581436253721272833e-01
1.531726357270686567e-01
1.325065309223268095e-01
1.010265141672261058e-01
6.084988536431915063e-02
3.832573264323846374e-02
6.526542823683634253e-02
1.502782910338578137e-01
2.542342281705639029e-01
2.787209096384507534e-01
1.342765088359341441e-01
-1.248674709235858271e-01
-3.008570472686296071e-01
-2.690598995081412426e-01
-1.190435063566865903e-01
-6.072847996609540694e-03
3.357499175324376445e-02
5.120796242909082807e-02
6.659941755327600243e-02
5.033847096282069444e-02
-7.379036125320180724e-03
-6.018847183916658378e-02
-6.283401075752291509e-02
-3.909079903170756959e-02
-4.358321050308475858e-02
-7.422505327304926293e-02
-8.050801553492692442e-02
-4.626383691599516429e-02
-6.121890493401518918e-03
2.018900108721969136e-02
6.062198086398699198e-02
1.360729807945209868e-01
1.966248540268779321e-01
1.603567855531412012e-01
3.187391034103831400e-02
-7.653300860978012876e-02
-7.861891796723963211e-02
-1.432451619959867681e-02
2.117428876906368718e-02
2.219442421393389570e-02
1.021298952424798678e-01
3.073332040559647593e-01
3.869911829577417084e-01
-5.254073736225833846e-02
-9.437441590351811627e-01
-1.534899935817346739e+00
-1.204345142631513266e+00
-3.075968697872351054e-01
2.813711599214024361e-01
2.577716705954640197e-01
3.635187124839894118e-02
1.263477813689897408e-02
1.295035643732821151e-01
1.569347215089354486e-01
6.216896473951639274e-02
-1.960462546432783018e-02
-1.602497225694061132e-03
8.804634492415538971e-02
1.834078747351751137e-01
2.531683867522065978e-01
2.999958969418353161e-01
3.217061305829193585e-01
3.055884714466792773e-01
2.528997397039337569e-01
1.816550208869696370e-01
1.120125263483452566e-01
6.695006748532629504e-02
7.160115118316406901e-02
1.247867949959718947e-01
1.809142988066995694e-01
1.877561469171582509e-01
1.389845268243878607e-01
6.647892790555608167e-02
-1.396990330509614679e-02
-1.077801725375006486e-01
-1.862896793861815725e-01
-1.867224050509929401e-01
-9.059975170493743402e-02
4.690881351848985581e-02
1.601431668184627177e-01
2.272397815523970466e-01
2.553675773169829522e-01
2.460227272195883996e-01
1.955594829179346794e-01
1.201032146859299377e-01
5.607678487269932011e-02
2.623225390197568216e-02
2.540371195819612904e-02
4.917249006161843183e-02
1.019376699027530198e-01
1.620092905001833394e-01
1.801177879502555146e-01
1.314152440147186851e-01
4.791546754353155635e-02
8.092903531669838613e-03
9.025144641561895498e-02
2.459814398308433347e-01
2.018102402667131534e-01
-2.943635119243792064e-01
-9.925981862650391507e-01
-1.213872419010506132e+00
-6.668304650911159870e-01
1.196219947458805333e-01
4.446327274602104307e-01
2.082612661883800065e-01
-1.729115370395343521e-01
-3.343731099445181876e-01
-2.352649262638351613e-01
-2.675550501182374225e-02
1.504822652231154467e-01
2.451059208154345581e-01
2.759949006693713791e-01
2.803428699359439280e-01
2.695441069486056995e-01
2.314971907116568084e-01
1.718679637626658596e-01
1.217561749530592652e-01
9.615224530112938262e-02
8.521419251478283552e-02
9.292055679589278361e-02
1.353802126200071843e-01
1.914101712517424225e-01
2.030037470089434415e-01
1.449950607590495266e-01
5.830873626653002018e-02
-8.623395498886006136e-03
-5.809488121660203591e-02
-1.182068184082912810e-01
-1.918876840792765603e-01
-2.489335637988613070e-01
-2.446961946763748508e-01
-1.546387473457808970e-01
-1.419438902030465896e-02
9.730772016326150187e-02
1.236279269625128602e-01
6.509889429794271654e-02
-3.311542577106708907e-02
-1.033165751102873425e-01
-9.893752018902951528e-02
-3.792340980794915717e-02
1.896156321857483604e-02
3.853896167682002022e-02
4.549739787985059708e-02
7.737704321578552091e-02
1.251937639993096207e-01
1.389839130271899592e-01
8.786980139080502461e-02
-3.718715025221452572e-03
-6.109959578446902406e-02
1.755129530559039128e-02
2.683885321836129711e-01
4.996676554341433762e-01
3.308649379435295024e-01
-3.499612743115834146e-01
-1.020458595570844285e+00
-1.011340264772074615e+00
-3.712137252390246833e-01
1.912963661359793899e-01
2.151878601647171929e-01
-9.082995943053873145e-02
-2.949029983920826159e-01
-2.316650612001548426e-01
-1.734349136484378620e-02
1.742690297879807837e-01
2.509892611682460473e-01
2.114221106261124639e-01
1.080198124052277886e-01
4.809000640797048143e-03
-5.907161693421442150e-02
-7.649902345461405406e-02
-5.199785336480334391e-02
1.134308781102902688e-02
1.011936457884287238e-01
1.781088293878937967e-01
1.880552807521745917e-01
1.162679240484751492e-01
1.190122760736417665e-02
-6.413140012384274669e-02
-8.983830800407877071e-02
-6.969212824735772360e-02
-1.345709287174068174e-02
5.129707101684363030e-02
7.283252965855176175e-02
1.503165037249317056e-02
-9.020038040252732758e-02
-1.581950339798554594e-01
-1.419530916787117847e-01
-8.359451319884686482e-02
-4.866113201379779207e-02
-3.814336616575624006e-02
-5.657137582311973396e-03
5.839052288764236959e-02
1.108678851492161943e-01
1.230409236640339216e-01
1.141378678496239307e-01
1.101161229388164520e-01
1.090781055329013288e-01
9.363323155274097531e-02
5.418539864204627299e-02
1.950775847238676863e-03
-3.247175738117639293e-02
-2.658585102788711685e-02
7.340711332817812136e-03
5.756402471005480498e-02
1.680330058565283891e-01
3.495229357173924578e-01
3.862438464664717519e-01
-4.851163449933973415e-02
-8.533098953611889526e-01
-1.335924437645252594e+00
-9.902880600390657762e-01
-1.917521471649107634e-01
2.978898505970198896e-01
2.460082703697285822e-01
5.077808889011173332e-03
-8.395715034723123804e-02
-9.364472839273395993e-03
7.535911324189699390e-02
9.007676218088662978e-02
7.250191347703657807e-02
8.507945273740738501e-02
1.355555747428115188e-01
1.844894937897033071e-01
2.090349707665315748e-01
2.307789172089050878e-01
2.644560534796772111e-01
2.721679655231881712e-01
2.074294018538999640e-01
8.353364282949220232e-02
-3.421833901831115854e-02
-9.275993745761507148e-02
-9.025928512251707447e-02
-5.525078019966250809e-02
-5.254280921140033235e-03
5.430870255818732312e-02
9.646281482890076142e-02
6.882154388247156696e-02
-5.269583689044815555e-02
-2.100782130754611232e-01
-2.964620115088276719e-01
-2.615172792111096212e-01
-1.550948714499678638e-01
-5.462549202350332200e-02
1.197803508292740078e-02
6.013659008610724305e-02
1.032099613576193120e-01
1.308230884462687482e-01
1.195988131039277952e-01
6.054405538248913698e-02
-1.918709070863327745e-02
-6.479698034913204674e-02
-3.821264006769062305e-02
4.002402444597950165e-02
1.085902455313687981e-01
1.271721750822518981e-01
9.467437840020939688e-02
1.841576939826600895e-02
-7.641925660207053717e-02
-1.060195119593751178e-01
1.013387237355743362e-02
1.636184610153419428e-01
2.326116835462408577e-02
-5.666348612954246189e-01
-1.158323574771754627e+00
-1.074789371399416771e+00
-3.146280116248921788e-01
3.731325507144059306e-01
4.231678422008401941e-01
2.567133555862305405e-02
-2.968126921868358692e-01
-3.047198394537877775e-01
-1.257101304509269935e-01
4.124341573952719497e-02
1.326964850943662122e-01
1.847201283365188518e-01
2.268183157025782659e-01
2.508717216992870647e-01
2.360815184968869107e-01
1.763555942906051832e-01
9.453776982093531345e-02
3.720936380953210332e-02
4.460461567675445826e-02
1.152195533137008038e-01
2.040022522841835328e-01
2.619321614182561486e-01
2.760538043151756216e-01
2.653392225358263135e-01
2.413583772817806672e-01
1.947676559997836288e-01
1.254559076600776646e-01
5.286031478998035049e-02
-1.755608929138973914e-02
-1.018575758771763512e-01
-1.873089142526283557e-01
-2.069389160975416697e-01
-1.096396302776899007e-01
5.493873765574032453e-02
1.699242147664843938e-01
1.701992029567891140e-01
9.232734718144830488e-02
1.729308542790863532e-02
-1.422910756668600493e-04
4.729349992954889198e-02
1.311840110814141147e-01
2.049716093920641025e-01
2.290659073662047740e-01
1.974753242815937559e-01
1.389459690881373888e-01
8.981742165470213424e-02
5.868450976170810907e-02
1.227608977019076231e-02
-7.756623167470919067e-02
-1.494404103532109840e-01
-6.263690291702357638e-02
2.076278085995659772e-01
3.697286517485393609e-01
6.602655979480164319e-03
-8.230153149007236602e-01
-1.382996453211736254e+00
-1.056697183676714946e+00
-1.717863521532480287e-01
4.084725726811689328e-01
3.231666203688663974e-01
-5.601372400322648937e-02
-2.424035154816124860e-01
-1.258470767077040364e-01
9.805408359268188989e-02
2.403955694386103736e-01
2.701673820797391712e-01
2.419947121269525603e-01
1.918588871199210788e-01
1.331488691597186580e-01
9.726514841911476639e-02
1.225927253936449635e-01
2.041053972692523921e-01
2.820160966091556642e-01
2.944428603542433853e-01
2.388477184872330739e-01
1.733781574119708235e-01
1.461722020220927454e-01
1.263773024780864285e-01
4.157923502148718614e-02
-9.849489080194846757e-02
-1.741853759362050891e-01
-1.004132265989690631e-01
5.245868808484396850e-02
1.337429841135660269e-01
7.671429895296509593e-02
-4.422848553630407548e-02
-1.091610571853245254e-01
-8.471727346048735230e-02
-4.001745592746371039e-02
-3.731854350911863183e-02
-5.481899480998049523e-02
-3.890077116406868291e-02
1.404425753521559676e-02
6.673373102653751276e-02
1.009348389557077064e-01
1.263719682914733744e-01
1.415342299103104495e-01
1.238131841258693355e-01
6.584010684932224688e-02
-5.677397507431688507e-03
-5.618627673802411432e-02
-6.891186188667025592e-02
-4.940445956324772403e-02
-1.645581061422341992e-02
3.903494894220296829e-02
1.721657947883077633e-01
3.521852195366232396e-01
3.045604434963593565e-01
-2.627935185640949411e-01
-1.113279309907676762e+00
-1.491278936339569539e+00
-9.971600343442479364e-01
-1.375135891596840632e-01
3.131058692428622670e-01
1.772275417762021466e-01
-1.500552868924501793e-01
-2.862488037185196288e-01
-1.791910546277340477e-01
1.053569171546066274e-03
9.276313346290795958e-02
6.913759235607025433e-02
1.358145428273851638e-02
1.053816625432144397e-02
7.205834277332603954e-02
1.526697337533524101e-01
2.032526043924475223e-01
2.054173435405587944e-01
1.673196412358776974e-01
1.043421681826537106e-01
4.341719768952020941e-02
2.700962677580667770e-02
6.772220053171904008e-02
1.163680303277038058e-01
1.264171099561066935e-01
1.204049064144424586e-01
1.402003451819187063e-01
1.678771558936294483e-01
1.391877245079646275e-01
1.565928993706140401e-02
-1.639810151672446703e-01
-2.950130048784578851e-01
-2.946606107702498534e-01
-1.832341482576426706e-01
-4.504640088691995448e-02
7.097517704458575216e-02
1.640722279434976283e-01
2.261104213805300578e-01
2.359593787812265253e-01
1.977484360736792846e-01
1.357188298221442824e-01
6.136131944727330617e-02
-1.239012206003164279e-02
-4.503995719353560967e-02
-5.422132632607124317e-03
8.096212306653166602e-02
1.548691308653710463e-01
1.731923496441729327e-01
1.243402007698212186e-01
4.169510131445747225e-02
2.282635969593397457e-02
1.496754694865707891e-01
2.958048169937474436e-01
1.158791840027528081e-01
-5.210362803266800347e-01
-1.130140516173696597e+00
-1.047661960032498563e+00
-3.101450485457561412e-01
3.484111515013422200e-01
4.070261034058898497e-01
4.879582343274346812e-02
-2.507192644263773196e-01
-2.678880968103983795e-01
-1.067954847973969501e-01
5.346471326585804790e-02
1.550753284165622969e-01
2.323071833000228681e-01
2.889097599937152649e-01
2.862922660751957560e-01
2.226825856077695731e-01
1.416220802084224017e-01
7.286220816216441853e-02
2.110500783290043120e-02
-3.065354369045755929e-03
1.726313538042014914e-02
8.053526537878076541e-02
1.601784545087712730e-01
2.196928989075687677e-01
2.327031654403860783e-01
1.984271908746527147e-01
1.384435723579306443e-01
7.405611812428018748e-02
9.372574370302349384e-03
-6.608266057340793365e-02
-1.561523395996746999e-01
-2.264446837948904667e-01
-2.138379217473264926e-01
-1.043510418237054149e-01
2.404761040477388506e-02
7.923601172627056655e-02
4.765608909369577900e-02
-1.926915702001724684e-02
-7.361298783290623482e-02
-9.860644050904202040e-02
-9.422306153001316908e-02
-6.130404433190065477e-02
-2.159837806975106050e-03
6.759791303266514395e-02
1.185916871290788044e-01
1.324041723588934016e-01
1.177869779749583790e-01
8.307762518151515230e-02
1.222758492334269712e-02
-9.189395173835411545e-02
-1.458069734263564565e-01
-2.318210490383114386e-02
2.699469646765587094e-01
4.399620943326682521e-01
9.745806791356059762e-02
-6.810231928834565851e-01
-1.176758910142776227e+00
-8.238080404449474869e-01
-5.769825102541620288e-04
4.447370244721092214e-01
2.429714598353701072e-01
-1.645451798683984779e-01
-3.162728215503531337e-01
-1.629529378558492447e-01
7.966720931573237352e-02
2.265940898610754040e-01
2.299299691190013206e-01
1.291451046289572857e-01
2.168363056930425192e-03
-6.381693305795409221e-02
-3.436279861805701524e-02
3.982631609083155805e-02
9.275741249919132458e-02
1.225498806991199702e-01
1.634260574312088321e-01
2.087083735312606214e-01
2.137732487871875919e-01
1.663361758702769921e-01
1.056495699365298246e-01
6.769099461751862390e-02
5.140004026385801977e-02
4.676746170846566436e-02
5.521120452790816147e-02
6.660260109792605354e-02
5.348037105084058052e-02
1.022302208249289621e-02
-2.826878304875389547e-02
-3.064708181482608818e-02
-1.272935842489959259e-02
-1.041584653737706589e-02
-2.648265024188526870e-02
-3.521066318506739512e-02
-2.348661349012984290e-02
6.206587958302112532e-03
5.744243826097832073e-02
1.268211274150972123e-01
1.789712107887107551e-01
1.693354520028757249e-01
9.496058933206892594e-02
6.998271425189486403e-03
-2.984543028478285273e-02
8.336396043331487093e-03
8.056994383140536620e-02
1.157678565046675601e-01
9.635477511502424375e-02
1.119098434328068964e-01
2.710648003715816490e-01
4.755472845974535456e-01
3.456893749056349496e-01
-3.666275736865954871e-01
-1.238782858237585049e+00
-1.450502466593649009e+00
-7.817844132504416788e-01
8.146150541487126584e-02
4.156603037870944539e-01
2.118620890635020126e-01
-7.532996800421079553e-02
-1.496898536060363993e-01
-6.277772604959003244e-02
1.391455927329921308e-02
1.597319514376525224e-02
-3.225990709678733942e-03
1.472117690681948830e-02
7.142772389825488566e-02
1.425337469858765915e-01
2.142203834858351363e-01
2.706742838534757500e-01
2.815451521294434767e-01
2.306207357194756669e-01
1.392584690976489958e-01
4.565769894268836837e-02
-2.199577221895264098e-02
-4.941084717008446120e-02
-3.769358895082922101e-02
-2.586246034503053570e-03
4.326941093384362863e-02
9.755665293099333168e-02
1.407186555176486165e-01
1.142373799883759922e-01
-3.499591960107860389e-02
-2.611442786719197495e-01
-4.003054508908661657e-01
-3.140920599865486551e-01
-6.039872851089764932e-02
1.504533772623840582e-01
1.913979026367446656e-01
1.311472716389585069e-01
8.929322291919955523e-02
8.262097202631010773e-02
5.824789811576543130e-02
-7.479893211032755986e-03
-8.801578549352903624e-02
-1.394378051117486916e-01
-1.326037473607757089e-01
-6.983465018608840669e-02
2.119098020530315110e-02
1.023275226214490630e-01
1.310302731942618593e-01
7.891461883420873569e-02
-1.813748503290317504e-02
-4.065936684119192401e-02
9.159914306282208873e-02
2.085354631108491674e-01
-6.027786525095805981e-02
-7.848956769497398289e-01
-1.398529901863152736e+00
-1.260614636558955670e+00
-4.931924988906590812e-01
1.713579772448542982e-01
2.783626543603976433e-01
1.662067086495647161e-03
-2.627950624210201869e-01
-3.232172453156280656e-01
-2.335729468150550825e-01
-1.072116620335631099e-01
1.397185805652316655e-02
1.381853844614069349e-01
2.567471609260209009e-01
3.312149096118809366e-01
3.293324038563768541e-01
2.616894032293816119e-01
1.764049545735911495e-01
1.154145495078003347e-01
8.686663550452530802e-02
8.144776347179490117e-02
9.924027183204002511e-02
1.495573314418884581e-01
2.243797565867914068e-01
2.816090635089698035e-01
2.738522372696510221e-01
1.993009714299623925e-01
1.081667704920300233e-01
4.836869868758385260e-02
1.336304353321164304e-02
-3.727231022979771158e-02
-1.040197113196677237e-01
-1.308730814455488223e-01
-7.985198536599959207e-02
2.206380797144858602e-02
1.246402650410772250e-01
1.920838286169390119e-01
1.999191574053130194e-01
1.503675009967901655e-01
8.936735781905810749e-02
7.485133683632561041e-02
1.294581087371490802e-01
2.262025661989434111e-01
3.128019824433151963e-01
3.534108075562627516e-01
3.455173394781877461e-01
2.994229760570408794e-01
2.187856135587679385e-01
1.051974360099054567e-01
-1.814610105259729239e-02
-7.480989771382060005e-02
4.360303253189044131e-02
3.291478161124951618e-01
4.986192004525582533e-01
1.670976263500597581e-01
-6.092922482057547828e-01
-1.158024264414321935e+00
-9.271912122847939530e-01
-2.173015701753324980e-01
2.282233733252418684e-01
1.452280619971740572e-01
-1.187659858596314261e-01
-1.911762566810180086e-01
-5.520216894621153558e-02
9.547363047153178961e-02
1.486866720581495604e-01
1.404871432527204367e-01
1.300526402820446903e-01
1.228040455820951088e-01
1.075178015607083093e-01
9.407853239267681411e-02
1.023534580183098897e-01
1.453416457517091587e-01
2.179747190868878137e-01
2.860117430374776726e-01
3.041943332254601895e-01
2.586298829175830982e-01
1.775244683683758484e-01
9.723592741491693392e-02
3.022940997208775626e-02
-2.759459761181264070e-02
-6.629229505454974081e-02
-6.134014049840506855e-02
-1.453495074727996841e-02
2.540269152150441412e-02
7.847882816771607414e-03
-5.482450485160540732e-02
-9.258315855164156449e-02
-6.414443670804741149e-02
-1.367650982772068702e-02
-1.326668267538375946e-02
-6.469894310622971434e-02
-9.303885673950773594e-02
-4.081342530735695973e-02
6.520028370133618134e-02
1.546107595561358183e-01
1.856977491199471308e-01
1.604448797029720541e-01
1.000642866569298184e-01
2.859617074446463292e-02
-3.101513687216587989e-02
-6.229682043496975741e-02
-6.411526427847988319e-02
-5.681492979042708502e-02
-6.828843209280381632e-02
-7.703089289026719688e-02
1.693602078499591504e-02
2.281569221935928204e-01
2.603931554004221272e-01
-2.510061076593093632e-01
-1.087969127505888478e+00
-1.455037275549143860e+00
-9.524737576903143932e-01
-1.202875509600515036e-01
2.916239961724568786e-01
1.723849527062467080e-01
-8.200142597955994983e-02
-1.756696460069592514e-01
-1.267866828697985782e-01
-6.609906224327695423e-02
-4.469043809476264117e-02
-3.445188235766337426e-02
-6.115305076850836158e-03
4.259229102547430063e-02
1.010371300840148118e-01
1.551878611726638102e-01
1.928180683995316946e-01
2.073289146020380613e-01
1.896028887674476027e-01
1.252553746001922597e-01
1.897057528483047165e-02
-8.476454377014315533e-02
-1.310916080437528330e-01
-1.068221993789858631e-01
-4.400940187414642546e-02
2.131746642340986292e-02
7.234602680238384764e-02
9.988646048790597587e-02
8.425383619584660144e-02
-2.283297989368169092e-03
-1.563626191804386723e-01
-3.026252102219512130e-01
-3.309682993047630140e-01
-2.093582076816885018e-01
-3.413881489662042718e-02
7.332940554454535353e-02
9.190590495219630451e-02
7.977345678309014088e-02
7.509839485541255910e-02
6.963633352591253045e-02
4.507727109820757611e-02
-3.775343775962464871e-04
-4.476129698649718852e-02
-5.403941441871716600e-02
-1.010015043964858188e-02
7.457902302017195562e-02
1.618182043163244876e-01
1.972623815454956908e-01
1.396589454917064599e-01
1.868673068170858750e-02
-3.812645732423008971e-02
8.733785501379916216e-02
2.773174391610935263e-01
1.539730217662895195e-01
-4.418269146316584628e-01
-1.002281413219726192e+00
-8.608371812616731900e-01
-1.405523110033602974e-01
3.804542024334236494e-01
2.995950923355135687e-01
-7.385599954055747929e-02
-3.032737639789642170e-01
-2.768823174819405319e-01
-1.264332675985203325e-01
9.928566990481130922e-03
9.192633581825934708e-02
1.431339944490923055e-01
1.816199701237965203e-01
1.992360564146276047e-01
1.840318302306072074e-01
1.384479629626572394e-01
8.187692672935868721e-02
4.425922566973963801e-02
4.901247782730153851e-02
9.387339265404902322e-02
1.515389256433964660e-01
1.951649670138475012e-01
2.173307858208193832e-01
2.239485424311896955e-01
2.252625811286337598e-01
2.251976173767822886e-01
2.054825521869843574e-01
1.390462225075785874e-01
2.368867339816485215e-02
-1.091732884828377631e-01
-2.011251803927670834e-01
-1.885630918406765166e-01
-6.459389841192110515e-02
8.620997650761458297e-02
1.589985569303067059e-01
1.272845111284974795e-01
4.566377637431900949e-02
-2.110525935802568323e-02
-4.303542091190300234e-02
-1.920141546630501836e-02
3.796868150871741260e-02
1.060895810328582600e-01
1.566691987006921805e-01
1.697177912703895508e-01
1.459228401453603607e-01
1.022975467503951519e-01
5.507778070114500296e-02
3.287607118716739246e-03
-5.929993638894583141e-02
-9.096509945107553174e-02
8.761268781694321259e-03
2.496417008571538143e-01
3.617402416196485171e-01
-3.698098483744179099e-02
-8.802682093158072929e-01
-1.478751936416712764e+00
-1.252361137872183727e+00
-4.634568122660633893e-01
1.268150806362995098e-01
1.562152226589015591e-01
-9.435509411015990944e-02
-2.084089700727921324e-01
-8.818876230690739226e-02
9.752214308867544756e-02
2.017226306727719909e-01
2.157591593085408377e-01
1.885872406721381123e-01
1.524771710183732143e-01
1.242187369018205728e-01
1.179285173869755732e-01
1.397555565678325062e-01
1.826484246649432708e-01
2.291144175027870489e-01
2.547230239783300210e-01
2.376236178714491165e-01
1.833012915606333781e-01
1.392076110702047675e-01
1.554326270061184845e-01
2.143496394505379210e-01
2.383392299492803623e-01
1.969555806138523768e-01
1.487243804769986799e-01
1.385686329072283729e-01
1.235231160333265382e-01
4.714973362902787762e-02
-6.378806205323271639e-02
-1.246178434867109275e-01
-9.371874394552517917e-02
-1.096158143906551807e-02
5.593158626338026046e-02
7.478203496073186629e-02
6.424867831531463902e-02
6.532774321277670659e-02
9.855668536974505900e-02
1.460137009833067656e-01
1.746426480006516291e-01
1.674810284666698457e-01
1.266988842122639680e-01
6.429082136715340290e-02
6.380572008396670665e-03
-1.048909995002436299e-02
2.595219820784968462e-02
7.909315778630918170e-02
1.078474226892556093e-01
1.474715477016864951e-01
2.868119038151475397e-01
4.720844490234358259e-01
3.787958817412441226e-01
-2.678115078931959658e-01
-1.147629182091044475e+00
-1.476150388091449495e+00
-9.275673533672270654e-01
-7.282392776609103446e-02
3.505139005408266506e-01
2.400647148713998813e-01
-6.583481740704506813e-03
-8.790590228720027155e-02
-2.478564151783002253e-02
3.399461213440115037e-02
2.515053410101950049e-02
-7.704137856310917798e-03
-3.648599899197976261e-03
5.326017623627771896e-02
1.393816915957187541e-01
2.268321968474692751e-01
2.978770018198024783e-01
3.313267671594302133e-01
3.033929669162534482e-01
2.144031420835253998e-01
9.919441653061958353e-02
3.721904523311215379e-03
-4.181139612631988578e-02
-2.730861794846376964e-02
4.187974417157039331e-02
1.371100818343312377e-01
2.070207287937222973e-01
2.071960732270326788e-01
1.249668539211245821e-01
-2.332681304044197101e-02
-1.913251986799708315e-01
-2.998106977879803625e-01
-2.836799038362182723e-01
-1.591287814723203742e-01
-9.816384936586305954e-03
9.722299078570834086e-02
1.523247161884368206e-01
1.681382783293436378e-01
1.434006383330790058e-01
7.866125384288978617e-02
3.628374266891333869e-03
-4.143823651656364931e-02
-4.442438281256076010e-02
-1.956377304708582093e-02
2.613382699375968107e-02
1.007910117643391890e-01
1.938300574352451455e-01
2.511491761840578540e-01
2.129591793203647054e-01
9.304899184932632905e-02
6.989944773817414331e-03
6.458109058893166110e-02
1.699126839755726037e-01
6.248080831212672950e-03
-5.568015592612091114e-01
-1.078413062583717164e+00
-9.597937151385863563e-01
-2.698867120948516551e-01
2.970929676782728124e-01
3.048166201366122041e-01
-1.896050346266592301e-02
-2.444031315660015746e-01
-2.348486615017164325e-01
-1.273826901364464581e-01
-5.188747373336622531e-02
-3.374445480171205103e-03
6.657039234827466512e-02
1.494293779902676200e-01
2.003951083872970163e-01
1.991655111458404126e-01
1.566293715794586927e-01
9.288751313563517464e-02
2.998160967027575438e-02
-1.088588039114198394e-02
-1.614264764874339189e-02
1.621418864167401691e-02
7.077763810253270838e-02
1.131897145552962641e-01
1.145396074631529343e-01
8.378905973847097788e-02
5.671589616241660969e-02
4.669798306385714720e-02
2.365628913797922575e-02
-4.883397980503339370e-02
-1.585246705980898618e-01
-2.343170931826281667e-01
-2.068164398526655678e-01
-8.420928753632328512e-02
4.995111374475363908e-02
1.178083702283160422e-01
1.048741481885099025e-01
4.329459363844211789e-02
-2.685886691023053885e-02
-7.066366147370510553e-02
-6.237474828163095536e-02
-4.387968650637277465e-03
6.386764754606813477e-02
9.548114333086477057e-02
7.614647738129839971e-02
3.062473011135096596e-02
-9.504243305335811215e-03
-4.242251641946342272e-02
-9.378649235825753383e-02
-1.691467913557122560e-01
-2.024740549880091611e-01
-7.583689146101493805e-02
2.203508713441207079e-01
4.009712347579013070e-01
5.238094743202109660e-02
-7.739906106652046924e-01
-1.350099896356059537e+00
-1.075461495701490078e+00
-2.874504375577789927e-01
1.950539917101186127e-01
9.028260993442140114e-02
-2.139233458718629022e-01
-3.039432087335633970e-01
-1.409803715085183873e-01
7.337767872343055331e-02
1.740925413813073641e-01
1.468764328742412917e-01
7.093942375449727167e-02
1.321392135285048147e-02
-1.247304449614183505e-02
-9.735413295183039523e-03
2.959173868081639569e-02
1.042760235128514096e-01
1.788834551772525983e-01
2.026049172017536371e-01
1.600422849815352488e-01
9.461188501377194859e-02
6.227270807559595611e-02
6.828638670812016420e-02
7.021137684767436715e-02
3.803225481095668520e-02
-3.996076025509717050e-03
-5.083947487982421083e-03
3.989312314691657868e-02
6.955834131042140656e-02
3.204594902398817668e-02
-4.193908929797775242e-02
-8.052711672081634686e-02
-6.625526398958951624e-02
-4.478862379192660031e-02
-4.828668661636530135e-02
-5.382971221527067113e-02
-2.198710195485227212e-02
5.320721959519932737e-02
1.404975454113907840e-01
1.968640265143025425e-01
1.937309759564503076e-01
1.376123299163253821e-01
6.754315400324958918e-02
2.047880402548282741e-02
2.363819413720284236e-03
4.010234528782710001e-03
2.753012645908428299e-02
6.462774144471490623e-02
8.310078201969299527e-02
9.878147779213250490e-02
1.970681315851008641e-01
3.441074184394605773e-01
2.354893228529212901e-01
-3.831189265548972656e-01
-1.177051196045654669e+00
-1.389410079363348594e+00
-7.597394582135438279e-01
1.029809260825682304e-01
4.780473084611067680e-01
2.973706511914968043e-01
-1.564493594633997731e-02
-1.421285550501568962e-01
-9.744920208861425348e-02
-3.324921165649787763e-02
-1.337441755476918501e-02
3.256540414697460008e-03
5.947908564000446013e-02
1.472479739268914289e-01
2.377714120306416157e-01
3.086935853798721263e-01
3.405421180057833230e-01
3.264152787186636595e-01
2.838264520045256090e-01
2.319850401500115900e-01
1.686733831669716688e-01
9.358681848399245939e-02
3.831135313480933668e-02
3.807320284612870920e-02
8.661942997712426817e-02
1.517418219434547022e-01
2.159000273494131317e-01
2.676065567097130615e-01
2.640719450744120067e-01
1.492676498658018491e-01
-5.790481595062384190e-02
-2.305785657517540332e-01
-2.456990671300947338e-01
-1.092873171896368012e-01
6.487410904106025167e-02
1.731532960031584856e-01
1.974844523564856513e-01
1.936841404523415300e-01
2.225268145461513636e-01
2.768939935131896624e-01
2.827271593399354743e-01
1.956124141087748902e-01
7.372235051133456396e-02
1.761956481889952186e-02
6.063658444181091456e-02
1.503908000693336411e-01
2.153328060552435474e-01
2.195338114936768448e-01
1.651211666048602866e-01
8.551545507229163512e-02
5.889661215377171855e-02
1.595496157617132815e-01
2.862249877641737106e-01
1.108693298764549806e-01
-5.322926018965161710e-01
-1.202471904756615695e+00
-1.205866485692733248e+00
-4.882901433445517858e-01
2.563595940435604570e-01
4.406636658097002335e-01
1.493020899714280203e-01
-1.715252929018603878e-01
-2.495859896755949492e-01
-1.307821298202491989e-01
1.628531068252165454e-02
1.025515478134455677e-01
1.481491526298644723e-01
1.919075608181013970e-01
2.247973624190011677e-01
2.167747068282375733e-01
1.699353384351404428e-01
1.144696033863755597e-01
7.184605857614627389e-02
4.721505436388638566e-02
4.442379712071378717e-02
6.933260665816716461e-02
1.202253729750607791e-01
1.760059933508192898e-01
1.969938480172984674e-01
1.552259470951823095e-01
7.095894660140099341e-02
2.468880941343404387e-03
-1.726125190717402169e-02
-2.500593900993074853e-02
-8.071619068435634259e-02
-1.724701780123348294e-01
-2.053264020224365438e-01
-1.135137315451151124e-01
4.403425348753892132e-02
1.350319551785681693e-01
8.584571134555345207e-02
-5.344356422843068305e-02
-1.641281850688097177e-01
-1.715752202952263994e-01
-9.090205526727200558e-02
2.790818047183182479e-02
1.434470011988816518e-01
2.150860180044044945e-01
2.233718211123703057e-01
1.996921360484570918e-01
1.847136455761789475e-01
1.666334768747000650e-01
9.560505328216717391e-02
-3.998194395861254941e-02
-1.550923999929046948e-01
-1.022918614223635170e-01
1.603378986957268992e-01
3.810122995805171886e-01
1.374622008070960633e-01
-6.142435529134075978e-01
-1.245103570301618445e+00
-1.109089720311363658e+00
-3.899240822311725863e-01
1.504364565978296153e-01
1.308916255449885657e-01
-1.564572824917194183e-01
-2.787283272679690338e-01
-1.340662428055477140e-01
9.187756453952318492e-02
2.187652158307163697e-01
2.225623382818399387e-01
1.614672320071969258e-01
7.223119383785098213e-02
-2.206636854547589302e-02
-7.247059541985360898e-02
-3.708072465928782119e-02
5.951596825024582649e-02
1.396276886939447071e-01
1.530914463974718809e-01
1.247256618366499870e-01
1.111648528431786048e-01
1.252187544283442644e-01
1.270897144094035869e-01
8.789295109076766810e-02
2.719883002211507736e-02
-1.699485823046011784e-02
-2.218750316944347045e-02
9.371550164416752107e-03
4.051092840646640381e-02
1.390529793488193104e-02
-8.108551447236556076e-02
-1.745031337334273513e-01
-1.922257594555813742e-01
-1.435321347150899651e-01
-9.310764991761115439e-02
-7.489791682446600429e-02
-7.081328495756412933e-02
-4.940749054188105921e-02
5.259957554791485322e-03
8.406168893727652969e-02
1.500179705661936480e-01
1.605677800579361214e-01
1.085291597289116811e-01
3.061863302197530973e-02
-2.861957621271822919e-02
-4.817274052616749014e-02
-3.505440909286895029e-02
-1.704220209093663604e-02
-1.335977409172632753e-02
1.390280046810394785e-02
1.440247208309307914e-01
3.396844502855674852e-01
3.101013304173444451e-01
-2.361817793359920203e-01
-1.053210609445982771e+00
-1.393107324471971387e+00
-8.891974586495666744e-01
-7.031332051415428719e-02
3.242007677253012088e-01
1.769672317102809478e-01
-1.182075823226624856e-01
-2.404429852088758035e-01
-1.695806438522857451e-01
-3.791629199247822241e-02
4.841790899219331618e-02
7.258296296492072752e-02
7.869294923484153326e-02
1.095924869453182571e-01
1.647713425368100282e-01
2.102935477427948785e-01
2.233971707177198340e-01
2.103428260741911637e-01
1.787387560531825681e-01
1.227363534532226186e-01
4.878934045047877976e-02
-9.309249887201302351e-03
-1.866960900810554769e-02
2.060411280278658108e-02
8.080665982844763284e-02
1.365015072446823519e-01
1.776883153015501593e-01
1.875137605969214860e-01
1.237838415837761580e-01
-3.863266849602448039e-02
-2.378087080006322240e-01
-3.424153690371463110e-01
-2.772214670780768220e-01
-1.042216449450368010e-01
5.480400361458349912e-02
1.417989071380329757e-01
1.730691581442318494e-01
1.716332545402400322e-01
1.409786670701894118e-01
8.562221395062601104e-02
2.067196220045185856e-02
-3.214806044016951803e-02
-4.680932523153012725e-02
-1.002143326373140450e-02
5.749302397251939561e-02
1.180495486597789162e-01
1.540984349601989822e-01
1.619269119811256874e-01
1.225353750274250364e-01
3.826112113601424364e-02
2.767287940444569661e-03
1.241466964526364153e-01
2.840304219107240846e-01
1.096542828717050749e-01
-5.422780336414988467e-01
-1.153686341951631000e+00
-1.035637141941227579e+00
-2.552041254140715587e-01
4.103584275267667669e-01
4.433038452402729424e-01
5.822272442770794199e-02
-2.628199707690345166e-01
-3.091718681518191292e-01
-1.708277137042671923e-01
2.239325995177402634e-03
1.334865816168502861e-01
2.058225387037927456e-01
2.306521896379167824e-01
2.326448262163130221e-01
2.271777112621362615e-01
2.144147147014559829e-01
1.917414070237285495e-01
1.567604009697022294e-01
1.167399537666122811e-01
1.023829800907053444e-01
1.409217536368933266e-01
2.127355662437573347e-01
2.618461805699220379e-01
2.511891137353022829e-01
1.933251479920867766e-01
1.267426743470395634e-01
7.333386572176821272e-02
2.557098607084889313e-02
-3.327912874191578385e-02
-1.032472370613004703e-01
-1.521248427399897463e-01
-1.305987766150436546e-01
-2.652678522364056157e-02
1.037526905419897949e-01
1.826740193751507924e-01
1.795730610756725021e-01
1.190152220768928848e-01
4.135808049689176230e-02
-2.179954869352075664e-02
-3.920736386098838677e-02
8.809574561801996120e-03
7.875131380616637311e-02
7.324527262065938515e-02
-3.302260112673309489e-02
-1.269052833394028468e-01
-9.643509315033538254e-02
1.886098926051203370e-02
8.836327292073120621e-02
5.222701588327616912e-02
-3.422428937838712000e-03
8.864194445748813100e-02
3.644079046643450281e-01
5.291373799002008216e-01
1.557154794809038900e-01
-7.041064194467621107e-01
-1.318977894284143693e+00
-1.072401807697031639e+00
-2.711200528003187005e-01
2.636441841811476006e-01
1.965526869840513169e-01
-1.275344984979296103e-01
-2.795144939451917887e-01
-1.778278564088534019e-01
3.069417012989825860e-03
1.096008442269122279e-01
1.270935668609808056e-01
1.126657493167071838e-01
1.014861470138786470e-01
8.863731219523920957e-02
6.325239832742042545e-02
3.411885561119360616e-02
2.754065390661409457e-02
6.518096977774884282e-02
1.334623215055857903e-01
1.876020212057649961e-01
2.019285019348430188e-01
1.880033419742221934e-01
1.560305080061779592e-01
1.011324647647944552e-01
3.452992107087843321e-02
-4.411517542306044037e-03
2.129482202824072717e-02
1.014667195630561819e-01
1.609954857338532219e-01
1.164621356633538385e-01
-2.040834962616380061e-02
-1.318841380248880479e-01
-1.240579100131147389e-01
-2.922657329562399278e-02
5.419660786103153854e-02
8.415878659268745399e-02
9.996192258544640830e-02
1.464733796310646041e-01
2.142817623306821351e-01
2.627358331718484541e-01
2.720206003136883544e-01
2.500448633786272468e-01
2.051565669547049664e-01
1.420491859778425514e-01
8.623559371793268480e-02
8.131442589942149135e-02
1.367060668381460120e-01
1.950762962314078752e-01
1.925479436692532076e-01
1.655129307673245120e-01
2.426807083614686555e-01
4.292845581414913569e-01
4.161794178562721047e-01
-1.500053147627831984e-01
-1.055614305516809237e+00
-1.503241032852775438e+00
-1.033865152854890335e+00
-1.481507091704125645e-01
3.436182020403211190e-01
2.517698154742047945e-01
-2.518537090540656082e-02
-1.381919733860149380e-01
-8.126774832640772106e-02
-6.101566236398500709e-03
9.555439239873602525e-03
-7.998443128504104105e-03
-1.097625746788583392e-02
2.286894021777750169e-02
9.520316851254895241e-02
1.916341722728459873e-01
2.729561078883436798e-01
2.870078327335014445e-01
2.171135026079452635e-01
1.117587872269454469e-01
3.930581536529825087e-02
1.679188005474644557e-02
5.770788346529694482e-03
-2.061155433797775410e-02
-3.237013373749283995e-02
1.177803542546284644e-02
9.561682216201396189e-02
1.533631478639617129e-01
1.224675866225513193e-01
-1.944916865305146292e-02
-2.206125983123883583e-01
-3.585498565106877145e-01
-3.353391995884767440e-01
-1.746270810724209754e-01
8.135286164694135319e-03
1.185412457055271540e-01
1.377258624190577097e-01
9.170063714604487215e-02
2.013587806922622486e-02
-2.963880503841557351e-02
-3.171557340997216423e-02
-1.317060315894807293e-02
-1.891955625243416095e-02
-4.999370747297446349e-02
-6.937337046738623059e-02
-5.140805652595619585e-02
3.116478516437424726e-05
5.281722642798356709e-02
4.828603770940587125e-02
-4.503694509241832483e-02
-1.393129513827398303e-01
-7.244226227033430388e-02
1.266294570436284905e-01
1.016403582532051514e-01
-4.142285880999911352e-01
-1.048528331118428136e+00
-1.089916867211735418e+00
-4.391226186458879188e-01
2.200482636513743928e-01
3.090009221028324760e-01
-4.531749907972235092e-02
-3.715660607705809637e-01
-4.241213411731296068e-01
-2.818656067205844717e-01
-1.123793805072388352e-01
9.723507970116250509e-03
9.580958757150441485e-02
1.554780518921615451e-01
1.671569399423866176e-01
1.251046093022074035e-01
6.763098557385982534e-02
3.465184602987864126e-02
2.625936111612996865e-02
2.519833652620286080e-02
3.386366972393758251e-02
6.593268558780460142e-02
1.172035564994535761e-01
1.579112919287835592e-01
1.507644951285238011e-01
8.512930185255106197e-02
-4.789267844591122564e-03
-7.033132855308407705e-02
-9.388766664472635026e-02
-9.568258571648254052e-02
-1.038814135005200895e-01
-1.198408098157002222e-01
-1.122976361643909932e-01
-5.527857387428224828e-02
3.761768024711946434e-02
1.282667876196111612e-01
1.799462204882085747e-01
1.632179129058813072e-01
8.036614153261570359e-02
-8.203009217500008277e-03
-2.988028759651888133e-02
2.151585992894957181e-02
8.844191128754064213e-02
1.235611620919340736e-01
1.268657736169374606e-01
1.147487452785519724e-01
8.695157700549543955e-02
4.168726013645866757e-02
1.471166954944562802e-02
6.960198904740035053e-02
2.193850082999020401e-01
4.026711110251239290e-01
5.517674133612480158e-01
5.442587613403803148e-01
1.387045503200393104e-01
-6.722215510653077875e-01
-1.300382726014491119e+00
-1.114797855922646130e+00
-3.325406662109144929e-01
2.128485325126544259e-01
1.271120029656312989e-01
-2.211783424827895028e-01
-3.421279276052506257e-01
-1.607211344013984577e-01
9.529942647460407090e-02
2.396211973256098804e-01
2.473018474282340784e-01
1.783106491684537664e-01
1.042709941792227396e-01
7.853450119473570634e-02
1.119954033469288263e-01
1.716743832814431048e-01
2.201305774629049306e-01
2.552009176905905008e-01
2.988007061094012928e-01
3.457482607632376692e-01
3.493686768890622019e-01
2.774129011492906249e-01
1.583012599504293738e-01
5.258463491970551129e-02
2.162696587729325253e-03
1.664839742952298890e-02
7.822242127638834308e-02
1.423379321595994451e-01
1.551585336894823475e-01
9.732318525056357639e-02
9.178223914797112304e-03
-4.734818762058967678e-02
-5.106059238769798669e-02
-2.878564630031754321e-02
-8.625940315483329041e-03
1.088588674647669903e-02
4.417863295028059967e-02
8.949864190974764211e-02
1.287694766873904717e-01
1.500163097669756085e-01
1.543811434383337566e-01
1.412577296895496104e-01
1.053965893661547859e-01
5.517501140031223078e-02
1.694588437389225183e-02
1.252956142126069802e-02
3.783427915770296024e-02
6.273438892543473089e-02
6.012867061842871313e-02
5.830932799678809064e-02
1.426820389873269534e-01
3.077098834718458575e-01
2.810622440868560390e-01
-2.804729188218091918e-01
-1.208217509871736040e+00
-1.706846870796175031e+00
-1.220099784504586893e+00
-1.884206016933386851e-01
4.673466094543552996e-01
3.985722104308642710e-01
6.739551852879541172e-03
-2.178121137263121510e-01
-1.797448876933627759e-01
-6.995569972083059973e-02
-4.537831469393963785e-02
-9.259032777830547567e-02
-1.076152957113176989e-01
-3.001640619926362538e-02
1.077611056899648728e-01
2.290151338145768323e-01
2.800881737875160482e-01
2.590596628569996063e-01
2.017574208100297584e-01
1.448398442554492960e-01
1.010599658349465302e-01
6.969353688842379324e-02
5.817684353131745423e-02
7.725124910375945342e-02
1.200287140847414724e-01
1.634861950604599712e-01
1.911017266949888715e-01
1.952783973787255989e-01
1.513313027507865727e-01
2.404503653639495503e-02
-1.646333106986835049e-01
-3.061810603681947573e-01
-2.965473127374004814e-01
-1.416880440416913300e-01
5.705962194460344888e-02
1.934058147708390407e-01
2.194483782038477160e-01
1.634279216365495113e-01
9.872309745297166983e-02
7.135242009990006018e-02
6.427869380045059255e-02
4.482174087004160701e-02
1.974869157133388523e-02
2.367979035578974406e-02
7.220323913974094343e-02
1.412167026384603674e-01
1.869506666364766090e-01
1.811160668121421513e-01
1.250721420921395155e-01
4.544055282983328753e-02
5.498663839143463038e-03
8.835137705381525264e-02
2.566651924270206275e-01
2.308918939075212395e-01
-2.511817322544099285e-01
-9.347338491401822047e-01
-1.141393958921091301e+00
-6.026622528893164077e-01
1.444426074145250261e-01
4.321558507688456618e-01
1.953583091656898030e-01
-1.528580856784175768e-01
-2.807869037565143278e-01
-1.827365041993257444e-01
-2.187339751143669783e-02
8.778796988499440457e-02
1.390327627369605801e-01
1.668287091875858552e-01
1.854171781483321402e-01
1.835204302434826906e-01
1.522009350100527736e-01
1.005741056172225756e-01
4.938927632777085491e-02
1.696571491714463781e-02
9.507845187623018696e-03
2.568329478014960005e-02
6.504415889488474045e-02
1.172130993120177184e-01
1.484826651183661361e-01
1.219283883615446262e-01
3.895137685478251149e-02
-5.283272503421162364e-02
-1.053431183504179858e-01
-1.140548282124382723e-01
-1.069240641318561502e-01
-9.914291708656149116e-02
-7.377478240194419723e-02
-1.419735490691738378e-02
6.137651632199767754e-02
1.178737008304130002e-01
1.372452710012956878e-01
1.179722956533184736e-01
6.664438407054917857e-02
6.133638395267549878e-03
-2.800377882259864892e-02
-1.387900725739126678e-02
4.006417712780889484e-02
1.062066849056684803e-01
1.529304361008645141e-01
1.463752357342706645e-01
6.518623128889623752e-02
-6.348729468012430377e-02
-1.712361236004722453e-01
-2.178412130431876537e-01
-2.045667086024308134e-01
-9.571697939536728816e-02
1.520316500552375549e-01
3.789938179645582217e-01
2.058992446848635360e-01
-4.824344708388464964e-01
-1.136831871796224025e+00
-1.076278375124948061e+00
-3.909630564503680517e-01
1.790928895681190292e-01
2.062287703498228986e-01
-5.789438060499117744e-02
-1.970965509687795658e-01
-1.089364603684672833e-01
4.409707094977717567e-02
1.158113414567510935e-01
1.052432540744975276e-01
7.725549022920893960e-02
5.692029737698850456e-02
3.341180845311116782e-02
2.118535766276262444e-02
5.864654733492272870e-02
1.450587810776037268e-01
2.227848398387902717e-01
2.403515573378909864e-01
2.064266798532821690e-01
1.602090451906538759e-01
1.092024212336000361e-01
3.056053794948693572e-02
-7.034351912996006373e-02
-1.405019243041236154e-01
-1.318120971356707971e-01
-5.331964075360004496e-02
3.481841185390635585e-02
6.474890721868065135e-02
1.266965746730882962e-03
-1.338360219377153493e-01
-2.655055075587638980e-01
-3.116994419009919137e-01
-2.366859549282804287e-01
-6.564610081538746478e-02
1.201807897181022544e-01
2.161080560571372600e-01
1.898860210150870587e-01
1.246818221721584519e-01
1.064480465422158184e-01
1.211489184339710062e-01
1.112233246903269468e-01
6.944368127606517782e-02
3.212244069349771275e-02
2.100161726215527686e-02
3.370537184468826164e-02
6.595004762887922423e-02
9.789621117020756713e-02
8.894818345543482885e-02
4.813152524865213500e-02
7.669573425939502087e-02
2.255532309775702404e-01
2.782093852298354597e-01
-1.235620118562781311e-01
-9.134436404833566892e-01
-1.389840999437571778e+00
-9.949376338828410660e-01
-1.002959911176732055e-01
4.506097968392638875e-01
3.567987440162416202e-01
4.090323196928327687e-03
-1.742637476750509840e-01
-1.123829645415359152e-01
1.904405564494504599e-02
9.018577271823569053e-02
1.024687941248612344e-01
1.143119941925866412e-01
1.575589397963016169e-01
2.192740508637286700e-01
2.715226008863435014e-01
2.999987524654060267e-01
3.046341728003485461e-01
2.858276704924384015e-01
2.407114121086920688e-01
1.771912870491541003e-01
1.231537421486465500e-01
1.021273649330309008e-01
1.087865756657077632e-01
1.350912070516952224e-01
1.979323957661001387e-01
2.977978251851990943e-01
3.644721762284925393e-01
2.957025805065949253e-01
7.045718135327459775e-02
-1.995815702146531423e-01
-3.517604188341831306e-01
-3.048867778589617328e-01
-1.171832270345651156e-01
7.660972405251154083e-02
1.840116921555299268e-01
2.092797869558412627e-01
2.000469369058003044e-01
1.716457974958694455e-01
1.088748388733459527e-01
2.360117651243234110e-02
-3.575891422342353937e-02
-3.869913000835342731e-02
-2.394933483345053349e-03
3.990835470363593429e-02
7.606141230958129995e-02
1.088979424973857552e-01
1.229152996451537416e-01
7.921091867801154096e-02
-3.192025320287311674e-02
-1.290489224436203453e-01
-8.396225424193776155e-02
7.821431308388429593e-02
5.042658193052675097e-02
-4.525498879518437545e-01
-1.162529000806099777e+00
-1.359904315037966160e+00
-7.502998178491947501e-01
9.065661987154202683e-02
4.098495193853864960e-01
1.068844108059485987e-01
-3.372487541563877755e-01
-4.939285906509468527e-01
-3.363720328834598483e-01
-8.342766230584448828e-02
9.858002174571919851e-02
1.924690116434973897e-01
2.405413717556731945e-01
2.601150934431249451e-01
2.419467526860406004e-01
1.849345380523093885e-01
1.152144422167771243e-01
7.698525710172321457e-02
1.005313098492230384e-01
1.683169385492640224e-01
2.271618245361637645e-01
2.488011874195632800e-01
2.504459214367321662e-01
2.434451225194280699e-01
2.099279703436688627e-01
1.466884500413648262e-01
8.061148737656591290e-02
2.504365393084718658e-02
-3.808284156930005770e-02
-1.193049140429544713e-01
-1.850478479591880776e-01
-1.759283044157750053e-01
-7.353253892938749203e-02
5.982098936828203484e-02
1.372284675362244744e-01
1.370070051901320640e-01
1.012800904355870418e-01
6.274950183268904191e-02
2.772890618169254404e-02
1.802708041423991062e-02
6.563875521007933589e-02
1.608005066482126599e-01
2.462871468220880766e-01
2.690508295734645450e-01
2.191660757895953215e-01
1.256474474708151601e-01
3.070710607397379374e-02
-3.892152747377934652e-02
-8.270541699305083982e-02
-9.683961251641243217e-02
-3.202824537267941196e-02
1.660086315593238826e-01
3.859532046501663038e-01
2.835472876661721542e-01
-3.468096633441071219e-01
-1.096935360348072930e+00
-1.239767414508591292e+00
-6.357509852690187424e-01
6.935105434132211866e-02
2.706497357823352545e-01
3.095415128551496503e-02
-2.083746185143112439e-01
-2.027303467668276904e-01
-4.230305798753855595e-02
9.810793731072271762e-02
1.587691754957715751e-01
1.613967208485417582e-01
1.161298424475971924e-01
3.381616847022035632e-02
-2.649435081116122831e-02
-5.557832601173380571e-05
1.000829355618449296e-01
1.949690924584095431e-01
2.334171744344641641e-01
2.241065958941606540e-01
1.796387417795756725e-01
8.893337341202094126e-02
-4.599762820941310365e-02
-1.828122454607055136e-01
-2.577297190877583799e-01
-2.299714947941661758e-01
-1.158173390039066719e-01
1.555181109310583773e-02
8.312041545026718770e-02
5.139535051193607623e-02
-3.687037311971069764e-02
-9.471480425239518774e-02
-7.411267374610766567e-02
-1.348860066091810139e-02
1.591520007943555276e-02
5.678152231168999420e-03
1.540327005224457688e-02
7.946463726785894799e-02
1.547047315947745749e-01
1.761731966687197781e-01
1.267215199978425078e-01
3.931812341891668949e-02
-3.852870549125827354e-02
-7.732173096392759570e-02
-7.867211605270155172e-02
-5.053952602966709645e-02
1.451454007844601296e-02
1.006387208091524682e-01
1.460141169065012068e-01
1.301359407481022801e-01
1.518041496500519283e-01
3.014891122862411454e-01
4.121690038947890544e-01
1.094636526699885037e-01
-6.530089473063190875e-01
-1.260346420950552160e+00
-1.064863331954890580e+00
-2.551592536966711400e-01
3.741047289948821186e-01
4.050774565668616711e-01
1.104693868335453605e-01
-8.405214826862431043e-02
-6.324818727187719869e-02
3.438479865115465217e-02
8.315082600738143981e-02
8.354209778265067610e-02
9.571721681776654278e-02
1.515700124695051332e-01
2.302541667977010820e-01
2.866880246745098781e-01
2.975153257085850766e-01
2.737966956334904611e-01
2.341976694338948339e-01
1.892687570421315579e-01
1.430786989903235495e-01
9.124718493315392420e-02
3.781341008582188301e-02
1.634472165552841583e-02
5.487227896141182865e-02
1.248146312154870680e-01
1.693578520472593385e-01
1.685064294286650888e-01
1.321526634098795505e-01
5.308827207955019167e-02
-7.987134230540929303e-02
-2.296430479927892010e-01
-3.134486566699852261e-01
-2.675126096942889165e-01
-1.007357856101068760e-01
1.050723787279200516e-01
2.430365372690906911e-01
2.536362316255398319e-01
1.624545443729940308e-01
4.303767584163874227e-02
-4.374763972200225448e-02
-7.562587194598244245e-02
-6.417416537594371195e-02
-3.338731867374675893e-02
3.237124740590004331e-03
4.605967833094001818e-02
9.867111630075810214e-02
1.508492024506108697e-01
1.605024424122937499e-01
8.447749384553332463e-02
-2.726365633044128961e-02
-1.242520695025526971e-02
2.000214884396048498e-01
3.370091294714324670e-01
-3.657067258817690847e-02
-8.582247634390750557e-01
-1.364337619650197286e+00
-9.708782285947131774e-01
-9.656801988818355942e-02
3.750048288185531820e-01
1.773065677180271360e-01
-2.378937041982881195e-01
-4.131775322092010594e-01
-3.025233743984212520e-01
-1.028108244899015450e-01
4.136420449401688459e-02
1.247274525702915943e-01
1.924410626525526746e-01
2.496152744690416092e-01
2.607886317927007869e-01
2.020857287834400828e-01
1.001962595915114884e-01
2.552387376515110468e-02
3.600065611121262832e-02
1.194093472146478541e-01
2.070893300699042927e-01
2.480301194594712044e-01
2.454485820992544920e-01
2.211069698229385927e-01
1.800298589369431490e-01
1.215074291678594903e-01
5.717123279326304097e-02
-2.284253000407483053e-05
-5.295819276501977785e-02
-1.097508572514360597e-01
-1.579741215641859986e-01
-1.647360255433888698e-01
-1.094754841592598393e-01
-7.124170513489054210e-03
1.028285749357630147e-01
1.744361286567917002e-01
1.737844357721569366e-01
1.132709543281516795e-01
5.711498946305938046e-02
6.156367596944579273e-02
1.218032790693372031e-01
1.914022380086268238e-01
2.277851484021412021e-01
2.089323577327809045e-01
1.372251643211205574e-01
4.430217053492244844e-02
-2.884923203125278751e-02
-7.324103655503060029e-02
-1.177455120597741267e-01
-1.690174198364334524e-01
-1.504048471154102451e-01
3.309755593754527825e-02
2.816243691589063181e-01
2.220933735643436380e-01
-3.916461888043153428e-01
-1.161213879623042899e+00
-1.326706395782957015e+00
-7.192292254251593242e-01
5.919116994797829490e-03
2.286209164476570022e-01
1.413736953802405272e-02
-2.012178015332102832e-01
-1.864954556321541390e-01
-3.579747828622844436e-02
7.210014788637925109e-02
7.748866543501267690e-02
3.230937933157362885e-02
-2.089184854200491076e-02
-9.084517654708373913e-02
-1.580226285914577422e-01
-1.485319000129012856e-01
-4.061894878178468060e-02
8.918483621335439315e-02
1.693736631841718521e-01
1.940788764583463444e-01
1.679984684855675425e-01
8.726195780981138572e-02
-1.604161051217084868e-02
-8.122277849402324834e-02
-7.790528617451324134e-02
-2.235714117880985979e-02
5.744101799721434976e-02
1.399803270904892705e-01
1.875438104097384151e-01
1.429147504619106834e-01
-4.044293060017353086e-03
-1.616845645094772410e-01
-2.104436017489468569e-01
-1.321124126721885117e-01
-1.717357988750222927e-02
4.954384627946402386e-02
7.263538193899868323e-02
1.164562399356404154e-01
2.065755742013050400e-01
2.783448114090227854e-01
2.492407898413361300e-01
1.275916318347252720e-01
8.313139337042411980e-03
-2.803860737713016055e-02
2.114956881364318114e-02
9.961126848730875172e-02
1.505717548749805623e-01
1.645246360936332697e-01
1.686382971172776524e-01
1.831225204473961587e-01
2.283025797442411187e-01
3.258260558679096364e-01
3.760603400755115899e-01
1.099785587205261012e-01
-5.641434355443961657e-01
-1.184610602984284000e+00
-1.121501992753972665e+00
-4.083781986463584923e-01
2.459308380599060651e-01
3.343135147443381805e-01
3.615193822187694889e-02
-1.978512585985860162e-01
-1.860722502692617741e-01
-5.105424296946668716e-02
5.560574882145748882e-02
1.084832463385067558e-01
1.519890542714101567e-01
2.075467231130784518e-01
2.607340358495011667e-01
2.902160925837740102e-01
2.825822277304884111e-01
2.395120359922457698e-01
1.814463612302096573e-01
1.320376600806573153e-01
9.610242729797896510e-02
6.107294289739265136e-02
2.543361795022727398e-02
1.399761347112277177e-02
4.601901939347964599e-02
1.001149735331124252e-01
1.370135754973609565e-01
1.427523646483243036e-01
1.149611318734953674e-01
2.215901856575650322e-02
-1.595341087500516120e-01
-3.530333493207981621e-01
-4.014867871992888748e-01
-2.397303442080490898e-01
1.344656555673432591e-02
1.842773202274771149e-01
2.098147161238163305e-01
1.450230378945046583e-01
6.607137733205388497e-02
4.875770773527013900e-03
-4.391053795601261578e-02
-7.864749712283820859e-02
-7.192874808291170596e-02
-9.809421989658282867e-03
6.715760384487654000e-02
1.022517033491492644e-01
9.843878358248057958e-02
1.052559859501835116e-01
1.229155721418219438e-01
8.293121399259781312e-02
-2.895091108523959247e-02
-7.942898325307030938e-02
6.103888425333193340e-02
2.277436780271019923e-01
1.280210954593958596e-02
-6.551585461041986580e-01
-1.170294315858922740e+00
-9.123022943818732688e-01
-1.077358308293062811e-01
4.426471578253432515e-01
3.453054077716732340e-01
-9.684808475917364157e-02
-4.060191351227183110e-01
-3.892439923123618417e-01
-1.598717096141260008e-01
6.893905230140659479e-02
1.740251454250214824e-01
1.720278519828051245e-01
1.408662124126122128e-01
1.254761400680112493e-01
1.127835320952794151e-01
7.437738474828145541e-02
1.797522140556558762e-02
-1.032378351971494426e-02
2.900345842589216461e-02
1.304181221734947160e-01
2.488592912868299312e-01
3.318982659294578141e-01
3.409818512192911988e-01
2.632681755563947013e-01
1.329664608405411452e-01
2.703046856110375568e-02
-4.560255815732939567e-04
2.329174339280561459e-02
2.396049186725112898e-02
-3.059640796016811076e-02
-9.068918030753846116e-02
-7.851719049827360353e-02
2.189699104851834666e-02
1.429484958013420015e-01
2.048281054657784261e-01
1.862232210534551791e-01
1.226402147813430155e-01
6.779606089644425737e-02
6.533525021983135894e-02
1.265170465842225811e-01
2.129234280610620977e-01
2.553344984745986035e-01
2.134724873150006252e-01
1.162485926442283490e-01
3.095612301929787785e-02
-1.182728663628111743e-03
7.456165743169870103e-03
1.141573993394047297e-02
-1.986992011954186871e-02
-3.938221011939094240e-02
7.280967385390504920e-02
3.277450313980636021e-01
4.304928898082356348e-01
4.599325747684328974e-03
-8.030127209708761704e-01
-1.250046779310590939e+00
-8.780646495902627580e-01
-1.395492297979875340e-01
2.252490829922323412e-01
8.075032054721838215e-02
-1.693405073881296685e-01
-2.140083061859607283e-01
-9.156947856519673246e-02
2.260090749998113629e-02
4.865094820839498124e-02
2.243160801825343220e-02
-1.010140531095941180e-03
-5.156997729495510843e-03
6.040089056073212267e-03
4.021974779694054147e-02
1.089892075330848448e-01
1.955605184214942449e-01
2.493576767404281358e-01
2.291900588098528257e-01
1.538233214300959995e-01
8.809199056651637050e-02
6.079736804240173237e-02
2.901223762271246814e-02
-3.980363134391033675e-02
-9.478579816927877599e-02
-6.496681476263740929e-02
3.503990525770912801e-02
1.032555889091266443e-01
4.965091282545404383e-02
-1.013318938742253650e-01
-2.168831982429379468e-01
-1.984032649199019560e-01
-9.482376450551054103e-02
-2.353507608050643685e-02
-1.897173069968523251e-02
-2.236802068096381893e-02
1.485099875836699314e-02
7.793833993851190245e-02
1.239939194713871040e-01
1.288191798770764451e-01
9.500435203738961942e-02
3.756920799458178528e-02
-1.838138653888324661e-02
-3.579011329004957304e-02
5.939945170098991610e-03
7.777159765029943717e-02
1.211489550011974059e-01
9.997505215028036629e-02
3.711556848954120080e-02
2.877649117300717929e-02
1.673882786022723723e-01
3.340323010341786358e-01
1.509908641828710818e-01
-5.703571479462778981e-01
-1.339570465791396270e+00
-1.379316419575853381e+00
-6.121480075381298125e-01
2.030075582202744422e-01
4.221456434862272955e-01
1.635660976105289821e-01
-8.257340497395311563e-02
-1.102036433688931838e-01
-8.093037787412231399e-02
-1.407905022727902467e-01
-1.985041855584003534e-01
-1.147541574106398510e-01
7.407341960463159625e-02
2.274481691192640487e-01
2.827417322984227543e-01
2.757656759512118194e-01
2.460851304982266674e-01
1.949656240094914950e-01
1.219663923444615494e-01
5.276868988434289809e-02
1.712243130192855900e-02
2.265165414061679275e-02
5.870847374114625955e-02
1.104305083435456886e-01
1.593418296295100456e-01
1.789165607152140014e-01
1.499998549940948778e-01
8.229294917390124475e-02
-4.511296925438015859e-03
-1.139171036045638630e-01
-2.405797616162037023e-01
-3.154422217972118192e-01
-2.544187355428325636e-01
-7.022257817518887113e-02
1.225525956890181623e-01
2.204721477263718588e-01
2.113206045607240735e-01
1.448960254642331080e-01
6.233751803844973793e-02
-2.290550985422215927e-02
-8.976868537832881356e-02
-9.756655807019198878e-02
-2.953638328636604138e-02
7.442242210875346653e-02
1.517669642079135239e-01
1.747086464234025582e-01
1.556995528551446129e-01
1.031661047207098475e-01
7.414423682681883093e-03
-9.905510352070805158e-02
-9.684350894804756582e-02
1.011628940227220774e-01
3.184863128353242478e-01
1.483806244439530297e-01
-5.283689179754603726e-01
-1.156934684831490312e+00
-1.053750816993029193e+00
-3.113314349633720113e-01
2.997136113740470620e-01
3.020653404395375885e-01
-4.565945193186940476e-02
-2.446058305994345539e-01
-1.330451426318728092e-01
9.141433820513830688e-02
2.141644725061396526e-01
2.188590013277352808e-01
2.018499468164097199e-01
2.100042654547569221e-01
2.174906441454194095e-01
1.926120041217811996e-01
1.287742527687889826e-01
3.845707326450691771e-02
-4.145439460829333095e-02
-5.351297831988768849e-02
3.038478585785541961e-02
1.617469461081061655e-01
2.473501176887547282e-01
2.354209400980615818e-01
1.604645190479970784e-01
9.802725596981838596e-02
7.752513723629105014e-02
6.027465198220918058e-02
1.198843162279220401e-02
-4.456604358896779777e-02
-7.315133469383575116e-02
-7.072702284728800415e-02
-4.366527538653387774e-02
1.064940739927637027e-02
7.668348069173219761e-02
1.187814917801103820e-01
1.185942950166135046e-01
9.292128890852316414e-02
7.656516500724655505e-02
9.184447738218243229e-02
1.310328823454959268e-01
1.748660552205190122e-01
2.150020258399557294e-01
2.387113398538586728e-01
2.197862552391627589e-01
1.522922766299816544e-01
6.796813890811234660e-02
5.517575889989473868e-03
-1.946268517275616394e-02
-1.409999147005370698e-02
2.299730796483502246e-02
1.337604049484877045e-01
3.276098748337731847e-01
4.106907449832712387e-01
5.140130326822711648e-02
-7.305560557427395185e-01
-1.305713342484767781e+00
-1.092354904014060990e+00
-3.414743661784807038e-01
1.920155724121857810e-01
1.915861711335450634e-01
-3.069533596438860090e-02
-1.130075544623413281e-01
-3.281034292978565747e-02
4.598908804739536282e-02
5.031800878274316630e-02
3.011756398446027716e-02
3.369439538807256912e-02
5.711732533070307954e-02
8.567602309712524233e-02
1.246133356929986363e-01
1.822455077451956562e-01
2.404529679269053200e-01
2.634021933080442079e-01
2.376264440913536946e-01
1.811967871244433426e-01
1.157021754078054326e-01
5.319908330610005620e-02
5.038631509979206446e-03
-1.675109354034061762e-02
-3.447925769224627693e-03
4.957624488873685342e-02
1.286549656532744168e-01
1.815767793985382239e-01
1.398572597862300371e-01
-6.886304876427964267e-03
-1.665793549457555422e-01
-2.184435605853571050e-01
-1.454877235343620678e-01
-4.661621699348812708e-02
-8.332265643948878753e-04
1.823900415018789301e-02
7.042143708783386857e-02
1.543095975149121335e-01
2.155700499508653445e-01
2.152509061634610976e-01
1.643067695730460187e-01
9.746115919219534851e-02
3.569210924323130973e-02
-9.075824899163059678e-03
-1.447490238927928198e-02
3.067882604562690782e-02
8.756179699079641443e-02
8.074109799435040535e-02
-1.815014281301087495e-02
-1.100163692517510672e-01
-2.508698314232720578e-02
2.408040530787818601e-01
3.478506111606368689e-01
-1.047990116250985676e-01
-9.441168341797541164e-01
-1.375500752643220137e+00
-9.164790426957758473e-01
-5.455526218725559318e-02
3.953927602401460795e-01
2.390535615084119214e-01
-1.088751709512921495e-01
-2.613233077241073898e-01
-1.885070175304802143e-01
-6.489543262983461791e-02
-1.027341646365355354e-02
-2.532214570042455593e-03
3.556543319597439690e-02
1.244436793327352020e-01
2.154721355617083001e-01
2.583233714130610537e-01
2.442562600839732756e-01
1.925441915766228362e-01
1.260691728446200754e-01
6.463514504284330331e-02
2.565077669188353671e-02
1.879205714047554529e-02
3.908725309578132967e-02
7.266923914779385707e-02
1.075361966659968693e-01
1.326669246119563661e-01
1.381936664786149738e-01
1.197806813350259236e-01
6.607596737619547689e-02
-4.303364627185308350e-02
-1.894145382229733277e-01
-2.881093704039648928e-01
-2.590781096518671722e-01
-1.220971834223213842e-01
2.226496347606139042e-02
9.667366544001666784e-02
9.596186142231220850e-02
5.077498512792254226e-02
-1.449551980863781134e-02
-8.632810232972550069e-02
-1.448436707925440381e-01
-1.542180394323941217e-01
-8.679219160899583063e-02
3.484102035575943612e-02
1.396040532874095463e-01
1.719274832156537924e-01
1.396239349217913706e-01
7.787480507182049927e-02
-8.081150069762291915e-03
-1.166867916772815206e-01
-1.736312278003914744e-01
-6.917128053787641173e-02
1.327983443310893352e-01
9.066593686975985000e-02
-4.496635039235644671e-01
-1.134853701686135086e+00
-1.243602758466360036e+00
-6.205525908397312440e-01
7.103881121837857249e-02
2.184440270143962748e-01
-5.646835490140394986e-02
-2.440609338666884232e-01
-1.202460729672035766e-01
1.204715412372211886e-01
2.366125730646003733e-01
2.233699339676296358e-01
2.021991345111647242e-01
2.078593377642388162e-01
1.956413055451001470e-01
1.575224389808232706e-01
1.293798508154110349e-01
1.325164955541957568e-01
1.695587431895425601e-01
2.363228141048553943e-01
3.027402696808359495e-01
3.265487345876278980e-01
2.981844506019252217e-01
2.361993369193017833e-01
1.562582190478506994e-01
7.431347603370477839e-02
1.291718873032793140e-02
-1.375515736441356579e-02
-9.593413930852209837e-03
2.095362680940065538e-03
-1.128496024620118110e-02
-5.500046682996179159e-02
-8.756316878094511091e-02
-6.776559446361959949e-02
-9.946796428528942302e-03
3.461869529087450992e-02
3.756378009975189225e-02
1.282450923077626571e-02
-9.851280292213285272e-03
-6.861040347195954819e-03
3.715982007937831955e-02
1.179869390919116301e-01
1.969082664354473711e-01
2.235126056812751782e-01
1.797221406466590898e-01
9.292344614347755605e-02
1.299930409979264782e-02
-2.481740446223350272e-02
-2.703563899758495287e-02
-2.773461758068773014e-02
-2.830429681390179281e-02
4.367809106699039462e-02
2.432248972597732539e-01
4.052955206519727183e-01
1.560252306214047480e-01
-6.121997664465124167e-01
-1.343576226790648587e+00
-1.322657992295904084e+00
-5.900969934763173885e-01
1.029424595073295950e-01
2.445783521381661441e-01
2.232662654230436333e-02
-1.377044166608402120e-01
-9.097056346831376705e-02
3.193040669677529170e-02
9.080316569464352838e-02
6.036075091136013093e-02
-5.332509898082392341e-03
-3.509080874486224244e-02
4.702048520674976563e-03
8.912128919270792538e-02
1.744208602278438380e-01
2.395467712437160390e-01
2.805131354397529808e-01
2.893900880115448104e-01
2.524215961877057657e-01
1.701318706803159608e-01
7.374406446316987551e-02
4.721610249611932902e-03
-1.714823667706792676e-02
6.388151424089135236e-03
6.473376452675713710e-02
1.390947780103106712e-01
1.978396572585357782e-01
1.908949423972933213e-01
7.318043854272214543e-02
-1.268768238260689629e-01
-2.875129801899209969e-01
-3.008175233653069824e-01
-1.843797873925799302e-01
-3.904850754264503621e-02
7.033315129363305884e-02
1.349428730424820366e-01
1.445737564593247149e-01
9.201641138502764106e-02
1.818863464425455115e-02
-2.062976306859804973e-02
-2.092484564791710633e-02
-1.839280978247967088e-02
-2.883267533027943086e-02
-3.402857476932291680e-02
-7.301800038189883331e-03
5.583287922493168631e-02
1.186872384609064524e-01
1.278799720384617977e-01
8.721064479084965348e-02
9.164312132849272707e-02
2.135549346608038301e-01
3.182499736321428019e-01
1.071980975088322324e-01
-4.790282886759550385e-01
-9.833287298220597661e-01
-8.728869811873420925e-01
-2.426851243890610910e-01
2.770657456536302909e-01
2.983291192718868778e-01
1.939388284853423711e-02
-1.802183431652971124e-01
-1.892539685721326970e-01
-1.477869345943774171e-01
-1.533209478830342143e-01
-1.356432249118520172e-01
-1.480328589810928942e-02
1.537654371016854149e-01
2.531236938333688014e-01
2.439355611641225996e-01
1.813723176004715110e-01
1.370978197784357422e-01
1.394237091794752192e-01
1.747392334552662629e-01
2.145393041775060516e-01
2.348736658242170372e-01
2.321391992908849455e-01
2.246468624149321469e-01
2.258042364612953268e-01
2.258427575759683892e-01
2.096109141222868011e-01
1.714545856258521961e-01
1.045095843996331209e-01
-5.627881597426117634e-04
-1.274692689175452309e-01
-2.122693301033017343e-01
-1.820519392846952633e-01
-3.814494271676630022e-02
1.259781028249458701e-01
2.145275091162021919e-01
2.100020318198732860e-01
1.497085881257131657e-01
6.193398000316496094e-02
-3.978436241169538978e-02
-1.153520638986467728e-01
-1.015088715765241900e-01
1.460276800545797296e-02
1.550196472000501813e-01
2.212669921986150368e-01
1.919100530896904744e-01
1.270645817225568297e-01
8.661040396431222976e-02
6.285155004520699695e-02
5.516662457119411202e-03
-7.763422567822779452e-02
-7.409539896746056287e-02
9.266968106677411776e-02
2.447969072551735015e-01
3.549004382801732027e-02
-5.624033361186536739e-01
-1.018997957125886256e+00
-8.300737701418806624e-01
-2.085109159083408104e-01
1.871421576703052869e-01
8.436768324027987820e-02
-2.090744275632301918e-01
-3.170350638775719099e-01
-1.783057812349508608e-01
3.788399368164546005e-02
1.780128122428291937e-01
2.162515005666394985e-01
2.034674111831523136e-01
1.770223222404723185e-01
1.396686004187655816e-01
9.377178243328823659e-02
5.740146195348869856e-02
4.840132621673150226e-02
7.014812238151954538e-02
1.111379515744994884e-01
1.503826345484795823e-01
1.704229708819488820e-01
1.693350414833535988e-01
1.479409990074250503e-01
9.387488936419549623e-02
5.464714126193172088e-03
-7.810273568624252760e-02
-1.013950943865348508e-01
-5.500999361010371763e-02
-7.541368009105113915e-03
-4.867672052583928849e-02
-1.672105874665360814e-01
-2.273400007444738302e-01
-1.285806223189454867e-01
5.618880453151482018e-02
1.556328540388922377e-01
7.553700626897461023e-02
-1.051060657904944184e-01
-1.926263971588531021e-01
-7.640380865589471715e-02
