2.138128344418205318e-03
-1.786999359227930961e-02
-2.397160925592534686e-01
-3.182288177638419868e-01
-2.288664523589971633e-01
-1.034779189239684039e-01
-2.663212172409610765e-02
-1.063947907772659629e-02
-2.355920341827188666e-02
-4.581575777964360524e-03
8.224745787083634352e-02
1.977196077593156576e-01
2.616026373613837275e-01
2.332491554646187182e-01
1.402350048914875191e-01
3.870326099077028154e-02
-3.126890549868301811e-02
-5.840415412965400260e-02
-5.366666345930355686e-02
-3.279823250415166841e-02
5.253712244344489746e-03
7.570629947516754887e-02
1.670188439553151882e-01
2.085068532902201455e-01
1.223230107169045316e-01
-6.746552848936740454e-02
-2.272860505967382039e-01
-2.560342705075447922e-01
-1.851269826100362392e-01
-1.021493589280916547e-01
-3.532114155314093618e-02
3.972142335237404537e-02
1.211843716002312388e-01
1.615372016017186940e-01
1.222188689040966947e-01
2.054529254121520779e-02
-8.497536105920691640e-02
-1.448475194336115435e-01
-1.501912329901511078e-01
-1.313538144243019401e-01
-1.290673597821362373e-01
-1.361340470227154764e-01
-6.555002606550951183e-02
1.474336701277660366e-01
3.379469702716865198e-01
1.199145055111057873e-01
-6.330730135579492046e-01
-1.377235971897569300e+00
-1.405674358178039984e+00
-7.620190527291466065e-01
-1.660733811199563981e-01
-7.131459893351635437e-02
-2.630701359576143594e-01
-3.400149393253937280e-01
-2.064806454106442313e-01
-4.926344091032662520e-02
-3.109631501399538409e-02
-9.385714505872623514e-02
-4.407423076944806672e-02
1.845611782395693290e-01
4.125656259958079830e-01
4.367691410499213167e-01
3.039783606554504747e-01
2.360260392529734685e-01
3.300816433057046639e-01
4.491939532946773173e-01
4.055840414465796129e-01
1.871944728804431912e-01
-3.828034969531456805e-02
-1.225347302779674491e-01
-6.960990710203716902e-02
2.835087403951971896e-02
1.065467632319378466e-01
1.527865889549158696e-01
1.670331605404702935e-01
1.387179130803975480e-01
7.135696024503933310e-02
3.435045550717647986e-03
-2.316980593187177237e-02
-2.021982447695820813e-03
4.650889535221135185e-02
1.046937252481978803e-01
1.692751496025282631e-01
2.393602453070715064e-01
2.916221607286440531e-01
2.830044056861420465e-01
1.995421220832736264e-01
9.202897314308580712e-02
3.691155166508885282e-02
5.438370466025931049e-02
8.420498974883797172e-02
7.116059367408401892e-02
7.253485560959423151e-02
2.212736196044919335e-01
4.956430032487147419e-01
5.419695153757014827e-01
-4.002048192679993899e-02
-1.064995194927738087e+00
-1.711666588983846937e+00
-1.436547794620182339e+00
-6.437311530920559743e-01
-1.089126561823907380e-01
-7.195634439669849891e-02
-2.109334557881062944e-01
-2.113211308916012887e-01
-5.685586496501692649e-02
1.134419383932538522e-01
2.107301729631041176e-01
2.336345146609963286e-01
2.090287479315586228e-01
1.624916042862099563e-01
1.234007205253533773e-01
1.264510625138293431e-01
1.953910708029705512e-01
3.085124211015437545e-01
3.894291078441749487e-01
3.655411474744686973e-01
2.409618306976982205e-01
9.169045829655959878e-02
-9.729956838352146059e-03
-3.452981696342417861e-02
2.681203823612755485e-02
1.607559868738729358e-01
2.955227151790553175e-01
3.424687227610725415e-01
2.853609967016492721e-01
1.856703048133393763e-01
1.042684088252196495e-01
4.768754422199553145e-02
-3.151775220662593989e-03
-3.157151317593578921e-02
8.987402398142307555e-03
1.231735379253323243e-01
2.531903446727248874e-01
3.390368069978088594e-01
3.594933521634210427e-01
3.174545546570956556e-01
2.256273069743456039e-01
1.089149259517152024e-01
-1.864021596498447852e-03
-8.637436766673046995e-02
-1.365515733644760421e-01
-1.265842366560289700e-01
1.615733457441693305e-03
2.442983248863738466e-01
3.894429558234646094e-01
1.182052878264842899e-01
-5.505588225711589567e-01
-1.067067377089074842e+00
-9.362770335501072738e-01
-3.762450581582196252e-01
-2.197395301306709348e-02
-1.088291466740227281e-01
-3.097244838985065973e-01
-2.747772858511850491e-01
-2.557462255340026136e-02
1.806254481606288653e-01
1.833086908815038663e-01
4.328981266383249982e-02
-8.060419923860628888e-02
-9.594493557267559647e-02
-2.434081457946781629e-02
6.594061806452877761e-02
1.394129401762688181e-01
2.037015983433793365e-01
2.659450150281510994e-01
3.011710535373906539e-01
2.710288850051560394e-01
1.704335061636717275e-01
4.407228988974354333e-02
-5.037089284690845353e-02
-8.342785477954692275e-02
-5.005206062771161424e-02
4.248462923656968343e-02
1.516697746287849480e-01
2.017666938030597268e-01
1.572888820678962629e-01
7.207493573155424049e-02
2.368667867482210365e-02
1.948815898567416924e-02
7.768639634005155593e-03
-3.366044686278740067e-02
-5.920790216731600109e-02
-1.048265414673210660e-02
1.065704735434127026e-01
2.158310405486245087e-01
2.486473865574268249e-01
2.077890428676491819e-01
1.429961226614742120e-01
9.147749582886283148e-02
5.444817413667892708e-02
6.070725689825112736e-03
-6.602662585149833563e-02
-9.212219171157072506e-02
6.328376353360627704e-02
3.904610467536431262e-01
5.311922122378894828e-01
3.811526703846673803e-02
-9.635506996064060470e-01
-1.657050124434613636e+00
-1.432866361780386288e+00
-6.451101619892150030e-01
-1.026392414184457702e-01
-9.401804169152071233e-02
-2.765584608993287841e-01
-2.806838481055398127e-01
-7.768322048853779083e-02
1.507959580522646725e-01
2.606259646939043106e-01
2.382371368169260428e-01
1.536085799090720072e-01
7.622318536572203485e-02
3.550093685629841095e-02
4.090484140792008394e-02
1.030144056885197168e-01
2.134986734423186538e-01
3.236505652679942946e-01
3.703232296524493483e-01
3.249144584467970054e-01
2.102256113028201367e-01
7.817460967316980369e-02
-2.255104190042780260e-02
-7.008510360839234621e-02
-7.033548207202443281e-02
-3.539566726091954163e-02
1.901700038760446160e-02
5.388701618657992798e-02
3.673329334145409436e-02
-1.480763146697346502e-03
-1.272588086933902629e-03
3.034006720266472362e-02
2.072622244091327365e-02
-5.967331706029392613e-02
-1.360778826348559567e-01
-1.096173710989142014e-01
2.327214339334011256e-02
1.681891887843021960e-01
2.372771033430438048e-01
2.175674992608742364e-01
1.418260718545227006e-01
4.141631423734812995e-02
-5.377639711168512304e-02
-1.051188901527846525e-01
-7.887457332010712474e-02
4.591783363943681417e-02
2.581654036494427373e-01
4.193346255714140436e-01
2.372174175394801687e-01
-4.114232494406078189e-01
-1.104392318985229826e+00
-1.212706004533524062e+00
-7.151541896937454457e-01
-2.365355434626534858e-01
-2.080133223316185942e-01
-4.273494895708516150e-01
-4.880509127497948962e-01
-2.800891459767468894e-01
1.040755818590908058e-02
1.865468993641634654e-01
2.097429675431112805e-01
1.499687107432441380e-01
7.617201045516416857e-02
2.134650101542674705e-02
1.793451308676509426e-03
2.490578675632099809e-02
8.009672906524278879e-02
1.446578859903539238e-01
2.065824529550330246e-01
2.677276384524219233e-01
3.140728360171642364e-01
3.017930627235722030e-01
2.040864433713409087e-01
6.869142903975079817e-02
-9.293949652541795906e-03
1.470786666376880901e-02
8.866513872940426366e-02
1.263588035110654317e-01
1.016019954760653404e-01
6.797217985948107721e-02
8.477289129278264834e-02
1.407247392010884945e-01
1.678425828065744918e-01
1.228395316677368398e-01
3.951078623025707642e-02
-3.071425880765621917e-03
4.143120315294180483e-02
1.472243719842382392e-01
2.468760942220556420e-01
2.884372820072106380e-01
2.700192839855108384e-01
2.274373737694663500e-01
1.814195748687025267e-01
1.078844699443726879e-01
-8.037990294350790335e-03
-9.180023265449145653e-02
-6.435515322568544083e-03
2.695939066777545134e-01
4.629923957169728710e-01
1.495117413913857329e-01
-6.899786741444926541e-01
-1.389562801654838475e+00
-1.282150634453773863e+00
-5.620399638998807568e-01
-1.133888827973350555e-02
-6.357357124769780557e-03
-2.401358451853079223e-01
-2.962902929834211330e-01
-1.045452529164884597e-01
1.502963362804934644e-01
3.086275678043354787e-01
3.412732890590743917e-01
2.812216750082476846e-01
1.594687489441866113e-01
2.345595913433433724e-02
-4.647783868159238024e-02
1.902903339530418163e-03
1.334976197534956388e-01
2.606777940455246578e-01
3.205606321565674932e-01
3.076310641427417725e-01
2.529603253903236482e-01
1.854667975154023207e-01
1.143761106319047122e-01
4.904152165203181507e-02
1.673643807348462742e-02
3.268725292687055944e-02
6.622691451095966131e-02
7.748213857522608106e-02
8.178835641379032795e-02
1.320327427085795369e-01
2.290843087601611983e-01
2.938420369062360038e-01
2.536143370585359769e-01
1.298153473121513857e-01
1.747378360912226272e-02
-7.167809326374906947e-03
5.717010841077382888e-02
1.585509430118845486e-01
2.436636051702874284e-01
2.843268492729152386e-01
2.734200414931790002e-01
2.144126439997072753e-01
1.157310510313358104e-01
-1.127359224757400885e-02
-1.342736168364288274e-01
-1.659817595208638585e-01
-1.328877980479874904e-02
2.249332707331916648e-01
1.712435355810162374e-01
-4.228866439926318166e-01
-1.139383858230803126e+00
-1.225484089179634584e+00
-6.121884342557593062e-01
-4.596976465684754487e-02
-6.106747232259314428e-02
-4.002289184054154125e-01
-5.567912095560383356e-01
-3.923641178061075263e-01
-1.031089261053715345e-01
1.162563962124251310e-01
2.283791016078240144e-01
2.762303808132051119e-01
2.722357597800152962e-01
1.996249234394107397e-01
8.389770608365368365e-02
8.818340440836722194e-04
1.318984750764479706e-03
6.517514105654598211e-02
1.434023404501186538e-01
2.123949294930863041e-01
2.678618953014207937e-01
2.917973679462079195e-01
2.582442288486599957e-01
1.678228087957212844e-01
6.015432252866601687e-02
-8.655389486034024971e-03
-9.852258078723303072e-03
2.453723614093765437e-02
3.716862905652570243e-02
3.062573511682358321e-02
6.972270435916126663e-02
1.720365072830161157e-01
2.543526896207259913e-01
2.308436964146262371e-01
1.207154903092514386e-01
1.751015377680618587e-02
-1.201302375255414168e-02
3.584628115975715262e-02
1.255819001761494247e-01
2.062099946802381512e-01
2.408506603526072987e-01
2.352050894242617152e-01
2.150236686955347143e-01
1.744890088346146284e-01
8.391946231125221867e-02
-3.370429434154179060e-02
-6.522216820746480626e-02
7.769913797703129066e-02
2.476564685241268160e-01
7.480493199299802221e-02
-5.856708254366859157e-01
-1.269178268334404835e+00
-1.314440755859865417e+00
-6.972414555990114060e-01
-7.776896498145106917e-02
3.061776456025434162e-02
-2.282162460431683970e-01
-4.195715516666592704e-01
-3.546678038828988133e-01
-1.446530725239629778e-01
5.405271848779810706e-02
1.809866090258142324e-01
2.392030427617644062e-01
2.441145049283105495e-01
2.074293703046762305e-01
1.392969548909991362e-01
6.662888418462750706e-02
3.514948975091974903e-02
6.764956473479097343e-02
1.367371761288881382e-01
2.017451535236690630e-01
2.442585812926294508e-01
2.511617558413458684e-01
2.070734333418797202e-01
1.241890876727478055e-01
4.556015713171390064e-02
3.063850708563391895e-03
-1.363131430842139634e-02
-3.599664262507522305e-02
-6.380691064301260984e-02
-5.141814296655354555e-02
3.069368863043291790e-02
1.379171720392892708e-01
1.883919280507570237e-01
1.485741197062795393e-01
5.995030400129090775e-02
-8.769116017094737495e-03
-2.402080263281842348e-02
-1.317665302006212555e-03
4.159764006619947468e-02
1.148722806796039775e-01
2.093158858376081843e-01
2.478199394572307979e-01
1.418086593502622117e-01
-8.560449359405572500e-02
-2.771181795790648161e-01
-2.754364661662231928e-01
-5.080281416633630059e-02
2.574719134026489109e-01
3.287323151890123030e-01
-1.329950848370171079e-01
-9.243651674030659571e-01
-1.327708984761220901e+00
-9.465858597884418968e-01
-2.675727557670566359e-01
-1.544673144931543729e-02
-2.758419485885567624e-01
-5.820958342590759615e-01
-5.752903796609195597e-01
-2.957069166692489759e-01
1.607167396492395484e-02
1.920112447604937489e-01
2.298264382253507876e-01
2.182176584504128547e-01
2.138197912470868600e-01
1.963248421152861967e-01
1.331695669245354097e-01
5.323698596474405603e-02
2.776922035719900025e-02
8.957530533792107397e-02
1.947030946036553134e-01
2.593163942393439392e-01
2.295099978058498524e-01
1.372357003540606857e-01
7.470894057539237409e-02
7.277927605107772924e-02
5.036671090532335304e-02
-5.189675851040332494e-02
-1.559844890503969961e-01
-1.441668556627688502e-01
-1.299418097787845630e-02
1.434081644137984168e-01
2.520363674667613907e-01
2.936731816722413790e-01
2.669602851979303582e-01
1.900524545111448027e-01
1.052435338693430977e-01
4.603793182198010620e-02
2.487116061228454925e-02
4.875060355102083659e-02
1.156533007978343131e-01
2.001259165450488542e-01
2.647231732671633808e-01
2.929848563531555761e-01
2.916266207786999964e-01
2.440097325074613022e-01
1.070688851780086243e-01
-8.063122519574439373e-02
-1.422659100354747574e-01
6.218350095844399350e-03
6.282928481473723514e-02
-3.808776661541311559e-01
-1.128517637934811413e+00
-1.410247983199707011e+00
-8.805165831916829111e-01
-1.077740464935435794e-01
1.903822586415110929e-01
-3.559343286161331665e-02
-3.325557719474602214e-01
-3.734482408051508773e-01
-1.923926534835050939e-01
3.136809136086431138e-02
2.098418693563994242e-01
3.495874022673255421e-01
4.304991156888090531e-01
3.886523142464636260e-01
2.304229815459288289e-01
7.820668387834667223e-02
4.780530073250217893e-02
1.267057906739920692e-01
2.108171593626965712e-01
2.304264491177958341e-01
2.146326654582492721e-01
2.313851896998123103e-01
2.851913648212790475e-01
3.138041811103435275e-01
2.766977846369458316e-01
1.970585751072145286e-01
1.144731192827915939e-01
3.923406391013807559e-02
-2.331943235100586431e-02
-3.183082138144094353e-02
5.511026493967467743e-02
2.022725266921047704e-01
3.122346927437260611e-01
3.250373765239017998e-01
2.605349700512659128e-01
1.687876169917151559e-01
8.524491855456173273e-02
3.385381176296126116e-02
3.360444000334232573e-02
8.426719028758694607e-02
1.593605206455809276e-01
2.227752023377776169e-01
2.462724128296490123e-01
2.110733896757754080e-01
1.170093983863784021e-01
2.250993565610380845e-02
4.188158912214540869e-02
1.857154978910681153e-01
1.902388552417483281e-01
-2.603172937162400724e-01
-9.830891628662202786e-01
-1.283111392137770146e+00
-8.072816309677296465e-01
-7.572307942268502456e-02
1.931777038354791642e-01
-6.066771897086178922e-02
-3.632022133540003805e-01
-3.728717700240186117e-01
-1.505710875713325569e-01
6.998078729630480277e-02
1.644149399737175610e-01
1.726511033313787025e-01
1.828558535554941078e-01
2.219236681977250769e-01
2.424975164071523914e-01
1.898494857173767814e-01
8.647913675706260517e-02
3.506166163886627329e-02
9.715697166429007603e-02
2.031572224693216355e-01
2.469780577220658802e-01
2.210265363874681088e-01
1.893456775545562798e-01
1.820346872262709192e-01
1.775969208169396463e-01
1.539848834871138661e-01
1.106461692392768786e-01
4.735979197834705445e-02
-4.224504298851593231e-02
-1.336342721513662235e-01
-1.549129612685315738e-01
-5.332665843691820895e-02
1.269665108595768033e-01
2.713830145951360295e-01
2.991454490707402547e-01
2.198808551987094240e-01
1.003420294312295930e-01
1.211176146444807242e-03
-5.602838615622519891e-02
-7.415899814769258414e-02
-4.793304323616676133e-02
3.227847194628845340e-02
1.439125225100274796e-01
2.222211171157310872e-01
2.037459877297726207e-01
9.086641624909087833e-02
-1.481529120900927816e-02
2.205878035224501793e-02
1.724465299485558045e-01
1.104035757615407509e-01
-4.852794621537411257e-01
-1.354657703509445144e+00
-1.709392425101384561e+00
-1.162499090993141193e+00
-2.757926518748498035e-01
1.447328118909071426e-01
-3.346070095117179705e-02
-3.472021850006201671e-01
-4.272359216587616748e-01
-3.003039374163306574e-01
-1.450217632218779307e-01
-2.275541964550993265e-02
1.052020079352331411e-01
2.384177227524956477e-01
3.171636291907206084e-01
3.088458388408081290e-01
2.475679250052579550e-01
1.856341267383523064e-01
1.425573736734879748e-01
1.103742398446111994e-01
8.902404431621040171e-02
9.799126384890408104e-02
1.435228856636288353e-01
1.819427352972632084e-01
1.514978376581132546e-01
6.414876258382709584e-02
1.333188661185319424e-02
3.418798536719015735e-02
2.651392265154745020e-02
-9.357937767752362579e-02
-2.347917186245483956e-01
-2.290469266029203643e-01
-4.811750257244961498e-02
1.663357444642243055e-01
2.701616958847742334e-01
2.455510205592510431e-01
1.669887006170154287e-01
9.825835715540814919e-02
4.820765760291699509e-02
2.637102523201727278e-03
-2.795067300987393033e-02
-5.573263115620201089e-03
8.312970095132382609e-02
1.921107336027405299e-01
2.545529272761590245e-01
2.351765619546018482e-01
1.511818530765466628e-01
8.451571310591261821e-02
1.170448644548395395e-01
1.503700550622890098e-01
-1.102057422087598243e-01
-7.489459437736015746e-01
-1.289434889805686213e+00
-1.147513117899660928e+00
-4.340404858083384276e-01
1.359636055981148783e-01
1.344847566458584887e-01
-1.909900971227375677e-01
-3.952193540718835219e-01
-3.386382303954939554e-01
-1.641773920490144645e-01
-1.573820088282872065e-02
8.665719989718935479e-02
1.758517335889796807e-01
2.561655335822956014e-01
3.045571562925997733e-01
3.093699172048964274e-01
2.778229599751336210e-01
2.168265722765011227e-01
1.394881171600877712e-01
7.965965878360348196e-02
6.662114435194639583e-02
9.719475012575475026e-02
1.484857495341553035e-01
1.995021698400545884e-01
2.354098175305232854e-01
2.479542003889586566e-01
2.345089845854888833e-01
1.871569764741056185e-01
9.069944327457030164e-02
-4.423199402285209192e-02
-1.499353787227686308e-01
-1.430158641421067078e-01
-8.736899313543287915e-03
1.828980363419911714e-01
3.432999485609853352e-01
4.194360739400221361e-01
3.966890929562221779e-01
2.949510338499087836e-01
1.689781149137461469e-01
7.865403230071582596e-02
4.503314348219202012e-02
4.803170422726193989e-02
6.796343270635110678e-02
1.111866493717801330e-01
1.768215947161312918e-01
2.198033700844119198e-01
2.093794456421544381e-01
2.156000150551457273e-01
3.051611623424598241e-01
2.942663404885673684e-01
-1.703161324716574998e-01
-1.045133741125802596e+00
-1.644260503210482005e+00
-1.373732417250071780e+00
-5.287554057261508733e-01
7.195591304715784342e-02
6.046219239082277486e-02
-2.556726348487371459e-01
-4.554278645826988492e-01
-4.262600426462891945e-01
-2.823253903184502756e-01
-1.330040662603403923e-01
-9.479135519077305089e-03
9.201930973753336129e-02
1.782812933804513444e-01
2.484388924324991421e-01
2.849960994431414707e-01
2.697939415983219846e-01
2.112453470936958566e-01
1.385714247490481832e-01
7.660890746852916378e-02
3.950283491105583550e-02
3.914214547020832685e-02
8.570051727397705321e-02
1.717336081084556987e-01
2.575074051338292480e-01
2.918559244304345657e-01
2.530645816043168850e-01
1.522486844154438967e-01
1.528888912889951254e-02
-1.051206638053779063e-01
-1.358472843825760390e-01
-5.061553832163835642e-02
9.454113035845794488e-02
2.190539357563489331e-01
2.848023609061291483e-01
2.970757570841887074e-01
2.683370117503112717e-01
2.026231476836321821e-01
1.122924788293219733e-01
2.799722996632109800e-02
-2.294856683624863294e-02
-3.180135198694519771e-02
5.908072444426563583e-03
8.349514634122444379e-02
1.528723978896026903e-01
1.636142879169550091e-01
1.558023284201987824e-01
2.231997872082237266e-01
2.999022617628048226e-01
8.570697337161245488e-02
-5.747265894920113860e-01
-1.253384284948398930e+00
-1.280348450944280625e+00
-6.277724934676623958e-01
9.932269888948380698e-03
1.222767585696404313e-01
-1.098977813435501466e-01
-2.761554265539732378e-01
-2.595387412428412088e-01
-1.838816764726601549e-01
-1.353499649819730200e-01
-9.743551844948514229e-02
-4.385994955221881458e-02
2.689190931161919429e-02
1.192972548220964657e-01
2.314679157876260995e-01
3.213434393543410650e-01
3.296087664081935320e-01
2.477914221355486390e-01
1.349193262824757711e-01
5.724694807365390131e-02
3.253675293197275803e-02
4.113812351747434676e-02
6.817702999155157706e-02
1.119907585955189078e-01
1.629750102075978313e-01
1.961997716409867865e-01
1.806191496280730169e-01
9.767610900950966790e-02
-2.445767086324207237e-02
-1.053720882637411010e-01
-8.264532889177357566e-02
1.783986606278588002e-02
1.184917380955783361e-01
1.825478104076273811e-01
2.296878364040383647e-01
2.699695215490515721e-01
2.688326268356444615e-01
1.985532755148688155e-01
9.667581101780917119e-02
3.286366801206779681e-02
3.022284163750495189e-02
6.366717363783405692e-02
1.134346233841657253e-01
1.643844518481779593e-01
1.863178926063262797e-01
1.872834009888370288e-01
2.534657611482342698e-01
4.156913700237742648e-01
4.411547324654386815e-01
-4.322276993259750733e-02
-9.859594697708379263e-01
-1.667279204056366204e+00
-1.441166995490203995e+00
-5.782553424718478441e-01
7.673289835035783379e-02
1.203785929394492193e-01
-1.450464815334182589e-01
-2.883007173054670802e-01
-2.141462258024768028e-01
-8.695639638554868156e-02
-4.015199071326033126e-02
-5.544252533400666899e-02
-4.959359321711776653e-02
1.747031954391831121e-02
1.270203374473245772e-01
2.370511102255080105e-01
3.098007520694092687e-01
3.214225049741281093e-01
2.603563411052448595e-01
1.370630042828010486e-01
6.042612330690980832e-03
-5.558478554913367370e-02
-1.605518821344642522e-02
8.706018064664475253e-02
1.936314640986805391e-01
2.643709218084759338e-01
2.821784370552511967e-01
2.348308506320962441e-01
1.158222487027484177e-01
-3.973778386750080605e-02
-1.447996591376718989e-01
-1.323049309677613861e-01
-2.325258357512054522e-02
1.067211983510382295e-01
2.034506445773455741e-01
2.560945868728936592e-01
2.697677581970198135e-01
2.448411432539517874e-01
1.835547298135294381e-01
1.029955243970402667e-01
3.339609783035635965e-02
3.444299178444592061e-03
2.178535072666656913e-02
6.274220585290717078e-02
7.726123817404764726e-02
4.748914110069205052e-02
4.230709288746535568e-02
1.655899528963322986e-01
3.590646861700844128e-01
2.863022872005946406e-01
-3.424216956931189770e-01
-1.213347153206021378e+00
-1.536979697061524375e+00
-9.986463266274805406e-01
-1.905986263973699357e-01
1.722417316172411006e-01
4.967695932419181198e-02
-1.371029574641479121e-01
-1.348135570775766956e-01
-2.610514257822205836e-02
3.425514177406449590e-02
2.864696386892479074e-02
3.436697263761375604e-02
9.757613069925633043e-02
1.989334087001543017e-01
2.954709343293437929e-01
3.517411670983858207e-01
3.461025786635517631e-01
2.843887527692187112e-01
2.062276578773566127e-01
1.492985338901560433e-01
1.119407468721165533e-01
7.523018218852299543e-02
5.046095123768194746e-02
7.499821725407304629e-02
1.594432064878568422e-01
2.621631875112009347e-01
3.233229211040774542e-01
3.051756697493398507e-01
2.065070834264610133e-01
7.322222629081867606e-02
-2.177416889954777307e-02
-5.479049414320746880e-02
-7.324490351188248094e-02
-8.828714122039485468e-02
-1.987707644359296838e-02
1.638412585980331126e-01
3.447932300686123996e-01
3.925933481165019834e-01
3.160804806635298392e-01
2.066789635411967474e-01
1.194103387407977057e-01
6.669415575407852681e-02
5.977864860790622903e-02
9.552837028388613816e-02
1.342757965937918796e-01
1.504029399737260020e-01
2.028285960309493818e-01
3.700710618845028943e-01
5.323384024233762668e-01
3.070581635009635435e-01
-5.365992083969978177e-01
-1.551915981677562062e+00
-1.887417962737257593e+00
-1.286941848097084895e+00
-4.206617562394324716e-01
-2.308141231315018194e-02
-1.270093712213248016e-01
-3.137601508424469055e-01
-3.179525828594831904e-01
-1.865738492536102577e-01
-6.900742953811482561e-02
-3.292062887763273771e-02
-4.417680719603181427e-02
-3.703117485103214757e-02
2.075006523947837966e-02
1.109525496967706248e-01
1.898016146495951073e-01
2.243431300990841593e-01
2.083191626486864401e-01
1.512340296833880882e-01
6.862967207073469855e-02
-1.324184845487560297e-02
-6.238702008022536244e-02
-5.880083446564794009e-02
-4.869008711300124893e-04
9.884254568675653052e-02
2.057646910536654328e-01
2.669582588969313663e-01
2.326905220766083693e-01
1.062518288556576485e-01
-3.422803156640896738e-02
-9.937926488862905416e-02
-7.161478307728291748e-02
2.892253340252737455e-03
8.199952760021264608e-02
1.536046467867032417e-01
2.128668565919115407e-01
2.471063539447334312e-01
2.467141699887836492e-01
2.127049961906250231e-01
1.487261776235949684e-01
6.335015855475595314e-02
-1.905078413834536410e-02
-6.932551447010520951e-02
-7.690023729062547830e-02
-4.843274709058574545e-02
2.522599457267935691e-02
1.837321666763175321e-01
4.054934303854543232e-01
4.567111060938799372e-01
1.275787260746705926e-02
-8.304012870220336406e-01
-1.382301513386378744e+00
-1.116824981633668390e+00
-3.964712345617172340e-01
1.478704454806174795e-02
-9.215755956112776925e-02
-3.209738192265821355e-01
-3.235022428037436781e-01
-1.317621587291015472e-01
4.757761994726683596e-02
1.084736255406602845e-01
8.664643309500835722e-02
4.648782576355584006e-02
1.145987272684061836e-02
-5.462072819105850963e-03
2.670222599032918975e-02
1.164613066245273748e-01
2.178965611744807795e-01
2.700577505390729938e-01
2.456308780959788329e-01
1.584953800786433331e-01
5.115105490092318463e-02
-2.803896401316876424e-02
-5.211446650582943901e-02
-2.131256069346822157e-02
5.154850778107494813e-02
1.444260907351584966e-01
2.131995831710721545e-01
2.052170006197361618e-01
1.159742243874958278e-01
1.216184738656426144e-02
-3.635105327551593074e-02
-2.576324659416958165e-02
6.837369677905495019e-03
4.171397071414296998e-02
8.074721002683842019e-02
1.236149922022964087e-01
1.609759369531427731e-01
1.805442842505756429e-01
1.747364398924928786e-01
1.414266553439637031e-01
8.280770949862421848e-02
1.338488221066649365e-02
-4.477691976061616563e-02
-8.289006080123786924e-02
-8.915337034967554808e-02
-3.886236635270701872e-03
2.322092010825664854e-01
4.978633591305066108e-01
4.232850519340106143e-01
-2.517348201374210448e-01
-1.166827052707539059e+00
-1.533797172131839970e+00
-1.064808614096739214e+00
-3.417222114698301172e-01
-3.564591513012931034e-02
-1.536813887692060066e-01
-2.751317533958651529e-01
-1.895124414683586611e-01
-4.378453873711359717e-02
-1.134362760624129697e-02
-5.716525279465958786e-02
-6.176072194579589059e-02
-1.231560874749046755e-02
3.122394260413203365e-02
6.154247206313894630e-02
1.224340767280803349e-01
2.307447190069406573e-01
3.442524512410592985e-01
3.910784758553288443e-01
3.349020518811118841e-01
2.142063327126146888e-01
9.931871669092004473e-02
2.316781127581855546e-02
-2.182106756279980284e-02
-3.344279867050094918e-02
1.381670910805774324e-02
1.109315007715599710e-01
1.752256987564645707e-01
1.293426318209711379e-01
1.377047837147130777e-02
-4.932556893777739759e-02
-7.347635542301340916e-03
7.623216721670958429e-02
1.249244413405168619e-01
1.327147766032294729e-01
1.393888685960056328e-01
1.744823258404195609e-01
2.407721079600162184e-01
3.169191534582835867e-01
3.591031710252969855e-01
3.301012453364865484e-01
2.434915985314100861e-01
1.539440727831323796e-01
9.567573131726075930e-02
6.688168018735028697e-02
8.896915265272392626e-02
2.277961681480309142e-01
4.760933839259510192e-01
5.940137477846864078e-01
2.367061615815806430e-01
-5.324679570012227359e-01
-1.052271619751366183e+00
-7.967664393280847746e-01
-1.009673897596419512e-01
2.893357030249941175e-01
1.574881529969205385e-01
-9.368766220448010440e-02
-8.224673463126834505e-02
1.589602021880707761e-01
3.637908506006755638e-01
3.817334734566503185e-01
2.786521660098381092e-01
1.891925147466089197e-01
1.700022581576274006e-01
1.938575871373299508e-01
2.239773889875851243e-01
2.528957045870612319e-01
2.819546718120586326e-01
3.039796887016578686e-01
3.114754548094782471e-01
2.958737406122107227e-01
2.428246756177689647e-01
1.469122115987309130e-01
2.668043055479260572e-02
-7.256848586950408186e-02
-9.070303106013231920e-02
-5.608538330820762863e-03
1.128721730282846586e-01
1.526342276241977602e-01
8.255872270439454375e-02
-1.836076431094392850e-02
-6.577318410047246211e-02
-5.983996526706138186e-02
-5.481052585303924918e-02
-7.180943356426311430e-02
-7.445889768818185483e-02
-2.898892369588464482e-02
4.482166585601377040e-02
1.002919883935257661e-01
1.169791449428837643e-01
1.092781044829208292e-01
1.002466386801477427e-01
9.644682426524228691e-02
7.484064403850439195e-02
1.986055697302896439e-03
-1.060369399034836180e-01
-1.422768491031697613e-01
2.482629558317953414e-02
3.522924652818031355e-01
4.687421619366287096e-01
-5.729232440150471700e-02
-1.073835681838391176e+00
-1.736968451161684746e+00
-1.437325101668674110e+00
-5.842248181640130600e-01
-5.256270682616084877e-02
-1.295371032195774263e-01
-4.091499035650644212e-01
-4.711565680281463719e-01
-2.775225608834315794e-01
-1.415236389339490086e-02
1.607403507577715718e-01
1.905830023011331475e-01
1.046716830189895198e-01
-6.588891092757849510e-03
-4.967739693395821499e-02
1.362999199232637487e-03
9.729680206020831224e-02
1.769545984767302294e-01
2.212136042040999950e-01
2.389026772122490594e-01
2.239079216031237829e-01
1.604536606524189224e-01
6.638417256099451991e-02
-8.043013497019718683e-03
-3.117309590929816243e-02
-1.221758603216627041e-02
2.276669428539097179e-02
4.916568958832199382e-02
4.888043676217160294e-02
2.763063322874558317e-02
1.857598976425797049e-02
3.891894870375738058e-02
5.081389002362479007e-02
3.223191622130850559e-03
-8.516688853324455577e-02
-1.241811641947365985e-01
-5.019423991315787731e-02
9.502136564397577201e-02
2.024768865723347577e-01
2.081268833885683567e-01
1.431259573750328085e-01
7.046945606444399157e-02
1.074224658160309598e-02
-5.686747723721824466e-02
-1.487784914790142576e-01
-2.285539342567350085e-01
-1.915061575329936039e-01
4.210958787814943899e-02
3.348091995160369927e-01
2.920060947544265151e-01
-3.393866315318210258e-01
-1.163914677385144092e+00
-1.408914826741983317e+00
-8.890686238046793255e-01
-2.559392117694984647e-01
-1.104496152280018406e-01
-3.383494178094476057e-01
-4.703994138149883431e-01
-3.017829408582843320e-01
6.641622742820525380e-03
2.183284059511034492e-01
2.504018570782027830e-01
1.744135453979722694e-01
1.012972408443678501e-01
8.705973519276725969e-02
1.127499250193181868e-01
1.321572653280222720e-01
1.303686070591864310e-01
1.344612264383711342e-01
1.744836430308986386e-01
2.354810474967908851e-01
2.592572272579961590e-01
2.116939781949703503e-01
1.268726104290604229e-01
6.168435584814738193e-02
3.846556219343824634e-02
4.831444437740313458e-02
7.116632917573773032e-02
8.186641548489277664e-02
7.204207982860014181e-02
7.105167971557363460e-02
1.147401122286702407e-01
1.861565884268878979e-01
2.150731336443748865e-01
1.567832105214752580e-01
5.492275715233256583e-02
4.781237981748651805e-04
3.790636641817363844e-02
1.363065603116502267e-01
2.356877892468181301e-01
2.890744156304408397e-01
2.813017291204081838e-01
2.389610731941310406e-01
1.998527402722691804e-01
1.576748666673532528e-01
7.484525324993569761e-02
-2.239121229115828560e-02
5.220265464925873816e-06
2.346198269174635531e-01
4.830614201682964515e-01
3.028912567274824053e-01
-4.534623750057537039e-01
-1.233298964316071222e+00
-1.306875918597196096e+00
-6.921678549492311650e-01
-1.155625393038074711e-01
-5.542961044766743506e-02
-2.835424907469845657e-01
-3.591437284342874348e-01
-1.715306572503648985e-01
8.400322951481900557e-02
2.232280557880541583e-01
2.354325944240087953e-01
1.962087007771862734e-01
1.410018128653752756e-01
7.493164796540692507e-02
3.544843465254533116e-02
6.466279025839370698e-02
1.412430655536507651e-01
1.980716006805948171e-01
2.065251333823385771e-01
2.021162887254512319e-01
2.199011477564287997e-01
2.432097917878280613e-01
2.340277662201432629e-01
1.867072214120169826e-01
1.355900027327657797e-01
1.190902828240357203e-01
1.371667715788950637e-01
1.526754202256815074e-01
1.490671290882628619e-01
1.613271217370670363e-01
2.198789284456741100e-01
2.861208518967936487e-01
2.812829282686618027e-01
1.809734744982807175e-01
5.239380327540846261e-02
-1.639170394799404490e-02
4.345733437263916976e-04
6.719620412526916553e-02
1.367756865593857396e-01
1.778269777793358430e-01
1.806390249372593904e-01
1.582612999282487776e-01
1.226661335427071536e-01
5.323843371201979202e-02
-7.081743930726548675e-02
-1.793411277158503403e-01
-1.169648981676174454e-01
1.312248700337643459e-01
2.310507317958603313e-01
-2.069198434787219709e-01
-9.766245738800536369e-01
-1.304188118916679295e+00
-8.283761066697963305e-01
-1.235279244010730471e-01
8.927799863165819527e-02
-1.893688264453929349e-01
-4.525997658208342211e-01
-3.960478808232800185e-01
-1.350663704945861410e-01
9.003593268821689921e-02
1.877213593224424382e-01
2.079683977551634588e-01
2.060924493201878316e-01
1.842794449062827300e-01
1.295877781141164531e-01
5.783022103889029486e-02
1.627224407890230304e-02
5.588554021682259204e-02
1.857278073671116136e-01
3.392544674538957028e-01
4.148410338144294940e-01
3.754467905117198634e-01
2.751440029736240134e-01
1.751284127626138165e-01
8.885727945018057072e-02
1.823008779628654610e-02
-1.917847077861953645e-02
-1.723147573176039490e-02
5.644201585533770507e-03
3.844312273626160348e-02
9.534449770163731797e-02
1.802918670373678811e-01
2.531215044962292771e-01
2.577993985978052072e-01
1.807153591450011421e-01
6.598975757482224147e-02
-2.137079045952548773e-02
-3.667410364953020002e-02
2.696569856303418500e-02
1.404366410452300984e-01
2.539702873031336461e-01
3.190817791583081542e-01
3.056556187489780085e-01
2.116594087604447838e-01
6.760416829493823276e-02
-6.067786385421666817e-02
-7.121138863844042599e-02
1.157877619474922681e-01
3.899003479635186897e-01
3.687023816085157613e-01
-2.612903870020380492e-01
-1.194412177282669685e+00
-1.622021813254747702e+00
-1.172109514225849747e+00
-4.021768526823055190e-01
-6.822596265123970216e-02
-2.540261673033978318e-01
-4.930751676578566389e-01
-4.448463653786149941e-01
-1.744020566920130022e-01
8.760786511973554791e-02
2.222771776099832230e-01
2.519477003813037630e-01
2.305072018562021874e-01
1.753497916768707587e-01
8.594473279344427841e-02
-1.123898149420397147e-02
-6.449239962799167836e-02
-4.053916474445330709e-02
4.827391574445096672e-02
1.525547188738637649e-01
2.198686961641638793e-01
2.324575533860295251e-01
2.056844798509445404e-01
1.540016755324747078e-01
8.654090861810985469e-02
2.685159187784153315e-02
-3.816473851606843118e-03
-1.648464911880552844e-02
-3.100151049460460329e-02
-3.482613525816185412e-02
7.172017274773715215e-04
7.394705825308942049e-02
1.447414684751718861e-01
1.668922179597128741e-01
1.232599345603016955e-01
3.796425224574135476e-02
-3.889130486342705362e-02
-6.329665562683380042e-02
-2.476817953781056819e-02
5.166774350698172258e-02
1.245010097695114087e-01
1.578363335813763313e-01
1.386111338932866643e-01
7.686574317894750985e-02
-1.104014157726443748e-02
-9.338574069298918867e-02
-8.934517607750348811e-02
6.213058756832205015e-02
2.064605783782607340e-01
-1.315059903846596545e-02
-6.876530845438768580e-01
-1.290204259523909824e+00
-1.199702360947705992e+00
-5.406109766987670096e-01
-4.209146244046467478e-02
-9.599722695924513272e-02
-4.041209361664515054e-01
-5.245366942685515399e-01
-3.731435031085577059e-01
-1.397823506423856998e-01
2.576491945962492217e-02
1.179907873791857242e-01
1.795458005225021025e-01
2.215033754227094809e-01
2.285859731371925330e-01
1.917979285429599334e-01
1.264038658673445059e-01
6.588655137669788275e-02
4.162112717648524390e-02
6.803155322131196336e-02
1.371622946253359676e-01
2.163526155102408477e-01
2.613586903503362091e-01
2.487834685017451530e-01
1.901358991207213189e-01
1.115991035191661734e-01
3.474215081845342945e-02
-3.017052771822052032e-02
-8.151945031845833634e-02
-1.002047944287129122e-01
-4.445822127302374860e-02
8.835326236022075785e-02
2.250678542763068779e-01
2.877572685067966707e-01
2.700143227390620626e-01
2.135737123130504178e-01
1.480656597139722586e-01
8.388417884894340537e-02
4.222191356271742108e-02
5.897529691132592095e-02
1.477221126621236225e-01
2.709473464260256925e-01
3.626247358736414683e-01
3.770415143789201395e-01
3.099675792125257123e-01
1.914197100686076403e-01
9.176629621720579222e-02
1.171304336602758123e-01
2.904213434539102412e-01
3.747816363815624219e-01
3.510737771770672429e-03
-7.794715287507283374e-01
-1.316025140363088930e+00
-1.062513215484023998e+00
-3.350369995982769300e-01
1.018522309208193810e-01
-1.660400175000877401e-02
-3.201933307258022499e-01
-4.127305586073903854e-01
-2.523570491707762820e-01
-1.609917094002809301e-02
1.526552154129270644e-01
2.293983344807248304e-01
2.541581651023194222e-01
2.558462105827423727e-01
2.304711616153614639e-01
1.739805502398739656e-01
1.100375584784376998e-01
7.277403013930409947e-02
7.421518634758346444e-02
1.016933086667772962e-01
1.430956114721439187e-01
1.978543425375079712e-01
2.553587745297886680e-01
2.823933357681951417e-01
2.519430432645204943e-01
1.733473467567736293e-01
7.720964032948858524e-02
-1.925873822683408718e-02
-1.076958687860419817e-01
-1.533866671622514111e-01
-1.044654680553182557e-01
4.270132691774433664e-02
2.104883443055691195e-01
2.947851540543416360e-01
2.534840549526531372e-01
1.360499736368359636e-01
2.577381639685148718e-02
-3.353694915572773272e-02
-4.162804153039155464e-02
5.905805468491676091e-03
1.267710459227785746e-01
2.978853495823960418e-01
4.261300007024076963e-01
4.087397209381107843e-01
2.213522607927548014e-01
-3.749649645327669811e-02
-1.713018612309636923e-01
-3.849560771715870161e-02
2.187449005847984795e-01
1.814447158935861282e-01
-3.752670043821915713e-01
-1.015430765534917068e+00
-1.032552729589993001e+00
-3.996929672763476216e-01
1.588054326553766105e-01
1.381425065387879569e-01
-2.229453423892943931e-01
-4.527045549987501749e-01
-4.149672412223706641e-01
-2.560348141243761200e-01
-9.697995645780035923e-02
4.742082610777734880e-02
1.694926147502603120e-01
2.363960940110429176e-01
2.399173924605672026e-01
2.053951229852992721e-01
1.567356520870538394e-01
1.106271050893191527e-01
8.754696406902362504e-02
9.576083762978497560e-02
1.223911962012554089e-01
1.602634749161226113e-01
2.176519985691845738e-01
2.833911572457359362e-01
3.102962570463503877e-01
2.619781048775194354e-01
1.623547238381478908e-01
6.543111263942832934e-02
-1.447884572700326722e-02
-9.693592500880580942e-02
-1.635271396470859284e-01
-1.474113534614114041e-01
-1.703216078116193133e-02
1.622473407709423276e-01
2.815845937599611437e-01
2.898845544090400406e-01
2.153197449692194343e-01
1.109069698137540860e-01
1.885600196688922217e-02
-3.146328961233912230e-02
-3.061709117221653176e-02
9.498441398807110428e-03
7.309235429463603606e-02
1.425029142386806114e-01
1.805388844312274255e-01
1.487109213086751924e-01
7.100351766299936584e-02
5.389522683415308435e-02
1.695929579329453207e-01
2.675305468921524987e-01
7.016592607724303488e-03
-7.117798287475927133e-01
-1.399036585986280112e+00
-1.402301773765953774e+00
-7.262143931702511601e-01
-6.303938494305016960e-02
4.462813286351825781e-02
-2.693196471070109510e-01
-5.370516563150864453e-01
-5.165442489314042707e-01
-3.070204109451937224e-01
-9.433156745926057907e-02
5.380240571718513526e-02
1.579213753858960401e-01
2.190667255719762618e-01
2.135357718665191196e-01
1.501694730207590311e-01
7.323567882528994599e-02
1.761150019296113534e-02
-1.036013886877581655e-02
-1.335743150430089912e-02
6.518578269489479909e-03
3.271179344974529252e-02
4.406591578652567509e-02
4.688352345905442975e-02
6.201397069340372492e-02
8.723271479395008909e-02
1.052579894810623667e-01
1.078230953665354902e-01
8.699515195008822310e-02
3.948764397807685150e-02
2.091462075692356037e-02
1.422391709869914034e-01
4.090394069941189481e-01
6.227177449092616834e-01
5.977336681856982858e-01
4.044362667743996997e-01
2.398554625860979672e-01
1.660067765067877454e-01
1.159406171186441042e-01
5.057211740870942718e-02
9.554024155808663217e-04
2.051106638644874594e-02
1.352777410983900808e-01
2.900177910686321803e-01
3.530742055888520525e-01
2.401253043614928473e-01
3.808177875333583484e-02
-4.713391326440796725e-02
6.587358296285249215e-02
1.280388609184951731e-01
-2.360494008619063444e-01
-9.489510477066510630e-01
-1.350512372459208077e+00
-9.908752970841087082e-01
-2.822779792187256609e-01
4.746283036423391832e-02
-1.405092606433677449e-01
-4.251934856733118329e-01
-4.869820028092300412e-01
-3.720154189498893205e-01
-2.364023980141291004e-01
-1.261403099801995387e-01
-2.072838429032750063e-02
7.040212678202990848e-02
1.219304183750241355e-01
1.565777167928150138e-01
2.323768817392545261e-01
3.364402391397932623e-01
3.500737683062938865e-01
2.040057912361191716e-01
1.130108041352313741e-02
-5.600044279027273364e-02
3.145398056603020132e-02
1.634535065951382982e-01
2.399506662051324735e-01
2.434780590737394557e-01
1.972158253597806887e-01
1.206218152285836176e-01
2.373214668317565751e-02
-8.493791561586919170e-02
-1.790523323812993339e-01
-2.037480723809992900e-01
-1.132777580501039688e-01
6.921499593823465801e-02
2.499567616320850505e-01
3.362965045351147264e-01
3.044191308078552094e-01
1.996617543049595267e-01
8.841165094054914686e-02
1.627577913642398733e-02
-6.300252517651315151e-03
1.101793012269868498e-03
1.745977568103676547e-02
5.475110385758985565e-02
1.356174398831314631e-01
2.231607281670526799e-01
2.321875971685574414e-01
1.611391163600987830e-01
1.422851838141720171e-01
2.252389713305601449e-01
1.399592319398085816e-01
-4.424003150323743694e-01
-1.288419360229684729e+00
-1.627243386716808793e+00
-1.087117118472729960e+00
-2.261952901129260507e-01
1.880853600003196680e-01
6.685519968225805965e-02
-1.249828701164762690e-01
-8.569667426674740240e-02
4.723966350449884666e-02
4.566188647431361491e-02
-5.831982260114029759e-02
-6.672850904204909173e-02
8.746433014686591512e-02
2.795403269941504898e-01
3.804545308887519739e-01
3.851317499407173051e-01
3.423707386232893723e-01
2.632901132352368778e-01
1.582297748919741787e-01
8.009717603183706680e-02
6.633661292102618900e-02
9.767712111804494057e-02
1.423326913404648897e-01
1.885873015213993531e-01
2.308048361685353933e-01
2.554790233749225647e-01
2.312091940310152804e-01
1.166096469798731938e-01
-8.043830011979682948e-02
-2.555160528730561209e-01
-2.728181375347663584e-01
-9.890828144766584951e-02
1.535180176555577536e-01
3.331906542148740935e-01
3.797686723845021817e-01
3.303563245811054760e-01
2.426622420177638184e-01
1.532258981151094490e-01
7.879764691628969586e-02
2.293525552749808155e-02
-7.319383322036177725e-03
9.190523840469711978e-03
7.911696964077596927e-02
1.603156329923978718e-01
1.918701346225318016e-01
1.794522478403970389e-01
2.145928846569348236e-01
3.256040640042279777e-01
2.968985717325365314e-01
-1.760063743912963496e-01
-9.696472323261781101e-01
-1.411904461639751807e+00
-1.042347190920621225e+00
-2.581277139332746051e-01
1.965298404501595320e-01
1.190289723303452063e-01
-1.278412562256359408e-01
-2.174797087313634913e-01
-1.532501545752137928e-01
-8.052688196579381452e-02
-5.734838233447132894e-02
-4.431423111539296161e-02
-6.839113166965836085e-05
8.408505344371469681e-02
1.998470900957179386e-01
3.145637435383735192e-01
3.667441607804481918e-01
3.124593812021693173e-01
1.760036053132424949e-01
3.934617509667816954e-02
-1.932647847793874524e-02
1.597895783512600157e-02
9.361245253248190457e-02
1.519446596490233725e-01
1.786220986837110114e-01
1.993917615227488449e-01
2.141941210400057638e-01
1.741128128729238778e-01
4.623288458668599332e-02
-1.138658452166640689e-01
-1.946706767543830985e-01
-1.400609149205318815e-01
1.478261710540107465e-03
1.397063590441916803e-01
2.209321916978176648e-01
2.418499040651271303e-01
2.216096989909263348e-01
1.770727663256012607e-01
1.148054015452993210e-01
3.844216250252541905e-02
-3.393576627508534949e-02
-6.033493134540146574e-02
-3.152869132672110261e-03
1.149081891259114141e-01
2.041124747456974919e-01
1.962342932809559293e-01
1.449664069126367083e-01
1.876404577073906843e-01
3.281492281854815340e-01
2.643365122436829306e-01
-3.550477852482836760e-01
-1.324906842180383348e+00
-1.826184464119654516e+00
-1.348361610329861682e+00
-3.915691143020029186e-01
1.591306814271178371e-01
6.731345885472492241e-02
-2.173593075226090687e-01
-2.817314438529900933e-01
-1.422294828333946770e-01
-1.739255384515395880e-02
6.769974621189637706e-03
1.009333211744468245e-02
7.087030496966183202e-02
1.793525208486816402e-01
2.823032540058528772e-01
3.378057677404646686e-01
3.337594431537133643e-01
2.850374603105970683e-01
2.124591310897247787e-01
1.290931905298438598e-01
5.204691402462611333e-02
1.000726494467215136e-02
2.595817729286153952e-02
9.461913804233530734e-02
1.828402749881991862e-01
2.513655071538232755e-01
2.620625713287557668e-01
1.782651571263352552e-01
1.216339107247635734e-02
-1.333544952058570432e-01
-1.467486179497799748e-01
-3.553989851489549462e-02
9.674015596572654863e-02
1.828462274366150775e-01
2.292275444636026061e-01
2.490465838843405610e-01
2.307800009872325864e-01
1.698392303871152642e-01
8.906652487576946498e-02
2.155052009133309743e-02
-9.234495758112347755e-03
1.784070008867771548e-03
2.932410363294001357e-02
2.844959812111025332e-02
-6.762646211170442873e-03
-3.581929679807173417e-03
1.271120817076135390e-01
3.597726999048356245e-01
4.748131605203345096e-01
1.690288416361490909e-01
-5.801244988426266236e-01
-1.250313513321022141e+00
-1.217484285302107505e+00
-5.607498756826267972e-01
-5.480991950357699816e-03
5.106534287981422809e-03
-2.678294928557156673e-01
-3.862606542567123546e-01
-2.637913393056576794e-01
-9.299872989198143536e-02
-2.320225594040188632e-02
-3.759398410260135492e-02
-4.567982809097313746e-02
5.630561392865759962e-03
1.036213723214323840e-01
2.008761583372160875e-01
2.583382835217017948e-01
2.660559449336797888e-01
2.306913949270398556e-01
1.597923795599476837e-01
7.060200367735901261e-02
-1.289425595173258193e-03
-2.421546033737269343e-02
2.087517121701520061e-03
5.628001797383893473e-02
1.251715131921411484e-01
2.027119701737219448e-01
2.655004825452726425e-01
2.740208091955814718e-01
2.029406330543121195e-01
7.202413924579562088e-02
-4.986546201481521778e-02
-9.731883317529363420e-02
-6.596502279408518465e-02
1.277211329967672601e-02
1.173683845197532327e-01
2.144433614115284215e-01
2.469147251022842937e-01
1.883485500115640587e-01
7.679006888677655795e-02
-2.141855809752441289e-02
-6.273811421897637630e-02
-4.251870054843654573e-02
1.832079018493590686e-02
8.805809065040576256e-02
1.362015046766326953e-01
1.649467719620267281e-01
2.367440574306318712e-01
3.916236356188236845e-01
4.586476756374164299e-01
8.810783882741686501e-02
-7.713578728676689922e-01
-1.528091758805785627e+00
-1.491897017002720816e+00
-7.489277683003467967e-01
-5.940921367104345929e-02
8.848330126868683698e-02
-1.045271477834269491e-01
-2.320602460777218545e-01
-1.763275479213743391e-01
-6.689463957129701543e-02
-1.298582615361617600e-02
-2.245195846436185208e-03
2.274359554169622447e-02
7.881482169595323273e-02
1.402687435377019398e-01
1.883387803130594229e-01
2.280395859980319795e-01
2.573433538462204795e-01
2.524036544326797027e-01
1.958895953460001171e-01
1.064812043635606914e-01
3.039533136214878778e-02
4.012823126178437921e-03
3.058537437362605568e-02
9.194558098688022929e-02
1.665934157375238145e-01
2.260016674837350692e-01
2.284273374986247884e-01
1.462402068795283228e-01
1.004780564038507823e-02
-9.653174023012055238e-02
-1.081147296106406003e-01
-3.548976403882219549e-02
6.186330300350909028e-02
1.444800477363242797e-01
2.113639084559657266e-01
2.674623896422133607e-01
3.045410549044680892e-01
3.062626415579607908e-01
2.516117573305944322e-01
1.337342936543799987e-01
-5.556867777080393145e-03
-8.905950181774217878e-02
-7.630703535793396941e-02
-7.242834214424585804e-03
5.040950744597826050e-02
1.009692962688138462e-01
2.175120815647135497e-01
3.594022043491642004e-01
2.496669439803160528e-01
-3.214165760558435059e-01
-1.019858476729949448e+00
-1.177661738825259707e+00
-6.524603843212928300e-01
-4.574784239705916022e-02
1.105235051107480715e-01
-6.332753138351725208e-02
-1.636052132213006716e-01
-5.894485271894719935e-02
8.682169593692598553e-02
1.174208972331889506e-01
4.392998499995755257e-02
-3.048012441179825255e-02
-3.355288303410583484e-02
3.562015631358180640e-02
1.346608621439255582e-01
2.211445735488205555e-01
2.775221376426044717e-01
3.038453956353628360e-01
2.969834672366106765e-01
2.488154521157416033e-01
1.619777681636169475e-01
6.025667706845927452e-02
-1.433898299533472274e-02
-1.919009538716498486e-02
5.957209296803218923e-02
1.882758251898673518e-01
2.963136703933644811e-01
3.124162565984722750e-01
2.160314730183939547e-01
6.417834322133372793e-02
-5.675334150737849914e-02
-1.054890727509023712e-01
-9.201731623771992885e-02
-3.879432214572879623e-02
3.454049283010284660e-02
1.131969130193007655e-01
1.894627639811092001e-01
2.495656082061500081e-01
2.683560805277043215e-01
2.307907696124329444e-01
1.459616824718896755e-01
4.259166504079731075e-02
-3.557585156172986263e-02
-5.255740998501589462e-02
-1.438741162767292678e-02
5.177959614947164058e-02
1.652617032431087096e-01
3.664685286196588399e-01
5.319785453531836739e-01
2.970290552219207458e-01
-5.495484274021595894e-01
-1.539185687496146926e+00
-1.815634603351139909e+00
-1.157670455472823434e+00
-2.810259573712473036e-01
7.851116121660367542e-02
-5.436004757699192808e-02
-2.020213719587281853e-01
-1.170714472563944980e-01
7.058703639839403188e-02
1.644071035581033680e-01
1.339184461754748812e-01
7.122360566504618018e-02
4.697969893233319705e-02
6.185476592043251398e-02
1.000406084563564835e-01
1.646271376834724520e-01
2.478022660928518583e-01
3.088226009215195855e-01
2.995947623490371470e-01
2.031243489929536461e-01
5.924977294105836234e-02
-5.165783637911738196e-02
-7.855808151734619549e-02
-3.973299200662151753e-02
2.375977200284578109e-02
9.596525642464062700e-02
1.625666533250308965e-01
1.785176244155796399e-01
1.077630375432937909e-01
-1.178494659989349352e-02
-9.155910262563225765e-02
-8.653537578538926522e-02
-2.933853608333334556e-02
2.584053356367733978e-02
5.781041507905896465e-02
7.837020788731720311e-02
1.054958018140683268e-01
1.400003426251013872e-01
1.561199558925858988e-01
1.231681010771603219e-01
4.899956201598979627e-02
-1.653621502759855533e-02
-4.058990607267366768e-02
-4.574638794481553083e-02
-6.071583996200288075e-02
-4.753736448971025708e-02
8.519249305271743566e-02
3.432403875485825484e-01
4.822111417653285326e-01
1.236532141928214229e-01
-7.266668822677059270e-01
-1.420371273710691939e+00
-1.333136306655773540e+00
-6.722765195133848515e-01
-1.773358892777248674e-01
-1.728792685856668787e-01
-3.504491898334454181e-01
-3.465859561339183492e-01
-1.511498728821845661e-01
3.440636126979713244e-02
8.837480787361948198e-02
4.639380918203321602e-02
-2.319092546596030618e-03
-1.101022468632519707e-02
1.982452905948756464e-02
7.836550751783917523e-02
1.546547094425940461e-01
2.362609230982560815e-01
3.055074824348722462e-01
3.315576190682470448e-01
2.771035480962228958e-01
1.431839898689291068e-01
-2.433287181316284159e-03
-7.667148642761743849e-02
-5.452437354897066157e-02
3.319257997014871120e-02
1.455651688811046285e-01
2.350149069422502179e-01
2.437298025207634000e-01
1.578424871813965957e-01
4.792871785749986541e-02
3.248727090667860237e-03
2.949593785931714160e-02
5.490041120173713707e-02
3.891679165289761017e-02
2.501730912302282603e-02
7.160256981705290236e-02
1.760654372180708305e-01
2.830352439338665871e-01
3.341415522213357914e-01
3.040038997754673789e-01
2.177876737142206420e-01
1.373132898379043898e-01
1.025014621841105200e-01
8.700570493140089012e-02
4.710349345352326383e-02
2.227952233983934022e-02
1.341135911309250250e-01
3.951856798996287168e-01
5.058200084092293602e-01
5.019525117101820977e-02
-8.942400757456067106e-01
-1.582907921484405955e+00
-1.413552697492197252e+00
-6.866532496770352267e-01
-1.624821399070952022e-01
-1.156950739701970848e-01
-2.210086240471332286e-01
-1.591692342099101654e-01
4.004553899026248864e-02
1.955622869461528246e-01
2.365435830032802111e-01
2.042734890008365833e-01
1.450415544764743492e-01
8.529045357742807976e-02
4.625245308743804185e-02
3.950324063819986992e-02
7.598203045777020270e-02
1.635825086840627940e-01
2.662402134713944268e-01
3.096669103798311840e-01
2.622125506453857890e-01
1.721007340154680210e-01
1.025266471291356313e-01
6.864879574350568614e-02
6.328405513599187626e-02
9.602205168644815936e-02
1.582600116476120256e-01
1.930380296343314761e-01
1.608195017884321010e-01
1.061793983934167240e-01
1.003323874905796137e-01
1.377795504407751392e-01
1.492392788956451444e-01
1.054133999548841627e-01
5.143893925945866585e-02
4.193230316269298125e-02
8.759108271204722740e-02
1.628769390107274451e-01
2.288568563613847806e-01
2.523401812295329449e-01
2.293655828286322029e-01
1.865672850550744166e-01
1.502789378173876589e-01
1.175974215485175722e-01
6.261296346489218789e-02
-5.114409563683258372e-03
1.585636954903887202e-02
2.277411420963642297e-01
4.877428026210018364e-01
3.658193067147143540e-01
-3.581497047755101693e-01
-1.174238278053791662e+00
-1.288070246194818358e+00
-6.630089456478431842e-01
-6.367831596927794879e-02
-6.980684500403840781e-03
-2.506573607609407506e-01
-3.415667519334417146e-01
-1.666293379748255976e-01
9.637374613269769630e-02
2.617460661301367897e-01
2.754080330537781451e-01
1.934290884956543777e-01
1.035441118188653448e-01
6.420377602453303245e-02
8.909192492322409729e-02
1.619830962371209826e-01
2.518274215236331326e-01
3.221082051261758838e-01
3.501691881037164999e-01
3.416535170701733293e-01
3.092416837939499508e-01
2.486795721689568917e-01
1.603028591062471697e-01
7.575788303495667453e-02
3.683418072658885267e-02
5.666564627216100214e-02
1.052028962366273607e-01
1.312938679482610060e-01
1.177878178725925984e-01
1.014157381924806062e-01
1.057031894327723626e-01
8.733532543813249394e-02
-2.541172918319294701e-03
-1.322865678592351213e-01
-2.090091352110896861e-01
-1.701109558040747038e-01
-3.735314117085173496e-02
1.085503825000516953e-01
1.979408284155705078e-01
2.157211627769519413e-01
1.859426378197256424e-01
1.385791573288364664e-01
9.133374410764556750e-02
3.495791835630845251e-02
-6.053116184735300720e-02
-1.757803176679004209e-01
-1.772957819107268407e-01
4.161069580458751777e-02
2.570411228463946873e-01
-1.219689090572544793e-02
-8.332979807121648763e-01
-1.513600719787314697e+00
-1.373786346566951755e+00
-6.480462211012003593e-01
-1.341279142112618283e-01
-1.581287982031140960e-01
-3.512431996904584741e-01
-3.057182406066491498e-01
-3.822211989727618275e-02
1.975641602774701189e-01
2.672045205257326250e-01
2.197585311761454108e-01
1.507421874457876843e-01
1.124720543876681078e-01
1.084906899176761585e-01
1.145059521626868720e-01
1.049400033854184650e-01
7.866820692735274068e-02
7.172286068019853578e-02
1.279979775342861559e-01
2.305942705138308291e-01
2.869318567905531081e-01
2.230334451906894333e-01
7.294785397058281551e-02
-5.594276287111865642e-02
-8.640504266682114132e-02
-2.700092644027809671e-02
4.718413121203609423e-02
6.012257888604021633e-02
7.388791710922316264e-03
-3.593441758631522182e-02
-6.695148297982112667e-03
5.749536923642034614e-02
6.223915721520623806e-02
-1.868841725435510526e-02
-1.125726509433167266e-01
-1.378721831433816769e-01
-7.654011434390836643e-02
3.407289361641899911e-02
1.342746209160004811e-01
1.758467058863074917e-01
1.548845656189051512e-01
1.018904034544923370e-01
3.424301222895639873e-02
-5.888852491928465299e-02
-1.733251552416935071e-01
-2.317741141401752081e-01
-1.116721140026475795e-01
1.581078027197224400e-01
2.350155666111379549e-01
-2.369871187731545925e-01
-1.022286756317398959e+00
-1.354909533992379567e+00
-8.923829902393748403e-01
-2.041652732495946865e-01
4.421912833809646393e-03
-2.643610217754443492e-01
-5.105556181111899905e-01
-4.282940137716207407e-01
-1.253581416744329879e-01
1.518597045840862081e-01
2.809457221614380384e-01
2.741511170207027726e-01
1.850413440150378563e-01
8.458594187120876962e-02
6.489446712370783299e-02
1.667629072155621950e-01
3.142893114616815975e-01
3.990411129260031942e-01
4.101045057599872479e-01
4.141536005578760338e-01
4.479284382669920794e-01
4.887969065696281534e-01
4.828678444438578299e-01
3.780622506187220622e-01
1.963636328698107059e-01
6.201001877172199195e-02
7.047702261938974810e-02
1.571893024752126222e-01
1.865714424752315803e-01
1.352697830523425238e-01
9.509548719048528664e-02
1.232252637952065133e-01
1.771358458539110947e-01
1.910655579639232438e-01
1.531843652533447786e-01
9.665760740019044284e-02
5.359026923040249857e-02
4.154279375299278071e-02
7.338906865418286241e-02
1.454866166497589264e-01
2.203637789085264309e-01
2.542775240636739320e-01
2.410101566187065336e-01
1.921602071804056622e-01
9.161523829231035809e-02
-5.270715188681072971e-02
-1.127359429493150766e-01
7.547764004225113177e-02
4.207687625904392159e-01
4.630133136081321377e-01
-1.715866008974345214e-01
-1.138125053166519907e+00
-1.571811740694063264e+00
-1.118327707575689445e+00
-3.714713231325302845e-01
-6.932851163319218857e-02
-2.628089779012033889e-01
-4.930840944734066200e-01
-4.378530641138065893e-01
-1.505339469406916653e-01
1.422764470478880272e-01
2.791977464813065191e-01
2.446923088058281515e-01
1.276293941466564441e-01
2.930352926575421901e-02
-1.095536696553752083e-02
-1.653801510793535476e-02
-1.482602997881226486e-02
2.230451437013607208e-03
5.622232418865319437e-02
1.443943667236256279e-01
2.343520289407905466e-01
2.822126887526836270e-01
2.557366593165287805e-01
1.606218187494477534e-01
5.108245931384593902e-02
-9.277033859103464217e-03
-1.470358553165324565e-02
-1.849706381987118592e-02
-4.529722159106492479e-02
-4.436339284866645805e-02
3.132426245392630482e-02
1.404220271458556935e-01
1.932393464899314073e-01
1.516651364894757437e-01
6.060075028888203819e-02
-6.068051116149619090e-03
-1.456410616254240342e-02
1.769094887175352848e-02
6.604461141225263787e-02
1.239645566220601708e-01
1.860493836237493426e-01
2.324744337251935522e-01
2.345974616701251292e-01
1.694822971610595863e-01
4.163489911294955548e-02
-8.447184255060646851e-02
-8.939281205553314957e-02
6.870537456678198207e-02
1.798085496030697727e-01
-8.087644891943751579e-02
-6.524926424697902183e-01
-9.596327797704126139e-01
-6.231196660914474217e-01
-3.642046158512701748e-02
1.612321091915157323e-01
-9.916290366311626692e-02
-3.864284844654610196e-01
-3.936967955931631180e-01
-1.838849797455958113e-01
4.317272823500487716e-02
1.873487832962355826e-01
2.601347361066888020e-01
2.911953200069794523e-01
2.778543351750158985e-01
2.122601138234349871e-01
1.278796517479836303e-01
8.250794679052737834e-02
9.367128652044361126e-02
1.285805064617009108e-01
1.610972175234848536e-01
1.959843421467505342e-01
2.286306504709276766e-01
2.287161668513713608e-01
1.841400648289871211e-01
1.243191231034672800e-01
8.322174738894337620e-02
5.838402415823671504e-02
1.786565460269327887e-02
-4.352794115210176229e-02
-6.678226087935872080e-02
9.268913010042248435e-03
1.518828995447544794e-01
2.547947727826332387e-01
2.517975695156924321e-01
1.653533753698768205e-01
6.024701170161120278e-02
-9.573672747009549788e-03
-2.540027044458314717e-02
-4.378298102994924307e-03
3.220837047038036666e-02
9.443461235130461151e-02
2.041521416526397015e-01
3.313516935220253146e-01
3.821393612855756849e-01
2.834485251411582585e-01
7.664632599949892933e-02
-7.724458245914549159e-02
-6.747242077902540838e-03
2.479279516553827278e-01
2.937200973237641954e-01
-2.769416761993093168e-01
-1.224011941010228144e+00
-1.680735645161181013e+00
-1.173975006387574460e+00
-2.745696015717253857e-01
1.384885579015068258e-01
-8.986837047672346923e-02
-4.436746277926470472e-01
-5.061020206207427208e-01
-3.103055155697732603e-01
-7.036331842893223110e-02
1.080315968095701129e-01
2.128340170227301653e-01
2.279354584420024143e-01
1.596853972440102076e-01
7.684024904586994609e-02
4.042592128173632532e-02
3.726724582173256139e-02
3.436110304804219223e-02
4.757592610293699675e-02
1.087207847158588314e-01
2.036755706683675560e-01
2.784576820094253335e-01
2.908469459474746777e-01
2.433261448831393892e-01
1.745513817377983001e-01
1.235997898879869217e-01
9.408674188791844861e-02
5.077257088570987648e-02
-3.631581472918143927e-02
-1.360234534385247052e-01
-1.574025802576630995e-01
-4.006757236903657482e-02
1.527360628431456424e-01
2.815483166859705233e-01
2.768627571873999438e-01
1.804026698449122668e-01
6.244180030562641176e-02
-2.431112206280937327e-02
-3.615238877428193082e-02
3.598922543358573645e-02
1.464337801274475936e-01
2.433213087491881421e-01
3.012117295314456489e-01
2.844935251883586869e-01
1.528817251618150852e-01
-4.627671774925511822e-02
-1.499628129974819035e-01
-3.460703266296259045e-02
1.597098116602016227e-01
4.351323313830399164e-02
-5.715639122941365002e-01
-1.236315136594996922e+00
-1.259937376020400457e+00
-6.318954228167488196e-01
-7.226006573792566334e-02
-7.252866871841434637e-02
-3.872791910261365045e-01
-5.458580113635073117e-01
-4.235985039028507537e-01
-1.996493788597411834e-01
-3.345820468542809456e-02
7.162098220652153568e-02
1.756765754148782444e-01
2.801980834996287140e-01
3.241134736203979405e-01
2.726803685694818569e-01
1.665008387033945492e-01
7.918061198427389646e-02
5.407441624504698285e-02
8.085201134195589556e-02
1.203169393868890741e-01
1.511654591230731093e-01
1.836336682605478332e-01
2.256079328410289797e-01
2.545504588719512129e-01
2.357666599073881264e-01
1.604501195510850131e-01
5.090349423783777083e-02
-6.304160371248038186e-02
-1.428232965570987723e-01
-1.319143562062125852e-01
-6.767937476490909141e-03
1.680334518695284773e-01
2.929647474648311434e-01
3.289739045487116709e-01
2.956597252519962415e-01
2.121820609405070113e-01
9.385948009177376428e-02
-1.737410201593750023e-02
-6.394309925573068987e-02
-1.883976039935190278e-02
8.786418428596513841e-02
1.926240899353331704e-01
2.472831304491456827e-01
2.390215356048804030e-01
1.754680779284741032e-01
9.002196168795292830e-02
6.705249837822778447e-02
1.717244824548589122e-01
2.660702458837902462e-01
1.214076133371359487e-02
-6.947258649171722533e-01
-1.362378992726784421e+00
-1.354798946444379926e+00
-7.137840076366708253e-01
-1.154102862565224707e-01
-1.615440004935155688e-02
-2.408719458962875482e-01
-3.927420428877375636e-01
-3.221852006657721090e-01
-1.449314615058451272e-01
-6.587200939847267372e-03
6.837889838029799494e-02
1.572895599144226442e-01
3.352094959354565695e-01
5.596688251623250787e-01
6.594754135435217934e-01
5.233607015625694192e-01
2.653807026585799367e-01
9.178341183588928365e-02
6.912240316638501580e-02
1.232840042181383849e-01
1.821166143649807223e-01
2.264337443132147243e-01
2.532753970636090757e-01
2.568832407011792940e-01
2.341219455603354982e-01
1.784506075102266220e-01
7.557732306750464257e-02
-6.652604483954642489e-02
-1.814280976678881996e-01
-1.758699714565288008e-01
-2.242216880458736128e-02
1.961195410999206912e-01
3.530091085024581465e-01
3.824830582242291221e-01
3.091632599631064515e-01
1.894397894092809675e-01
6.196105698195970152e-02
-4.177396236170004273e-02
-8.795078507589532135e-02
-6.297986610198572088e-02
2.172663944793922289e-02
1.426001441462217134e-01
2.462805322637167393e-01
2.379747109719821119e-01
6.704235148605142136e-02
-1.412002031276559100e-01
-1.445182544028703886e-01
8.824770704606496596e-02
1.766752919062259397e-01
-2.812476483703301722e-01
-1.050743916388928501e+00
-1.351952491044467797e+00
-8.403491849876839614e-01
-9.081370125073623401e-02
1.813462982463771578e-01
-4.823109473676431835e-02
-3.268560968560426661e-01
-3.784097038944902458e-01
-2.690370898214266004e-01
-1.430096292118677725e-01
-3.920544603759261448e-02
6.416092442815898855e-02
1.629668709540808835e-01
2.271420399038709403e-01
2.409396142864827783e-01
2.095228503588029978e-01
1.438789415401542926e-01
6.459442129518605524e-02
5.468328974190373934e-03
-8.885340625440316109e-03
2.134709080358169683e-02
8.555998737067441184e-02
1.724673155748702169e-01
2.564349644234808490e-01
2.950424987998493953e-01
2.573196441813387914e-01
1.482845139457603656e-01
2.465707494299642158e-03
-1.268877309763327133e-01
-1.720693347070920975e-01
-9.186340715561550074e-02
7.141582806556109886e-02
2.165007240196801241e-01
2.797472873970897056e-01
2.735023322442017846e-01
2.300808801096326239e-01
1.581124900291385471e-01
6.877795213325271773e-02
-1.378568887147319086e-03
-2.127821061262730878e-02
9.872508286915507303e-03
8.095812815733713363e-02
1.753659434699322284e-01
2.494878144703823741e-01
2.522668298471402726e-01
1.975454008818987583e-01
1.887763189760837124e-01
3.000240851199009740e-01
3.792606034016993699e-01
8.091385479972516837e-02
-6.727491377226261227e-01
-1.329712254483801148e+00
-1.214111662679474790e+00
-4.173335200095962261e-01
2.678460575925624143e-01
3.205627537108947100e-01
-3.653485389896689306e-02
-3.185574472896341991e-01
-3.276914671493348918e-01
-1.732715591432784918e-01
-1.544393680737886007e-02
8.618754257369592997e-02
1.536067308147420485e-01
2.120730021469968141e-01
2.491361077406324953e-01
2.392700367271149431e-01
1.836202974625237017e-01
1.012333154949708602e-01
3.943533580522949958e-03
-8.574801965218700750e-02
-1.212314620099542856e-01
-7.320722468522826432e-02
3.280301454764349145e-02
1.378141320787917845e-01
2.079594271108516357e-01
2.645624676878248760e-01
3.221138826409036815e-01
3.106544195438763478e-01
1.483984855281924309e-01
-1.078205777447227842e-01
-2.798392134612427973e-01
-2.504514256638956660e-01
-7.660723197852650768e-02
8.673357990499326597e-02
1.458032884361514236e-01
1.282863935435221425e-01
1.014857910803505237e-01
7.917929420130896678e-02
3.048981045298130785e-02
-4.767079673416044910e-02
-1.032589866743131440e-01
-7.893227804561339656e-02
2.714401856890719458e-02
1.527012899416189950e-01
2.149277440529762107e-01
1.746338176833421019e-01
8.101716062749614311e-02
4.562595969680106889e-02
1.103097674889733926e-01
9.996095979102194440e-02
-2.592073011779375546e-01
-8.963718799724321729e-01
-1.254116545839554231e+00
-9.210666865244666601e-01
-2.230952176939177689e-01
1.820327658803485571e-01
9.189761593184263277e-02
-1.815821562266212164e-01
-3.221455979174866480e-01
-2.857798771370335111e-01
-1.812519382500064891e-01
-8.616630508823852619e-02
5.091008177771734998e-03
1.257995685151339083e-01
2.659270008801687402e-01
3.650252048995099585e-01
3.718549260948306179e-01
2.905560653590015807e-01
1.629422413196603969e-01
3.345206903614855731e-02
-6.133048212055915160e-02
-1.021684817519602079e-01
-9.732725058630557757e-02
-6.318994252548829071e-02
1.153411418082641009e-03
1.002407725915574199e-01
2.107073974908613700e-01
2.785822875548785715e-01
2.502308115004514555e-01
1.287868853374194433e-01
1.053675869799350004e-02
6.502923519743178046e-03
1.100070585169989207e-01
2.178164661710715322e-01
2.734511599214319855e-01
2.984778786609723622e-01
3.079759677607204482e-01
2.815719384869873609e-01
2.103131598540975700e-01
1.256923108811068557e-01
7.292741528473445367e-02
6.581200124248415273e-02
8.470344743604635296e-02
1.157807933456542898e-01
1.597657158115843579e-01
2.025009289285910619e-01
2.215726996777650226e-01
2.412750355614132758e-01
3.326767396805922483e-01
4.662011156398679357e-01
3.653559530006608158e-01
-2.703137814045152298e-01
-1.224208282058657282e+00
-1.729503497211556828e+00
-1.329511099836033106e+00
-5.046043994286407708e-01
-5.813883974999910220e-02
-1.684412076079859211e-01
-4.132351004861677390e-01
-4.500120573138895463e-01
-3.121887172819176048e-01
-1.747834242364611490e-01
-1.054020435976023018e-01
-5.854391902745750831e-02
1.617803219176291996e-02
1.183228885566928179e-01
2.121422012368026910e-01
2.591015317197539192e-01
2.419680206041180948e-01
1.747416567657895381e-01
9.294814287299091315e-02
3.126686871388390659e-02
6.044469291693364138e-03
1.879136137531883799e-02
7.219042372006143071e-02
1.658030891688910546e-01
2.716007048517322664e-01
3.348366364710166354e-01
3.079606053342305860e-01
1.782145917470015772e-01
-1.469383926735389964e-02
-1.731416176961049769e-01
-1.991940261729452377e-01
-9.015302751321868646e-02
5.620190879986588367e-02
1.504974307266181976e-01
1.926663464879741494e-01
2.271298349300199526e-01
2.561470184237025216e-01
2.410617728823304107e-01
1.700031299059329981e-01
7.691774263841119619e-02
4.427703476177429799e-03
-1.571714161366799187e-02
3.282191111861917920e-02
1.257919180449348917e-01
1.960363589581076149e-01
2.031277075534948517e-01
2.087470326308729363e-01
3.103639743274994589e-01
4.156984947141821873e-01
1.840173836760515824e-01
-5.345198279595448909e-01
-1.242987296978659728e+00
-1.236767285651268367e+00
-5.435000128340393699e-01
9.102568680136251256e-02
1.804268196134220237e-01
-5.069863239660171023e-02
-1.849606650301188759e-01
-1.258819430795743710e-01
-2.906971760769248847e-02
-8.805365189922873329e-03
-3.337466371620881334e-02
-1.393312112231462167e-02
8.053319278523335401e-02
1.967756754278759124e-01
2.653829117474665877e-01
2.667433449425428704e-01
2.237180272774542122e-01
1.616064517285129842e-01
9.557678935897714889e-02
4.165575369672356448e-02
1.507187312143415392e-02
1.514701394838725325e-02
3.284891809170249755e-02
7.466194726289064609e-02
1.491643998394343584e-01
2.264354853344690555e-01
2.420312655177513927e-01
1.552968322281707836e-01
2.453683414024127388e-03
-1.121822349631072108e-01
-9.982790523024104301e-02
2.565132657419235546e-02
1.626992417052276485e-01
2.307457497734852481e-01
2.399741006986512437e-01
2.445924068732754364e-01
2.597480495090850328e-01
2.522327457985978905e-01
1.928062676308634482e-01
8.985178398209794914e-02
-1.180690321393832246e-02
-4.919160415458383867e-02
1.142699892075207078e-02
1.298149128412391939e-01
2.266401045989335783e-01
2.838985893194252430e-01
3.759072688586763134e-01
5.158282081528797747e-01
4.583743387561897698e-01
-1.273188889396724144e-01
-1.086250387765433256e+00
-1.651718016364821962e+00
-1.283799248728410669e+00
-3.967610678183682849e-01
1.658314823785178582e-01
1.285684242873414151e-01
-1.247409341939140770e-01
-2.111147282377949519e-01
-1.259530030036895010e-01
-5.006306344298395994e-02
-5.579387465824430653e-02
-7.290964130066474036e-02
-3.109561848936163650e-02
6.000946410780177293e-02
1.544753975359567377e-01
2.285670860434422247e-01
2.792941612807531282e-01
2.938235882378527064e-01
2.507533424040059855e-01
1.593446966111381202e-01
6.385022817910018800e-02
-1.868528846459852760e-02
-1.135188404550529218e-01
-1.966789820681089651e-01
-1.704815719618926473e-01
-1.144347132655064783e-02
1.402362934128868477e-01
1.365656399190129378e-01
-1.003144978949103289e-03
-1.415802046864211572e-01
-2.092163875501745762e-01
-2.099758215975739695e-01
-1.616365949656609624e-01
-7.399564337424559268e-02
3.294684232260786105e-02
1.322152342516349222e-01
1.962569040095149264e-01
2.000925192572566014e-01
1.392994410675547357e-01
4.336071281024186930e-02
-3.769207191197104789e-02
-6.670215718025521157e-02
-4.894937193340377635e-02
-2.651332145164667434e-02
-3.575592313771616682e-02
-5.846433562342741308e-02
-6.341345425563093413e-03
1.953460649693417595e-01
4.204819886105471971e-01
2.952469430396178485e-01
-4.044956635613446427e-01
-1.249585048903295137e+00
-1.448706484684563867e+00
-8.285432432234151046e-01
-7.558316903647452345e-02
1.707436050194734156e-01
-8.972273104501077290e-03
-1.748787470088039309e-01
-1.302197133900800663e-01
8.418081607145209977e-03
9.275658935517028247e-02
1.024704255807037112e-01
8.631060912371976701e-02
7.963058808429478164e-02
1.036567282040426058e-01
1.760373607376034266e-01
2.821077738230859944e-01
3.626989426137354755e-01
3.566695110354107801e-01
2.563111972267312355e-01
1.217512011735082944e-01
3.687436014118944394e-02
4.275586027569579922e-02
1.095150454611925062e-01
1.727722405880134926e-01
2.043851588413211628e-01
2.340237052096468817e-01
2.796331084645236054e-01
2.880506578892867986e-01
1.942045878321009278e-01
2.714019552985741032e-02
-9.578946120336602477e-02
-9.332793454487804674e-02
2.634094135939492320e-03
1.098385393315259584e-01
1.867386695081761083e-01
2.358613106158716777e-01
2.657128135426100601e-01
2.832479505359249972e-01
2.930276802587287177e-01
2.838851302171712110e-01
2.368172341875861286e-01
1.588974167711133811e-01
9.911868478608348854e-02
1.077178677937823958e-01
1.775857261894510097e-01
2.656900546860789247e-01
3.799114904880656063e-01
5.568208256903546260e-01
6.722281143353894262e-01
3.851895737868173408e-01
-4.674528818177811074e-01
-1.417752959396583190e+00
-1.695335613006930364e+00
-1.144203914818830548e+00
-4.130547634478364816e-01
-1.043451585020412076e-01
-1.571320691605363473e-01
-1.959026774536185012e-01
-9.102877086615562829e-02
1.231094956654870363e-02
-1.757321667087469869e-02
-1.567821049013568280e-01
-2.823285249539230213e-01
-2.824313351495198465e-01
-1.499102430471428993e-01
1.697659389597663826e-02
1.256518711073424110e-01
1.643604746710199127e-01
1.589043985266890280e-01
1.211932670486583069e-01
6.282944140462036475e-02
1.317649087448852403e-02
-4.815443756005880274e-03
2.404628628338190306e-03
2.310340988446054830e-02
6.992772032802115068e-02
1.517077448868299760e-01
2.234333574199342531e-01
2.075899129341776395e-01
8.428910704056179204e-02
-6.619215676172812701e-02
-1.368408515994552488e-01
-9.770664477603598075e-02
-9.000827704062644430e-03
5.669433711029757406e-02
8.643054285902165845e-02
1.193766833788593301e-01
1.820303781824072487e-01
2.509424709384168173e-01
2.761017893866121731e-01
2.256255517710078207e-01
1.184468096968781387e-01
1.852686661287947234e-02
-2.904555363732742521e-02
-5.089900042374927158e-02
-8.804807483420001857e-02
-9.090766324520449526e-02
5.346460525423679666e-02
3.260885318712005154e-01
4.239948205935304415e-01
-2.709778792130904806e-02
-9.180389451101645948e-01
-1.515017021784588636e+00
-1.257535537290284111e+00
-5.041983262432521151e-01
-4.941969280025879097e-02
-1.329021496460027207e-01
-3.517344621653553105e-01
-3.387245171112296394e-01
-1.366927064080425136e-01
2.921712069322364089e-02
6.738909348169992708e-02
4.329685679713422830e-02
3.174303357335604009e-02
5.214058279499218795e-02
1.048565799678031207e-01
1.844714329574749234e-01
2.533644483608153974e-01
2.562861345782046496e-01
1.907400939501595061e-01
1.282327953072722460e-01
1.190648684063893709e-01
1.174546333071113807e-01
6.732346152376909865e-02
1.629908243678854229e-02
6.373155622777498808e-02
2.152252320037688071e-01
3.540666184650642645e-01
3.637721842217554458e-01
2.458453857136135012e-01
1.106492603805947633e-01
6.583990256231761484e-02
1.135308519387530496e-01
1.641150440906397334e-01
1.553894693345537203e-01
1.206883078712857049e-01
1.214664273634639829e-01
1.649567751927784320e-01
2.184568254500230955e-01
2.579784661887439823e-01
2.699999435836684114e-01
2.372801294626450674e-01
1.556758413026493038e-01
5.596031383384337393e-02
-1.556606370238854467e-02
-4.114105106289536046e-02
-2.746683820603097737e-02
5.673877130633180749e-02
2.727205876218712355e-01
5.336998019630937451e-01
4.823235364130175618e-01
-1.794212187198169217e-01
-1.129302999910952288e+00
-1.556845600033649690e+00
-1.107950377360537253e+00
-3.366516739881594278e-01
3.456748791343117189e-02
-7.372832359932654511e-02
-2.490773493711485320e-01
-2.067512940943719013e-01
-1.175997167318504344e-02
1.420659194956166438e-01
1.622889623623307576e-01
8.803907623065564125e-02
1.181235618770681492e-02
1.735041232037342132e-03
5.829886541905236058e-02
1.354146888989547493e-01
2.013576070301746901e-01
2.524132576367285052e-01
2.799643341937621543e-01
2.679001824288504974e-01
2.205630009544603254e-01
1.658766793462937983e-01
1.281695725513960493e-01
1.126876621489893426e-01
1.199601508256162574e-01
1.552291874947246408e-01
2.065508181931311471e-01
2.291427492447567771e-01
1.843073893361966142e-01
9.541634156354367180e-02
2.999804464484993882e-02
2.010268415124074129e-02
3.765915171456021143e-02
5.201958023666474612e-02
6.903079459934347017e-02
1.027298855438029540e-01
1.449713001081636976e-01
1.785870930387980227e-01
1.947526855075793484e-01
1.841287252830034749e-01
1.328451080302680831e-01
4.199712169047695870e-02
-6.186143477662020551e-02
-1.453560987627176837e-01
-1.862091820719823099e-01
-1.558210008504198330e-01
5.315078049542253102e-04
2.811189989922625587e-01
4.621554345080706727e-01
1.724074505612189778e-01
-6.079354284442191059e-01
-1.256001535725047802e+00
-1.139261473951245440e+00
-4.498140469570835465e-01
6.183741771875313209e-02
5.585103239325218960e-02
-1.537173012733986099e-01
-1.884974286536969801e-01
-2.630736041192793459e-02
1.424696564826469503e-01
1.988634627140142275e-01
1.634184865362175165e-01
1.094125192458840212e-01
8.706540554084055139e-02
1.022813979578985344e-01
1.350827845976149688e-01
1.716416894163989570e-01
