2.851345926080788296e-01
3.662849580117163995e-02
-1.265316934681601779e-01
-1.369076281017115870e-01
-1.681980735418145412e-02
1.480186316353440668e-01
2.691054417252731201e-01
3.051340600278499293e-01
2.678930512041993728e-01
1.935581179407462882e-01
1.102952915351439883e-01
2.668907791202922153e-02
-5.758388485583502275e-02
-1.358148901179828116e-01
-1.809714424956236356e-01
-1.456275010573432060e-01
-1.289257244865543717e-02
1.348443342014705726e-01
1.884782735796453890e-01
2.077069961673302378e-01
3.817778407446983380e-01
6.639213897334950154e-01
6.739881359318762311e-01
2.257273159392489403e-01
-2.829925321110683956e-01
-3.415817101760432739e-01
2.713861424449962034e-02
3.935707458094758748e-01
4.788027651012944919e-01
3.352939769080508503e-01
1.304381772580422705e-01
-4.270792565920727285e-02
-1.723582785519712224e-01
-2.601336279725395828e-01
-2.893595919736763888e-01
-2.541791691391911412e-01
-1.898991872077655518e-01
-1.341487890546564088e-01
-7.031650081696617927e-02
1.757671286068027139e-02
3.123786117716082986e-02
-1.650983716629350617e-01
-5.057408484294647621e-01
-7.330381838022206331e-01
-7.005686438382140446e-01
-4.998900338232265539e-01
-2.857153637428695991e-01
-1.342111039059979138e-01
-6.039307722004801093e-02
-6.039223032815482090e-02
-1.230673799931641110e-01
-2.343591857190820416e-01
-3.647782087540757390e-01
-4.455863701482775663e-01
-3.956202515375751849e-01
-2.136942042009006559e-01
-1.890411619127981696e-02
6.229909938153050525e-02
3.064785026574358417e-02
-3.387672133395316920e-02
-1.120269592453361079e-01
-2.374514053484831633e-01
-3.894286986926214222e-01
-4.966087859812925998e-01
-5.277136425815468490e-01
-5.016081582825453467e-01
-4.207108711868696727e-01
-2.733284197869197407e-01
-1.066880712002391540e-01
-1.242969217983557612e-02
-2.487031766866901195e-02
-1.012434104686579794e-01
-1.954612956981584826e-01
-2.949037249253174120e-01
-3.903246486354617906e-01
-4.376864813924193909e-01
-3.469576840138704488e-01
-3.764819964960449544e-02
4.039678294249307577e-01
6.527325297141057803e-01
4.391227516424147104e-01
-6.944883784071861910e-02
-4.239140502108275088e-01
-4.117254541644060351e-01
-1.989829935322445786e-01
-5.235637895845210443e-02
-1.180722131753638438e-01
-3.677740810053282683e-01
-6.028697493112683548e-01
-6.109893495892257942e-01
-4.547253516540722962e-01
-4.824514532422234381e-01
-8.911775701516607695e-01
-1.371368833979482282e+00
-1.349278201906768393e+00
-6.074586273163541383e-01
4.277166164277353966e-01
1.113017125227788062e+00
1.220311636453487614e+00
1.001189417694468009e+00
7.577351572295234483e-01
5.890455320678658069e-01
4.902916373684060303e-01
4.544287524296530822e-01
4.460260225192232975e-01
4.247735508981296260e-01
4.215527881586702552e-01
4.907106118111927429e-01
5.951901353566342312e-01
6.365008952471993275e-01
5.899917628290379801e-01
5.313739267552337608e-01
5.168128033047072467e-01
4.862260829832787401e-01
3.388092701721115430e-01
9.541745956286867836e-02
-9.066383289858617744e-02
-1.025666763193336106e-01
2.607021916095254160e-02
1.760088393702076703e-01
2.565399846160936748e-01
2.367504166062314730e-01
1.180943656321507690e-01
-7.970479365142242589e-02
-3.119618687771260612e-01
-5.179498458061613242e-01
-6.496321234588612326e-01
-6.860733295054971537e-01
-6.366158902922303131e-01
-5.567410904385462489e-01
-5.442719956513164536e-01
-6.918041406028392348e-01
-1.016972948740646476e+00
-1.374809615595244505e+00
-1.457029967318931307e+00
-1.083817595332630779e+00
-5.819806653679444608e-01
-5.669202087449666250e-01
-1.146231197323090090e+00
-1.699998613544455583e+00
-1.694177002637432539e+00
-1.330365717648122503e+00
-1.169001740905959430e+00
-1.434515938659524537e+00
-1.879549470152713786e+00
-2.160015319536028322e+00
-2.199008617870732429e+00
-2.172658262059663059e+00
-2.197873826282305654e+00
-2.169243370244585023e+00
-1.969664788594333915e+00
-1.688464981327390646e+00
-1.469994610848324168e+00
-1.268682770600627396e+00
-9.640413602245865299e-01
-6.103008147464049626e-01
-3.343652183691723789e-01
-1.229855219731564586e-01
3.990220193801576054e-02
2.356099973465665409e-02
-1.746493572555610496e-01
-1.483174325892148704e-01
6.154147912484811966e-01
2.086842956847212882e+00
3.569345565489171701e+00
4.380686912214610373e+00
4.477830638093125870e+00
4.290626328167765458e+00
4.177224004054131967e+00
4.201399691307297068e+00
4.270614804184138968e+00
4.301922151355107360e+00
4.275443503043631743e+00
4.236317185229397708e+00
4.254091044666796328e+00
4.295619281550978386e+00
4.132995564961280621e+00
3.515698572276690470e+00
2.508704371373777775e+00
1.527819895065015254e+00
9.437463093695663829e-01
7.605170202798271495e-01
7.293944926249033012e-01
6.336590939880054618e-01
4.082436796364993792e-01
1.144794559679964685e-01
-1.137638486173173924e-01
-1.606197308726634576e-01
-4.844645172516567899e-02
4.741058733924369273e-02
-7.011741491969675222e-03
-8.207828987393206432e-02
8.554112616384895729e-02
4.307386692980259557e-01
4.681245327231744469e-01
-6.508357600863723391e-02
-7.346488666076067542e-01
-9.321871678370687864e-01
-6.182459558050730219e-01
-2.293659946486099610e-01
-8.672830674792100791e-02
-1.612303603234544469e-01
-2.805610242276161959e-01
-3.546454212757776392e-01
-4.052712860909378767e-01
-4.925344630915351463e-01
-6.413780759992060432e-01
-8.017414494462995478e-01
-8.862519543617867201e-01
-8.567759765428282215e-01
-7.451404490921391677e-01
-5.992243813800539609e-01
-4.704863111881083526e-01
-4.389802732877661762e-01
-5.569440783245193094e-01
-7.705103644611410729e-01
-9.659878754340743834e-01
-1.068250922289601945e+00
-1.057512105273681557e+00
-9.431406047178504393e-01
-7.633687822890329322e-01
-5.870997034972089690e-01
-4.848765453697508332e-01
-4.847630202335239114e-01
-5.532544772900217511e-01
-6.202464786174670675e-01
-6.270388215653884822e-01
-5.675172236817279670e-01
-4.938221649502108623e-01
-4.661795192452466430e-01
-4.906158360048447631e-01
-5.205391794246447823e-01
-5.185255382027873505e-01
-4.995461555212846183e-01
-5.110579465650523234e-01
-5.845963631243193959e-01
-7.080852229340862669e-01
-8.302108582545754123e-01
-8.888066728489524282e-01
-8.502132581221035768e-01
-7.354649500552098429e-01
-6.073042078870029004e-01
-5.198504400795044278e-01
-4.765950667073132196e-01
-4.479230633387374372e-01
-4.405857473712982975e-01
-5.300561987528411567e-01
-7.609306088487594044e-01
-9.741071298837651327e-01
-8.232233859448061519e-01
-1.555538948034270175e-01
6.078444618177865078e-01
7.771741301934012025e-01
2.326418235980325655e-01
-3.844944709142804617e-01
-4.992365029789850306e-01
-2.382985675297699668e-01
-7.151066162910817148e-02
-1.822153045594030463e-01
-3.867832309325699436e-01
-4.635127808714253894e-01
-3.776335911654098432e-01
-2.350563412648156714e-01
-1.370652147957357458e-01
-1.162441422754027925e-01
-1.688011833130004247e-01
-2.890095341835802190e-01
-4.495922094796712676e-01
-5.794804514558927755e-01
-6.003600246819331687e-01
-4.913459367305702541e-01
-3.087195040378920563e-01
-1.403857459770269100e-01
-4.269560100379903023e-02
-1.742014166019442700e-02
-3.525165136855312742e-02
-6.817192800521958140e-02
-1.051447314119035858e-01
-1.517638303653742193e-01
-2.087469790321830887e-01
-2.365402737356554763e-01
-1.677296869035780902e-01
1.505947293016715594e-02
2.479031042311811428e-01
4.454011530738736790e-01
5.360244309867648882e-01
4.619338021197433308e-01
2.388666376597640695e-01
-3.276234111612333355e-03
-1.226478679480305645e-01
-9.370357377998225767e-02
8.693561011503238289e-03
1.122673814331023867e-01
1.900485828943277444e-01
2.360121941950154567e-01
2.442168815568494522e-01
2.063248728344244665e-01
1.163033775759829275e-01
-1.270318890103080967e-02
-1.292473895396533679e-01
-1.548569579520428230e-01
-3.751765879689275551e-02
1.878527668372368398e-01
3.874061197792976752e-01
4.142730324269973674e-01
2.805448776973865632e-01
2.355419600087798049e-01
5.143443957041532455e-01
9.200968875689546911e-01
8.992925518927413764e-01
2.813096642936753211e-01
-3.373563754567764916e-01
-3.034495323586262616e-01
2.815609012067613603e-01
7.998562479453581453e-01
8.821629114307564246e-01
6.357774650239685910e-01
3.210758941114354448e-01
7.432127485896855568e-02
-9.005601336903383547e-02
-1.766574543591691304e-01
-1.761360984607917290e-01
-9.658049302545038128e-02
1.528202174830535151e-02
9.869022010493817831e-02
1.217261970396111836e-01
9.085033997938071759e-02
1.912214606084057869e-02
-9.743387612975372425e-02
-2.552633109399330968e-01
-4.030623617058954888e-01
-4.515805276212946917e-01
-3.436552006680660409e-01
-1.209331682888332565e-01
9.678499459849321251e-02
2.163088544850109984e-01
2.339836387058199796e-01
1.838284154524794656e-01
7.279554677835323173e-02
-8.484621220809114572e-02
-1.973492567406551490e-01
-1.403225037818021936e-01
9.462803972575918598e-02
3.489599167433460325e-01
4.494088676600794807e-01
3.850617454229824932e-01
2.737987885366893748e-01
1.821401111046793975e-01
7.170228555666741110e-02
-8.692019272842510524e-02
-2.417153571027837178e-01
-3.108790325933438736e-01
-2.597344309393134210e-01
-1.227420581006916228e-01
3.242212223490781309e-02
1.507895608334487159e-01
1.981556552255238079e-01
1.522451335855481702e-01
2.234679082282233636e-02
-1.308848154850153211e-01
-2.366519115168617682e-01
-2.918675418266616362e-01
-3.527461766282826705e-01
-3.765044672030176121e-01
-1.199484499618728855e-01
5.764192799513579990e-01
1.324339179855527515e+00
1.376899265340471246e+00
5.633404428752617488e-01
-3.604837952207561869e-01
-6.288856616121635268e-01
-3.145933201238756971e-01
1.723033413352245691e-02
7.479108233567870190e-02
-2.000605016344980322e-02
-7.857625933053527523e-02
-7.303837849243483005e-02
-8.224734742881785465e-02
-1.628895226691614573e-01
-3.066432288266965900e-01
-4.661887968395373449e-01
-5.810050063549664356e-01
-6.002940986989989680e-01
-5.192701153102202705e-01
-3.867649292197213873e-01
-2.596406416544033702e-01
-1.670396017474239381e-01
-1.230299400967632545e-01
-1.366554134576039026e-01
-1.973849268922384104e-01
-2.725039354825048443e-01
-3.189276198922702532e-01
-2.973537448407478356e-01
-1.967583190015015637e-01
-4.950636126512843876e-02
8.982812235558718106e-02
1.870548477662486442e-01
2.528299379962383742e-01
3.184366526927777663e-01
3.812502225962882130e-01
3.880083102046852361e-01
2.949774274265237750e-01
1.455448085779632583e-01
5.036805666202903015e-02
6.803699537696927813e-02
1.488089608977627987e-01
2.198685423760496360e-01
2.648577372323654422e-01
2.849529969838623389e-01
2.478028463517511215e-01
1.334717191975593187e-01
-5.394999815780056503e-03
-8.188005675997105104e-02
-6.038741179842754825e-02
2.361163687002345787e-02
1.188963056275039176e-01
2.133007507942311365e-01
3.184201870703424198e-01
3.928190706566743740e-01
3.188465010640141872e-01
4.248172618143360169e-02
-2.234313691913447364e-01
-7.356776642149170931e-02
5.833884200041603574e-01
1.174110400584090330e+00
1.031038473835410585e+00
3.233236168625246432e-01
-1.087801501671786797e-01
1.165129569603145232e-01
5.292719733466855203e-01
5.718771050741348061e-01
2.304182803411855551e-01
-1.597266148476769732e-01
-3.568950481921033813e-01
-3.457208199277364002e-01
-2.228147139509468189e-01
-8.548159437600817701e-02
-2.565875493595472234e-03
-8.931947540942713343e-03
-9.062296097592045796e-02
-2.050975591967328926e-01
-3.372702336837817838e-01
-4.935565420089679245e-01
-6.190555203821125341e-01
-6.011732019860873688e-01
-4.184811195274605877e-01
-2.060041343448113516e-01
-9.820265420254013777e-02
-8.453497966713977019e-02
-8.526162494346620213e-02
-8.490579347865399862e-02
-1.207207406327900773e-01
-2.001101693934090597e-01
-2.780128201578396796e-01
-2.829524417987853702e-01
-1.620127608528808549e-01
6.313361319760021906e-02
2.855437378345497268e-01
3.818988554578677808e-01
3.028202345911957805e-01
1.018792901616125401e-01
-1.157943891820719523e-01
-2.676616449104060602e-01
-3.244639045495409380e-01
-2.931988167571054626e-01
-1.959907463115004300e-01
-6.861134742108644657e-02
4.423822428472728302e-02
1.137859865259577136e-01
1.388506934653705727e-01
1.191899132248734755e-01
3.668939678924096337e-02
-1.060851219538379436e-01
-2.358947326650183141e-01
-2.413799744305957229e-01
-9.042954005543836493e-02
9.582258948539405796e-02
1.485679306292289614e-01
9.167263850424674232e-02
2.196809535673215630e-01
7.412838846130028747e-01
1.303584292430677305e+00
1.224013767174208622e+00
4.129535193720067499e-01
-3.659832484571157174e-01
-4.449367902888372028e-01
-4.474067139362145062e-03
3.628064664099264203e-01
3.946045687403262336e-01
2.350932353695591170e-01
7.670578318881939028e-02
-4.075572854474170115e-02
-1.574976917928687936e-01
-2.692387692596566739e-01
-3.247771296347789494e-01
-3.065724004494450039e-01
-2.525457450166073148e-01
-2.017283274611893773e-01
-1.624437203124493578e-01
-1.324971017243795623e-01
-1.228149454006335350e-01
-1.536943922888709679e-01
-2.281520343640149884e-01
-3.136742802642262240e-01
-3.577826643281383778e-01
-3.208870506100748310e-01
-1.999545888856810727e-01
-3.378176980460607937e-02
1.152763404533115182e-01
1.940152613670628190e-01
1.836993741309788652e-01
1.074596675139733448e-01
1.650868355232904330e-02
-3.852012676780984524e-02
-3.359522577432624835e-02
1.579606381519716926e-02
6.880572232169018809e-02
1.020386582253093866e-01
1.276687935075249969e-01
1.543667456837565788e-01
1.576774935303217051e-01
1.060841696236155679e-01
-8.811287496918340789e-03
-1.627933051248962315e-01
-2.900859345513606691e-01
-3.077542713987015954e-01
-1.898597904464544572e-01
-5.529086207733395486e-03
1.461273652928700151e-01
2.321944830624894096e-01
2.899614931761011483e-01
3.325512753363762952e-01
2.965152878438249706e-01
1.204498969378111906e-01
-1.623026849769075020e-01
-4.122902283132333090e-01
-3.896448174784872265e-01
1.264750839945903704e-01
9.676758370680336174e-01
1.441865079182611087e+00
1.021380025955986204e+00
1.037432168173025304e-01
-4.303737207919662300e-01
-3.122269260684376602e-01
-2.189119583302955030e-02
8.929382464904503380e-03
-1.578340530300569033e-01
-2.529021776246112574e-01
-1.815138320104504044e-01
-5.678369012231927054e-02
-9.286532712516965687e-03
-6.031423582175499121e-02
-1.597343996994730619e-01
-2.801699350795040511e-01
-4.278697370690897617e-01
-5.699850152508534329e-01
-6.072386501976794193e-01
-4.674257852018142700e-01
-2.114120791795710552e-01
8.033189301939185067e-03
9.580200832818069889e-02
7.589708798123447064e-02
1.189683247603680674e-02
-7.094674732512232240e-02
-1.702731853794982042e-01
-2.577554297781621817e-01
-2.808515330436795465e-01
-2.131463750685638203e-01
-8.283551860873444861e-02
5.884258703476308305e-02
1.844697641016643241e-01
2.913402736728702980e-01
3.588310068269581765e-01
3.314279770322264840e-01
1.756490570418277053e-01
-5.600050004077401083e-02
-2.502430018997136019e-01
-3.173755502335583456e-01
-2.456475867512514510e-01
-1.000126931185271739e-01
2.863527447309006241e-02
9.091036770801901035e-02
9.485312005800512758e-02
6.199911500564823236e-02
-4.942060646687253950e-03
-1.022548981699484966e-01
-1.947482005883809653e-01
-2.262079196262573588e-01
-1.612152380510865624e-01
-1.646182202447448589e-02
1.370996295464170789e-01
2.033038576416390242e-01
1.278966236952163438e-01
-1.232464759151797457e-02
7.782264143459029920e-03
3.757604832282238072e-01
9.207291226933957962e-01
1.108461429597915160e+00
6.442311150354647076e-01
-3.001583728250317717e-02
-2.325901619000689535e-01
1.022189991805401293e-01
4.617637398426782669e-01
4.598524281670376412e-01
1.514864688014004590e-01
-2.060448968385847901e-01
-4.272366152292446095e-01
-4.661894903857267680e-01
-3.768115157368114865e-01
-2.514064719646441626e-01
-1.500922946988964835e-01
-7.497319242066666223e-02
-3.240965025758495849e-02
-8.706190953140863220e-02
-2.866265462428063682e-01
-5.451927446468699534e-01
-6.862831531279782737e-01
-6.186095179525090693e-01
-4.101376583541978538e-01
-1.905621040986221204e-01
-3.767004532190148386e-02
4.386753407108447134e-02
8.032490764957878060e-02
8.368561803757838813e-02
3.781347715490197825e-02
-7.497099710546334395e-02
-2.243384536681859442e-01
-3.125534577119482016e-01
-2.386619775431788326e-01
-5.199599531162212365e-03
2.592492782026104003e-01
4.049515838856568295e-01
3.827206780142963227e-01
2.607353026215787906e-01
1.346135581507793555e-01
3.579525310039327612e-02
-6.489904091747383807e-02
-1.884126358270002688e-01
-3.099935501180154929e-01
-3.685170873234018263e-01
-3.030640720100786778e-01
-1.221466237293430679e-01
6.821684518360636440e-02
1.531284261596755347e-01
1.080446656909405667e-01
-1.676404864171045922e-02
-1.573177517111118140e-01
-2.449945100356146488e-01
-2.229648874081540111e-01
-1.214208049156447616e-01
-6.231593211941005572e-02
-7.995423985733399186e-02
4.364376538167367287e-02
5.558973588138040878e-01
1.227242275325534093e+00
1.367678699269474496e+00
6.777027464930710510e-01
-2.224201802887027235e-01
-5.241126428804248061e-01
-1.777839682529378518e-01
2.565416327012510767e-01
3.830767511389625568e-01
2.633111703171881479e-01
1.316627912537437495e-01
8.382767038466884535e-02
4.065020011214930118e-02
-9.640357529638719780e-02
-3.095602390048590724e-01
-4.755383520976554923e-01
-4.883193533733122815e-01
-3.567596566237374311e-01
-1.827805100967074547e-01
-5.873176144746668909e-02
9.319412583973386149e-04
2.823173999240696438e-02
2.525811824115233722e-02
-4.542925011397307145e-02
-1.856946318906967375e-01
-3.154328581872231085e-01
-3.365055053900666282e-01
-2.292550071484681928e-01
-6.187989018904243438e-02
7.906094327238200048e-02
1.440450419535583837e-01
1.301206598517188617e-01
7.453197466947934779e-02
3.422626756986036495e-02
4.233729816455969464e-02
8.161380844012559865e-02
1.131070791469567099e-01
1.272674007445655231e-01
1.518835470546875399e-01
2.059681151852076342e-01
2.612986546375056784e-01
2.646486958415566471e-01
1.897379482244587745e-01
5.345052637248445121e-02
-1.055129980983963017e-01
-2.403018492194642364e-01
-2.969503627717441363e-01
-2.388906565390805925e-01
-9.201347453520239417e-02
5.435565320922568222e-02
1.223303032813954361e-01
1.189620920080250582e-01
1.079528719919580493e-01
1.005657297656996907e-01
1.241414969718737486e-02
-2.074330101382831637e-01
-3.853313653557589591e-01
-1.691528541980426292e-01
5.475609257907664285e-01
1.270238623370992359e+00
1.311190529134685923e+00
6.614810157430343063e-01
4.868471631370923508e-02
-1.032224779658765489e-02
2.386735336347943770e-01
3.046940538015087685e-01
9.015237286224066227e-02
-1.501314681458416900e-01
-2.110504251600442416e-01
-1.158246248492252606e-01
5.134527418618306527e-03
6.490779685807628041e-02
4.729250884754417766e-02
-3.251714772028652112e-02
-1.579255267544220354e-01
-3.096477190565185000e-01
-4.436815808605485967e-01
-4.972460424991098082e-01
-4.391000555836759855e-01
-2.990134379931244091e-01
-1.391856735871754014e-01
-1.446803704520473882e-02
4.224383283063051775e-02
2.039566998244978641e-02
-7.146036803611523214e-02
-2.075987777441175297e-01
-3.418892779683748717e-01
-4.164213471634656827e-01
-3.935083765072421302e-01
-2.785068670726513762e-01
-1.039045898540737478e-01
9.220264575044929967e-02
2.547042689914020275e-01
3.032255142787561586e-01
1.804775225743787403e-01
-7.641237552299029456e-02
-3.362344718640494223e-01
-4.694930010798196718e-01
-4.430639565955931669e-01
-3.188237984859426111e-01
-1.812617934669113473e-01
-8.284929896469646338e-02
-4.256974960913809808e-02
-6.781961020689915298e-02
-1.616497043337040695e-01
-3.075295795850080949e-01
-4.593895812199682571e-01
-5.598788463787679470e-01
-5.679821492915428927e-01
-4.687186234258405859e-01
-2.795143507159618124e-01
-8.269726824405410071e-02
-2.610408301000378267e-02
-1.739287562537728815e-01
-3.044092045295289095e-01
-4.434577457828277336e-02
5.709957843047124282e-01
8.808663921535104802e-01
3.822990588543018764e-01
-4.534318167439006508e-01
-7.248628094919523646e-01
-2.768748449847818205e-01
2.470601345767352297e-01
3.297686980545003754e-01
4.766251941199735331e-02
-2.681597715502628820e-01
-4.546096758144381744e-01
-5.620506523316373126e-01
-6.610076494582572959e-01
-6.969284068318278846e-01
-5.276316116747348239e-01
-1.072171179115650463e-01
3.844272579887944574e-01
6.736723677767988416e-01
6.621209904559272053e-01
4.808260079033501722e-01
2.954281584141909001e-01
1.686181955114881559e-01
1.082351308133630702e-01
1.313632380053586235e-01
2.357571895409414087e-01
3.731265884701593372e-01
4.957040354104091939e-01
5.916647976624023197e-01
6.387094566238258331e-01
5.706319064036309285e-01
3.574915884343832229e-01
9.795809976604066827e-02
-3.123897374670111735e-02
6.873050489792555118e-02
3.195945796122036109e-01
5.251974477749027370e-01
5.502611038321234549e-01
4.375911926396571228e-01
3.219702336548779797e-01
2.595510840304087186e-01
1.972695156928025717e-01
8.438422268410186722e-02
-4.721303513303452826e-02
-1.156356339200949324e-01
-7.371295522223250685e-02
4.939400001427218106e-02
1.856823748683067987e-01
2.845412710005183476e-01
3.175473631818280240e-01
2.615153453420188123e-01
1.244562674695278703e-01
-2.184235456128593919e-02
-9.469422604081974282e-02
-1.080105547795320309e-01
-1.576507226887814972e-01
-2.124283619330811779e-01
7.186421946507634551e-03
6.896781390791791866e-01
1.425386277312018057e+00
1.447943617212280376e+00
6.159495360255563545e-01
-2.960980107647434023e-01
-5.598111641175276265e-01
-2.746099347454151185e-01
2.813357024596076228e-02
9.413109396517177485e-02
3.206827067759783489e-02
-2.639450040556514526e-03
9.722338068113574316e-03
2.853503312865574015e-04
-8.475838322147848103e-02
-2.408351602870458519e-01
-4.129272495016125255e-01
-5.209798131204088634e-01
-5.043270304041730379e-01
-3.682433207139391707e-01
-1.845492986937288249e-01
-3.528179783427823346e-02
4.356945781589623146e-02
5.713042352649416733e-02
1.110877376747885364e-02
-9.153259076402162076e-02
-2.211364530950302165e-01
-3.184803417517881874e-01
-3.270744322123049219e-01
-2.283180030639784253e-01
-5.788123270290935346e-02
1.047822416552077474e-01
1.769032755793160105e-01
1.368332712291484565e-01
5.556142337631776035e-02
1.627599329975862666e-02
-3.518829651786689952e-03
-9.169684888880161311e-02
-2.363159776149615920e-01
-3.064083923836140588e-01
-2.227801740179874979e-01
-5.323555444331922598e-02
8.653696293406930307e-02
1.456122791829474183e-01
1.242956329464979248e-01
1.337529199100513481e-02
-1.945526761572673180e-01
-4.315712807719890853e-01
-5.516198261383246093e-01
-4.647348344973700196e-01
-2.412653043132313158e-01
-2.348549453659713390e-02
1.221166946714404011e-01
2.086713194043664232e-01
2.237747147009907234e-01
9.975613087185107586e-02
-1.427801254465856928e-01
-2.393139152062778996e-01
1.337843230613271761e-01
8.433528494871682657e-01
1.202145061328060427e+00
7.665933889626921349e-01
1.189382492209536957e-02
-2.580312450584664186e-01
7.051177945647971179e-02
4.444899844447297577e-01
4.318111759245519266e-01
9.588593761734989784e-02
-2.564352096462330644e-01
-4.131381507109261886e-01
-3.660629616950946130e-01
-2.364750194844871811e-01
-1.391831183366881997e-01
-8.801398751978384283e-02
-2.852544964991393303e-02
3.042007168932066991e-02
-2.085940624401506210e-02
-2.346890820463356508e-01
-4.811980736590679153e-01
-5.766418322779216510e-01
-4.820343762430369106e-01
-3.021103946501295656e-01
-1.439709836279948751e-01
-4.207443007436240112e-02
1.177837482256642934e-02
1.922802606674506656e-02
-3.996213803570868028e-02
-1.764359694897524589e-01
-3.384904257314611531e-01
-4.182600876003878532e-01
-3.393021096181956242e-01
-1.243994971336820909e-01
1.292033301670053869e-01
3.158599117077890983e-01
3.693373382494918866e-01
2.881184579143934998e-01
1.243687340547347808e-01
-6.412261586284755122e-02
-2.367029677143856203e-01
-3.464878319007839158e-01
-3.438482022067023136e-01
-2.281906255582487053e-01
-6.761274228801593400e-02
5.361053940368375875e-02
9.870153101660260331e-02
8.336854797557713415e-02
3.004245220213995135e-02
-5.875665592690015870e-02
-1.750053366882556027e-01
-2.710048741075849477e-01
-2.743260647303071287e-01
-1.669928058970277518e-01
-4.604273429986087407e-02
-2.640325192067227017e-02
-3.040115920830950558e-02
2.206343988405368717e-01
8.150080537356384491e-01
1.292797294822899623e+00
1.046616196503822982e+00
1.832805775472753640e-01
-4.694857582953313457e-01
-3.763359205112163930e-01
1.470575316096300322e-01
5.002703580433933706e-01
4.829451895823958507e-01
2.844254056964775068e-01
1.048330270762747596e-01
-2.800074678632070296e-02
-1.667620984909612969e-01
-3.089779241495413942e-01
-3.863154633855582776e-01
-3.575859951499454348e-01
-2.653070641399850604e-01
-1.756551670258456321e-01
-9.931793212771629353e-02
-1.527705656078189728e-02
6.074599662905381253e-02
7.930924619060497616e-02
1.163164174422375366e-02
-1.177903164617956910e-01
-2.386199507656477092e-01
-2.737890835522971966e-01
-1.908370512647828143e-01
-3.252269984977906175e-02
1.070365553761120220e-01
1.577497442512065529e-01
1.264386402626175299e-01
6.572933438447141341e-02
1.252747927146084447e-02
-2.116831271196763231e-02
-2.537131818903234567e-02
-8.622860573591220948e-05
2.816814789238775499e-02
3.926807981530931746e-02
5.912420642972918139e-02
1.216299298655268007e-01
1.959295604151223280e-01
1.963346920012326025e-01
7.314176037996014679e-02
-1.300840988042721857e-01
-3.060382863111604235e-01
-3.513102559033067784e-01
-2.319983265433289421e-01
-2.580067572441470392e-02
1.243641847319538057e-01
1.417448659547719536e-01
7.339321846111693248e-02
1.163022214568938673e-03
-4.743731805681931230e-02
-1.029172757927894755e-01
-2.230408695311208722e-01
-3.898088145986492448e-01
-3.686620769646970497e-01
1.341374843993371480e-01
9.564714723125450346e-01
1.373926244065550861e+00
9.129123547459939703e-01
4.492355414572854477e-02
-3.955413753475694461e-01
-2.350883605512865127e-01
4.300523022151078734e-02
6.347845963991216589e-02
-9.528310749590405970e-02
-1.847828839284977875e-01
-1.104034788064056499e-01
4.146352837492491700e-02
1.415094561303217036e-01
1.182906169960626225e-01
-1.958058254545312626e-02
-2.114613683513180686e-01
-3.914938701205474825e-01
-5.044230978035115776e-01
-4.993647557275153748e-01
-3.650737840742181994e-01
-1.709056660598498312e-01
-1.978003981711781364e-02
4.110444539169370859e-02
3.234673119771295374e-02
-1.393322537627924261e-02
-8.891282532169961228e-02
-1.937944467777499846e-01
-3.067406168050721416e-01
-3.695621839962184851e-01
-3.252313263678430211e-01
-1.740016169581425076e-01
2.596011957311545118e-02
2.121258564929944801e-01
3.497217433624288385e-01
4.130694202344195598e-01
3.615600653378283624e-01
1.688436780516261448e-01
-1.034930070381828021e-01
-3.042509003823134495e-01
-3.214226802892070634e-01
-1.861191212168978038e-01
-1.213615598931012951e-02
1.181899853668564176e-01
1.746917758041926505e-01
1.461141959974655014e-01
3.731983372843275526e-02
-1.147638710778372123e-01
-2.478859452018006559e-01
-3.064104285755739343e-01
-2.690096497207853377e-01
-1.495035325723670649e-01
1.732036976065933626e-02
1.757847721007192443e-01
2.379532246231767234e-01
1.327017695466625458e-01
-4.874764666573587479e-02
-8.831899553123277041e-03
4.394745040302142636e-01
9.698413137797453620e-01
9.831149598303580150e-01
4.119090818587256009e-01
-1.033271107141820189e-01
-4.887932851626632103e-02
3.630003407949862759e-01
6.089578666639883231e-01
4.829593302427487300e-01
1.473017070824097496e-01
-1.628376893310138629e-01
-3.204103588321740581e-01
-3.174308589428620486e-01
-2.185178801985204478e-01
-1.016114938140898899e-01
-1.693662459224081276e-02
1.544552649316036433e-02
-1.349571382939956585e-03
-4.721163509305315725e-02
-1.109982488786079580e-01
-1.997029008828814511e-01
-2.950637664112636394e-01
-3.331492653856927832e-01
-2.644639747879856118e-01
-1.122788326903583350e-01
4.912373006072984216e-02
1.580977395985954659e-01
1.982170473840536573e-01
1.777444190222247922e-01
9.556880295186381824e-02
-4.839853846824559991e-02
-2.025361898484169254e-01
-2.581123372939954086e-01
-1.392010032363685257e-01
1.047835517456598697e-01
3.265067598040463648e-01
4.019054070328915707e-01
3.197849645570098320e-01
1.665547655645253644e-01
2.859996846017940145e-02
-8.732931642688852858e-02
-2.213009672048861787e-01
-3.553313363248186141e-01
-3.907414570985405788e-01
-2.645774710878005531e-01
-5.558414189125124999e-02
7.259369092800996293e-02
2.809299626876835335e-02
-1.374132779574853969e-01
-3.094906545980577461e-01
-4.232793710445001412e-01
-4.719252495666579339e-01
-4.456742338739859699e-01
-3.339738526502430416e-01
-1.940971779991751134e-01
-1.137971546222307367e-01
-1.386191688638879413e-02
3.724410570063618753e-01
1.057557593359162773e+00
1.462730596570046115e+00
1.012775610554943473e+00
3.128057013589685686e-02
-5.505411395958033083e-01
-3.554044078479036139e-01
1.432566059498695532e-01
4.026388343827079219e-01
3.622684345096583436e-01
2.405977463994832255e-01
1.697754846772693005e-01
1.271530601130251570e-01
4.869353076037699624e-02
-9.569665764734693048e-02
-2.732181163296047433e-01
-3.814515424963220713e-01
-3.351249349414305301e-01
-1.813145997781908381e-01
-5.164993406087119154e-02
-4.121815694874486971e-03
8.234692204176998279e-03
2.432393361411424454e-02
7.024035672995395177e-03
-9.079933015814173336e-02
-2.343270299392650191e-01
-3.235276469281494482e-01
-2.922482045774899007e-01
-1.606987789614182371e-01
-1.293019235822968210e-03
1.186967048427652605e-01
1.699341206772425061e-01
1.690016331902965963e-01
1.578038354924604925e-01
1.560782648511191972e-01
1.392052787896410071e-01
7.906753995804380319e-02
-5.058863273955310075e-03
-5.227112198752641159e-02
-1.668824264570139410e-02
8.454788340464144958e-02
1.864570427199161717e-01
2.324988430092388147e-01
1.968837525602490368e-01
7.334751973133583902e-02
-1.090489671309370912e-01
-2.675172271997376394e-01
-3.166854671814981481e-01
-2.467516167773014801e-01
-1.209721986595516108e-01
9.733881978388325001e-04
1.085373716172558095e-01
2.062253702662259769e-01
2.532479895834484629e-01
1.564935802411569765e-01
-1.379752619488543164e-01
-4.825583773476787020e-01
-4.847324608380910727e-01
1.498688182978756556e-01
1.078812352208556202e+00
1.437403875078947513e+00
8.539281443219292056e-01
1.610206552689411041e-02
-2.222748790676511432e-01
9.998051173148619908e-02
3.378240981916594832e-01
1.730045289358741745e-01
-1.688488051385879929e-01
-3.674233952176392259e-01
-3.371999073631704591e-01
-1.863861477776495024e-01
-4.801872169014316516e-02
1.081556211378421894e-02
-1.545687856607667367e-02
-1.117875095743487979e-01
-2.660884657286700095e-01
-4.477349818986851582e-01
-5.826347779806193561e-01
-5.965518460219421115e-01
-4.870649755147503646e-01
-3.196223743042391208e-01
-1.637666424196063397e-01
-5.922529776046679684e-02
-2.135105498722487255e-02
-4.977291792459428987e-02
-1.338112983203124384e-01
-2.537872881719897555e-01
-3.741446185418685344e-01
-4.438898145755944546e-01
-4.171966443271375446e-01
-2.806398553619922076e-01
-6.743246919169126885e-02
1.504383410129024601e-01
2.861301905680829205e-01
2.676562442206218417e-01
8.194537008728769445e-02
-1.881281908949081760e-01
-4.043533220414577967e-01
-4.769074163293525181e-01
-4.136627056077803455e-01
-2.786495339481664946e-01
-1.358814611513767534e-01
-2.821034314004918289e-02
2.245945813658531062e-02
1.201277652953517891e-02
-5.518666462092798597e-02
-1.786106302535274970e-01
-3.438126141777326783e-01
-4.771143765534842651e-01
-4.633740592073372078e-01
-2.674721068387712064e-01
-2.079336577258834168e-02
7.274656520268964199e-02
-4.875904369094180568e-02
-1.695608460835563436e-01
4.855131539686932673e-02
6.042016342620132319e-01
9.338185728433422428e-01
5.303469487800345217e-01
-2.603349238797461052e-01
-5.750440108390402205e-01
-1.286255703629163583e-01
5.403685130035027484e-01
8.417588068432092507e-01
7.020748250652979472e-01
3.992566041600291160e-01
1.616948386210385058e-01
2.175860569258572519e-02
-7.159812704228959990e-02
-1.264766079997942660e-01
-1.088939743169902580e-01
-1.166982532743695775e-02
1.157991809628048513e-01
2.014042293565544428e-01
2.039715022164605152e-01
1.335091968602391543e-01
2.134476858989337034e-02
-1.107451420607757364e-01
-2.309634528147256893e-01
-2.741849115118650815e-01
-1.885037025338750227e-01
-4.476440367980855789e-03
1.752533452103350042e-01
2.620720034600257931e-01
2.469298670027381126e-01
1.792624790467146068e-01
9.703876814084595737e-02
3.580942232741639916e-03
-8.600167962620647311e-02
-1.104375179424703785e-01
-1.111168698520150627e-02
1.799076615817195579e-01
3.405448203329412005e-01
3.809725394130417109e-01
3.302934665734817976e-01
2.628243576870575859e-01
1.860004996440056957e-01
5.840052023384380980e-02
-1.156677490232093652e-01
-2.637847528948711884e-01
-3.062536378116848534e-01
-2.152357388400497062e-01
-2.939338869854438846e-02
1.659281263706218756e-01
2.807750733258746467e-01
2.730663518987251348e-01
1.751123610909875450e-01
5.998150919941653419e-02
-2.837744830488038786e-02
-1.097179563392728652e-01
-2.222641999157189963e-01
-3.142528855629512785e-01
-1.749246698703460501e-01
3.908618531746225200e-01
1.161900081726626288e+00
1.469724003016292802e+00
9.328349241307450912e-01
5.031973102866270364e-02
-3.772679172697525063e-01
-2.117533661370726572e-01
6.643594295926016913e-02
1.167686699686268231e-01
3.543794794635223011e-02
2.530503222766518345e-02
9.696598966711243717e-02
1.319336690568510551e-01
6.870552383684865039e-02
-6.355190961845844089e-02
-2.222928346262714461e-01
-3.748316769947193094e-01
-4.640124731243022160e-01
-4.262151893539302128e-01
-2.661732950329461778e-01
-7.166501247796963625e-02
6.763938596021189242e-02
1.232353831468078753e-01
1.047068955101886217e-01
2.425656329310389020e-02
-9.709900846535253482e-02
-2.184827868110276461e-01
-2.910713859066346165e-01
-2.822643732247666071e-01
-1.958009525659396566e-01
-7.275627814668296500e-02
3.409305316661546958e-02
1.000834448024991857e-01
1.433311677080572333e-01
1.826740574491167723e-01
1.822805227735698752e-01
7.664818153579193438e-02
-1.238956900100512404e-01
-2.915946116365334406e-01
-2.984646724923661898e-01
-1.569070247363042458e-01
5.728609448268640048e-03
8.873777972139595960e-02
8.173129752147240135e-02
1.596821696676692035e-02
-8.302379272754667472e-02
-1.915763571618860350e-01
-2.752970930353426104e-01
-2.993115577552561413e-01
-2.500500753876153115e-01
-1.481361867798797194e-01
-3.432989663252124929e-02
6.475530004646581905e-02
1.353614130839451701e-01
1.273397722044613822e-01
-2.885725698556424260e-02
-2.628174711355323878e-01
-2.695174135415276395e-01
1.987255062790957150e-01
8.611251611612976697e-01
1.050193983903564554e+00
5.575902021725239743e-01
-2.348429402073792804e-02
-8.627907820660149496e-02
2.511278539444909974e-01
4.634275875291047897e-01
3.077574173087964660e-01
-4.615151124322330184e-02
-3.293552718149659886e-01
-4.120514123850207433e-01
-3.214674110272875973e-01
-1.667377620808602190e-01
-6.705549091044409049e-02
-8.841144630366905288e-02
-1.974734540336076372e-01
-2.989685741713264955e-01
-3.485961610134636901e-01
-3.855150453905240582e-01
-4.343629512884367161e-01
-4.467118863500035841e-01
-3.683853085519323001e-01
-2.120833609962746447e-01
-4.377669044456992953e-02
7.368631188322255499e-02
1.138857743928345656e-01
8.183167367330433650e-02
-7.422798332728651471e-03
-1.343019345218191274e-01
-2.578140257157922610e-01
-3.117477188160244772e-01
-2.405404591514734847e-01
-4.689296453284365340e-02
1.949179352857463299e-01
3.719679052405490682e-01
3.944006540218639723e-01
2.546506314460537101e-01
3.571505201762783382e-02
-1.539002690075725877e-01
-2.589620941253741870e-01
-2.861879692888463222e-01
-2.529061968326889454e-01
-1.622692237742463517e-01
-2.820037761447354019e-02
1.076884439510891883e-01
1.937848347312710051e-01
1.965445275494408783e-01
1.147087912346148042e-01
-2.579743827715143267e-02
-1.754759538792273199e-01
-2.604480663928891992e-01
-2.234683755334914146e-01
-9.877740366240501946e-02
-6.914748795858315956e-03
-6.911759905174710318e-03
5.493668411487553915e-02
4.243755170059796966e-01
1.013055789624969227e+00
1.247592489346914357e+00
7.118950297990540577e-01
-1.708650845148122766e-01
-5.727696667723665147e-01
-2.707913988271947736e-01
2.354100315655093256e-01
4.598503609534153602e-01
3.670843218307332512e-01
1.746200208535283460e-01
3.465827087107666016e-02
-5.724558359255645101e-02
-1.657655660860208602e-01
-2.987386340845871735e-01
-3.919601974268751010e-01
-3.819495233192382044e-01
-2.696487331860143999e-01
-1.198127012760012017e-01
-9.398520129101858162e-03
2.166147613114306758e-02
-2.386461165120596847e-02
-1.232981406530768292e-01
-2.495387926907190745e-01
-3.676876510201013692e-01
-4.288601763276823631e-01
-3.886518338571862685e-01
-2.458017215634151209e-01
-5.871892176673815245e-02
8.522132791302911015e-02
1.286738313504272035e-01
8.122760512669834065e-02
-1.977082182700672097e-03
-6.719634388195522279e-02
-8.180525144966857565e-02
-3.631993084339305011e-02
4.713445481041749624e-02
1.240622034947149316e-01
1.645171030744330409e-01
1.729125565185618274e-01
1.660135558212361973e-01
1.406390515407554831e-01
7.098980714327091102e-02
-5.463893402113634973e-02
-1.967065286322076390e-01
-2.836340922913802576e-01
-2.729754478611863266e-01
-1.767760840448740767e-01
-3.650379286390674494e-02
9.846149385173262603e-02
1.810717094084948742e-01
1.915160615082197593e-01
1.516014396346803683e-01
8.452673429348199485e-02
-4.103872369579493473e-02
-2.607497844437565715e-01
-4.445921575253476421e-01
-2.577255668936018762e-01
4.816757095874881212e-01
1.339273504004521165e+00
1.511737449095686525e+00
8.054386312268382309e-01
-2.430067049623496622e-02
-2.364996782477118697e-01
4.507222437007098181e-02
2.443834537063012124e-01
1.349979677622864527e-01
-7.203997008454987583e-02
-1.394720144649680416e-01
-4.418628476680689504e-02
9.244285268451531146e-02
1.576678200383953010e-01
1.192662439265042840e-01
4.606354109265374530e-03
-1.475055289028679162e-01
-3.015460943099937396e-01
-4.076956362138566270e-01
-4.067319381712352078e-01
-2.835689838291182152e-01
-1.034470114279773534e-01
3.694469037830014346e-02
9.012789317173283687e-02
7.681099689422572763e-02
4.035586062629595988e-02
-1.103364810705704038e-02
-1.151889157327499191e-01
-2.767721912555466401e-01
-3.809193526039376110e-01
-2.728613917789616816e-01
3.202328029865098014e-02
3.170599338769994890e-01
4.153423744978165799e-01
3.784783959161217015e-01
3.185514796031407858e-01
2.214824652905689195e-01
2.363644482952716869e-02
-2.236905465741485244e-01
-3.729095358590611142e-01
-3.382789644613259927e-01
-1.790052858730638297e-01
-2.560723437235090313e-02
4.751847505995385190e-02
5.936041395746537858e-02
4.595090819678272764e-02
-8.315814135739283894e-03
-1.336132583420747977e-01
-2.955711577882790264e-01
-3.994449678944179682e-01
-3.778711239496653773e-01
-2.455833860164456373e-01
-6.926317957618977061e-02
7.349487872038003300e-02
9.927109428267000268e-02
-3.119253577194050497e-02
-1.764906898790024048e-01
-1.845931519466107590e-02
5.436666981192678216e-01
1.017363733288658922e+00
7.706134668721574821e-01
-3.671645847495400017e-02
-5.250166304983132637e-01
-2.387406354389909058e-01
3.545419691797313533e-01
6.049706479432577222e-01
3.960448482439651863e-01
2.214324519445569350e-02
-2.597136212852725334e-01
-3.899625807243842224e-01
-3.993599226208759956e-01
-3.207245466534544565e-01
-2.006353885615170807e-01
-1.020683275077527430e-01
-6.340358245638913481e-02
-8.400362657885619699e-02
-1.485733737027014056e-01
-2.442203634937656354e-01
-3.565213992553852296e-01
-4.531376493704585839e-01
-4.778430110304742739e-01
-3.865885838608033032e-01
-2.000180162861923960e-01
-4.688066273867357026e-03
1.103698142838947793e-01
1.196595998619164325e-01
6.002450118402334611e-02
-2.892564359670571697e-02
-1.405276882291004170e-01
-2.641806969965513896e-01
-3.253365633603393925e-01
-2.154937221542930770e-01
6.777165185698708072e-02
3.558931101802791375e-01
4.595608372038643696e-01
3.591502892063367369e-01
1.904315970775616873e-01
6.897102668641555412e-02
-1.082717293333533559e-02
-1.011955047106177785e-01
-1.873103837294294027e-01
-1.990233082594508873e-01
-1.111126970049044621e-01
2.511953094039896112e-02
1.444335295368884275e-01
2.162828235034810198e-01
2.325944776412824655e-01
1.862496205562501617e-01
8.440602653161459468e-02
-2.426116066767100912e-02
-7.464412608400682048e-02
-6.766489897021508992e-02
-8.183455863933168650e-02
-1.246973326284146200e-01
7.298161557855419902e-03
5.476629832541980436e-01
1.289568264915454732e+00
1.528916626677786939e+00
8.730258487356330477e-01
-1.124654841357496937e-01
-5.548959889701700066e-01
-3.092381489688219576e-01
1.052323754925899024e-01
2.836084737281043822e-01
2.439613898283661542e-01
1.584303854494833463e-01
9.351956398862742992e-02
1.388764119135458414e-02
-1.097954009394496583e-01
-2.595847328925581232e-01
-3.913817175695788464e-01
-4.618040723793408464e-01
-4.498473264646959402e-01
-3.663224230086785660e-01
-2.419227608193208201e-01
-1.118536004737885337e-01
-1.534701525186312962e-02
7.871565802146301277e-03
-5.818014863871417280e-02
-1.895724815191542068e-01
-3.344625740267572200e-01
-4.294288852405668266e-01
-4.173852149135801604e-01
-2.846981720150442152e-01
-8.780503449585240483e-02
8.043288389553834850e-02
1.637571521942946529e-01
1.746890841483326462e-01
1.585058171744712918e-01
1.413124355522938080e-01
1.105656992473854489e-01
3.965543055252798016e-02
-6.035704986081976559e-02
-1.249264861506172858e-01
-9.857622406680746630e-02
-2.889739194969933103e-03
8.333585826293006538e-02
1.007698486463105142e-01
4.773098857452913457e-02
-4.311470767852302460e-02
-1.396320432198951134e-01
-2.190527554719541026e-01
-2.593672302626509607e-01
-2.363224975241021986e-01
-1.343902130610049039e-01
2.933551444424354476e-02
1.893382338805401355e-01
2.652285045655050078e-01
2.167110273914964191e-01
4.097185102146654045e-02
-2.298197425359157220e-01
-4.276717759256578044e-01
-2.337907553396034177e-01
4.648117639434458659e-01
1.186908199081515569e+00
1.221774130393786129e+00
5.322673724527307026e-01
-1.308035115146614080e-01
-1.819076736048543808e-01
1.595679538821022647e-01
3.267536428101595614e-01
1.203179300781972438e-01
-2.093000668802047770e-01
-3.615892219058060575e-01
-2.823750348575531643e-01
-1.230051276898957158e-01
-3.268895725165897603e-02
-3.116179775023218690e-02
-4.374826860835141079e-02
-1.872742667420465926e-02
-5.562411265441158381e-03
-9.691656466347406407e-02
-2.741044681000227023e-01
-3.814620603780871089e-01
-3.102317693474542226e-01
-1.268266007801883699e-01
3.207140706108953243e-02
1.082972923846264451e-01
1.243600357663548345e-01
1.026893634772209907e-01
3.124877033102850532e-02
-9.705848294122033926e-02
-2.342173716508902936e-01
-2.954570835291939201e-01
-2.321548127166846442e-01
-6.474011050794446775e-02
1.470095179392539586e-01
3.370769591571306512e-01
4.485564290104691598e-01
4.461677108602061792e-01
3.212138767377740733e-01
9.910513501327017361e-02
-1.378185649482633057e-01
-2.696103393132079917e-01
-2.330505896041311642e-01
-8.408875408071075919e-02
6.215124143902213405e-02
1.351907619605635102e-01
1.382841893002304257e-01
1.003774911109874685e-01
3.047132972120658589e-02
-7.626117437389323683e-02
-2.015228630253693698e-01
-2.853082006671551207e-01
-2.567526983394362028e-01
-1.027485231497552581e-01
8.613851201930311507e-02
1.639810988270563596e-01
8.311238564372538939e-02
2.488129476504553211e-02
2.660849192479946557e-01
7.617176368354356963e-01
9.863801478241498444e-01
5.296111267313768911e-01
-2.337904855950634353e-01
-5.260600851868104666e-01
-1.506400642466971806e-01
3.704846901295189010e-01
5.452567977794452458e-01
3.751441890894934295e-01
1.204584718732972376e-01
-6.887060138310058255e-02
-2.084672404092659248e-01
-3.229318925569243937e-01
-3.686374582319499882e-01
-3.123871957318616333e-01
-2.059435047747900371e-01
-1.335072359993425828e-01
-1.148538498712801670e-01
-9.803649241000347847e-02
-4.166155011701440369e-02
1.032719065589601283e-02
-3.850867957232008421e-02
-2.023317746567453723e-01
-3.556343236416992792e-01
-3.608738644436227938e-01
-2.131983789362937309e-01
-2.537991621402645517e-02
9.330094498046910545e-02
1.149981576953547358e-01
6.796181378956055175e-02
-2.655877552458107277e-02
-1.566842315829388710e-01
-2.677318263750696481e-01
-2.645921958298255161e-01
-1.049667934392354979e-01
1.315011319364671749e-01
2.999021483125470788e-01
3.179217164020114450e-01
2.235645351680976001e-01
1.035396334580198363e-01
-7.214200887061931328e-03
-1.289729816390739192e-01
-2.606985809755140160e-01
-3.415006578923148184e-01
-3.128642300539595800e-01
-2.006843207760242720e-01
-8.670027489672305077e-02
-6.375617174406990675e-03
6.125069121337339134e-02
1.038412175845271762e-01
4.570403091562301456e-02
-1.560943861647016151e-01
-4.094246712604391325e-01
-5.494538662191280620e-01
-5.268161544824166986e-01
-4.102755848243248571e-01
-1.460674293345350649e-01
4.298600137941502308e-01
1.142308153105753066e+00
1.370677022149354052e+00
7.899783204879502474e-01
-6.676129798237309676e-02
-4.389018610949971255e-01
-2.452991182008586457e-01
4.396218648394957518e-02
1.256984482755800214e-01
7.385731578182791468e-02
4.003799720807117019e-02
4.950538477044677532e-02
5.448104980916582130e-02
1.919812521050144258e-02
-7.453684506558382050e-02
-2.267018954204604031e-01
-3.940767259138220902e-01
-4.966182799668117376e-01
-4.683619023431925821e-01
-3.116322473158477102e-01
-1.098081519878517653e-01
3.148344600073939292e-02
7.425134308926301108e-02
5.876230507144668963e-02
1.694360899265227177e-02
-7.242593536625789585e-02
-2.099327567131042682e-01
-3.134399456998289701e-01
-2.891064642714293309e-01
-1.429179330905663847e-01
2.177409408297416998e-02
1.160286975446858382e-01
1.488274245942878826e-01
1.875324018084097155e-01
2.517537460662611082e-01
2.744563750687408765e-01
1.807597054593552688e-01
-4.943599582710647006e-03
-1.565046795265861712e-01
-1.640818607153819442e-01
-3.733055986952413252e-02
1.200622643305382792e-01
2.132180506566853651e-01
2.129840309317276303e-01
1.371495715896630940e-01
1.501895599195201061e-02
-1.218726704338975730e-01
-2.303332118865260014e-01
-2.610877959002775861e-01
-1.942920942336549550e-01
-6.523396831320343869e-02
6.536077241452890874e-02
1.660552625554621020e-01
2.331438982738125443e-01
2.278723053882213689e-01
7.598811279841774513e-02
-1.770161884325049950e-01
-2.296656926161310119e-01
2.321768910805128150e-01
9.921814313750695336e-01
1.297869436224132533e+00
7.725078526389309586e-01
1.729513154867390323e-02
-1.705236379291773519e-01
1.809494438459669508e-01
4.519422661508113448e-01
3.206979285455423545e-01
-1.044681641561424901e-02
-2.347710586302342306e-01
-2.528995131278199970e-01
-1.453838087119997402e-01
-3.163503510886517961e-02
2.380042841592968153e-02
2.700019324120213338e-02
3.405261633069157565e-03
-5.522661620187774290e-02
-1.740405520764392588e-01
-3.322832059276301653e-01
-4.542121525227426071e-01
-4.772889822429282614e-01
-3.959118713699594228e-01
-2.341313905637086301e-01
-3.122283615664860415e-02
1.376881522911190536e-01
1.845743721772426793e-01
7.932455264999899169e-02
-1.128694856620126585e-01
-2.756175833053608470e-01
-3.275601550871719003e-01
-2.619107254870943202e-01
-1.151184193330682115e-01
7.351487899668351922e-02
2.687396331981460329e-01
4.243865678914739981e-01
4.779320362399139821e-01
3.792075245103639358e-01
1.372097025879502052e-01
-1.614712925309778335e-01
-3.902395136910354889e-01
-4.586354694479856664e-01
-3.668555493038481163e-01
-1.923191842579719257e-01
-2.870562703737863930e-02
7.128036943672511061e-02
1.108920856430662821e-01
1.154885677558093876e-01
9.280462156122509798e-02
3.004876314656137332e-02
-7.608248758835235714e-02
-1.817689089032642480e-01
-2.021890974999009660e-01
-9.896724003796722458e-02
3.903682866397249762e-02
6.289135540930233803e-02
-3.207566141373999202e-02
1.227794782507709084e-02
4.626858398048352417e-01
1.083945758863066766e+00
1.168441647114645043e+00
4.441468355300262072e-01
-3.903294781635825439e-01
-5.200503790565395024e-01
-1.524697980615276338e-02
4.596536529498015944e-01
5.292030645863030625e-01
3.208013538336927373e-01
8.403687120470045013e-02
-8.960048798978269280e-02
-2.348773791204842865e-01
-3.738901505222081423e-01
-4.632009227523833927e-01
-4.506245807203619891e-01
-3.450421188173436460e-01
-2.119184935547374637e-01
-1.118633464363683744e-01
-6.568816178381671478e-02
-7.786556137639832897e-02
-1.567654308346209946e-01
-2.815746024015470805e-01
-3.774084361257469267e-01
-3.710578888744411885e-01
-2.648319569572961107e-01
-1.241166719733267920e-01
-5.810774561121431758e-03
7.374265118321618462e-02
1.148628707875157806e-01
1.078964560263793726e-01
4.066166999887611128e-02
-6.692049944867367595e-02
-1.462244814916796309e-01
-1.223802246268040211e-01
1.042954037649748700e-02
1.672876129949774915e-01
2.476795340121817901e-01
2.268234652594423584e-01
1.543703809129434446e-01
7.922410629894910405e-02
2.265557388178046638e-03
-1.038159286119202523e-01
-2.397880803274304307e-01
-3.468761498309966274e-01
-3.489127227217651561e-01
-2.356247080584314146e-01
-7.461017741495945543e-02
6.033310945083858456e-02
1.344275454812081938e-01
1.358141199808118316e-01
7.099210199485053718e-02
-2.268618934680998248e-02
-1.147746905901132208e-01
-2.278756831914950098e-01
-3.654841092803987612e-01
-3.646319264654909187e-01
4.836381676513130945e-02
8.541272795693842790e-01
1.462984439881176435e+00
1.238765139540647819e+00
3.569603612748987187e-01
-3.359655825910607407e-01
-3.763880217313304022e-01
-8.835710919919748108e-02
6.278887315189946028e-02
1.527922763406359963e-02
-4.294742589530645138e-02
-1.199903912062207957e-02
5.712129990352268760e-02
8.337024846260708555e-02
3.678968631233356379e-02
-7.051436479249000022e-02
-2.121100607966613927e-01
-3.439580614605942110e-01
-4.060575941853356019e-01
-3.664413909507830969e-01
-2.538161127497623459e-01
-1.236798920719542338e-01
-1.195624963041853200e-02
5.897441224554759304e-02
6.358700886970533594e-02
-3.822540605304515851e-03
-1.125959844564020651e-01
-2.227731335581816241e-01
-3.020011760579441873e-01
-3.118932109544371167e-01
-2.267668347040308618e-01
-7.849153124335961351e-02
6.672039811102629947e-02
1.896417427219409257e-01
3.204866294340563138e-01
4.370391750540449927e-01
4.305660710034739380e-01
2.350057299906457564e-01
-5.388222141297086681e-02
-2.525352857684968755e-01
-2.633501318546584424e-01
-1.365721285240191762e-01
1.289322736366432104e-02
1.044773859490704809e-01
1.185560331953437740e-01
6.951145260141704252e-02
-2.418356538729153626e-02
-1.431405104829171493e-01
-2.476831391982593222e-01
-2.808554385618632354e-01
-2.203946950330517851e-01
-1.096231465959974644e-01
1.709088119603076675e-03
1.117037863687026789e-01
1.990907080541540752e-01
1.584433113950126926e-01
-6.138418860521067943e-02
-2.412557648822138967e-01
-8.664601826491782205e-03
6.370298131284192200e-01
1.089226994666311343e+00
8.090793975449426245e-01
1.130893612264542158e-01
-2.063332939209916728e-01
8.050353498216883397e-02
4.866078214954122627e-01
5.475786021635817846e-01
2.671089847705680476e-01
-9.060050864651941760e-02
-3.229525440381870172e-01
-3.805890249882219467e-01
-3.135751639604129060e-01
-2.038926303554465247e-01
-1.148741640167336986e-01
-7.430148088749502500e-02
-8.624740463640336030e-02
-1.299712756500117916e-01
-1.643098910159365433e-01
-1.758592570129476618e-01
-1.965244454512899419e-01
-2.368523527812348428e-01
-2.516485610361920977e-01
-2.001439285766932197e-01
-8.596306551852610223e-02
6.197618355634809673e-02
1.901847573741349273e-01
2.193720454876250670e-01
1.023227255928962631e-01
-1.145689790053745216e-01
-3.109437105630826204e-01
-3.734835261467059908e-01
-2.643287404029298626e-01
-3.061033615510454220e-02
2.373874896582453542e-01
4.449911574620216137e-01
5.091972684921421965e-01
3.925421646324092073e-01
1.450247944783200627e-01
-1.182901139939514235e-01
-2.989383048668973752e-01
-3.627957869200926222e-01
-3.222370390882517976e-01
-2.094791554813734691e-01
-7.132857100998306332e-02
3.959685297238665913e-02
8.946083140938744516e-02
7.759013477154172445e-02
1.777606249419758089e-02
-8.459524000052871806e-02
-2.118429618478269161e-01
-2.982104053438393021e-01
-2.677540172440650013e-01
-1.423002402257590449e-01
-5.801783019169789307e-02
-7.422087888201797656e-02
1.944205200764757141e-02
5.039748158995043248e-01
1.202348908530135096e+00
1.416589532037817456e+00
7.588150841736930330e-01
-1.986706436158610090e-01
-5.772159314429350374e-01
-2.463364140669196678e-01
2.258405269462613330e-01
3.956492840841504544e-01
2.985701209192255789e-01
1.559011660808306554e-01
5.936159192729270617e-02
-4.175309003089218429e-02
-1.947306439090511210e-01
-3.596796849811519370e-01
-4.479393161299634052e-01
-4.070606349688841163e-01
-2.646625486210307798e-01
-1.047155709694065767e-01
-4.909343306301473808e-03
8.985200323208417106e-03
-4.544406055517814791e-02
-1.384409807252354185e-01
-2.360495337632116108e-01
-3.021149550194547340e-01
-3.145371120047247837e-01
-2.711322248153661407e-01
-1.797824164692163051e-01
-5.737393851874240253e-02
6.360561041685545980e-02
1.435807342841849688e-01
1.579817229807211065e-01
1.101864232593239012e-01
2.959684844575499046e-02
-3.747170288198929666e-02
-4.931762703615151511e-02
-2.765543993837714029e-03
5.988917808806884513e-02
9.786572722041983474e-02
1.124188380884952876e-01
1.217649672552505030e-01
1.197781542083170420e-01
7.852330930897988281e-02
-2.150047302806806088e-02
-1.619112301879445659e-01
-2.781585360903940374e-01
-2.978095934825774616e-01
-2.045832153616895799e-01
-5.770990183481692487e-02
6.244986420052723447e-02
1.179892078693324797e-01
1.197991336087338016e-01
9.647014612077460527e-02
5.573987140687221287e-02
-4.788464845511848644e-02
-2.626205720974478242e-01
-4.812018144487444915e-01
-3.812381342530559714e-01
2.728803275026627784e-01
1.154461667382224555e+00
1.480608663106858680e+00
9.175470479402100255e-01
8.570563241513320940e-02
-2.345125996538390822e-01
-3.965315784171316582e-02
1.389491764048560729e-01
2.994150439462906280e-02
-1.893940695809392949e-01
-2.617298987412103317e-01
-1.346114670780735045e-01
6.454575187797340075e-02
1.925821953955040022e-01
1.967330389699168125e-01
1.042401906019916058e-01
-3.876736784431132621e-02
-1.901861160264479711e-01
-2.956416684211393697e-01
-2.998531388870876446e-01
-1.912381184181344840e-01
-1.346135138371092055e-02
1.699176192077325731e-01
2.931475594471660839e-01
2.735564535753621795e-01
5.420408355114145205e-02
-2.808761160894625575e-01
-5.097058614800391574e-01
-4.877134146039893148e-01
-2.983425690156551457e-01
-1.138500656800402466e-01
1.127665119010251744e-02
1.407344164175007017e-01
3.128110607030254453e-01
4.638838033224499391e-01
4.964031478036362022e-01
3.767084996381883100e-01
1.444940403609971391e-01
-1.251019453716656071e-01
-3.406919340414071851e-01
-4.172475135530130386e-01
-3.222773799194622035e-01
-1.131050008298749299e-01
8.752524999326861954e-02
1.783355485841533750e-01
1.405850268216853882e-01
1.586049865884069099e-02
-1.419901176767218720e-01
-2.803969995872763743e-01
-3.503424657229761707e-01
-3.289892965637586930e-01
-2.326771975111776580e-01
-9.584440531905097371e-02
3.956813079537509215e-02
9.888807141363480102e-02
-5.245002828828115859e-03
-2.290132033601397499e-01
-2.763330491056406601e-01
1.576053072266845323e-01
8.488499708566777935e-01
1.060011395134005996e+00
4.691018691226140347e-01
-2.742342951084408287e-01
-3.885232901394511940e-01
4.858313386520582422e-02
3.918782624962706129e-01
3.064453066097171385e-01
-3.171935330000415915e-02
-3.263362509316160565e-01
-4.399336986229276936e-01
-3.932573303162432143e-01
-2.804555967510981018e-01
-1.873685225777885766e-01
-1.390144321842974873e-01
-1.218908251686545013e-01
-1.343776592393151614e-01
-1.871230309937943481e-01
-2.799869967670952642e-01
-3.988926242912288478e-01
-5.074232092408988981e-01
-5.417837659033041264e-01
-4.576980585706403315e-01
-2.850997644445499857e-01
-1.052002758686832184e-01
2.113497422396157233e-02
8.143922163966552108e-02
8.061746944030973028e-02
1.177869800735938458e-02
-1.237074372185767157e-01
-2.731976867232328021e-01
-3.371627939764409998e-01
-2.401735964401593981e-01
-2.982315333309807845e-03
2.575321061930203603e-01
4.046486097649358293e-01
3.738091019415646366e-01
2.055805533601300916e-01
-5.134387514227074789e-03
-1.821504584873122057e-01
-2.907979077896953868e-01
-3.195096220856574742e-01
-2.680793136345527850e-01
-1.537004151835925647e-01
-1.419927675911729706e-02
1.075660909946602878e-01
1.846612719558668458e-01
2.051418091575337721e-01
1.531487427948464430e-01
1.351931642443359241e-02
-1.791936977545091070e-01
-3.126741750180851986e-01
-2.823986170895081416e-01
-1.348632279838352377e-01
-4.508588812785525174e-02
-4.459826244235728931e-02
1.471773286907634981e-01
7.554932694252762815e-01
1.399946005473135857e+00
1.343736804300512899e+00
4.833985966099478282e-01
-3.995652424407792891e-01
-6.211529966647876266e-01
-3.130410451011425566e-01
2.951508779638362112e-02
1.859948325100499178e-01
2.081642905230143004e-01
1.632746923895669333e-01
6.520717720754963531e-02
-7.610056284159281981e-02
-2.274923822322739431e-01
-3.431487636942379682e-01
-3.882779104746041932e-01
-3.508617107306972183e-01
-2.403727313979221458e-01
-8.879112208926401295e-02
5.246410982269413686e-02
1.339629751504448074e-01
1.341307880753916937e-01
6.270400660198238718e-02
-5.506457753852616460e-02
-1.833876642860972073e-01
-2.690609570035808473e-01
-2.580132028080832085e-01
-1.387938118084640349e-01
3.496834554678134033e-02
1.777096142306344440e-01
2.370950950617726760e-01
2.292862151369303436e-01
2.029457828356338589e-01
1.784001192569346084e-01
1.505930739934132900e-01
1.336077747799359616e-01
1.528705776931914562e-01
2.068076219031207141e-01
2.684889258489279174e-01
3.000247472871132581e-01
2.622553427161294914e-01
1.565630960987449416e-01
4.228587078139723482e-02
-3.730955606774306182e-02
-1.038888346860742246e-01
-1.692774025598341447e-01
-1.789072989298194638e-01
-8.520409505266907102e-02
7.332601863961163424e-02
2.060446020327128258e-01
2.605899597625219166e-01
2.560610280435042796e-01
2.245950786143132150e-01
1.414208124732703187e-01
-4.839702660916338911e-02
-3.116702003959842537e-01
-4.373894816344657266e-01
-1.295569386405300005e-01
6.367860883020173279e-01
1.333714201172119029e+00
1.301196409601714787e+00
5.881573917983874411e-01
-4.569670506705007795e-02
-9.979721761811100045e-02
1.554461178480828765e-01
2.277047879729178492e-01
3.105464665527087748e-02
-1.626655161041287434e-01
-1.385930372210102957e-01
4.287916859267985187e-02
1.746010628246271457e-01
1.402400442386978474e-01
-1.598655903825502156e-02
-1.953001373532987361e-01
-3.430415701846543652e-01
-4.492884032077462120e-01
-5.047287991466111734e-01
-4.854540139913535723e-01
-3.824656324894378234e-01
-2.284403176394947665e-01
-7.956797274085880556e-02
2.164895619023456466e-02
5.754243411051967322e-02
2.477664252844480677e-02
-6.975424733194977855e-02
-1.986516428474335572e-01
-3.055263011610396262e-01
-3.259327359124395973e-01
-2.308345188353207178e-01
-4.590139629206951843e-02
1.664557844336769510e-01
3.375817921966495216e-01
4.223642237396552090e-01
4.057371405894109051e-01
2.792154950566944627e-01
4.973182053863355739e-02
-2.076937010276036222e-01
-3.596542401102978403e-01
-3.173326922327773802e-01
-1.146334755428984886e-01
1.172964665077483037e-01
2.442626349655873108e-01
2.203880601259385896e-01
9.924977649893793052e-02
-4.272317837073696944e-02
-1.678526494843455563e-01
-2.652579839159607267e-01
-3.175390116345435110e-01
-2.937715407547744073e-01
-1.736018981348970147e-01
1.482967946631568584e-02
1.797121575960832218e-01
2.036543849470034140e-01
5.135789176535567047e-02
-1.056771673337770223e-01
3.936164357796505253e-02
5.360584722733254814e-01
9.175643971309720426e-01
6.874564688493182141e-01
5.456464914350020456e-02
-2.744893473977996212e-01
-2.427435058141790697e-02
4.010282834281748698e-01
5.434523642901335494e-01
3.424592224448331224e-01
-5.173102284613192992e-04
-2.927143783454191905e-01
-4.443860597242583199e-01
-4.529254863835486256e-01
-3.667331299921433585e-01
-2.428556027200814982e-01
-1.266972054393391556e-01
-6.089637277869930365e-02
-7.729401731679154397e-02
-1.656803983142009218e-01
-2.777346622843170354e-01
-3.740746670144523001e-01
-4.401019475146243365e-01
-4.541831517833392340e-01
-3.875896334987922742e-01
-2.503550672350365325e-01
-9.860143120085053392e-02
1.476192662182724061e-02
7.021512164330062644e-02
6.426318424498429771e-02
-8.697901801881853523e-03
-1.423446733701867750e-01
-2.879298143504659402e-01
-3.530334006336584007e-01
-2.599016278299662863e-01
-2.171539636226232917e-02
2.451367184304387159e-01
3.982541827807215551e-01
3.732506051797414570e-01
2.170715247245535717e-01
2.380496106647409654e-02
-1.427921340606669309e-01
-2.626392842418880935e-01
-3.294012880831677648e-01
-3.353768850354129638e-01
-2.820716880033599105e-01
-1.825909836745227000e-01
-5.461686972740162349e-02
6.653164864022280411e-02
1.236817185639164790e-01
7.802637814490653856e-02
-5.305235952005938477e-02
-2.000647889919764111e-01
-2.752866951695017717e-01
-2.436483426312277822e-01
-1.808592561373273400e-01
-1.739254379699579911e-01
-1.091710998458646636e-01
2.857703679852243717e-01
9.875493863335099709e-01
1.409857303095061631e+00
9.968648825771532218e-01
4.552005318378699039e-02
-5.617241803224730656e-01
-4.322913923896857247e-01
2.344047046773235776e-02
2.907683705507252969e-01
2.864985196051956229e-01
1.996396073046798891e-01
1.491230341763401246e-01
1.034826057912125868e-01
-3.752024546997592691e-03
-1.729012848133905100e-01
-3.298115326591342655e-01
-3.881911811225566833e-01
-3.238644538302394293e-01
-1.923997085939040952e-01
-7.202811278108246784e-02
1.913535346106412689e-03
3.689029079463926331e-02
3.719865261511012128e-02
-8.627064469422573989e-03
-9.616713041777545656e-02
-1.924620199005993570e-01
-2.581299469061176244e-01
-2.609356783433398608e-01
-1.809449473004021147e-01
-3.339674540746767617e-02
1.193392293386661279e-01
2.032624822126692099e-01
1.920766619702762579e-01
1.279240364915016914e-01
7.165834029450281195e-02
4.601143691800572977e-02
4.465994500091291508e-02
5.864944698986582911e-02
7.340121280683740979e-02
8.756935312605400312e-02
1.310704014342921053e-01
2.106249645240549639e-01
2.654999776035953385e-01
2.292698030619416127e-01
1.028909970891147413e-01
-6.011078405292628185e-02
-1.957231691977989463e-01
-2.451309623198592580e-01
-1.807205160652621823e-01
-3.863975035002009673e-02
1.000281077957087539e-01
1.791390318461869302e-01
2.055469078326739585e-01
1.955578858006772891e-01
1.032576659696546745e-01
-1.382132768270891710e-01
-4.720252805164188437e-01
-6.304956493051416810e-01
-2.769078041752602859e-01
5.795113268631930659e-01
1.305078623386775716e+00
1.176821925029955862e+00
3.350446860314095221e-01
-3.082317342233209523e-01
-2.451099501086606292e-01
1.169130410602229053e-01
2.035602973579764274e-01
-1.527868480364958856e-02
-1.984335664503852348e-01
-1.555081600061750113e-01
-7.892871777859730709e-04
8.190150705029161649e-02
4.948574853223036002e-02
-2.813627916034716278e-02
-9.949143111729355504e-02
-1.954437723551376294e-01
-3.691195089778770422e-01
-5.700689557093329141e-01
-6.376221688567736967e-01
-4.815676626170165009e-01
-2.072959491351681061e-01
3.895464072073560186e-03
7.818156168449048871e-02
6.449860501621856868e-02
2.422696246208879897e-02
-4.158917559911634587e-02
-1.623086085786240307e-01
-3.156522755579908024e-01
-4.037336248403063377e-01
-3.416456551625645655e-01
-1.526118306399970315e-01
6.581587839616807878e-02
2.473366752970780902e-01
3.740477251685306870e-01
4.109845227249390165e-01
3.034538457363805675e-01
6.134688345595196851e-02
-2.056220203347640108e-01
-3.678376160903480963e-01
-3.681823505234800842e-01
-2.356246363527225718e-01
-5.030739001573343583e-02
1.020871845482963225e-01
1.771787346900499938e-01
1.771088781890077790e-01
1.102154345710032318e-01
-2.041367216332289763e-02
-1.785506300235311650e-01
-2.833330949258590081e-01
-2.631942059649281518e-01
-1.113521846916681046e-01
1.090372073776145895e-01
2.856513718278041458e-01
3.002184603728149659e-01
1.408801553705722187e-01
2.020361062367530616e-02
2.523714027923608660e-01
8.172266930256181228e-01
1.154414374610999161e+00
7.650852306989878171e-01
-3.045505616875102128e-02
-4.186949527428808771e-01
-1.293695739764246788e-01
3.499795063001008288e-01
5.050352888520101002e-01
2.869281951742281289e-01
-6.540996612667565602e-02
-3.437163087445965770e-01
-4.692773091101981597e-01
-4.546792864439244131e-01
-3.540630291707825839e-01
-2.275418701970033375e-01
-1.188327891024444916e-01
-4.478293830357327199e-02
-5.017105161185043613e-03
-1.070916534217040451e-02
-8.828778640982251624e-02
-2.307467651340457671e-01
-3.641252646610403376e-01
-4.031949291439363980e-01
-3.333465538843195519e-01
-2.050733023715177183e-01
-6.630924707207591640e-02
6.171854925864034974e-02
1.563434018000114389e-01
1.812866907682982032e-01
1.144666046314826713e-01
-2.260053823650352497e-02
-1.663084143734518683e-01
-2.350455146664325867e-01
-1.725802608852084197e-01
-4.633158147622612119e-03
1.650266886219291795e-01
2.507608885353886929e-01
2.534536109459362696e-01
2.190662611429380069e-01
1.692830138435451048e-01
8.704718943006187204e-02
-4.187164833837325045e-02
-1.760293841566396011e-01
-2.312025304762253819e-01
-1.686295944836432303e-01
-4.285097306686645735e-02
6.694702805393942802e-02
1.375749907030501817e-01
1.745091499957075465e-01
1.532005843910064502e-01
5.262813038581921204e-02
-8.035207964188288698e-02
-1.595861058085958351e-01
-1.579508764498606943e-01
-1.399296961635673187e-01
-1.437816212588629849e-01
-2.955822920589342220e-02
4.140377586935308774e-01
1.057778760689329856e+00
1.306833860962317573e+00
7.565639032159604538e-01
-1.537711229968709570e-01
-6.003109782509727932e-01
-3.573564060504587636e-01
1.108458770965711909e-01
3.560212979596240057e-01
3.381298983201659336e-01
2.289911795788928395e-01
1.416553827599015825e-01
7.498782488964551851e-02
-1.950687204757722143e-02
-1.651102451454384279e-01
-3.230102512718583951e-01
-4.153178368309370372e-01
-3.871293034667752098e-01
-2.507714063890942313e-01
-8.145808443626759154e-02
3.601388368996166767e-02
7.232381452093285257e-02
5.661639676956477241e-02
1.267334375660018539e-02
-7.103499695451781504e-02
-1.919828567359602167e-01
-2.899625067692693237e-01
-2.858708355806583445e-01
-1.640711801663548297e-01
5.366425355371670647e-03
1.361058907710659405e-01
1.956475678197372725e-01
2.004058541068069188e-01
1.751465365360793391e-01
1.367015679408797868e-01
9.815361112290683920e-02
6.716110971796356022e-02
4.207556560227623116e-02
2.409403311994631411e-02
2.957656898488798120e-02
7.037661298264456800e-02
1.233202727034196089e-01
1.388937712672521918e-01
8.262062529326411053e-02
-3.903754914356166728e-02
-1.841733706510347290e-01
-2.954054895577241657e-01
-3.254655464327830261e-01
-2.624276842085989103e-01
-1.354924052088878339e-01
4.114886777509145499e-03
1.087075601371705336e-01
1.535044303018513467e-01
1.381229030812823333e-01
5.264350723837810109e-02
-1.414209001333594506e-01
-4.081306686339835066e-01
-4.925994958985473460e-01
-7.129150193733425900e-02
7.508211702939994181e-01
1.284575449816026893e+00
9.876548290984149547e-01
2.114444515861352569e-01
-2.385833300213486829e-01
-1.118069020205311459e-01
1.708171975187937619e-01
1.996599802373677235e-01
-2.194589759492451136e-02
-2.438911800869851543e-01
-2.819604356580666660e-01
-1.536052488465216859e-01
8.337903768537158200e-04
6.066862811283115636e-02
-1.041121379520644832e-02
-1.705887661366551622e-01
-3.375111301211492498e-01
-4.521981802577368925e-01
-5.081884311980786606e-01
-5.072059050750101772e-01
-4.306948929435492901e-01
-2.801009562907402217e-01
-1.049086438116116071e-01
2.924295741556210207e-02
8.018406687624185514e-02
3.991537710132211925e-02
-6.882210861973936389e-02
-1.987214086417867509e-01
-2.934227878693540514e-01
-3.138574604851319672e-01
-2.560562390352031370e-01
-1.384987249205376081e-01
2.527782030283531531e-02
2.231973480732513671e-01
4.027944809119280989e-01
4.599986018283402922e-01
3.187030356677030829e-01
2.863227871963548027e-02
-2.519230624361942228e-01
-3.839159558514406156e-01
-3.464324923509397580e-01
-2.207134366377764556e-01
-1.024540454378285587e-01
-2.831318853012811804e-02
2.440017019564213324e-02
6.746953713190337321e-02
5.683207138402905645e-02
-5.054360916597550046e-02
-2.183370950807310140e-01
-3.449768932667721111e-01
-3.462091625180332977e-01
-2.123264921977089104e-01
-8.610715393206552076e-03
1.506160648087783160e-01
1.526865246696066380e-01
8.484155253998867247e-03
-3.821547634694477669e-02
2.995025477678611159e-01
8.733503242402507194e-01
1.045040384254151133e+00
4.727283416888175549e-01
-2.890601616299798282e-01
-4.411593991789519720e-01
5.319092526218575923e-02
5.577006917021467558e-01
6.115715219035603445e-01
2.976317914338357240e-01
-7.573043404527703137e-02
-3.286614701886746426e-01
-4.412212867679008999e-01
-4.413957296081881254e-01
-3.615467761627256249e-01
-2.429513769771900478e-01
-1.279658616916262148e-01
-4.938330587199311894e-02
-2.189193710870863605e-02
-4.100677200805823153e-02
-1.013917979744047571e-01
-2.024247797210741995e-01
-3.177090013934009138e-01
-3.828446074178050718e-01
-3.439223249523923331e-01
-2.111030811072494295e-01
-4.915914582759176032e-02
7.792752148444367921e-02
1.447433468793427325e-01
1.547263197308091642e-01
1.081914300406409679e-01
-6.743845717153175434e-04
-1.422397175698905114e-01
-2.257508613989031299e-01
-1.563405972661653653e-01
6.559770109772228297e-02
3.183159239677287866e-01
4.491242134935005681e-01
3.984822461798286364e-01
2.360147911056579839e-01
7.434660464754343223e-02
-3.946708406799243063e-02
-1.321636613036055730e-01
-2.209181122574904732e-01
-2.654717868990323915e-01
-2.201651609202945337e-01
-1.004145412906641138e-01
3.048254477786604966e-02
1.230512434416805440e-01
1.641692104959516230e-01
1.489456651009701538e-01
6.967226068091898761e-02
-4.943396574739010452e-02
-1.404031135555691423e-01
-1.594956986364340079e-01
-1.490980766433613602e-01
-1.434296961694846162e-01
1.292294206540997234e-02
5.627494449873277071e-01
1.343582372017367632e+00
1.637828654197061029e+00
9.786938654127427251e-01
-8.908600399540306247e-02
-6.147011312643758663e-01
-3.844351479327818844e-01
6.950086686531681268e-02
3.063562650139691756e-01
3.210089978204791472e-01
2.467988629758587071e-01
1.181508604490498493e-01
-5.995890775012281682e-02
-2.195067224089120306e-01
-3.019452221863876407e-01
-3.314288974038434588e-01
-3.425783123451585643e-01
-3.135826067877240941e-01
-2.251252106776002182e-01
-1.125809664630843532e-01
-2.021266339896698669e-02
4.292174653295991599e-02
7.535800378403804956e-02
5.214948036352137078e-02
-4.604758262746377201e-02
-1.867494876451293306e-01
-2.909692646117660875e-01
-2.898132240815970984e-01
-1.792023012505586099e-01
-2.055202512821061381e-02
1.135394826860696565e-01
1.895736299962133553e-01
2.152790453567705320e-01
2.112861959173067683e-01
1.870594087852339160e-01
1.353205051685815452e-01
4.900391935272198352e-02
-4.710694700747067309e-02
-9.135931793114160371e-02
-3.918788960010639866e-02
7.879902818388642705e-02
1.789983157691680815e-01
2.028396602125923098e-01
1.498972370876235360e-01
4.631437680972186333e-02
-8.126166778445900740e-02
-1.963540040369558259e-01
-2.499103858787765919e-01
-2.109867000680666627e-01
-9.792852931070952782e-02
3.596984022608419596e-02
1.527148920569558199e-01
2.502837352660100545e-01
3.125831499623868415e-01
2.528918959588374871e-01
-1.241044315172562876e-02
-3.546914625950468025e-01
-3.697428724990904358e-01
2.375806760202950618e-01
1.115467253860999541e+00
1.444385199493459337e+00
9.125774580229158994e-01
1.347944052277814109e-01
-1.934757550090520362e-01
-9.154820717556294563e-02
2.388709812445873049e-02
-3.612761250070993524e-02
-1.727724382822389271e-01
-2.482240726312874568e-01
-2.269254604541753317e-01
-1.608674984663244767e-01
-1.010992117116474021e-01
-6.611168434887847167e-02
-8.327167932808546280e-02
-1.764188556143589659e-01
-3.132231258081706882e-01
-4.305013048831534128e-01
-4.934417258039928145e-01
-4.936149834147856019e-01
-4.283135270850762510e-01
-3.086688833788841513e-01
-1.614174103266249050e-01
-1.765678251138600580e-02
8.274461300612175052e-02
9.122397148447383697e-02
-1.781960727286408669e-02
-2.160574047840896350e-01
-4.197523449423233299e-01
-5.192233120114123635e-01
-4.481899597045483907e-01
-2.408613907826362699e-01
4.632034568190349089e-03
2.073048125171205180e-01
3.203088442361678445e-01
3.022759114892318855e-01
1.347856148667270770e-01
-1.228634346416458550e-01
-3.417141158775349741e-01
-4.152853874372770537e-01
-3.374735314386632656e-01
-1.899790559063613549e-01
-6.412983868394192544e-02
5.858089040022097099e-03
3.937989689168601426e-02
5.164818252499531193e-02
2.010956945565469875e-02
-8.244602143137277905e-02
-2.326418680786068172e-01
-3.472881433120920125e-01
-3.372612526018867740e-01
-1.853804895229098915e-01
1.371065328585640598e-02
1.069193325405404099e-01
3.222211071718314446e-02
-4.540549507989437295e-02
1.744003740712407602e-01
7.272878907462702047e-01
1.117391854303566356e+00
8.021300661528082410e-01
-9.665094054366968335e-03
-5.042660066731858848e-01
-2.796723280737692385e-01
2.555294484176090508e-01
5.293339574240156775e-01
4.200217088316945957e-01
1.640600382447059968e-01
-3.601051532026652846e-02
-1.650620633197880383e-01
-2.747201544335419188e-01
-3.541939754134422191e-01
-3.500436162420571540e-01
-2.587567619701447996e-01
-1.451161965886564598e-01
-6.791879755014032516e-02
-3.128031898478271511e-02
-2.771188830143400672e-02
-8.049303808334427879e-02
-2.009974194041242723e-01
-3.372248917663530632e-01
-4.057180817822162444e-01
-3.613405569605137035e-01
-2.210821187516119057e-01
-3.937282187308165093e-02
1.198579569900795477e-01
1.990273773698048310e-01
1.717971204658341189e-01
6.897592428394910824e-02
-3.849748329823222265e-02
-9.121502195228693710e-02
-6.573644467321551610e-02
3.407070852003074579e-02
1.699912535522241086e-01
2.651728073058421398e-01
2.635816084351371158e-01
1.976156922435783336e-01
1.460166198682637806e-01
1.242601829287979104e-01
6.750091952351616742e-02
-6.980265615361748444e-02
-2.357603074177840041e-01
-3.215899803272403434e-01
-2.678952050848629751e-01
-1.146727855858587219e-01
4.941337584453586729e-02
1.598179826717487373e-01
1.917281675519459383e-01
1.430885830660474922e-01
3.623524917601379791e-02
-7.887991061433492768e-02
-1.601609462291859465e-01
-2.184457594600443808e-01
-2.724371398151140822e-01
-2.077065521090473155e-01
2.059715230298624911e-01
9.346433686379009842e-01
1.413789114599788732e+00
1.093414399682454796e+00
2.387352085048004557e-01
-3.262771937465046568e-01
-2.496858621303245374e-01
8.419672720256467235e-02
2.369046320857086385e-01
1.858827141486175394e-01
1.394562892100930374e-01
2.126783898914779702e-01
3.328481427739418130e-01
3.416428486680604948e-01
1.716819095533727024e-01
-8.243773317636692022e-02
-2.865891860051196227e-01
-3.907352737080423410e-01
-4.022454540820864510e-01
-3.294957066354554653e-01
-1.924411181803558080e-01
-3.452579134577652559e-02
9.319692654215325223e-02
1.396780355187685896e-01
7.085168233802688342e-02
-8.691612911271455466e-02
-2.458121633105912474e-01
-3.297064037049791674e-01
-3.246376654471849199e-01
-2.500818129400887435e-01
-1.287061296432956969e-01
3.214749061192422042e-03
1.037825532520887800e-01
1.640149518731133516e-01
2.054751334437406318e-01
2.249193365967322999e-01
1.775490245890816998e-01
4.389194087761406904e-02
-1.113141408042916114e-01
-1.859030788398966794e-01
-1.419845511702650387e-01
-2.912944717092885716e-02
8.941855493007738742e-02
1.880091300121580211e-01
2.400027393166777046e-01
1.877575547362935193e-01
1.565244079314526138e-02
-1.874850825850215563e-01
-3.087100833247128917e-01
-3.153119380365436708e-01
-2.355518668179247543e-01
-1.000362444722859290e-01
5.463939770364678594e-02
1.724330572073487777e-01
1.880617138793275189e-01
4.502339432905571454e-02
-2.167938689335661417e-01
-3.419685740703072296e-01
-9.661749029004100195e-03
6.856487454259830860e-01
1.100935117049358647e+00
7.728308312289668969e-01
1.003697736472525109e-01
-1.586835978191917240e-01
1.315693620917151030e-01
4.620143380516651410e-01
4.198842393415344043e-01
6.474695512921140039e-02
-2.956389916149295138e-01
-4.312775674487467348e-01
-3.245050599081509279e-01
-1.225569955366671016e-01
1.077735777964246647e-02
2.230998112823429080e-02
-2.761120589200809911e-02
-6.536075833449098149e-02
-9.707733070870780412e-02
-1.872807952080175475e-01
-3.329810594970121773e-01
-4.161007910423553113e-01
-3.389317019662508867e-01
-1.532959336403886541e-01
5.306904331072545555e-03
6.701976410718234189e-02
6.191382162018375240e-02
4.001287470178267053e-02
6.953547081252117040e-03
-6.193375216757977808e-02
-1.651035237596864269e-01
-2.431298193283393527e-01
-2.207045471071345244e-01
-9.050717570655855693e-02
7.432734328585445527e-02
2.080916374653067891e-01
2.979602236880206645e-01
3.192548312421069623e-01
