-3.830800414669311427e-01
-3.050094205212423026e-01
-1.142634672819266006e-01
1.342743888360833915e-01
3.606221278712576361e-01
4.719353517923725039e-01
4.127565853267066154e-01
2.023479546094126558e-01
-7.888760186430662791e-02
-3.394567167964074872e-01
-5.165415872385118456e-01
-5.718628959923494071e-01
-4.747679690184464230e-01
-2.283276166223976167e-01
8.638388710135896931e-02
3.282392775767228321e-01
3.857370546574042103e-01
2.597667093222670309e-01
5.605498943721108629e-02
-1.298484416033914568e-01
-3.187883489655430336e-01
-5.472152218874742902e-01
-6.126772941282327967e-01
-1.315106754367327824e-01
8.896804784350857975e-01
1.726311107946967738e+00
1.613314165944320422e+00
6.733883770288339177e-01
-2.457601980818732157e-01
-5.561464603086329062e-01
-3.710040206323841905e-01
-9.491887675031884797e-02
6.278345111530234113e-02
1.611979266783503950e-01
3.151838011248335736e-01
5.065909795528180659e-01
6.018561572311089680e-01
5.077343821838224969e-01
2.636494928802514126e-01
-1.185710321192797942e-02
-2.279765006978458353e-01
-3.568637918183190094e-01
-3.820814295299427843e-01
-2.691377916772009216e-01
-2.921627032823789771e-02
2.237361898609790678e-01
3.422116031714852458e-01
2.694954725187355127e-01
6.772352300625966715e-02
-1.592562798342655184e-01
-3.492115392134136909e-01
-4.964478414800450601e-01
-5.899711202556593426e-01
-5.590139721408055040e-01
-3.314750434125956491e-01
4.168094540184689306e-02
3.686950313048517058e-01
4.592315828811325829e-01
2.807220645800596603e-01
-3.016785871040046640e-02
-3.025329154790566966e-01
-4.597137229858476726e-01
-4.972262074876762639e-01
-3.827835316398418564e-01
-8.377837477328434201e-02
2.989587359035368874e-01
5.433598592104358360e-01
5.116626178532800440e-01
2.787391015648441051e-01
1.975957018863838677e-02
-1.666153332955367661e-01
-2.876286162283525627e-01
-3.611350048402779400e-01
-3.450149768204640033e-01
-1.785265610391497670e-01
1.162641909480500862e-01
4.099539350204975952e-01
5.656671206704626531e-01
5.467543140508966948e-01
4.002894823332444618e-01
1.483431979122031841e-01
-2.176565006506420430e-01
-5.404555601076587168e-01
-4.069591410714316071e-01
4.117939463253214027e-01
1.389891495923986531e+00
1.604497568431909382e+00
8.495792223725655568e-01
-1.154196274700756975e-01
-5.540309762760670109e-01
-4.583872690586053289e-01
-2.234857222062647808e-01
-1.042526763209930540e-01
-8.617120166939717940e-02
-2.937468995094797558e-02
1.546617865841225792e-01
4.083641988268281176e-01
5.798014377424388632e-01
5.656525069838364006e-01
3.858937132299795070e-01
1.251266109669869619e-01
-1.432240033423891890e-01
-3.526690577049397257e-01
-4.307625063408842547e-01
-3.379634226560982446e-01
-9.421386717473997918e-02
2.278527964158448271e-01
5.078340146600910376e-01
6.193557002514918919e-01
5.188441610729139786e-01
2.785287623991491990e-01
1.507325320741964916e-02
-2.008189774195919541e-01
-3.522238191761457582e-01
-4.005804156646428082e-01
-2.625012878949554151e-01
6.407711147940614582e-02
3.940145593084615205e-01
4.829048948111588357e-01
2.616808366623032400e-01
-1.114021575852551377e-01
-4.216586421366593784e-01
-5.852129136842418866e-01
-6.622824720724824754e-01
-7.056566911854139645e-01
-6.460251859827049747e-01
-3.868260270484188412e-01
-4.201135339291943438e-03
2.509547036724100733e-01
2.232695601356834703e-01
4.567481709974727244e-02
-4.782747956825515040e-02
-3.615759286101942471e-02
-9.325097381667724061e-02
-2.899476003549185110e-01
-4.627127377585964485e-01
-3.968431620127085280e-01
-5.995085506078863535e-02
3.511625566723075020e-01
5.584514809989550299e-01
4.050871864519582366e-01
-5.872265329943186785e-02
-6.130885435189774579e-01
-9.014656485746957992e-01
-5.650603325447894898e-01
3.489066067874974086e-01
1.166727566826730733e+00
1.181068298833656494e+00
4.723708404879329859e-01
-2.295980275040113150e-01
-4.295075615230768418e-01
-2.573591511503451890e-01
-9.522894259282990714e-02
-1.495815349220652457e-01
-3.612835012906330245e-01
-5.204189058531525358e-01
-4.450829165465315373e-01
-1.459490141097359861e-01
1.680158270592074787e-01
2.770799251404795771e-01
1.308591991619628969e-01
-1.564864906694142799e-01
-4.351442414284388827e-01
-6.203500113424925688e-01
-7.005629072409593761e-01
-6.787135998492974664e-01
-5.359119057969377042e-01
-2.787429861511404594e-01
1.326087131136789027e-02
2.360559840552681754e-01
3.293864055248942879e-01
2.671376874368753263e-01
4.421706226199010464e-02
-2.712781375085752122e-01
-5.268681122131061434e-01
-5.808556628086692930e-01
-3.971537972120079973e-01
-5.918185604882996581e-02
2.743367832441874210e-01
4.500396786498302437e-01
4.094681383386422624e-01
2.152984813509669082e-01
-1.914681688640448159e-02
-2.240661578930039644e-01
-3.889545684786648305e-01
-4.920124585038045395e-01
-4.534589259859974075e-01
-2.118374564478320288e-01
1.554120805272393713e-01
4.493626196902378855e-01
5.147773332483225328e-01
3.590063139997033970e-01
1.075035683658424890e-01
-1.156422601432467168e-01
-2.564729711339162055e-01
-3.155342845677711061e-01
-2.876563812899541328e-01
-1.382938796789658920e-01
1.412226968314388154e-01
4.705823158094258885e-01
6.894707966633167873e-01
6.275485204438502329e-01
2.295368575849358050e-01
-2.776745449274865551e-01
-4.033789260038508351e-01
1.464631487549097888e-01
9.509711360935981794e-01
1.180753554183527232e+00
6.017913101510314888e-01
-1.367183220730862070e-01
-3.722330498956155642e-01
-1.324191779530767832e-01
1.434487559376015353e-01
1.768406379996628752e-01
1.353432038031485846e-03
-2.202571175895717548e-01
-3.512914498589174706e-01
-3.044450824734324934e-01
-6.785830146745204516e-02
2.381672088807250676e-01
4.170430012354576221e-01
3.627609870675818637e-01
1.369399505852421095e-01
-1.253614902053346025e-01
-3.402553469973120248e-01
-4.932455829833704009e-01
-5.693935088403119238e-01
-5.100045039914087308e-01
-2.713233360062617949e-01
7.898680843370745053e-02
3.692403441650375373e-01
4.533861918742655428e-01
3.185402138252482751e-01
6.523885323636657851e-02
-1.869814863963643603e-01
-3.628163152568241734e-01
-4.241599670668700917e-01
-3.383291070513826937e-01
-9.424895631370917848e-02
2.337981800852599878e-01
4.825462299073033923e-01
5.226792457856307417e-01
3.744930010638629070e-01
1.546183835572508825e-01
-5.755061472990346400e-02
-2.449507130971302349e-01
-3.824717812940590655e-01
-4.062408868747260371e-01
-2.632130234689979975e-01
1.818938904421295299e-02
3.106358449409454270e-01
4.557569173771132687e-01
3.701674665027801514e-01
9.958160175975080963e-02
-2.206904931896852551e-01
-4.625822620647802585e-01
-5.779100098336215074e-01
-5.779788564273131701e-01
-4.605141844312278243e-01
-2.092740279203155751e-01
1.209296067545808651e-01
3.636561963574542755e-01
3.273444057506950111e-01
-2.014622649423920137e-02
-3.955265472397898052e-01
-3.347024440652595634e-01
2.917978185093357268e-01
9.561184571694857359e-01
9.993236538374183908e-01
4.519482451688355829e-01
-3.936863149416773566e-02
-3.634227853290448312e-02
3.014043327973479069e-01
5.659631357729379975e-01
5.368958326114544599e-01
2.732404154995403123e-01
-4.932201031258230672e-02
-2.906563758762104599e-01
-3.641660523534723248e-01
-2.316320293447938772e-01
4.374974531281718149e-02
2.981404368627468271e-01
3.819577489701798112e-01
2.613784686342799368e-01
1.083824031689456513e-02
-2.557419898551228643e-01
-4.495989307158098081e-01
-5.359621088173152081e-01
-5.096319931070193432e-01
-3.580810257988001899e-01
-8.682598067638222505e-02
2.177218415699136989e-01
4.045374375807227474e-01
3.729107443079645035e-01
1.591589400862230830e-01
-1.026620047102266009e-01
-2.930152028864110858e-01
-3.688759524317714034e-01
-3.328761799280012812e-01
-1.863595423654680339e-01
5.116252346271746299e-02
2.942858609564193983e-01
4.185082766277431476e-01
3.545287902166471827e-01
1.398899251489807982e-01
-1.216739041758410911e-01
-3.401513704427245322e-01
-4.799891971521973999e-01
-5.282723137882630038e-01
-4.472641970351851071e-01
-2.097319730430484142e-01
1.081257989604155201e-01
3.373613184583292846e-01
3.607139577744480352e-01
2.081747714765308233e-01
-1.731219694255881070e-03
-1.777236988067281975e-01
-3.053316249994767473e-01
-3.964473634881148789e-01
-4.077591667892732086e-01
-2.502116339960638869e-01
8.334429542584265160e-02
4.088413313518858838e-01
4.464075430527231214e-01
1.447218871952075103e-01
-1.044280061470369558e-01
1.554774014374080138e-01
7.200147958010036930e-01
7.906155994270152032e-01
6.403202798071944146e-02
-7.539506102551654099e-01
-8.704381325653305357e-01
-3.191576542608243194e-01
3.062441864352385412e-01
5.690841032582306669e-01
4.391406247683537489e-01
1.169762240991536612e-01
-1.965898932076601269e-01
-4.010956697150031003e-01
-4.638645057512599812e-01
-3.653704691641478375e-01
-1.203246583176917905e-01
1.715349969452686363e-01
3.595374799985592285e-01
3.524387064050193419e-01
1.779244202656929952e-01
-6.469286219869256616e-02
-2.852296591197690523e-01
-4.375580097713931971e-01
-4.988364932762068271e-01
-4.345896110393316358e-01
-2.171589074784423257e-01
9.788342904028429770e-02
3.578088862563466588e-01
4.291555000128842168e-01
3.120442997549570108e-01
1.130844775835069677e-01
-7.530225502990528508e-02
-2.388977150091322887e-01
-3.741135084293715773e-01
-3.993530652281460092e-01
-2.192808762327776995e-01
1.213920701040415162e-01
4.340070911477969529e-01
5.488122606284948635e-01
4.359296661077184387e-01
1.864106089123061805e-01
-7.838322801278992114e-02
-2.822824289181516955e-01
-3.984950355611763251e-01
-3.961349962584245765e-01
-2.320064955969190768e-01
6.882685892065387723e-02
3.666851388831585679e-01
5.015643385419698008e-01
4.285638163951255852e-01
2.287188518876845933e-01
1.942333885990705361e-03
-2.062751375562937861e-01
-3.668985830028003159e-01
-4.103755832829287797e-01
-2.745895322069132893e-01
-2.418836757413270200e-02
1.415507984709114819e-01
9.077220128929647247e-02
-3.020390981614065606e-03
2.588494737467115225e-01
9.747779270937885210e-01
1.554058046187718256e+00
1.261785016334748377e+00
2.164086336527746568e-01
-6.282565080732808172e-01
-5.815974833721028192e-01
1.274661507165776586e-01
8.055370566207785687e-01
1.018271264571259271e+00
7.983933264240506977e-01
4.047095667731623880e-01
4.362497592221320497e-02
-2.188391016346236395e-01
-3.820081432878799088e-01
-4.177275591337924476e-01
-2.835218747582096688e-01
-1.930040152572216894e-02
2.266273178389033582e-01
3.102630341421238058e-01
2.099228736909264925e-01
7.479853626231450225e-03
-2.145934007732816784e-01
-4.164441345938322825e-01
-5.625889333986487939e-01
-5.880546735466509745e-01
-4.295983420704524436e-01
-1.102137103598329060e-01
2.164388628399735448e-01
3.547562912575296656e-01
2.298813998202458853e-01
-4.481629569877522423e-02
-2.747970386381047847e-01
-3.658765788233149796e-01
-3.833523931025208942e-01
-4.107774803476811343e-01
-3.968029700507497148e-01
-2.242176461651869401e-01
8.291182648338638050e-02
3.251115563487548821e-01
3.338166591452123577e-01
1.427199671409044857e-01
-8.216690709672055948e-02
-2.354077886420125609e-01
-3.404342297669111228e-01
-4.327532417393590847e-01
-4.494121262682435058e-01
-2.939815839237101547e-01
1.198709312503477148e-02
2.998395644833138918e-01
3.942340467839550167e-01
2.587310836400308900e-01
-6.072897788644525396e-03
-2.707208269185943372e-01
-4.524678092709388810e-01
-5.052686879168301060e-01
-3.990858027199379876e-01
-1.730984634022107449e-01
1.940576729203543488e-02
6.744563364606087630e-02
1.492972252460833538e-01
5.604296115003218892e-01
1.109851451744389372e+00
1.083201712227039426e+00
1.783728073781095103e-01
-9.401229442435632411e-01
-1.398081969324257656e+00
-1.025993481471518587e+00
-2.882998016392726570e-01
3.110060490668282163e-01
5.551236970699544582e-01
4.794762264974457566e-01
2.171943090734191895e-01
-1.030023993746091160e-01
-3.833820641947816021e-01
-5.586198377819526772e-01
-5.880211819398925011e-01
-4.513228342308029939e-01
-1.804414843029359949e-01
1.153444926196537379e-01
3.014362734457715076e-01
3.025223688849171810e-01
1.312462895870041557e-01
-1.358061327590881218e-01
-3.962660891180742051e-01
-5.656794973581634745e-01
-5.990841499948559301e-01
-4.734999751361274045e-01
-1.921559794289696976e-01
1.629802373021135842e-01
4.304417582568600964e-01
4.791475339814257328e-01
3.192037309218871410e-01
8.718590979415612174e-02
-8.331762620863647495e-02
-1.772280582792056802e-01
-2.583947023425900991e-01
-3.103406347946801591e-01
-2.083645029007311356e-01
8.670960802864877137e-02
4.036788901440419575e-01
5.196772675989025370e-01
3.801814572944417492e-01
1.036888403131371872e-01
-1.686514552959256508e-01
-3.705410817826835790e-01
-4.852645479228376857e-01
-4.801522370665727846e-01
-3.123111918107426277e-01
-3.204008615521884706e-03
3.276839109783543091e-01
5.213931612587500153e-01
4.787327590999698179e-01
2.270718907005337683e-01
-1.002543196183272450e-01
-3.589211190764669546e-01
-4.681576156416376033e-01
-4.162600380310242376e-01
-2.539797539449800690e-01
-7.701927170937418465e-02
9.536459922029688618e-02
4.287045453187636745e-01
1.039639544832042350e+00
1.585935972254198134e+00
1.440147266903801571e+00
4.831619186089058937e-01
-6.045957754922951510e-01
-1.051846451381176939e+00
-7.173092769380892131e-01
-1.423328935035057807e-02
5.797677745701941276e-01
8.271753710199409859e-01
7.439220555519063804e-01
4.664587567408318147e-01
1.293788936999422101e-01
-1.722799946158124762e-01
-3.827947375049992051e-01
-4.792125953215432554e-01
-4.389258712916150329e-01
-2.375005345631474307e-01
7.863294257434202961e-02
3.612880363473595646e-01
4.612103408538882898e-01
3.448577667750142295e-01
9.780419381900114228e-02
-1.596897675039054276e-01
-3.520128145574030754e-01
-4.550297659940971684e-01
-4.414043450666226831e-01
-2.704408122450064345e-01
3.466539518014852272e-02
3.457576929651350328e-01
5.124717790768075210e-01
4.722661196038116516e-01
2.762161374675776160e-01
3.247040429025101899e-02
-1.789398317550159601e-01
-3.363366909507953806e-01
-4.082880958629292456e-01
-3.111936568574549811e-01
-1.578046774092002613e-02
3.379525843857647538e-01
5.273774458975983848e-01
4.518450720026501166e-01
2.014066136987475164e-01
-6.395003637319339462e-02
-2.586815961611991788e-01
-3.880488111185296241e-01
-4.483306893133681137e-01
-3.655507253842759652e-01
-8.141303520226013390e-02
3.119698516692740453e-01
5.858126586697468552e-01
5.638867554347658517e-01
2.810411790215961991e-01
-6.110670792875665808e-02
-2.725765694401957595e-01
-3.108453735758316960e-01
-2.787987263114263814e-01
-3.005827176580753712e-01
-3.585816087173467337e-01
-2.212091018687357136e-01
3.447588513924934039e-01
1.114019537245742208e+00
1.361276737108379153e+00
6.588657440557403877e-01
-4.949165735465823057e-01
-1.235944064740983173e+00
-1.243946530415090734e+00
-7.915694743959594826e-01
-2.391132435772501674e-01
2.142300087974291500e-01
4.783730929579325664e-01
5.180441228413770194e-01
3.613081757243414849e-01
9.451877399914829225e-02
-1.830926940054432572e-01
-4.059547265506970870e-01
-5.448038643839284711e-01
-5.718736908815855724e-01
-4.518249761801570452e-01
-1.970209708664171222e-01
8.160185167698205677e-02
2.293960745948100954e-01
1.775610459884795489e-01
-5.116862574757831406e-03
-2.010673157099375774e-01
-3.522319775894456328e-01
-4.605462956626226734e-01
-5.115425038898894217e-01
-4.423064345212933679e-01
-2.083141687691183463e-01
1.291210531690490104e-01
4.139282534606616437e-01
5.075797118168027255e-01
3.867439810762149932e-01
1.374188962997740238e-01
-1.313661535775958733e-01
-3.552365560801685751e-01
-4.955609234182100642e-01
-4.897882540044785626e-01
-2.838595310436361485e-01
6.713185241477517828e-02
3.808176070840442184e-01
4.762020532821346075e-01
3.136929547998235646e-01
-1.219152822719338225e-03
-3.177480123958056901e-01
-5.203386292152192283e-01
-5.568856491964111477e-01
-4.419515399765759911e-01
-2.334628684657084341e-01
4.471774001075873306e-03
2.168551806366462442e-01
3.519891562747772262e-01
3.580246943881724153e-01
2.077165341555708422e-01
-4.981613024431456177e-02
-3.031205620685399338e-01
-4.969074015747605988e-01
-6.580400539028419260e-01
-6.922882417508122721e-01
-2.691097119907467361e-01
7.860222455297127819e-01
1.931621388239620707e+00
2.182171529599118198e+00
1.233110512787768620e+00
-8.998250803371005135e-02
-7.959513795667140235e-01
-7.115971778034534401e-01
-2.916760895337197623e-01
8.660289442201768439e-02
3.538563116744735115e-01
5.306022879917585700e-01
5.755696336481418429e-01
4.622937226585884241e-01
2.565867835136549924e-01
4.884399827554421203e-02
-1.335714357503788585e-01
-3.008695917493071637e-01
-4.170828683522792568e-01
-3.908630756342644230e-01
-1.718731408200591670e-01
1.549932106919989505e-01
4.035527961878818681e-01
4.358564866160880569e-01
2.714911784830196240e-01
4.420582680551680965e-02
-1.330831895300950141e-01
-2.489762342225356195e-01
-3.432051109494305141e-01
-3.913989764354224854e-01
-2.855533982821142347e-01
2.900689581777447096e-02
4.276879379306153806e-01
6.799210222802459791e-01
6.491861818284740959e-01
3.898843590656970726e-01
6.438129991246743788e-02
-1.922523336579099740e-01
-3.235464741097215935e-01
-3.107600012629088138e-01
-1.361134920483647592e-01
1.699876875352193117e-01
4.670050649624357120e-01
5.763268001423385023e-01
4.460840419155702730e-01
1.900410875202212524e-01
-4.693633491191209761e-02
-2.077074363880422325e-01
-3.024197659975447205e-01
-3.231011942826625960e-01
-2.173849593998462837e-01
4.179968574144372895e-02
3.697687656809005574e-01
5.904312491645237193e-01
5.789551276121085444e-01
3.830590645931881699e-01
1.653578928878447762e-01
-2.611037204587217907e-03
-2.274207386115089380e-01
-5.453660489692745417e-01
-6.098332033663222962e-01
4.680996363724341386e-02
1.210947067074525263e+00
1.856640850318609370e+00
1.287963009335546083e+00
3.837623356570535327e-02
-8.305524165399121861e-01
-9.178314862824364928e-01
-5.980497671634625867e-01
-3.417144301972547260e-01
-2.664667768701075024e-01
-2.102980584109009898e-01
-3.901232655620949508e-02
1.698886251936778669e-01
2.287120646577046612e-01
6.200027551181386265e-02
-2.258792330618206445e-01
-4.804686478712790199e-01
-6.370838166633374655e-01
-7.208929472753907719e-01
-7.436472982034406654e-01
-6.521018407960174068e-01
-4.136752254315918531e-01
-1.261037744905385560e-01
2.422767725954791396e-02
-5.991905759275581445e-02
-2.689945006409374395e-01
-3.766030938316782262e-01
-2.714346130448416772e-01
-7.674151098103682012e-02
9.376922498126480376e-03
-3.394882901075377962e-02
-3.862058918637319843e-02
1.067952067788169035e-01
2.906668784688376528e-01
3.124173933887313126e-01
1.156550910493013840e-01
-1.793580707675940245e-01
-4.266235023656725911e-01
-5.755760233335613929e-01
-6.447867990333580046e-01
-6.024845126172765353e-01
-3.487786177192011006e-01
1.115856305296454715e-01
5.472542177956486453e-01
6.658308215797027474e-01
3.923174346192279671e-01
-7.716961820111309378e-02
-4.816823004002452335e-01
-7.049381454933385527e-01
-7.812059247330860323e-01
-7.496882226341292643e-01
-5.793459918260446262e-01
-2.692028640679949847e-01
4.555167790094588609e-02
1.814146083501934903e-01
8.985004208269704862e-02
-1.317329492519315193e-01
-4.145004133037837879e-01
-7.703043135295116750e-01
-1.058199824298940106e+00
-8.467401358486347229e-01
1.459269543433250882e-01
1.417258346619774789e+00
1.918827228306361210e+00
1.203930663932199829e+00
-1.926924293379284059e-02
-7.377992617338741121e-01
-6.736550117389124015e-01
-2.685657550174015418e-01
8.143385597928674835e-03
7.026444739286137608e-02
9.272147166044271416e-02
2.150900778229334342e-01
4.086291167647243538e-01
5.425620211165294027e-01
5.151073931290170993e-01
3.270972766190413661e-01
5.944353898200681330e-02
-1.948240527169347036e-01
-3.745922339920526589e-01
-4.433790075246198947e-01
-3.568996563177577741e-01
-8.490667198494844525e-02
2.981528265068277839e-01
5.997747600698006831e-01
6.601264074173864849e-01
4.927857336418807188e-01
2.375324349180867600e-01
1.413712580815206996e-02
-1.466916835847067446e-01
-2.532941906285825495e-01
-2.605323042054327187e-01
-7.508607405754380570e-02
2.997751419207256296e-01
6.770378276379548366e-01
8.193212144701212951e-01
6.475299503576368298e-01
2.968980066470846002e-01
-1.688674787484813200e-02
-1.835230165687463666e-01
-2.410350296179480933e-01
-2.383856777044086328e-01
-1.330875688985564131e-01
1.179975945853277003e-01
4.233063211828526629e-01
5.917678536998568495e-01
5.114113815127566687e-01
2.577717446013286229e-01
4.047199230728857483e-03
-1.512832136444086095e-01
-2.244564577946105699e-01
-2.327649517191217599e-01
-1.263510093369481779e-01
1.196086245282388938e-01
4.070069082667420735e-01
5.898654192367109861e-01
6.153488596445473302e-01
5.058578373387649929e-01
2.412536583696240355e-01
-1.762854158604571786e-01
-4.885525714224932536e-01
-2.636992349432352167e-01
5.129659136000561670e-01
1.151508800357562201e+00
9.847198069871447856e-01
2.037188132192702950e-01
-4.409526664436159704e-01
-5.456928639272830006e-01
-3.102481624306932528e-01
-1.145206113922656033e-01
-1.357053457984111755e-01
-2.913599554047959228e-01
-3.805737227092350627e-01
-2.690293049427192607e-01
5.535866705708158975e-04
2.509584535300941610e-01
3.254754785820221930e-01
2.063610779230777015e-01
-9.865643539454732949e-03
-2.269192954765043013e-01
-4.109833414582647060e-01
-5.469251299761855867e-01
-5.776568413193535756e-01
-4.333306543489443552e-01
-1.327319078182438994e-01
1.767122513375903037e-01
3.203244870589582738e-01
2.418861959023234920e-01
3.332461672889142079e-02
-1.754421235394898748e-01
-3.321241129983436013e-01
-4.483192945526404127e-01
-4.918009557655973474e-01
-3.655768372111382059e-01
-3.938739617410361160e-02
3.393233158227966229e-01
5.314584407219598017e-01
4.230547489884143864e-01
1.274043488831196613e-01
-1.533091235137248320e-01
-3.308933108393457001e-01
-4.488363506871698716e-01
-5.347358296564647118e-01
-5.173282111331477529e-01
-3.188140432395713542e-01
3.718921666431656420e-03
2.589073458850703613e-01
2.870944839408822169e-01
1.014374375483221569e-01
-1.555434066189089748e-01
-3.556708492368050312e-01
-4.642430380457819306e-01
-5.268506942519119995e-01
-5.905064689927199684e-01
-5.990670817539773818e-01
-4.203276431893688825e-01
-5.555695465566537483e-02
2.577155062993280454e-01
2.471155407767491874e-01
-1.294915847210366122e-01
-6.010242926079484294e-01
-6.981981211703894852e-01
-1.213941542116824812e-01
8.063980512537336498e-01
1.283954034132143818e+00
9.151828313350787170e-01
1.853849989893559813e-01
-1.969878799272618553e-01
-9.077762058714164417e-02
1.599641886889760500e-01
2.498977872929720179e-01
1.330527430490265894e-01
-7.604652708229747704e-02
-2.288899180235210995e-01
-2.145284150550296476e-01
-2.585381930224374056e-02
2.152461393363025166e-01
3.452962491786044086e-01
2.909854599105521356e-01
1.032488479114294505e-01
-1.200663954342868489e-01
-3.147852418105523409e-01
-4.563495554768283724e-01
-5.125474239799225895e-01
-4.280081304981273593e-01
-1.872991720353684442e-01
1.170729236014976110e-01
3.229337952701477055e-01
3.244757163643190445e-01
1.496232476048190430e-01
-8.517384229379798555e-02
-2.741418528397651100e-01
-3.706225555955044437e-01
-3.642802847513989528e-01
-2.454810192587366380e-01
-1.669237129494167624e-02
2.538580021660695185e-01
4.295305974392510939e-01
4.128817097408044035e-01
2.413284575728387726e-01
3.066227901847785875e-02
-1.507416350175399544e-01
-3.086369549596111872e-01
-4.424162988178658718e-01
-4.797585943492904681e-01
-3.257990235946303104e-01
3.888424509603721768e-03
3.315980709010111771e-01
4.537507256545473822e-01
3.280978142702550282e-01
8.754324231798882305e-02
-1.226397167692133139e-01
-2.688709186524123607e-01
-3.772149205597858934e-01
-4.147705826409195939e-01
-2.894045840159324978e-01
2.942121707940664396e-02
4.238221613947025235e-01
6.634725340238238900e-01
5.400204662540952771e-01
7.181979178642738937e-02
-3.463325039354433477e-01
-1.928424818524497042e-01
5.061299123923373999e-01
9.717374512177928692e-01
5.941909609882842780e-01
-1.977999305368689786e-01
-5.242478524417714114e-01
-1.906852721182003552e-01
2.795674872222611573e-01
4.345786640198526229e-01
2.726727215482762645e-01
8.163982768368230336e-03
-2.116394589272065085e-01
-3.278196681661093570e-01
-2.772714578836397159e-01
-3.006603659421713121e-02
2.936405739489643119e-01
4.871309177444249072e-01
4.741252121004793652e-01
3.575634200499344661e-01
2.362140340209682721e-01
8.526233273758627995e-02
-1.369811527236376725e-01
-3.550002598624758532e-01
-4.183843291836636391e-01
-2.439435472418698958e-01
1.055483665524839521e-01
4.496910958322394847e-01
6.007075753756280223e-01
4.947790292871325768e-01
2.357980161193995450e-01
-6.130706091997915885e-04
-1.080738218873552176e-01
-9.564130172701500177e-02
-1.484417299060466697e-02
1.200622077825876793e-01
3.100983927503083715e-01
4.993300486773908919e-01
5.863947217992028227e-01
5.175578470640429529e-01
3.367073324370700171e-01
1.344391391621912735e-01
-3.290429228257466671e-02
-1.532627885150659452e-01
-2.001359009904270514e-01
-1.121766058584877379e-01
1.324248451445956265e-01
4.383660553246259139e-01
6.363790528450650186e-01
6.189360148923412908e-01
4.144695646588335003e-01
1.272179307938348658e-01
-1.650660889346884652e-01
-4.309401343922767968e-01
-6.271249319857541416e-01
-6.705630689557959823e-01
-4.931534600770397514e-01
-1.385200334882853990e-01
1.827118929679607262e-01
2.046072253300501576e-01
-8.494347264668268560e-02
-2.596717518181529960e-01
1.374043222235822037e-01
8.568829430099431654e-01
1.015529258184015182e+00
2.334173587407590844e-01
-7.513774980185013996e-01
-9.842880087832828195e-01
-3.733049289890161826e-01
4.156386295740968628e-01
7.552458195937249430e-01
5.310117826048749157e-01
3.640531258191055664e-02
-4.052616769974046740e-01
-6.680256473871721834e-01
-7.502329485273421250e-01
-6.451314243364809631e-01
-3.732892301905243460e-01
-6.621318048979107918e-02
9.284334044733789926e-02
2.715333544852950240e-02
-1.813824107861339852e-01
-4.039858826517755963e-01
-5.833982328602009826e-01
-7.231256330428472712e-01
-7.954358482752426074e-01
-7.139339137142786118e-01
-4.326018767489667738e-01
-5.588429551692737640e-02
2.061988861452949406e-01
2.156948833008725808e-01
1.642453394823853441e-02
-2.303417182512594308e-01
-3.866134751607396280e-01
-4.199491417740515153e-01
-3.825233453778777437e-01
-3.206575385494666031e-01
-2.118435042445537819e-01
-1.748333536801107563e-02
2.099001121592738717e-01
3.266844696309705864e-01
2.333563125345565203e-01
-1.791842996354917061e-02
-2.806819505788166191e-01
-4.600318918280339453e-01
-5.542143007477247085e-01
-5.561721308746079284e-01
-4.006181123159203716e-01
-7.300614934128840661e-02
2.852452422748422700e-01
4.668976093404760830e-01
3.910486884978332522e-01
1.674135423430096747e-01
-2.470749793024883817e-02
-9.363261575584089225e-02
-6.400173148411381074e-02
1.437594733294227968e-02
1.380877007995504890e-01
3.212507545662287578e-01
5.037148424394652935e-01
5.626660786020935001e-01
5.402213686395960224e-01
7.223461078711088668e-01
1.166585549414659084e+00
1.320938865780595384e+00
6.387253449826688634e-01
-5.423409912768665242e-01
-1.274644064648723152e+00
-1.064895072061380121e+00
-2.695947497467714449e-01
4.355336829863808434e-01
6.651119415956918690e-01
4.677480593398709030e-01
1.052158526830647145e-01
-2.096381617694829946e-01
-4.099533447882222625e-01
-5.092273062509355963e-01
-5.029084082878387818e-01
-3.601382718473560840e-01
-1.038593707251582732e-01
1.501139751391083188e-01
2.688473100529016335e-01
1.978427943471054162e-01
-1.960231948661514054e-02
-2.793454140694860421e-01
-4.779745651480206137e-01
-5.636860799460253757e-01
-5.206088586314752131e-01
-3.365617077483720743e-01
-4.428218324632172964e-02
2.344530940159366417e-01
3.584397169164077468e-01
2.861308874374604017e-01
9.562538328784739305e-02
-1.028026390519271027e-01
-2.478450193030190818e-01
-3.287471504710174353e-01
-3.334563922316167162e-01
-2.236792564014706552e-01
1.125044597705893157e-02
2.828810464894852550e-01
4.390278842783986724e-01
3.967004202218448183e-01
2.073134543685536124e-01
-1.842305846797110541e-02
-2.108564742667656811e-01
-3.542638794354907583e-01
-4.266793120872502398e-01
-3.650653769202664156e-01
-1.321320828890913956e-01
1.834573535989422466e-01
3.957975300680564579e-01
3.845949331398203497e-01
1.936904304736442040e-01
-4.730768292764434002e-02
-2.503664757388422979e-01
-3.900952373969909792e-01
-4.403651381885281269e-01
-3.564969481076826763e-01
-1.579069818927058000e-01
1.591358374522891181e-02
6.524344944440896299e-02
1.768071542307802224e-01
6.606449022599254484e-01
1.352848671440996187e+00
1.520466726897378162e+00
7.467006328656803360e-01
-3.942103303605885567e-01
-9.503780607770693223e-01
-6.136374654134799655e-01
1.574975393907460386e-01
7.569412736053929835e-01
9.122253064458354377e-01
7.041283661249710946e-01
3.485284812009193933e-01
9.521996125696870900e-03
-2.543556666132330002e-01
-4.371926466176945247e-01
-5.090289875551364807e-01
-4.092040324443301236e-01
-1.306030645050513805e-01
2.073346356044666328e-01
4.155935867395795791e-01
3.870551481404466143e-01
1.735339253128581893e-01
-8.661678809512049493e-02
-2.881531475126576924e-01
-4.033971944928277931e-01
-4.284889936921514875e-01
-3.235588943004261697e-01
-6.262090367239414590e-02
2.658859339057118576e-01
4.923380197643830170e-01
5.198922640507485093e-01
3.890012505690082500e-01
1.945928311702951885e-01
-1.254368594351405394e-03
-1.788060979223719538e-01
-3.175327182135205262e-01
-3.474628570540533867e-01
-1.821735112022782044e-01
1.532781469804131436e-01
4.719164502861082910e-01
5.661803199903825412e-01
3.885207381918960312e-01
6.969496982408981967e-02
-2.182109715845174380e-01
-3.949844523213200120e-01
-4.755642694161441031e-01
-4.645249690691636846e-01
-3.058227046427318130e-01
1.673007832310433735e-02
3.793385441060065366e-01
5.870748202038291730e-01
5.330422556529026412e-01
2.730361706321608462e-01
-3.727099553353961647e-02
-2.619499271184206335e-01
-3.411092954286886192e-01
-2.803084481414649942e-01
-1.541198556876567649e-01
-6.061029839454068480e-02
5.080888045269436881e-02
3.966853400619353986e-01
9.587467781668875810e-01
1.217615986965475017e+00
7.015055328002739454e-01
-3.170750596806023447e-01
-1.089928016803610289e+00
-1.201016988581710354e+00
-7.848860116574816193e-01
-1.781350814920315273e-01
3.419556535725995494e-01
6.050023533609509840e-01
5.660830478567858703e-01
3.120760299802864957e-01
-2.983936084800756228e-03
-2.569542138902355388e-01
-4.098683497768073059e-01
-4.731429104579919498e-01
-4.427015152181731916e-01
-2.874615538531841152e-01
-2.454842770115716472e-02
2.273580060154569427e-01
3.248122999172683434e-01
2.253563131785109308e-01
4.503228173822593217e-03
-2.325329884628141996e-01
-4.186041978893565996e-01
-5.153274843152482187e-01
-4.787638225843227069e-01
-2.768203704611666982e-01
4.192618869160576189e-02
3.336617953163567019e-01
4.583632434588951199e-01
3.850725667664193219e-01
1.870563281893410368e-01
-3.850195031142728680e-02
-2.305117207108512978e-01
-3.632455857827590062e-01
-4.084034531742076202e-01
-3.239354641749009889e-01
-1.042289868762557581e-01
1.652602721345925729e-01
3.361457707962158814e-01
3.042856697106637864e-01
8.855089616130289165e-02
-1.974924477626832375e-01
-4.350612484091109788e-01
-5.581488146276654128e-01
-5.496924848855186951e-01
-4.112122135893884756e-01
-1.616636363940779642e-01
1.222681173274221406e-01
3.009336961490621243e-01
2.657970583853639934e-01
4.490152449412528751e-02
-2.199001446621530464e-01
-4.034951635694083438e-01
-4.918520821761993567e-01
-5.593173067110265295e-01
-6.481910210571343312e-01
-6.295171152057664754e-01
-2.173959146296828016e-01
6.927611591139484215e-01
1.615344284194825342e+00
1.719242763253914674e+00
7.771574218034921211e-01
-4.357676459230210853e-01
-1.006184649070237969e+00
-7.987663918690457443e-01
-2.711627961271524945e-01
2.027179926578888680e-01
5.320387337758298862e-01
7.054540491571823502e-01
6.851490046995800665e-01
4.780748217288112722e-01
1.727701699718008355e-01
-1.243899771743454397e-01
-3.476105358676202517e-01
-4.657699488136143318e-01
-4.522372683555366257e-01
-2.883132017667240365e-01
-9.252062593505437638e-03
2.715584197867835226e-01
4.178958815434581919e-01
3.631038971921701775e-01
1.493307316994297307e-01
-1.157835863971325152e-01
-3.361348889425261333e-01
-4.676678270459099784e-01
-4.927727556011592402e-01
-3.793989496382473847e-01
-1.113174487538265978e-01
2.294402304888012445e-01
4.688293240751966184e-01
4.804426174642083547e-01
2.938386110679373497e-01
3.221339514493132272e-02
-2.148568654355728358e-01
-4.116668597504232752e-01
-5.122342424823304041e-01
-4.452437096128508132e-01
-1.872380752212818023e-01
1.639515314733527851e-01
4.272175036318838770e-01
4.698962682503640687e-01
2.933407289304127419e-01
5.971504486344758611e-03
-2.599595597524733681e-01
-4.213402184066524225e-01
-4.633658294194660243e-01
-3.943987160577421824e-01
-2.047512295559064943e-01
8.961409046203774875e-02
3.740621963045329679e-01
4.811206469551317921e-01
3.492660205293071085e-01
9.683883154832559348e-02
-1.032222161238144365e-01
-2.151243570739455602e-01
-3.623895610586636007e-01
-5.876356402359154130e-01
-5.960619309159957968e-01
2.629013108735683835e-02
1.112951259951204364e+00
1.735767547397790045e+00
1.199644780187215432e+00
-3.851921400785365823e-02
-9.434682503715491331e-01
-1.078213885009872364e+00
-7.641676681798887927e-01
-4.146573671057161015e-01
-1.449564111139284572e-01
9.737914621945185922e-02
3.118395810302966309e-01
4.082494311288415445e-01
3.100115216095212234e-01
4.909333824736754337e-02
-2.397412063599748122e-01
-4.170080708077782417e-01
-4.351713028447823928e-01
-3.385645500679431708e-01
-1.770482080151329907e-01
4.932990010375164908e-02
3.341351936581235527e-01
5.857173036653097187e-01
6.756807627647616332e-01
5.717031341385307996e-01
3.660841620072647906e-01
1.715476443824368036e-01
3.441306368680013827e-02
-4.763357665347542347e-02
-5.757113356146872918e-02
5.905807896878104146e-02
3.266484715623338975e-01
6.557854767853565914e-01
8.486970320476546759e-01
7.372507349005900101e-01
3.522946711565612121e-01
-8.482909011926473286e-02
-3.743436577674789656e-01
-4.828183540282016684e-01
-4.610167477624843579e-01
-3.258020418056931655e-01
-8.979860395497271663e-02
1.598066524363818686e-01
2.918853957320704517e-01
2.378851417238370125e-01
3.952434493812600341e-02
-2.041923338413955125e-01
-4.201267809311881596e-01
-5.802155280246129587e-01
-6.466053708239636322e-01
-5.524757480038658963e-01
-2.869152464308025174e-01
3.008403869948464426e-02
2.201076636259550745e-01
2.041720756384481639e-01
5.526417210961764165e-02
-1.233759976783790069e-01
-3.463740888331924839e-01
-6.940596505118736825e-01
-1.026905232712687743e+00
-8.367265286364492516e-01
2.815105954073463534e-01
1.834648781187009581e+00
2.554606442632769703e+00
1.772416139876241026e+00
2.660652699237016083e-01
-7.145620925638627163e-01
-7.965604657324899529e-01
-4.753773399943160283e-01
-2.521009678962983225e-01
-1.852274742652774142e-01
-7.889731578417989721e-02
1.637203549966385063e-01
4.103894973964691273e-01
4.623782196000241762e-01
2.692815469903453440e-01
-5.422357146828582497e-02
-3.644623416700781826e-01
-5.893244158989130455e-01
-7.197098370873943329e-01
-7.388042806756273118e-01
-6.008005802547514707e-01
-3.130157742381491359e-01
-1.119371797073741293e-03
1.692367334887615871e-01
1.392671478440605237e-01
6.918044449396101858e-04
-1.098800263953517847e-01
-1.422955648542580664e-01
-1.396706351212710362e-01
-1.256519407602834371e-01
-4.043976107939681319e-02
1.693334634307701037e-01
4.322809031350711706e-01
5.896734310282727431e-01
5.509539576890831736e-01
3.634514714858885220e-01
1.318680904515202867e-01
-7.288630884457927839e-02
-2.080314517860092638e-01
-2.130313504647797229e-01
-2.959717313987738144e-02
3.090366670047528519e-01
6.467925245760030029e-01
8.167364103874211745e-01
7.704625380308921523e-01
5.698309414417769281e-01
2.968021195926549560e-01
1.038689526655183631e-02
-2.421358856446224062e-01
-4.076688647178913216e-01
-4.206870927508689073e-01
-2.376094132220728516e-01
8.036567913733153046e-02
3.533340931743083058e-01
4.299241148392621281e-01
3.294844509618682915e-01
1.550641573533620421e-01
-1.003922255067726532e-01
-4.915434303612550848e-01
-7.970115343175325773e-01
-5.178993300697585234e-01
4.566817964728037138e-01
1.366095127028598588e+00
1.301248444557508099e+00
3.302615015299324996e-01
-6.311358303252033730e-01
-9.393286700175824677e-01
-7.283694295684164377e-01
-4.607517695015926340e-01
-3.937737210032890012e-01
-4.606367436383230762e-01
-4.487421683831543384e-01
-2.426376075984463254e-01
5.765872407912971120e-02
2.391174290788725676e-01
1.847311199522541636e-01
-4.141143508297986942e-02
-2.963112834856402311e-01
-4.910629568331652539e-01
-6.129398726234107642e-01
-6.592766236878825348e-01
-5.924086022814952779e-01
-3.797500879228671300e-01
-7.685858617610373533e-02
1.645991733861787154e-01
2.136449983706787681e-01
7.744080880182230286e-02
-1.264229713907920605e-01
-2.995979654792957914e-01
-4.277491012675817550e-01
-5.121239910417145769e-01
-4.824067721260532071e-01
-2.494757242274030784e-01
1.407773702729054888e-01
4.798314942237124070e-01
5.669096314439054929e-01
3.755609346677487581e-01
4.872718095402196747e-02
-2.295262653575609879e-01
-3.585579064332409804e-01
-3.580983250117301120e-01
-2.922517389008440492e-01
-1.665493362423002832e-01
4.547011076947254232e-02
2.798916899198741759e-01
3.885276279395032950e-01
2.922596871064921942e-01
5.735423754080250236e-02
-1.913327237585926155e-01
-3.825305104271640166e-01
-5.061253940254871742e-01
-5.408138510974358493e-01
-4.319050013414041378e-01
-1.717252776774101097e-01
1.344756769231250093e-01
3.350237563641642602e-01
3.522594434982661005e-01
1.892704063003226855e-01
-1.432476968051812349e-01
-5.636384481669949320e-01
-7.477686827343037468e-01
-2.767240912169893763e-01
7.748440205092623767e-01
1.614188849075866905e+00
1.517343031124194885e+00
6.930702505775871991e-01
-3.286262797949682235e-02
-1.940378364561249347e-01
1.030009095313505485e-02
1.737100038035024330e-01
1.160714226959359552e-01
-7.002542945514289574e-02
-1.859456136986741281e-01
-9.898957538359058617e-02
1.599319746940312814e-01
4.163114856741022551e-01
4.912732084676743050e-01
3.444167294887551245e-01
7.909293220352971165e-02
-1.745967195708525710e-01
-3.524964459770545400e-01
-4.432546682062399324e-01
-4.278504337638307509e-01
-2.732053036771661669e-01
1.148700716731176907e-03
2.799614228650717518e-01
4.176137369264470989e-01
3.519715012639688667e-01
1.430733856800889825e-01
-9.189658425074673231e-02
-2.706614938498742573e-01
-3.705085756637665484e-01
-3.728380061772120779e-01
-2.289976667584117387e-01
7.411276581377183870e-02
4.278097806758588972e-01
6.340346839642814203e-01
5.614850063118721479e-01
2.666502512802101932e-01
-6.620250180243560101e-02
-3.002011980138719061e-01
-4.204372750972646955e-01
-4.456080632528099938e-01
-3.482660479006761123e-01
-1.085602651956425468e-01
1.943938024843740453e-01
4.035228278109727618e-01
4.087580267000506251e-01
2.342093233541673314e-01
-2.469902342798601519e-03
-2.024073345056470463e-01
-3.416845516735170785e-01
-4.198674541839326202e-01
-3.930510086412100090e-01
-2.040539155498203583e-01
1.228985568469801032e-01
4.548415337967295913e-01
6.234337083483788566e-01
5.056949635114252883e-01
8.915962106630404005e-02
-4.142578352664745278e-01
-5.614155572251561255e-01
-7.850589265076690637e-02
6.446266730830235714e-01
8.445023634434253301e-01
3.283435884337196908e-01
-3.019652903619330919e-01
-4.771052097784440615e-01
-2.477755590488100457e-01
4.067095224722365454e-03
3.873510919109188211e-02
-1.229791477397230159e-01
-3.235648194217456419e-01
-4.119915256405510262e-01
-3.173669862168610467e-01
-5.676975137222871337e-02
2.750360991982790382e-01
5.155131361087861297e-01
4.990407952626377819e-01
1.886110237823383495e-01
-2.642633050932593486e-01
-6.309829346981727927e-01
-7.725858096490603177e-01
-6.959408337961866531e-01
-4.778743740902894888e-01
-1.809370564028693895e-01
1.308503030335061157e-01
3.509057930167318040e-01
3.845152534040654491e-01
2.367003649997853065e-01
5.032431698902897765e-03
-2.016520154989905056e-01
-3.150922666784621295e-01
-3.050625166350183770e-01
-1.631861290278074639e-01
9.115323902754168817e-02
3.781349308114968499e-01
5.606465719757451893e-01
5.396154460244247941e-01
3.455627090319093320e-01
9.520946218703038588e-02
-1.244280188124384373e-01
-2.927801842752180694e-01
-4.013626290456734358e-01
-4.075053193362973003e-01
-2.633585063960296457e-01
5.358403101633886501e-03
2.717731905996299546e-01
3.922285152616356019e-01
3.159637258465755605e-01
9.999947232225142590e-02
-1.540030447591106688e-01
-3.598545922433311062e-01
-4.758078344829135831e-01
-4.907795130315550369e-01
-3.867296156105010096e-01
-1.504824400806857032e-01
1.632885512068985578e-01
4.096266648698707602e-01
4.177795872681477896e-01
1.414380959782404468e-01
-1.730991233637140247e-01
-9.145250883027011835e-02
4.806963158621759269e-01
9.883678481006008543e-01
8.399657175303043566e-01
2.236088100242103471e-01
-1.423199375047048687e-01
5.493397475692067544e-02
4.765361009357859667e-01
6.919918672049368835e-01
6.042654171586424594e-01
3.510511188625266565e-01
5.911539262328395494e-02
-1.947710763829033076e-01
-3.083161542416668621e-01
-2.015795164867277556e-01
6.507535291788621445e-02
3.107947132326194239e-01
3.838545706646485089e-01
2.603308629563413357e-01
1.235609965264775068e-02
-2.671359526524074157e-01
-4.949310164141419999e-01
-6.001559528998221538e-01
-5.397139354759782348e-01
-3.210743092108757080e-01
-1.504247674400196327e-02
2.563264945249350557e-01
3.729846704125993617e-01
2.900067741668008736e-01
7.022928970805546178e-02
-1.580609001063358610e-01
-2.900368831660575242e-01
-3.028196124135273948e-01
-2.269312998106412516e-01
-8.373210007908883645e-02
1.123797901218462902e-01
3.053066275330844070e-01
4.027107519580664374e-01
3.491434793819240823e-01
1.810276488763638003e-01
-1.012246941053131580e-02
-1.770245282071827575e-01
-3.435193826301254361e-01
-4.998742143490564338e-01
-5.294453524341765638e-01
-3.226340486352183845e-01
5.315850714495008039e-02
3.693472491578917993e-01
4.337969533601967465e-01
2.423421787269853800e-01
-5.737759580662855213e-02
-3.091343015376819547e-01
-4.456018772227179348e-01
-4.763258364165284253e-01
-4.056476753186238349e-01
-1.935437412915059774e-01
1.498030870144487492e-01
4.403717054018742583e-01
4.133310652390373985e-01
6.562500606323529162e-02
-1.545840017616171014e-01
2.083088725785500750e-01
8.663566484368966369e-01
9.147442634753164548e-01
2.564667828626714108e-02
-9.864145159824879716e-01
-1.174318773341734623e+00
-5.434779522360405624e-01
1.800394805774494789e-01
4.415018838745107255e-01
2.446061619045440116e-01
-1.065015145391224050e-01
-3.834564186608701575e-01
-5.448879640318339268e-01
-6.101658468321983220e-01
-5.467038373582342459e-01
-3.233788347644604988e-01
-3.031797880517151170e-02
1.344696649706303981e-01
3.914646727452972264e-02
-2.390147234830456990e-01
-4.763293651885685542e-01
-5.161482997729858191e-01
-4.031767396959036187e-01
-2.904407541670699922e-01
-2.461900975246071044e-01
-2.097455047480166757e-01
-1.170901418879113920e-01
1.228526357743743753e-02
1.201841396484485125e-01
1.709061770031831684e-01
1.538807241021918348e-01
7.701066302665182661e-02
-2.605804288281816233e-02
-1.001172917521866990e-01
-8.578494813342027459e-02
4.764057554828872443e-02
2.600380075828297444e-01
4.450226576883065666e-01
5.006230505416443544e-01
3.948459685107304495e-01
1.694040125500766714e-01
-9.821260848863777593e-02
-3.287647964242437770e-01
-4.517080302937175884e-01
-4.112854411599765614e-01
-1.968784646392197080e-01
1.178748204480853240e-01
3.869147618343560247e-01
4.769945995472384404e-01
3.571390147211176980e-01
1.073084536605784234e-01
-1.534156385506244002e-01
-3.458366426400740212e-01
-4.441529291896993970e-01
-4.227786827031642103e-01
-2.377375985548385584e-01
7.703433591500874478e-02
3.226379816191480843e-01
2.875835617893584550e-01
7.705739909483222405e-02
1.453344084564672789e-01
7.518847379757876981e-01
1.426510811646721333e+00
1.356227578090027919e+00
4.270935691977371107e-01
-5.269759338040238550e-01
-6.975583119028491152e-01
-1.370804559346957274e-01
5.174686726497601530e-01
7.844989171583046650e-01
6.359044136435721972e-01
3.034285971770186996e-01
-4.129454202900395554e-03
-2.196001699470939705e-01
-3.527824828155987635e-01
-3.726595816583073151e-01
-2.162947113253761711e-01
7.625087743583429389e-02
3.252222046141506895e-01
3.677356651513361552e-01
2.015816524664909293e-01
-5.562127914056396588e-02
-2.926765815546000793e-01
-4.582618180013718345e-01
-5.279190582266852783e-01
-4.645668093531938325e-01
-2.449431850626317131e-01
6.980868561330318134e-02
3.328843620882220855e-01
4.145145755317731218e-01
2.997007772031175521e-01
8.650489278127521109e-02
-1.031374161653477867e-01
-2.149451325994269080e-01
-2.626021767239055671e-01
-2.531295942163290791e-01
-1.568928490275272036e-01
3.735506001064246850e-02
2.666359443990115041e-01
4.143447024157876912e-01
3.936284047886659532e-01
2.127288605538563693e-01
-3.984300796300203895e-02
-2.684177913677340821e-01
-4.187113299043186410e-01
-4.563899257953766275e-01
-3.381023822617874597e-01
-5.659735394137797859e-02
2.880223397673276065e-01
5.183512416409731260e-01
5.117135652782254240e-01
2.894350278437683999e-01
-1.545283808706016115e-02
-2.480216936572677833e-01
-3.080969943550770918e-01
-1.920871572799783267e-01
2.396242492530926277e-02
2.354529337263973898e-01
3.250138655302430291e-01
2.266527408823550693e-01
1.120391193503838118e-01
3.346913513610002555e-01
8.829229754733523006e-01
1.114066082365255062e+00
5.014471569656555605e-01
-5.617238715581009956e-01
-1.182476017893790532e+00
-9.929335003102263135e-01
-3.830398344540379418e-01
1.020918141762574005e-01
2.707675344172703613e-01
2.274023235466209047e-01
8.425543223122947123e-02
-1.160811540400076558e-01
-3.196998109779766728e-01
-4.527038559351830305e-01
-4.632001797093922013e-01
-3.333902656900507022e-01
-9.680333446318006851e-02
1.446963265857034164e-01
2.667025168066763374e-01
2.081798806786889777e-01
1.346437349755814222e-02
-2.087380864100145117e-01
-3.761455184482498937e-01
-4.746232713469423214e-01
-4.999661669590159119e-01
-4.082401765832426310e-01
-1.771905330597508821e-01
1.112723840817560761e-01
3.071559204996768822e-01
3.202262903769362290e-01
1.903915512947678135e-01
2.526191194672404439e-02
-1.119640419365570683e-01
-2.324354051917639774e-01
-3.462616603294885187e-01
-3.854931811182404910e-01
-2.460866358883198601e-01
6.202959056851060915e-02
3.531741186529049892e-01
4.261439343381743239e-01
2.601060783103606444e-01
-6.395795044079805036e-03
-2.499689321985808232e-01
-4.439400836054868127e-01
-5.807021569842637509e-01
-5.934574709038472617e-01
-4.126609541892709565e-01
-8.410987091963077755e-02
2.241088411489113030e-01
3.509456950133096886e-01
2.594640051664578451e-01
3.157601379637207939e-02
-2.178870801678336466e-01
-4.071577563299437763e-01
-4.878318285268254950e-01
-4.292134831512963711e-01
-2.591516886144304421e-01
-9.908996305282753714e-02
-3.517409801654371865e-02
8.991821424780920002e-02
5.534271155843031309e-01
1.235946528449427984e+00
1.483227861430725936e+00
8.456187741839400474e-01
-2.452158931574052458e-01
-9.030152269779744278e-01
-7.117490820518366235e-01
1.976307582495938353e-02
7.045703875475004541e-01
9.626994194494407076e-01
7.873435372046314606e-01
4.110593076099550713e-01
6.183770592866263960e-02
-1.740416785187886561e-01
-3.135344572279915032e-01
-3.687142303808739752e-01
-3.029263077709984930e-01
-8.902297808767282994e-02
2.057815389611698520e-01
4.281332290994215861e-01
4.542326625324314970e-01
2.743696056478209799e-01
-3.212449182108258888e-02
-3.426957511947785195e-01
-5.258533786152917999e-01
-5.177347813049941738e-01
-3.599714409564484519e-01
-1.248361520188071422e-01
1.395225257528724949e-01
3.729308620809597130e-01
4.949196415260789794e-01
4.625194366779676880e-01
3.064372908783979943e-01
1.030393150950865283e-01
-8.718963681469367455e-02
-2.400695973586313148e-01
-3.134751257802335656e-01
-2.279951646676242061e-01
3.261112724033764232e-02
3.381329761987603155e-01
4.979286236602392668e-01
4.246275568132286682e-01
1.841034436193524915e-01
-9.485938372629927617e-02
-3.205233370242586144e-01
-4.493092774622681196e-01
-4.440220591461283006e-01
-2.754437157026395910e-01
1.399067078763704258e-02
2.843450582364450141e-01
3.930639167339916029e-01
3.125246102159600636e-01
1.192047810096188987e-01
-9.818390182208133754e-02
-2.778114222505627673e-01
-3.742326591498137955e-01
-3.647182456605926326e-01
-2.828813143623730708e-01
-2.064952792298226647e-01
-1.143822465691604617e-01
1.997544115758993211e-01
8.123441601647651833e-01
1.274045831140354190e+00
9.719095986020731548e-01
-2.154929809190619938e-02
-9.402015982723649357e-01
-1.205902121921243575e+00
-8.725325176642358960e-01
-2.898044044881913917e-01
2.382848853898503760e-01
5.228571496008028729e-01
5.146105154890379119e-01
2.988468470156436796e-01
5.099339682290107700e-03
-2.746739079315341225e-01
-4.910846928843699555e-01
-6.091761676948773685e-01
-5.939240971687671511e-01
-4.267946643013121322e-01
-1.522879350788283459e-01
1.106096167726671048e-01
2.400538339322190740e-01
1.899834172998267345e-01
1.747358000386133037e-03
-2.317925477670828294e-01
-4.225259110144456987e-01
-5.272555608780945535e-01
-5.273069110089444456e-01
-3.982200704246213196e-01
-1.474642640611936728e-01
1.390322051555679117e-01
3.407658519595033741e-01
3.863515863279853857e-01
2.781343121719304090e-01
7.330660675207584243e-02
-1.463838143255594693e-01
-3.202222736512157497e-01
-4.118101221940762557e-01
-3.634256857689541764e-01
-1.309977446329750606e-01
2.000759835830562272e-01
4.206212307063431632e-01
3.777638079834702012e-01
1.156113696785864425e-01
-1.867168903954009029e-01
-3.899118458966751022e-01
-4.845534197514251851e-01
-5.190899309807081030e-01
-4.831949865715462478e-01
-3.146816701374498537e-01
-2.347089358347587140e-02
2.489555894427188665e-01
3.352912666172992995e-01
1.953225444984239834e-01
-5.731183604323310948e-02
-2.717078649527810974e-01
-3.836260491098079095e-01
-4.363883394312925712e-01
-5.030269766898474160e-01
-5.493215220768548068e-01
-3.341751026209461850e-01
4.042311032472289400e-01
1.449350105314542558e+00
1.983559730505011220e+00
1.401202657477332858e+00
1.331051159719889576e-01
-7.942598812824039900e-01
-8.729810247938599721e-01
-3.900025230957334665e-01
1.666364527773957493e-01
5.514333111383336039e-01
7.274674173548757450e-01
7.190388923354753548e-01
5.615272445555545833e-01
3.026149627551107391e-01
6.530981817694736513e-03
-2.564394151406869660e-01
-4.335872546917808323e-01
-4.897994982183576651e-01
-3.954290773322837182e-01
-1.590704648660354326e-01
1.300570266197282610e-01
3.356873564473300542e-01
3.642732578098257235e-01
2.215832551024738140e-01
-7.475771970060291621e-03
-2.274388957049086890e-01
-3.801879830207136601e-01
-4.367718580922749227e-01
-3.699290057809292431e-01
-1.602159087188776421e-01
1.595620238282764447e-01
4.770921523263040864e-01
6.493180926480197623e-01
6.007210851318803835e-01
3.701943304555201930e-01
6.397433385151982121e-02
-2.117054579478005738e-01
-3.695209636355536453e-01
-3.418908834440990696e-01
-1.166236103059567902e-01
2.172033888507465815e-01
4.939163878684272868e-01
5.814039805783819403e-01
4.698286264786680766e-01
2.459754642152001403e-01
5.276101952972856932e-03
-1.941463760445203135e-01
-3.164166969234453175e-01
-3.203259599637244825e-01
-1.696062139418433867e-01
1.115673129297173882e-01
4.066119828169902362e-01
5.657598301437249955e-01
5.143627064305968943e-01
3.086118147792002442e-01
8.844437981042786723e-02
-4.690843946948353160e-02
-1.369066771908652169e-01
-2.794303035222983622e-01
-3.715421523443796503e-01
-2.734410226362080781e-02
9.411245410089256191e-01
1.924001678105749402e+00
1.911695201223465812e+00
7.467377859893964409e-01
-5.754708322122905617e-01
-1.101083910005127064e+00
-8.423703222876298691e-01
-3.695451204404393009e-01
-3.855147622848745237e-02
1.775001525033704786e-01
3.996994427774903103e-01
6.032129915852019186e-01
6.476197167788958486e-01
4.654963278248494540e-01
1.550724151240204518e-01
-1.268381073253895541e-01
-3.113081164178382876e-01
-4.146787842825758186e-01
-4.326594105308193550e-01
-3.179992509929022715e-01
-7.277409769659314021e-02
1.968911769199225559e-01
3.449820639562238278e-01
2.891927511641089188e-01
6.101646119137862229e-02
-2.191511183111508332e-01
-4.224914051243170432e-01
-4.953415408788564567e-01
-4.644022716322135369e-01
-3.578418722890605030e-01
-1.658356487620109287e-01
9.716410822680507375e-02
3.421725351176439500e-01
4.512280187637051077e-01
3.587878409359905318e-01
9.661939842854402882e-02
-2.255238523248300209e-01
-4.921054982047911586e-01
-6.316377779438210327e-01
-5.989669494417312334e-01
-3.774016774895492810e-01
-5.715265040413146369e-02
1.561494755206962182e-01
1.099422887602377885e-01
-1.428530662178063015e-01
-4.235774798210480974e-01
-6.218980132599410959e-01
-7.451361906756180931e-01
-8.086392168546289172e-01
-7.634969541146856553e-01
-5.588408409789501485e-01
-2.448400296522066366e-01
1.978858472370338337e-02
9.037701873970092892e-02
-3.325751204185593835e-02
-2.292815896899809969e-01
-4.099541382994671412e-01
-6.170489748748971826e-01
-8.966951764847772566e-01
-1.033002485848986129e+00
-5.642731777704917961e-01
6.202824044093838696e-01
1.767170770710358330e+00
1.856027743368771743e+00
8.055332010831471878e-01
-4.137122780194469884e-01
-9.297777216608033024e-01
-7.503350435269625640e-01
-3.914772462029600386e-01
-1.932957930271352043e-01
-1.288046354738300869e-01
-4.392987102154715523e-02
1.010318156185894267e-01
2.188808240970013530e-01
2.138373038151433203e-01
5.712028257667926129e-02
-2.076944698173424086e-01
-4.881980569063345543e-01
-6.877339054038269506e-01
-7.495599647491311135e-01
-6.602917946414077477e-01
-4.348206231497801499e-01
-1.324709883235448971e-01
1.325515111914696287e-01
2.563867913278739530e-01
2.435048594147048717e-01
1.989536143242084942e-01
1.815228792760839593e-01
1.187878262224149606e-01
-5.253844125094912776e-02
-2.254292232242510741e-01
-2.135617492655812466e-01
2.330432439391986674e-02
3.226914112460610440e-01
4.748881439869346854e-01
3.883852383302720535e-01
1.246634445262835428e-01
-1.658904984492557966e-01
-3.384772869204232260e-01
-3.303716619945814004e-01
-1.656360635356096678e-01
9.173390623021017432e-02
3.594579523486893802e-01
5.430852303167412742e-01
5.775070415444016891e-01
4.680977018566174763e-01
2.753498989923249263e-01
6.905897043906469857e-02
-9.659666897222492221e-02
-1.802491538037691299e-01
-1.419560589827146835e-01
4.309619589341463775e-02
3.299421166570357111e-01
5.780203448423368862e-01
6.429326613076242758e-01
5.199269785111617637e-01
3.442890673767669552e-01
2.038900257216938183e-01
1.373366991842643950e-02
-2.882857972228363153e-01
-4.239111470308928320e-01
5.488204573557803334e-02
1.045201586244770997e+00
1.684278482609075089e+00
1.298507199687256808e+00
2.513758840580659903e-01
-5.723662335370374166e-01
-7.732849988423906584e-01
-5.962300642354403379e-01
-4.253776432849174505e-01
-4.045193186285642728e-01
-4.107160538408042294e-01
-2.588252817838916364e-01
5.772266871533501820e-02
3.319808005698511311e-01
3.598092061814045506e-01
1.428606625754602621e-01
-1.543380353313782427e-01
-3.913954347339693718e-01
-5.338826722293555926e-01
-5.815208286595177078e-01
-4.988879107653571010e-01
-2.557319072184600084e-01
8.637116582975792878e-02
3.716846332980018874e-01
4.603888700379530907e-01
3.336296207828762239e-01
8.844817097270482598e-02
-1.452991521526860175e-01
-2.834077475829125392e-01
-3.141467871116926380e-01
-2.553997731180248643e-01
-9.706722910849097108e-02
1.714240244831723159e-01
4.745780056895474996e-01
6.511732547263766602e-01
5.808003631991498494e-01
3.011268234379627651e-01
-2.086580528996374861e-02
-2.390406751208354053e-01
-3.285337915310440060e-01
-3.272815272968314648e-01
-2.353868825309106960e-01
-3.839116830399069702e-02
2.009219419692868380e-01
3.538046248057633014e-01
3.357589546846515560e-01
1.665199846316751386e-01
-7.008958036104250000e-02
-2.911564171943085144e-01
-4.446987731309569591e-01
-4.979246357058929040e-01
-4.155849917111369418e-01
-1.897366466579861188e-01
9.816819422502987003e-02
3.057972666749245172e-01
3.514712918824192123e-01
2.532751823599725394e-01
2.980871030027108792e-02
-3.412426066184823248e-01
-7.544040624773196146e-01
-8.192476147161354971e-01
-1.502677973684996005e-01
1.003877482049764680e+00
1.727336048311207461e+00
1.399799828007360691e+00
4.341198324207570791e-01
-2.839978897241091649e-01
-3.864757653109057167e-01
-1.769139693820246384e-01
-8.994002371896367420e-02
-2.423740889941876087e-01
-4.137827657151647021e-01
-3.518956917890567193e-01
-5.620206356711317935e-02
2.517059791736333541e-01
3.689361739880481772e-01
2.659357181181432050e-01
5.079544127397300768e-02
-1.569607976835744045e-01
-3.086636742957690749e-01
-4.060860867802030816e-01
-4.333671092544453263e-01
-3.414259901924852070e-01
-1.132780522427341008e-01
1.692473168400592254e-01
3.580356989900900788e-01
3.590858028849322481e-01
2.074463086777830201e-01
9.828376434823749702e-03
-1.627829093021585516e-01
-2.938098813277972843e-01
-3.470146692750330497e-01
-2.377138666847459780e-01
6.804869979681815728e-02
4.480960188305585512e-01
6.845373603616272673e-01
6.447780303019151615e-01
3.728285534378035226e-01
8.452286666112800162e-03
-3.332579195801472771e-01
-5.820815712421182342e-01
-6.744012921277644512e-01
-5.706395519110406545e-01
-3.083639279432665581e-01
-2.258246822609485949e-03
2.184145590847239027e-01
2.850248451028681296e-01
2.159786701591660807e-01
7.716493702678478561e-02
-7.202843011206115642e-02
-2.060030969505737553e-01
-3.158148424975609214e-01
-3.533894356388064817e-01
-2.295263784781165772e-01
7.755693573372504646e-02
4.448023513266674001e-01
6.907662294232921329e-01
7.029416740414995424e-01
4.544619562561552639e-01
1.181312780354294018e-02
-3.630212525587288575e-01
-2.746131773868426551e-01
3.470158524216703788e-01
9.372452356150376973e-01
8.591323739995888609e-01
2.189054964424199390e-01
-3.144667263642861310e-01
-3.772566093696015921e-01
-1.756862949460564205e-01
-4.338342704222390017e-02
-9.977301827143392199e-02
-2.754629877250260317e-01
-4.329795415987783835e-01
-4.337691547045659513e-01
-2.174637885702320750e-01
1.122875129472302447e-01
3.380920754722193111e-01
3.152941024405647719e-01
8.393103651076319616e-02
-2.059085859986234113e-01
-4.351015278867162994e-01
-5.736265997292312457e-01
-6.350638559706980324e-01
-6.048708910564742913e-01
-4.357126357382689052e-01
-1.312429792268564599e-01
1.835195637425497683e-01
3.230828205284614896e-01
1.979119014724526615e-01
-9.511135550442381681e-02
-3.542993800858392772e-01
-4.531087737636681489e-01
-4.102193160927511406e-01
-2.770551117521127815e-01
-4.710126100562177925e-02
2.612551333512553864e-01
5.120225146274323125e-01
5.435641347858223282e-01
3.435207694073678653e-01
6.113053671956285989e-02
-1.625738753046542528e-01
-3.128463740367566359e-01
-4.278456588799164351e-01
-4.750158000927766633e-01
-3.716815203465324013e-01
-1.173168467785667551e-01
1.620492243459480119e-01
3.196913323276899255e-01
2.956795479734519727e-01
1.220109893459636885e-01
-1.215824340543960325e-01
-3.487031796525398297e-01
-5.041858612149978658e-01
-5.667980530398623040e-01
-5.067523689180646329e-01
-2.850206752882180616e-01
6.734748732614780076e-02
3.987208975213862860e-01
4.988247154668999372e-01
2.387833911037804402e-01
-2.566663519337459287e-01
-5.338682638342951980e-01
-1.279019343476594794e-01
8.036949170605640624e-01
1.407322493576491196e+00
1.082592817055570089e+00
2.609620399196269647e-01
-1.750040747289585419e-01
4.496510381404830725e-02
4.823143069084579460e-01
6.649476039545267891e-01
4.983478334602256532e-01
1.542718395257220987e-01
-1.597874486894135526e-01
-2.909801252947882277e-01
-1.704746728134611533e-01
1.217714831090644240e-01
3.752716599589034918e-01
4.381365173008735514e-01
3.569410751075091093e-01
2.527880897968349250e-01
1.314336481728337613e-01
-7.336350818825453091e-02
-3.277744438354779910e-01
-4.817557275440698672e-01
-4.104014952526801041e-01
-1.318799824284572209e-01
1.935688941919724293e-01
3.778689603048315249e-01
3.383192470926446593e-01
1.302608026771171768e-01
-1.232160521884271276e-01
-3.159546763415508330e-01
-3.979401370868460575e-01
-3.620311141694502188e-01
-2.172976333743946720e-01
2.569958357737114896e-03
2.168218460786035806e-01
3.264716248000391063e-01
2.863336596340408380e-01
1.339453673394701283e-01
-5.957614934350049379e-02
-2.477108943604543756e-01
-4.095963513934792743e-01
-5.112919025979254517e-01
-4.901735736431477308e-01
-3.050678976960760624e-01
-8.822237014815478839e-03
2.616556132332980567e-01
3.841879526766196484e-01
3.243206183180704083e-01
1.294235322776009500e-01
-1.124853575211323953e-01
-3.212831389644459912e-01
-4.505907426131972593e-01
-4.574768969808867269e-01
-2.855590841914729117e-01
5.832963034788324341e-02
4.223629849895706445e-01
5.611839077076165028e-01
3.223617269189059664e-01
-1.362379084641461569e-01
-3.295730876067763382e-01
9.800959454703839224e-02
7.802962489388409750e-01
8.857007659272656541e-01
1.942881164456631837e-01
-5.621406772891134329e-01
-6.628884046702494537e-01
-1.961196994334531707e-01
2.676856838066722921e-01
3.645057488327225204e-01
1.433524716322679693e-01
-1.660677311555061042e-01
-4.049321469534375439e-01
-5.201985102477788558e-01
-4.818864121682354673e-01
-2.797102845080808864e-01
1.269329517718755657e-02
2.457445406722488512e-01
2.915555311392992177e-01
1.350331282442264746e-01
-1.200731281971001707e-01
-3.443939613229817787e-01
-4.855106825659997183e-01
-5.513201153864000226e-01
-5.157415172521596647e-01
-3.247885423101741220e-01
-1.231819769294189085e-02
2.665008914735607637e-01
3.588506700277802053e-01
2.401903699694446781e-01
8.596644282133018844e-03
-2.103306475965449063e-01
-3.430243551253537304e-01
-3.746209891228237110e-01
-3.032042455481119281e-01
-1.262931542687161790e-01
1.151296033976269284e-01
3.252139412864623602e-01
4.143621704586560872e-01
3.542590104042747656e-01
1.793069909978966259e-01
-4.419759355285921010e-02
-2.573994012748772042e-01
-4.183098426373779155e-01
-4.694791308190006673e-01
-3.413370878967745270e-01
-3.849059587137607097e-02
2.985147983482929201e-01
4.764955990834964239e-01
4.062340788395735203e-01
1.564575521404890091e-01
-1.338195083954092646e-01
-3.656512242059891671e-01
-5.066242255320833054e-01
-5.410517468569407962e-01
-4.292546877461962951e-01
-1.472926733403818189e-01
2.128387872810331150e-01
4.151198228677223101e-01
2.609893459587576681e-01
-1.112262686329540673e-01
-2.046210095554191200e-01
3.155523948070592666e-01
1.058490355313115083e+00
1.212937948739615912e+00
5.559520292268694819e-01
-2.284949176824074557e-01
-4.007412490964489260e-01
5.057688698221492890e-02
5.996743774144167594e-01
8.058769408698238657e-01
5.991120049986841112e-01
1.679267646109104950e-01
-2.501534383783890481e-01
-4.842103959762385501e-01
-4.502730248508988176e-01
-1.659082987922507191e-01
2.194433657335432275e-01
4.810964731819351581e-01
4.866309966599430270e-01
2.910275528494582487e-01
4.044316569341921408e-02
-1.734333324101308693e-01
-3.405666026687831360e-01
-4.555995814879211792e-01
-4.576113374899912212e-01
-2.780520222129394536e-01
4.568009193222480335e-02
3.493597198993332875e-01
4.680249663509743474e-01
3.627912553003173612e-01
1.248561588672076755e-01
-1.086408517246591210e-01
-2.508575096374321411e-01
-3.020325475283529570e-01
-2.850436433868298591e-01
-1.802512782753220577e-01
2.506161081747860370e-02
2.626852747665794352e-01
4.161078738023785695e-01
4.071996145607130191e-01
2.368356637945661092e-01
-2.295013622905767159e-02
-2.694382234554054678e-01
-4.307228863729454238e-01
-4.862940902208003346e-01
-4.240729166881533341e-01
-2.263405033147423140e-01
6.616530564178654816e-02
3.226786868300842714e-01
4.105619662336904563e-01
3.045047138533206743e-01
8.806378947871376650e-02
-1.323447150607704736e-01
-2.991404400466896596e-01
-3.954998509689109931e-01
-3.803254176360208461e-01
-1.891654903182098946e-01
1.350645083553074222e-01
3.615226293210174746e-01
2.758059073184472854e-01
2.537958143929990029e-02
5.888787584423000460e-02
4.924311233086053896e-01
7.659871497654976435e-01
3.370552323109869963e-01
-5.044421897160675794e-01
-9.747630516200070927e-01
-7.399156250978806693e-01
-1.381734453333078039e-01
3.382931185092153403e-01
4.694660957672548429e-01
3.143778001533310551e-01
3.207083621110629751e-02
-2.502331439028706028e-01
-4.655470815465251322e-01
-5.649135313335034159e-01
-4.920650460341166044e-01
-2.443379659045700203e-01
6.213187228525612893e-02
2.543496860819042249e-01
2.402270775931949209e-01
5.993115090693329483e-02
-1.811963942313046250e-01
-3.966163845482028605e-01
-5.421383568327862168e-01
-5.874122340499023931e-01
-4.933283468865837795e-01
-2.458470543328385438e-01
7.994260589704693665e-02
3.273081366655866131e-01
3.710686254831785380e-01
2.201280268712865473e-01
-3.438001462050838120e-03
-1.726424626871203294e-01
-2.425885023011731534e-01
-2.481131229023966767e-01
-2.200081916777874014e-01
-1.233774570243557633e-01
7.778659015449246317e-02
3.077642683687581426e-01
4.074472232695757756e-01
2.960189081781620657e-01
4.505786627742430772e-02
-2.183255242203175905e-01
-4.178470449181535540e-01
-5.256093638350456398e-01
-5.172304643677740899e-01
-3.728077526904199357e-01
-1.199370850186616544e-01
1.414866863119004226e-01
2.847505900026716663e-01
2.507867577605631948e-01
9.197363576298162036e-02
-9.618231730908843868e-02
-2.680588115090622447e-01
-4.129851046793279745e-01
-4.701263638189915328e-01
-3.460267267007937075e-01
-7.028783027514062809e-02
1.356283618920655909e-01
1.067324591792030847e-01
7.378187564089457029e-02
4.729873322168883232e-01
1.216391226683894988e+00
1.514950419230390422e+00
8.391876811013746496e-01
-2.816820960753569913e-01
-8.637452440397498377e-01
-5.554192145557393934e-01
2.105205071344164736e-01
8.284013811323451826e-01
9.953982654001531927e-01
7.596529709380578366e-01
3.397415349360717318e-01
-5.966471336432687539e-02
-3.283710117996003763e-01
-4.344329981029647625e-01
-3.751145687703854037e-01
-1.632761875123557860e-01
1.363180602288430743e-01
3.924808845496315923e-01
4.729547903832141964e-01
3.373652425970029012e-01
6.628050705482203819e-02
-2.017012637152381938e-01
-3.703917228463500244e-01
-4.267719793692382191e-01
-3.858004123720314427e-01
-2.309011935688385642e-01
4.578369169571247510e-02
3.580306967110430949e-01
5.466210050475360793e-01
5.157598309215949417e-01
3.206344423926929532e-01
9.841070766939330472e-02
-6.672124823751177103e-02
-1.776547115407067778e-01
-2.407390941342467949e-01
-2.156998858263990404e-01
-7.244096570896374487e-02
1.519094065864926013e-01
3.648542778402308895e-01
4.512168653215378744e-01
3.315370826863980880e-01
4.781053645440815070e-02
-2.483573030151044470e-01
-4.279860927995604580e-01
-4.570305628459897518e-01
-3.385587384430056024e-01
-7.671778210332855230e-02
2.596436297511191538e-01
5.129724167012105207e-01
5.502288686346613611e-01
3.815442708346883927e-01
1.338930623080697990e-01
-7.038945771138815921e-02
-1.857831258973683397e-01
-2.140749865325242973e-01
-1.545058684579831698e-01
-3.416721603242750538e-02
6.821844175134968158e-02
1.757933357234048311e-01
5.198512701546643688e-01
1.170971416581841229e+00
1.600514161025108351e+00
1.136147810304667605e+00
-7.079451616051629648e-02
-1.084593070844326324e+00
-1.239195986559777030e+00
-6.825146172474689799e-01
4.562729615524527271e-02
5.403004407312756996e-01
6.744814519502374539e-01
5.208155577582593843e-01
2.277943661652801488e-01
-8.226589811576953681e-02
-3.490202486924124381e-01
-5.434665368295539256e-01
-6.231841315273578541e-01
-5.387575597569773667e-01
-2.941989080287181757e-01
1.517729498166006663e-02
2.447144765950548251e-01
2.839947354394897761e-01
1.129235614306778046e-01
-1.923299868948138980e-01
-5.062956043307987875e-01
-7.247941607534815756e-01
-7.870840156185210379e-01
-6.591439810039187996e-01
-3.608542988861892509e-01
-1.078399723772443392e-02
2.232094513480460118e-01
2.556666359286371981e-01
1.401383836768249347e-01
-1.749740881255888031e-02
-1.608645695374429085e-01
-2.882362893165431594e-01
-3.944941349609124015e-01
-4.221567320914214050e-01
-2.883613421951335409e-01
-2.347898090185839004e-05
2.850699997560833809e-01
3.773090970649049525e-01
2.276290782421478975e-01
-5.268988539887600742e-02
-3.170912505124411362e-01
-4.915155708235025012e-01
-5.697928595315705502e-01
-5.426581515077870677e-01
-3.761351018403479851e-01
-8.295623021695668065e-02
2.168831448598557143e-01
3.602006157717370094e-01
2.717338605284458364e-01
1.207932144475454272e-02
-2.863586782739940828e-01
-5.032560872783647943e-01
-5.775861159298032455e-01
-5.294348356076710171e-01
-4.460710667887686220e-01
-3.784936416541333504e-01
-1.945033410409758856e-01
3.466164041236539650e-01
1.169575452235617652e+00
1.650107400970950433e+00
1.191871957310107311e+00
2.697098036301345814e-02
-9.476906142824496060e-01
-1.117948103180750552e+00
-6.094880607023828167e-01
8.973850534129607093e-02
6.043333549567151408e-01
7.948380870693201317e-01
6.887412510569003166e-01
4.048030101553298232e-01
8.054200709090078569e-02
-1.952388663767461729e-01
-3.946256937394808650e-01
-5.038016156918697641e-01
-4.867869557221946031e-01
-3.149290285680881318e-01
-3.287535928768706844e-02
2.290604966700897083e-01
3.334279664137445587e-01
2.314410665312279236e-01
-8.770729094390396219e-03
-2.574398419693069706e-01
-4.191820997706321994e-01
-4.785590363166589700e-01
-4.453729404139351589e-01
-2.939640440290750556e-01
-1.257400021436454185e-02
3.029282533206468231e-01
4.823893093156280121e-01
4.394351760482515523e-01
2.497623398218006829e-01
4.407701924461118748e-02
-1.274447299251934285e-01
-2.712464338681373488e-01
-3.354832146803600201e-01
-2.222010187239221168e-01
6.818623193630385382e-02
3.789047477308904455e-01
5.197168538474934429e-01
4.262298814777834011e-01
1.871616649572900581e-01
-6.241199300601440320e-02
-2.432548937963384117e-01
-3.391570974450733300e-01
-3.499207627618554084e-01
-2.605995002195470311e-01
-6.093989598737743763e-02
2.042680388640927547e-01
4.269920994589235241e-01
4.977124104690056061e-01
3.764327944549674676e-01
1.222190999633618880e-01
-1.288191216854777665e-01
-2.534142703567353050e-01
-2.588302035547115354e-01
-2.687594339259568588e-01
-2.985275105033631249e-01
-8.397838303067395316e-02
6.281512549950886148e-01
1.500572144295133192e+00
1.678751362024306637e+00
7.927996323463482042e-01
-4.746967627271271306e-01
-1.181480772261382928e+00
-1.091957521255444208e+00
-5.942030288093982371e-01
-7.983805275962058134e-02
3.159133692607242194e-01
5.862963270544565564e-01
7.016300728444667678e-01
6.062281346034136265e-01
3.173299929327181301e-01
-3.349637246631732151e-02
-3.015123080582493564e-01
-4.385014180568586606e-01
-4.614410090689027300e-01
-3.622281737102391319e-01
-1.262299925738248341e-01
1.702938721191524507e-01
3.629888467045709333e-01
3.379179797053345480e-01
1.353279167539846450e-01
-1.081778127113824234e-01
-2.949672300607616426e-01
-4.116501279076688058e-01
-4.550099992989395936e-01
-3.733958083124856442e-01
-1.256853778456460125e-01
2.193203269879912543e-01
4.940133276413731789e-01
5.647439959528894882e-01
4.334856837720756917e-01
1.988742714643608189e-01
-4.950677648558204219e-02
-2.683710995038907088e-01
-4.149925785663936550e-01
-4.178432919513061505e-01
-2.335637910368703607e-01
6.877780045015181865e-02
3.239587699753870842e-01
3.968983265840005936e-01
2.739092671103013354e-01
3.362615275297356487e-02
-2.283244160652881383e-01
-4.405454504253661918e-01
-5.566673942511607409e-01
-5.345651571285426895e-01
-3.426564162364920674e-01
-2.454176234165043186e-02
2.698271063860107066e-01
3.815589818758435281e-01
2.714925061105387116e-01
3.075049179674072680e-02
-2.098585123073012926e-01
-3.822094418607352440e-01
-5.301850218835985062e-01
-7.118565819461296629e-01
-7.805074464641825749e-01
-3.681744285033906050e-01
6.662131708301137767e-01
1.757048046561340282e+00
1.977526481843227213e+00
1.080400530060444453e+00
-1.522356291349767354e-01
-8.050544706137193751e-01
-7.066472135379375796e-01
-2.714887483731895923e-01
1.227338505261758861e-01
3.739614237093645821e-01
5.080199000203452497e-01
5.409348545028480615e-01
4.789874620208013356e-01
3.351761131615466627e-01
1.226370758224820667e-01
-1.235402247103225826e-01
-3.326262306265544977e-01
-4.382272423872784484e-01
-4.152043646192886128e-01
-2.744773314625877370e-01
-4.866439429205551143e-02
2.036395792487176171e-01
3.746033095658297118e-01
3.221299017944165288e-01
-9.573118800200369760e-03
-4.634073156193521115e-01
-7.518178780694976249e-01
-7.254164722702574064e-01
-4.871079193838299126e-01
-2.029769779595317347e-01
7.209918279080268499e-02
3.242320675654224438e-01
4.799320350688621728e-01
4.691103524351376564e-01
3.144595661807303988e-01
9.525198537986584446e-02
-1.300891354778993536e-01
-3.166368734574347976e-01
-3.920644621939921026e-01
-2.893770499085933090e-01
-2.733760573356876222e-02
2.667259364574322000e-01
4.338287637571348054e-01
3.926765074869674188e-01
1.795782585019776723e-01
-9.813962592941137542e-02
-3.364097914892364982e-01
-4.810626959275501324e-01
-5.111207010190224054e-01
-3.950848671029763559e-01
-1.211939865604321209e-01
2.191700755807440282e-01
4.501870598639281518e-01
4.594451639945831833e-01
3.006520301293524877e-01
1.143232349118363800e-01
-4.970516398885199694e-02
-2.832618033168440297e-01
-6.187579226807727872e-01
-7.730040416571023476e-01
-3.102964032361326119e-01
6.956905167950626634e-01
1.409495150476791192e+00
1.100925588475360151e+00
6.192965406805003847e-02
-7.946100123715736929e-01
-9.900812211997893630e-01
-7.443923377048535794e-01
-4.552516874686238779e-01
-2.687952844164505084e-01
-9.640510558515927308e-02
1.420281271002025447e-01
3.728923063188768761e-01
4.511346966483829601e-01
3.235785072668171392e-01
7.025620925744245626e-02
-1.891883566482938650e-01
-3.900608673520890024e-01
-5.206225559166188788e-01
-5.541437932977812952e-01
-4.335507448480681036e-01
-1.542689566878633622e-01
1.691182847457258498e-01
3.639120106434614588e-01
3.323779454865427585e-01
1.184634017825710178e-01
-1.445975869083149790e-01
-3.385739065705257733e-01
-4.219999307749455197e-01
-4.155626852153675443e-01
-3.368993340029617922e-01
-1.559042895768439907e-01
1.422624983350881667e-01
4.422324364528409935e-01
5.407231704173295350e-01
3.524724431365383603e-01
1.836050581321690967e-03
-3.116111262919389890e-01
-4.737850877067228961e-01
-4.795860972398894306e-01
-3.621180641458874305e-01
-1.509283937290352984e-01
9.789088430082203141e-02
2.840350153235847719e-01
3.218146811264502860e-01
2.032986584529623830e-01
-1.246590307806121761e-02
-2.461648283600148812e-01
-4.205442865639584804e-01
-4.734952561155665318e-01
-3.873810227756393498e-01
-1.997113320505829459e-01
2.779096687422275003e-02
2.336419734601076215e-01
3.540767344587021359e-01
3.422689271156847957e-01
1.996343409904225430e-01
-5.404682593175586663e-02
-4.176396295803649350e-01
-7.888649553389637248e-01
-7.948858252015713610e-01
-3.763194346148410196e-02
1.238014604687129427e+00
2.045659583377344326e+00
1.684461248293324331e+00
5.963818652923675856e-01
-2.330200354140909702e-01
-3.970122755532766723e-01
-2.065510417352853789e-01
-5.240311710571673304e-02
-1.965127916834365912e-02
9.213306669505309798e-03
1.363403530676550179e-01
3.452514277853024893e-01
5.147990498673682414e-01
5.140545824182898293e-01
3.161563886122321643e-01
2.613505398875212368e-02
-2.194094187177066391e-01
-3.676783132490849537e-01
-4.351148758555743457e-01
-4.054353555062981673e-01
-2.236892474071545955e-01
8.244158705536241971e-02
3.476782270466720060e-01
4.037999039023716930e-01
2.505747640200786108e-01
3.994828863150289011e-02
-1.075931382872470088e-01
-2.110457887089486340e-01
-3.212583323644568334e-01
-3.699334089722506880e-01
-2.183169893755996793e-01
1.464223615188552374e-01
5.367096900006115279e-01
7.128002314912301740e-01
5.774191603590349553e-01
2.289794026220543510e-01
-1.345733600949863273e-01
-3.636735078291559731e-01
-4.350043411237178859e-01
-3.857214661078722795e-01
-2.150299819294294590e-01
7.637283670576244798e-02
3.836617014717562668e-01
5.343144087638850293e-01
4.397399587473884708e-01
1.743076978148914158e-01
-9.716519604698758972e-02
-2.622239518518937329e-01
-3.198624315720888234e-01
-2.991136263858876765e-01
-1.802189156980453233e-01
5.269198205067355395e-02
3.255759082983973873e-01
5.130519771976506105e-01
5.531184670963705807e-01
4.560030348594254490e-01
2.061198106158307619e-01
-2.155675736533969600e-01
-6.082509923998363766e-01
-4.970993790084335950e-01
3.524773745256414292e-01
1.355729119092981438e+00
1.548123081434613635e+00
7.538373853234644484e-01
-2.133105617174218538e-01
-6.064104644036780734e-01
-4.577276399196324452e-01
