9.734284451290055040e-01
6.323938655947379806e-01
3.300473343356253308e-01
6.306023022974149850e-02
-1.246194056389237498e-01
-2.171610475169848398e-01
-2.509116617718735731e-01
-2.726792725174704279e-01
-3.089915675801983008e-01
-3.624539857796786335e-01
-4.117351816301299539e-01
-4.223103514626547206e-01
-3.797816843863717762e-01
-3.164638031703075338e-01
-2.839159102258359546e-01
-2.931554447153139065e-01
-3.127800272167509665e-01
-3.298439862006011802e-01
-3.627700936174537705e-01
-3.955105943248782840e-01
-3.528086669288774679e-01
-1.922294193595088796e-01
-1.199336336151456128e-03
6.113789649947554833e-02
-6.041440545192719447e-02
-2.487609883594617544e-01
-3.529618637843037199e-01
-3.526767134736659703e-01
-3.452356344418908152e-01
-3.986967729371019842e-01
-4.723689474816161749e-01
-4.876764837611402559e-01
-4.254903464079460851e-01
-3.239936579299036445e-01
-2.176059225335658653e-01
-1.086664350430365106e-01
1.279917631780103267e-02
1.248187427901072122e-01
1.530376853346212540e-01
4.128952614897749007e-02
-1.010667358184159370e-01
4.256318077201681066e-02
7.097766415266620887e-01
1.622785322045544376e+00
2.053154442795828594e+00
1.565026499284515316e+00
5.550465705354199475e-01
-1.665604576857422914e-01
-2.041605712706859310e-01
1.966595371571095152e-01
5.915618614966023925e-01
7.540023192123823659e-01
6.966410146451700314e-01
5.135357144183133604e-01
2.925543324458215744e-01
9.602077105658014811e-02
-5.150769006678736217e-02
-1.597824210144832835e-01
-2.504173129763963557e-01
-3.384096900221048587e-01
-4.223825935906714291e-01
-4.853405050068281823e-01
-5.150980992314277973e-01
-5.246815800793116491e-01
-5.391224304454512728e-01
-5.610494628188081867e-01
-5.642710002608424258e-01
-5.297363601171917180e-01
-4.792622394923826690e-01
-4.581553180272364689e-01
-4.800344083688788399e-01
-5.082383108510767356e-01
-5.091250358366836704e-01
-4.959464549462920258e-01
-4.815181507807196337e-01
-4.128197847154547739e-01
-2.229179028104150972e-01
3.164633762461204619e-02
1.571040255919796680e-01
1.657730464950002425e-02
-3.014986762536451814e-01
-5.764804983014488737e-01
-6.821909816187575748e-01
-6.602745465706348904e-01
-6.059808180053390947e-01
-5.619017794389301601e-01
-5.281282487707168460e-01
-5.076758707471300536e-01
-5.008680331619975723e-01
-4.862785528802974766e-01
-4.503693833699738414e-01
-4.310108099737839926e-01
-4.884203793866019327e-01
-6.062574894921713975e-01
-6.608557664306005108e-01
-5.566988015463709694e-01
-3.912968952217319996e-01
-4.068188031595877940e-01
-6.767899743952292546e-01
-8.058006226584505383e-01
-1.511167005307871569e-01
1.333903246743452176e+00
2.640338024449565335e+00
2.669622852874567798e+00
1.622175452459072131e+00
7.619532073102686098e-01
8.435425298719576581e-01
1.455312126178437859e+00
1.852157181420666543e+00
1.780345083291609232e+00
1.427432346240655292e+00
1.023680213838983555e+00
6.728682571503532550e-01
3.960420633230793963e-01
1.895502286457667329e-01
4.541991013248959652e-02
-4.294809176605424161e-02
-8.953697110280844917e-02
-1.264151984355550151e-01
-1.874420563152249253e-01
-2.770860373757884632e-01
-3.646037764217888721e-01
-4.119004601523552633e-01
-4.068439642435066617e-01
-3.699915166240466124e-01
-3.298955245293825334e-01
-3.017070715574877715e-01
-2.935831980209544501e-01
-3.130160839181873600e-01
-3.476323203891580893e-01
-3.457354594574796325e-01
-2.449051330607155963e-01
-5.444431277311559403e-02
1.059256810597476867e-01
1.084673912266586743e-01
-4.356707673868177172e-02
-2.320693624101636821e-01
-3.616752679728263975e-01
-4.239425818180068140e-01
-4.421829938398539328e-01
-4.200372174483475440e-01
-3.644202559823022103e-01
-3.097222306255598134e-01
-2.781103014122032757e-01
-2.475622670835307126e-01
-1.933407996555303043e-01
-1.259315264095083320e-01
-5.879793862800071491e-02
2.129796414901554552e-02
1.120517309388056743e-01
1.474699629696228365e-01
6.242032100071494977e-02
-3.564931639200152186e-02
1.755161519318479413e-01
9.064264182140211457e-01
1.832824316439783052e+00
2.232352777364386753e+00
1.717248671951676853e+00
7.039751844292583272e-01
4.133514762218085115e-03
1.738621131046273055e-02
4.576987376193721868e-01
8.072653267638527641e-01
8.305206484890007568e-01
6.187107219379796019e-01
3.435454611767954636e-01
1.049329131041682878e-01
-6.416121221010476217e-02
-1.681228264535527539e-01
-2.354204145440518259e-01
-2.968342893324469323e-01
-3.682158870612154411e-01
-4.478511669185742394e-01
-5.192508934590460701e-01
-5.638277116171331871e-01
-5.755115553769422077e-01
-5.581798050944960510e-01
-5.205024398693437471e-01
-4.843671544004939378e-01
-4.790998091017196203e-01
-5.085239138413749638e-01
-5.406855159802645971e-01
-5.496264147440701464e-01
-5.517303399891381188e-01
-5.755390095157799646e-01
-5.942203352053543330e-01
-5.176551964572769782e-01
-2.963494626952167255e-01
-3.300687781366232892e-02
7.445105537404060614e-02
-6.363405651825621012e-02
-3.278545153693575576e-01
-5.238645617556002554e-01
-5.770208339283623422e-01
-5.593397246554353552e-01
-5.572637413841702303e-01
-5.736455625708578587e-01
-5.684039690707121117e-01
-5.359289028966861546e-01
-5.009461519142440755e-01
-4.742661581090052425e-01
-4.552590008169907221e-01
-4.591027214776858822e-01
-5.059095165485254508e-01
-5.810858660678767107e-01
-6.249642588076781413e-01
-5.901882889927088094e-01
-5.363472765347563342e-01
-6.193670913862061589e-01
-8.434065638515447771e-01
-7.953992871613360105e-01
7.464044260629487670e-02
1.612573338348757046e+00
2.707717250551296306e+00
2.446223862687610051e+00
1.308646943292622211e+00
5.896068997014971558e-01
8.426116956878397790e-01
1.508563516367505075e+00
1.851402433696871297e+00
1.687011932600642972e+00
1.267321586855651105e+00
8.605225918151805375e-01
5.554666048138283685e-01
3.242984703524157131e-01
1.399841891784220915e-01
4.926332260677651620e-03
-8.769121117485496886e-02
-1.640441973031116496e-01
-2.357184572498093877e-01
-2.859266817345027523e-01
-2.988496105912556433e-01
-2.884608089568759803e-01
-2.887989023886795570e-01
-3.151833755678534743e-01
-3.453317815630366772e-01
-3.489392339624076134e-01
-3.248190685508782760e-01
-2.997053120272817339e-01
-3.022970931920891391e-01
-3.334426163595726189e-01
-3.383314231021571916e-01
-2.328587758883058634e-01
-1.304542742535887145e-02
1.816125177097681898e-01
1.814224741368453409e-01
-3.498728851553575825e-02
-3.123342264928553047e-01
-4.719248713903118619e-01
-4.719425488752300168e-01
-4.015210299039731479e-01
-3.471307201638160755e-01
-3.201205747572622440e-01
-3.001794213458321980e-01
-2.806533559230180996e-01
-2.596452874686542844e-01
-2.238068053443064420e-01
-1.534487067613578004e-01
-4.532001447199261041e-02
5.191973089911677136e-02
4.446520640517457462e-02
-6.959204729394043165e-02
-3.362323282906506255e-02
5.078667427932770373e-01
1.470208272400983063e+00
2.120726896610610979e+00
1.778173217691438435e+00
6.665300553607782508e-01
-2.717386633521823303e-01
-3.818054037931076783e-01
1.640918724046286359e-01
7.658776047270769993e-01
1.027766351674975320e+00
9.443668857430158603e-01
6.937420774674212254e-01
4.229707896789436372e-01
1.921851075315079149e-01
3.853365992926370553e-03
-1.545187052243729708e-01
-2.791523607490964398e-01
-3.573606043807731059e-01
-3.965834752766563276e-01
-4.233612607871153899e-01
-4.549235503401751757e-01
-4.890692069473220327e-01
-5.174535899562164865e-01
-5.358406784012739177e-01
-5.501153765595666600e-01
-5.729531582795991396e-01
-5.959919199324044126e-01
-5.800432317960338979e-01
-5.050808695104147539e-01
-4.163969841120644944e-01
-3.893675396731677285e-01
-4.497320608341566217e-01
-5.410374993689064382e-01
-5.646086587476825125e-01
-4.532902345075944250e-01
-2.353853277778067965e-01
-3.742112839165228494e-02
6.094385657662324679e-03
-1.346121937751615372e-01
-3.663474064118364959e-01
-5.619741160740777675e-01
-6.587426949621951744e-01
-6.771371219550279541e-01
-6.674019318271572354e-01
-6.585324158988991039e-01
-6.527255355371204271e-01
-6.432367957991245166e-01
-6.222418110350870224e-01
-5.825505677366987767e-01
-5.348883725259724331e-01
-5.182853417733850332e-01
-5.630968247689374095e-01
-6.407801633587714152e-01
-6.774143892635235975e-01
-6.457981435174890983e-01
-6.494465050413664731e-01
-8.296009579283992741e-01
-1.052041578049405235e+00
-7.665350465687152948e-01
4.439351602152158960e-01
2.035753150200257267e+00
2.740999599914269780e+00
2.029086445948459883e+00
8.424863568261251601e-01
4.279717666534227360e-01
9.366779344708825450e-01
1.603294758940228215e+00
1.822801456849049373e+00
1.600666588031532944e+00
1.218640794778324876e+00
8.597890795129373709e-01
5.629136782713038967e-01
3.271805275775321875e-01
1.484370931761779810e-01
4.245306257246676124e-03
-1.217402680259374176e-01
-2.087861348297605502e-01
-2.332052480570817043e-01
-2.172009728799745854e-01
-2.058578859548778617e-01
-2.126436598939041300e-01
-2.227177222045912952e-01
-2.318501177679491432e-01
-2.437487562990734991e-01
-2.451026929609839977e-01
-2.239646895153292738e-01
-2.023513108579022557e-01
-2.141972421326259757e-01
-2.453027684366181349e-01
-2.165866306401093011e-01
-6.274772901587601093e-02
1.571018972013145387e-01
2.744717971396337108e-01
1.801208571759127797e-01
-5.636190798225573090e-02
-2.661106062046084131e-01
-3.452059580494971081e-01
-3.183493107903957453e-01
-2.697822025059564699e-01
-2.422485286969024709e-01
-2.126105296688860502e-01
-1.540251834507682382e-01
-8.700892049465727696e-02
-4.726364338959747335e-02
-2.863377838374644990e-02
9.552995571897981986e-03
8.294108420252899183e-02
1.419161017831936933e-01
1.093944327775085573e-01
1.943692411074172607e-02
1.261137072205125165e-01
7.046892677746757760e-01
1.587807228529212633e+00
2.079463858233106865e+00
1.637299293239302234e+00
5.641674001379552994e-01
-2.677133754925820619e-01
-3.292221413999610324e-01
1.651697169535382148e-01
6.828534324532351540e-01
9.147472423461484592e-01
8.702140917202667580e-01
6.778289478505765686e-01
4.425583007887197717e-01
2.229309602629512554e-01
3.718611611971328612e-02
-1.220383817816385885e-01
-2.578813402474167127e-01
-3.565769853524345945e-01
-4.077720840208299835e-01
-4.245297687469439807e-01
-4.324652201657038231e-01
-4.469446458968016067e-01
-4.713841701247041271e-01
-5.057155419036608590e-01
-5.425329887498819836e-01
-5.660424041358316227e-01
-5.657162645582539673e-01
-5.465295207525930898e-01
-5.229771768764230888e-01
-5.036141249618362181e-01
-4.875048929770228745e-01
-4.804469725589878282e-01
-4.911224416507452561e-01
-4.888132388111920967e-01
-4.019361870771664957e-01
-2.151598139138999888e-01
-4.712002927242213424e-02
-5.298976073900194678e-02
-2.422100689774822624e-01
-4.632365070965240306e-01
-5.774854137086955497e-01
-5.816819586367197870e-01
-5.520533215952404538e-01
-5.386193079197212352e-01
-5.441664255713359877e-01
-5.607778480840879265e-01
-5.836306101446387951e-01
-5.987144451098206366e-01
-5.869873565200016685e-01
-5.476180681465522282e-01
-5.089949213089128843e-01
-5.095928183874575135e-01
-5.543839424548712147e-01
-5.940796331030322452e-01
-5.905618488205386374e-01
-6.178870130800386828e-01
-8.008482078158114525e-01
-1.014398698988757674e+00
-7.263401594711537124e-01
4.799240217195357983e-01
2.078123898591713647e+00
2.812608988737979043e+00
2.143316398842708637e+00
9.742419249326610409e-01
5.083292349201897764e-01
9.150806905614996545e-01
1.517083390286067202e+00
1.754668933537290254e+00
1.572345410281401401e+00
1.184768686927660797e+00
7.938828909790629496e-01
4.860117973236870448e-01
2.609491907115122911e-01
9.460692923549833544e-02
-3.460775448856254211e-02
-1.455137957369210810e-01
-2.469796151839429021e-01
-3.333242852270121848e-01
-3.919156678097044932e-01
-4.074952930891266312e-01
-3.677409719446227410e-01
-2.885655086004093040e-01
-2.250946561687544034e-01
-2.243065944939935941e-01
-2.749986169785107459e-01
-3.305971167573313885e-01
-3.625423853722762879e-01
-3.690658472828756143e-01
-3.427528838889672969e-01
-2.466021284561757398e-01
-5.581078479629006384e-02
1.538808336447677894e-01
2.220603738934307791e-01
7.203656967620927776e-02
-1.857974648139256169e-01
-3.726710014989005892e-01
-4.177079856233364419e-01
-3.790949347999940100e-01
-3.370899727548632430e-01
-3.123177955728732580e-01
-2.763492259293109377e-01
-2.120075692048795091e-01
-1.465458806334307973e-01
-1.120930944554008879e-01
-8.578619851079564984e-02
-1.375858831479692852e-02
9.647891056075401373e-02
1.487017736918495314e-01
6.207970492607255142e-02
-6.411549984273540170e-02
8.667154212357205956e-02
7.547339129608894304e-01
1.650401796260212661e+00
2.002707863668443444e+00
1.351578946184494256e+00
1.741779285928157783e-01
-5.664767348143059378e-01
-4.117271253173493961e-01
2.844023648506529001e-01
9.064847438766442389e-01
1.147651336086382035e+00
1.059367800937961235e+00
8.115000911532241901e-01
5.296950254553557391e-01
2.708679863681371369e-01
5.345700901478137035e-02
-1.120440952203320129e-01
-2.230974214225515395e-01
-2.965867089760665931e-01
-3.492066694807604010e-01
-3.777772457290443642e-01
-3.826549807273629256e-01
-3.872167119304774086e-01
-4.123155985927504652e-01
-4.538544118172487263e-01
-4.978440004911583450e-01
-5.362174864432996957e-01
-5.610468073508196873e-01
-5.612719809405410931e-01
-5.330054598935246579e-01
-4.880724057356792267e-01
-4.501424635608728964e-01
-4.369990613140168345e-01
-4.334787890397913679e-01
-3.804873221073655221e-01
-2.254127533224588309e-01
-1.923487136204758696e-02
7.532917374305160563e-02
-5.678860602575247496e-02
-3.338806320283213558e-01
-5.550711772653653675e-01
-6.116169091690558668e-01
-5.588086519580122147e-01
-5.015808767233818077e-01
-4.878952278396997411e-01
-5.129381976589670877e-01
-5.607334793169995724e-01
-6.178390383253974383e-01
-6.665156930159036319e-01
-6.830983553570103561e-01
-6.570120585220133869e-01
-6.125338130474392573e-01
-5.929717161882419596e-01
-6.045815187805644308e-01
-5.920455687232215602e-01
-5.306415877776287093e-01
-5.457098244651819030e-01
-7.787460607718161842e-01
-9.935728332170289390e-01
-5.267647128834176407e-01
9.350842438263401446e-01
2.556991418723614018e+00
2.982178473539761399e+00
1.974569113744233384e+00
7.659517132182795951e-01
5.159871797720890774e-01
1.107635991901287253e+00
1.688627891969698647e+00
1.757397713771217562e+00
1.418598451872298716e+00
9.780848242773761969e-01
6.168277425274287795e-01
3.672268328877378307e-01
2.004102701773559925e-01
7.599914598156917722e-02
-3.966830431120198230e-02
-1.556551248179257885e-01
-2.515536928632321478e-01
-3.060031617130955506e-01
-3.313523941626215219e-01
-3.598432461742905875e-01
-3.944351359216135000e-01
-4.037986528874172310e-01
-3.755833279368978594e-01
-3.427497721276807630e-01
-3.390834114178581382e-01
-3.555956455862208099e-01
-3.660249766941182648e-01
-3.723820370798358592e-01
-3.802871718374194465e-01
-3.433399191246856441e-01
-2.090897517432164787e-01
-3.248209092816153887e-02
4.104445828885457115e-02
-6.135384083196168681e-02
-2.543298962628482429e-01
-3.974603321550070900e-01
-4.364235457899710569e-01
-4.169038698539858645e-01
-3.977216208428454580e-01
-3.873494540412187326e-01
-3.553112719774597639e-01
-2.827318511164708115e-01
-1.919065173395329282e-01
-1.178358270785186540e-01
-5.816549268358049696e-02
1.940519790950501894e-02
1.107376053330409310e-01
1.420281963260610347e-01
4.943218251925709378e-02
-5.939433912975791707e-02
1.317332480859790822e-01
8.381124672719847402e-01
1.747810930445595545e+00
2.135897597819638172e+00
1.613917342667327004e+00
6.094574538715088474e-01
-8.502974533898660647e-02
-1.029720275550875530e-01
2.973119424965412483e-01
6.635039450280418860e-01
7.755083109458770219e-01
6.848405997392004174e-01
5.171850156378015040e-01
3.359127705820735277e-01
1.542112004759707833e-01
-1.289648539450958392e-02
-1.430799004516784545e-01
-2.272039555635063102e-01
-2.795474306071390469e-01
-3.303488842058092123e-01
-4.005758829185420700e-01
-4.780677249501832371e-01
-5.258761255980384242e-01
-5.209323640345401296e-01
-4.813915534376194127e-01
-4.491657158559060892e-01
-4.490562823931082970e-01
-4.717183295462828996e-01
-4.901026968629010883e-01
-4.870133398213541409e-01
-4.749831813535929648e-01
-4.893560353750878167e-01
-5.424750479617265198e-01
-5.792880860355478223e-01
-5.084372030541747245e-01
-3.058481440787885197e-01
-8.018878201390769456e-02
-1.299412137348227199e-03
-1.369405746923161304e-01
-3.797901192748287524e-01
-5.622980640706750632e-01
-6.107664778850369069e-01
-5.604865125291156325e-01
-4.761029970082013563e-01
-4.093458702903601809e-01
-3.970137180043797898e-01
-4.433835102129833894e-01
-5.116497224809368749e-01
-5.605548430951361460e-01
-5.812584107901047625e-01
-5.888371879765458283e-01
-5.948913788068503905e-01
-5.957712351296701181e-01
-5.721369916746193995e-01
-5.078807260186669614e-01
-4.506474041297893751e-01
-5.332984482825869899e-01
-7.956910128307558283e-01
-9.020343667880393879e-01
-2.617800565655082345e-01
1.208414925627456338e+00
2.571771537252010464e+00
2.713522340065033678e+00
1.728311525070157506e+00
8.218756451155457832e-01
8.090623873638261854e-01
1.368721957229059205e+00
1.770872814533463790e+00
1.713078201504694364e+00
1.351871848312552249e+00
9.352792532509025536e-01
5.927143471981346501e-01
3.404932413052758622e-01
1.529880396328597847e-01
1.327776621971254664e-02
-8.167663195843599677e-02
-1.452254949305046838e-01
-2.046270747770687903e-01
-2.709191001844367674e-01
-3.268783662606269957e-01
-3.572877700728864792e-01
-3.689778793504919774e-01
-3.706788876498969820e-01
-3.578942948054267270e-01
-3.289897081217835195e-01
-2.971368682694274788e-01
-2.841042252959939396e-01
-3.192434757750647889e-01
-4.175100646464570131e-01
-5.121144554492581547e-01
-4.598154756880687977e-01
-2.106388797867221607e-01
6.606541624150741310e-02
1.355674441879500536e-01
-4.348398612274449043e-02
-2.938372722456916164e-01
-4.267708885440266720e-01
-4.112660145779032383e-01
-3.427415907568420184e-01
-2.982573448956713502e-01
-2.730600283914941251e-01
-2.482767457948176770e-01
-2.371787442632689868e-01
-2.319947479440513938e-01
-1.910039099236789661e-01
-1.135898243033329619e-01
-4.246050165450294955e-02
1.415043761317194559e-02
6.833020824421698336e-02
7.468602813326069567e-02
-1.147968053010980406e-02
-5.187231137792869956e-02
2.710778613161773931e-01
1.074566948286779455e+00
1.922102670963697246e+00
2.111669203107947812e+00
1.423215765626094864e+00
4.072459119677054873e-01
-1.645314631504568581e-01
-2.211959614903517835e-02
4.887335246276076628e-01
8.781833964323056962e-01
9.405642837476815288e-01
7.611744591864588738e-01
4.961696043401017664e-01
2.430314530411533669e-01
4.538777343562498678e-02
-8.459913394820245403e-02
-1.649803739634744804e-01
-2.311266074301509543e-01
-3.070669474504311713e-01
-3.865911374642648779e-01
-4.446001499497007070e-01
-4.692033326912428692e-01
-4.760515273902876654e-01
-4.876315705932061650e-01
-5.060985583248144293e-01
-5.159132861611368526e-01
-5.117366949243312702e-01
-5.071883257838615267e-01
-5.113754127913713310e-01
-5.180730971052304179e-01
-5.259807440019005353e-01
-5.421986157715218413e-01
-5.422790703178057559e-01
-4.536127878383402479e-01
-2.384442402184325238e-01
-9.700818580316260265e-04
6.443268802155258101e-02
-1.194043413120004782e-01
-4.127673848810289314e-01
-6.117942418874957600e-01
-6.473005206724196103e-01
-5.963083191954084983e-01
-5.544414166621253193e-01
-5.475390802843685956e-01
-5.467109550482861513e-01
-5.260870834292720177e-01
-4.912551273665805018e-01
-4.647570365249483193e-01
-4.603528368237005397e-01
-4.766910455238060895e-01
-5.060331251474724512e-01
-5.323787718409844771e-01
-5.258571626625387907e-01
-4.737912502646112745e-01
-4.438023597716398427e-01
-5.690203232531851896e-01
-8.367695073622608559e-01
-8.481073305501618531e-01
-5.591185743110797801e-02
1.440553181024762264e+00
2.590072361924717459e+00
2.448192369107820010e+00
1.391104579505266559e+00
6.493344609303837167e-01
8.141965473482528637e-01
1.419268827359992713e+00
1.787339068505241046e+00
1.710495738107747687e+00
1.362956810197666568e+00
9.602604650756059179e-01
6.139279691487715684e-01
3.578516031496429273e-01
1.858128535419386052e-01
6.323060739693145416e-02
-4.574351697586281906e-02
-1.460617083780164638e-01
-2.196790042111706753e-01
-2.604191327037551629e-01
-2.854160872046030972e-01
-3.145569072300870017e-01
-3.481558336028068301e-01
-3.669507227596172649e-01
-3.562920441628844026e-01
-3.286788983527546004e-01
-3.117515095851173812e-01
-3.180008184695891083e-01
-3.423885053474257090e-01
-3.723577748632374562e-01
-3.663861349950142676e-01
-2.554620695125417451e-01
-3.881949634116999698e-02
1.417334982692401990e-01
1.168810879038258282e-01
-1.124736382454374350e-01
-3.636864710745988938e-01
-4.681103276520374168e-01
-4.273840332124249075e-01
-3.637299542726775137e-01
-3.582309582748313126e-01
-3.800079966265795250e-01
-3.653850194860840395e-01
-3.105688412586942726e-01
-2.560955702779094123e-01
-2.154742830647388419e-01
-1.591436649320772945e-01
-6.304502112707756345e-02
3.867131713739580673e-02
5.896186346338570111e-02
-2.442102108256629864e-02
-1.541017944510802637e-02
4.097941281213830500e-01
1.261796416189670644e+00
1.959608842445063281e+00
1.817999233349290700e+00
8.727337961475957195e-01
-7.639463680213889885e-02
-3.221043214098647245e-01
1.005294221828470502e-01
6.565561880766765945e-01
9.324263954232419049e-01
8.911860883588562654e-01
6.909947391867820032e-01
4.560470039344136639e-01
2.324135601096844472e-01
4.356733288611749910e-02
-9.239585907131259157e-02
-1.868359103925893994e-01
-2.761508447156412749e-01
-3.708409425492315004e-01
-4.338146846768086706e-01
-4.439940125966574946e-01
-4.473580429174190964e-01
-4.936739959604329320e-01
-5.639771431188075335e-01
-6.071664899583706365e-01
-6.020985441491946144e-01
-5.598626553273439166e-01
-5.097695064900464867e-01
-4.893023668257185377e-01
-5.155566271977056747e-01
-5.637432135814103296e-01
-5.879708182509247871e-01
-5.629697219389896423e-01
-4.922046497145906030e-01
-3.756158620934865744e-01
-2.072343757510562989e-01
-3.250469444895378451e-02
3.482339357323209483e-02
-8.733189618651730768e-02
-3.416432205964892166e-01
-5.717253926669962905e-01
-6.753551398252634064e-01
-6.801250561732504751e-01
-6.654420589422670451e-01
-6.648800927838240948e-01
-6.658704155368492250e-01
-6.544095112165821959e-01
-6.275003328266364200e-01
-5.883992279189509400e-01
-5.542179513344150932e-01
-5.530379378239616006e-01
-5.892045058456947260e-01
-6.198257358658866290e-01
-5.932960401106430748e-01
-5.209184648710254439e-01
-5.093580769928944818e-01
-6.803884214086172166e-01
-9.340716015066018452e-01
-7.809521036645674652e-01
2.628195739941318609e-01
1.848114873824955540e+00
2.762139482620119324e+00
2.258883380707241262e+00
1.078729882079482394e+00
5.428675253156322045e-01
9.802823773213187319e-01
1.644499574630436500e+00
1.857666979269329000e+00
1.632466104162250575e+00
1.288843141106964518e+00
9.660914840769758705e-01
6.344650513772545075e-01
3.070227576220017629e-01
5.738744659755540961e-02
-8.442469521069687066e-02
-1.554046548533284111e-01
-2.021991548561879182e-01
-2.387631233196987057e-01
-2.563646812316172641e-01
-2.568545746044670341e-01
-2.630960805265443736e-01
-2.953853712213750926e-01
-3.474608516460763741e-01
-3.891636459224634970e-01
-3.861631200069532421e-01
-3.259738572009120983e-01
-2.447395408509880910e-01
-2.128252423832563411e-01
-2.518773959291163989e-01
-2.740490545406398804e-01
-1.658910852834077909e-01
4.440311781265928598e-02
1.678291159512936559e-01
6.342002843390115441e-02
-1.825926991417028133e-01
-3.608380801458421216e-01
-3.756635944576739439e-01
-3.017342401113058958e-01
-2.501597663648292835e-01
-2.544456303121052088e-01
-2.718081781594268165e-01
-2.519749170020836315e-01
-1.949956621279295421e-01
-1.387687480278975427e-01
-9.957463728909922429e-02
-5.054683682588791832e-02
3.932372578859301415e-02
1.500537326239435587e-01
1.955715090211217200e-01
1.288451105778610495e-01
1.260562227735171625e-01
5.301866822727430151e-01
1.385699330687014674e+00
2.119765007935216605e+00
2.032837438679435671e+00
1.131486056843128418e+00
1.681977247037376999e-01
-1.725221984256661290e-01
1.253827892843091818e-01
6.086633729301027529e-01
8.865533346846967699e-01
8.759152724321251915e-01
6.886479182167161150e-01
4.469430282128180054e-01
2.171581165002371694e-01
3.092786344016063005e-02
-1.011765127799039155e-01
-1.936495972867105786e-01
-2.677556098127604201e-01
-3.259856196780763771e-01
-3.632219289813567453e-01
-3.986097439648848550e-01
-4.674897223674279734e-01
-5.660102490923551999e-01
-6.336666033922694341e-01
-6.231600764121218994e-01
-5.615464347433660741e-01
-5.131743101328439804e-01
-5.074246417984288327e-01
-5.235874167999597928e-01
-5.294092729433600431e-01
-5.193468420540739983e-01
-5.170017089842673386e-01
-5.426663264052158375e-01
-5.703065143973330420e-01
-5.212437377989225240e-01
-3.427456035870544149e-01
-1.104463855148265367e-01
3.533134194003807217e-03
-9.714146367626561029e-02
-3.314373348306419165e-01
-5.346549132862147280e-01
-6.159984328821944688e-01
-6.065004253194854478e-01
-5.865250886791634199e-01
-5.965519654751647582e-01
-6.153295144259959271e-01
-6.045577975993216002e-01
-5.583714770361704050e-01
-5.075274728179915984e-01
-4.848663937000332602e-01
-4.985043497771716736e-01
-5.379740357582499799e-01
-5.843846659242967201e-01
-6.065426357862317985e-01
-5.874770636066883878e-01
-5.903890859776098621e-01
-7.328750138243700363e-01
-9.514565330515241115e-01
-8.004345880512019340e-01
1.913010448160596122e-01
1.719335981777342370e+00
2.641452481539780184e+00
2.222250157328370612e+00
1.115972683525191966e+00
5.496945029541910888e-01
8.802005920782205450e-01
1.496661827411131407e+00
1.788347812423650707e+00
1.672798155112491969e+00
1.349636730586398992e+00
9.688591157973249768e-01
5.940832213721892741e-01
2.768457255435115560e-01
5.761381707198186264e-02
-5.872072709610440949e-02
-1.040579982181235597e-01
-1.508068024485233471e-01
-2.771357622863397374e-01
-4.607266104742248625e-01
-5.586052480467702530e-01
-4.871624049201727091e-01
-3.523968274404634671e-01
-3.027829477011820813e-01
-3.391950994610848924e-01
-3.570595389999585145e-01
-3.081244434439918134e-01
-2.506975099683097508e-01
-2.536226166568111839e-01
-2.866824107190779625e-01
-2.312017379005147921e-01
-1.656646946203704437e-02
2.591799710507444732e-01
3.915495146726406528e-01
2.794860808866828639e-01
2.546534324622331397e-02
-2.029469855684785384e-01
-3.500378707700649294e-01
-4.604661936282054002e-01
-5.402489170093043303e-01
-5.195934174367404790e-01
-3.723201711116609358e-01
-1.899272046240490230e-01
-8.145597324560338581e-02
-5.796099884083444342e-02
-5.807300589819100467e-02
-2.887221321499815543e-02
4.602456074867357361e-02
1.318929158829652837e-01
1.400911838327811854e-01
4.937900203260375820e-02
8.269647318978651240e-02
5.792836417188066411e-01
1.479310925143406230e+00
2.088393046274815035e+00
1.724707661344509813e+00
5.913136711451206784e-01
-3.467055514227389557e-01
-3.922558585333571490e-01
2.612068206638942236e-01
9.421221174688836353e-01
1.225932269035131084e+00
1.139639424168750415e+00
8.829152638482030691e-01
5.803466818902641711e-01
2.837487910074442121e-01
4.336610315571145374e-02
-1.120264870084041742e-01
-2.085682743315795673e-01
-2.852676414475859845e-01
-3.465619524563503528e-01
-3.797341012847441633e-01
-3.911504237160165487e-01
-4.071581952510673896e-01
-4.519853751007064657e-01
-5.264397599247943038e-01
-5.984524875344832129e-01
-6.272536290203880593e-01
-6.111825759728588547e-01
-5.927603646156277550e-01
-6.007230944733591427e-01
-6.105858938808262915e-01
-5.861705091513708110e-01
-5.390022750754052128e-01
-5.075571267227012573e-01
-4.827954020135280522e-01
-4.008453985276745901e-01
-2.353131912712801144e-01
-7.561185715270749008e-02
-6.567150822728222426e-02
-2.428317072843311775e-01
-4.788268747662908775e-01
-6.142689698636365492e-01
-6.165694175813913880e-01
-5.759440683933534366e-01
-5.782664892374945742e-01
-6.214357328811001002e-01
-6.504774102781027967e-01
-6.369704791266399546e-01
-6.012779857741555878e-01
-5.714335531051701889e-01
-5.508914892599151569e-01
-5.353764115408916613e-01
-5.378487272579479672e-01
-5.698298760365626547e-01
-6.023436296649983257e-01
-5.951200158091141112e-01
-6.017878305292797547e-01
-7.578256716538354087e-01
-9.993884506166103021e-01
-8.343414814426914905e-01
2.439140944008570955e-01
1.888036863191283166e+00
2.862292516766210326e+00
2.382359436886020365e+00
1.147643388325033653e+00
4.810087211852858702e-01
7.985918137349222734e-01
1.463349389244044119e+00
1.782823740580402383e+00
1.618257086955436463e+00
1.199394394421716248e+00
7.648950408121661937e-01
4.277603723128620139e-01
1.991195345565200669e-01
3.479226251125566716e-02
-1.186891907620625797e-01
-2.733806019449654956e-01
-3.854825262397307273e-01
-4.094936482494407892e-01
-3.613223989563179583e-01
-3.054246160418186973e-01
-2.905029360494386093e-01
-3.180852259142444849e-01
-3.593323110584275004e-01
-3.879149513571697461e-01
-4.036543887241683115e-01
-4.227598211101504244e-01
-4.455807365802977871e-01
-4.506317411778281157e-01
-4.135699236275920954e-01
-3.109440130924731038e-01
-1.338037718646105101e-01
6.042926318979706390e-02
1.460665805390685690e-01
4.524228825641345847e-02
-1.671476858307530400e-01
-3.311143684809327303e-01
-3.697872310003115781e-01
-3.404712461041503047e-01
-3.232012917198394120e-01
-3.219216705463522898e-01
-2.948789294815936102e-01
-2.295454214429982487e-01
-1.484502000407126876e-01
-6.550323337591264228e-02
2.133790923301596282e-02
9.853186727775725684e-02
1.342916791320726000e-01
1.066341208813058189e-01
2.975315430021371541e-02
1.251426410205839189e-02
2.856734984521786536e-01
9.834336492296352761e-01
1.792526492854280784e+00
2.050002228653939884e+00
1.425141533980120556e+00
3.687220732526437228e-01
-3.156055152017545051e-01
-2.534626911526891013e-01
2.735406785462219381e-01
7.571457282659320720e-01
9.316494542422212310e-01
8.399658781351813097e-01
6.262821263096847169e-01
3.874084144367269666e-01
1.757131134329074917e-01
2.649549321005804925e-02
-6.652552311441126132e-02
-1.578606993420654803e-01
-2.836093406342430900e-01
-4.075080719973341314e-01
-4.652911350529810863e-01
-4.408846126003339028e-01
-3.797114920947797234e-01
-3.446324202753820454e-01
-3.630802832573361560e-01
-4.098373667378589769e-01
-4.425897516633031104e-01
-4.470731107608797994e-01
-4.401130399496450685e-01
-4.369587935379957155e-01
-4.334754655843390259e-01
-4.288666597778680312e-01
-4.401474741906862276e-01
-4.583943460075272092e-01
-4.099422967436463505e-01
-2.263082397759155207e-01
2.771831884275088170e-02
1.591610819709775859e-01
3.827619437902805150e-02
-2.493830667423703185e-01
-4.977905551206647794e-01
-5.919536608190185678e-01
-5.728225095177761350e-01
-5.363437081247159899e-01
-5.318629397618617194e-01
-5.482217791403137808e-01
-5.598094161555514647e-01
-5.652085683217998868e-01
-5.743729459897174427e-01
-5.787422718694985591e-01
-5.637758701576942588e-01
-5.416097356299238719e-01
-5.397087726469416147e-01
-5.518159431400205817e-01
-5.271761502890933704e-01
-4.518030711073326988e-01
-4.447205079552801199e-01
-6.618191785281021255e-01
-9.593308891456778786e-01
-7.495901509276005070e-01
4.244620519743963483e-01
2.040037575715721196e+00
2.824770980585557201e+00
2.210766775020798214e+00
1.072927018886045136e+00
6.081142403221301285e-01
9.938707214475936969e-01
1.547500835948384834e+00
1.718389363027109429e+00
1.512346785067179011e+00
1.203321701250860576e+00
9.545520884523526206e-01
7.325447636112015770e-01
4.648420758350093607e-01
1.566107403864215319e-01
-1.511744527763589918e-01
-4.105268750728587324e-01
-5.454969718549664837e-01
-5.244114077924361128e-01
-4.336414445394701778e-01
-3.855634215847350554e-01
-3.971344594451763355e-01
-4.133656722095591096e-01
-3.965000158174049050e-01
-3.569015694939419170e-01
-3.283078400277366637e-01
-3.342178944523196416e-01
-3.695877518340477952e-01
-4.034742414940796773e-01
-3.916763006493141352e-01
-2.930519356321031887e-01
-1.082165094924582432e-01
7.696179901828929804e-02
1.284426404434364233e-01
-5.827636623092807139e-03
-2.254152489525288461e-01
-3.818837241718417985e-01
-4.301821044507836977e-01
-4.324297899311839721e-01
-4.397539953102878041e-01
-4.315472134143931715e-01
-3.731902566843196545e-01
-2.805782642808747340e-01
-2.002963788472693907e-01
-1.525864534002015493e-01
-1.160390957853282001e-01
-5.898706795784040141e-02
1.947807208181910957e-02
7.790111729441842603e-02
6.391379340960975930e-02
-3.444689589258910500e-02
-1.197167760426757765e-01
4.789551136495712874e-02
6.582533565806355513e-01
1.493465809229760355e+00
1.940168961760548427e+00
1.582449386263742541e+00
6.890413981725110881e-01
-3.854881680798390164e-02
-1.285756501183041856e-01
3.177440375403833284e-01
8.473067776057709999e-01
1.097049093749470128e+00
1.009303321114525476e+00
7.352131906412536777e-01
4.413561325481282216e-01
1.997363279139932335e-01
1.312542454167862915e-03
-1.702934511352068858e-01
-3.047112693078026235e-01
-3.916547925034390421e-01
-4.449014039235668627e-01
-4.842210163653680732e-01
-5.086270247511128773e-01
-5.053219558454884464e-01
-4.802345957244369412e-01
-4.609351551571230221e-01
-4.660740249408765745e-01
-4.854165317830901882e-01
-4.967036927880582597e-01
-4.946076499427928264e-01
-4.926116925938499591e-01
-4.994506133088942867e-01
-5.094140732946832451e-01
-5.066692027341700433e-01
-4.518330950844517968e-01
-2.943555115444082548e-01
-6.220619044412066534e-02
8.420489500870956268e-02
-1.570879296645103299e-02
-3.200877490033204320e-01
-6.025087651831575464e-01
-6.962677971940884891e-01
-6.337243604600431013e-01
-5.359969410877001295e-01
-4.749424509464298949e-01
-4.606139095781400239e-01
-4.724749179304102431e-01
-4.834483552591188338e-01
-4.895785843279230054e-01
-5.043654157006198790e-01
-5.225877046456415265e-01
-5.276906959965247390e-01
-5.243223208925410495e-01
-5.181817463502300658e-01
-4.839992941241027524e-01
-4.216085633641835639e-01
-4.387985158787067186e-01
-6.496546050770365399e-01
-8.665121642897886112e-01
-5.190803029606110286e-01
7.429651668019872091e-01
2.279988314731983934e+00
2.835920108104815096e+00
2.018881380188725760e+00
8.585210149608091257e-01
5.214874738345920413e-01
1.050118335286659432e+00
1.682871790407482360e+00
1.863172534402848024e+00
1.601871325900428689e+00
1.176640674380010188e+00
7.857039202471223227e-01
4.665163884850617726e-01
1.982337891326190482e-01
-9.795944829741713711e-03
-1.286639470705144284e-01
-1.639358123508881659e-01
-1.702195649193099236e-01
-2.066102299904290784e-01
-2.826192546428012431e-01
-3.561812986490402455e-01
-3.885453924156436756e-01
-3.874349834900469580e-01
-3.818634709600440269e-01
-3.760470028953557531e-01
-3.527810271530583131e-01
-3.072014269071607351e-01
-2.650532666751202471e-01
-2.674551893824748117e-01
-3.128429171701267442e-01
-3.169952945650325038e-01
-1.924501378517202155e-01
1.363152522226823010e-02
1.250672625938505644e-01
2.230018718040342393e-02
-2.128037824325962057e-01
-3.840404617299720824e-01
-3.970144206375094686e-01
-3.356826197962664016e-01
-3.240432776064979259e-01
-3.736262809690797937e-01
-4.022130964357066851e-01
-3.615172901544930206e-01
-2.873555041552112166e-01
-2.296453358186641980e-01
-1.842663332790392960e-01
-1.121291085937014265e-01
-4.005619426927694779e-03
8.569427139637593449e-02
6.854950253514410785e-02
-6.669878477933825767e-02
-1.051326183458335811e-01
3.172950552468332130e-01
1.234198248922256713e+00
2.015276921891572481e+00
1.912368748373777017e+00
9.757671749086314072e-01
4.616924635266994592e-02
-1.914164815327066282e-01
1.902609603481563716e-01
6.794318331001003575e-01
9.052594055949148011e-01
8.320690701622650565e-01
6.043465761273896231e-01
3.557191197412172823e-01
1.428175506123447458e-01
-2.482343875993478499e-02
-1.436262866757705703e-01
-2.109258869581184803e-01
-2.489427808074083370e-01
-3.066679319210436350e-01
-4.127592065690662282e-01
-5.392359728412468023e-01
-6.342877560314872376e-01
-6.767014668003948907e-01
-6.774852557710611123e-01
-6.482207130790992311e-01
-5.983642170060347043e-01
-5.502027692410385029e-01
-5.263562850152967432e-01
-5.284190010684368666e-01
-5.437721273367354113e-01
-5.649605824440770974e-01
-5.895551909357663600e-01
-5.987236291520047216e-01
-5.448395479773326944e-01
-3.876052362435207232e-01
-1.671069963372499023e-01
-1.830714664227707511e-02
-6.251451942861564748e-02
-2.805336435048100263e-01
-5.271806760390317370e-01
-6.690453363948228871e-01
-6.837234534104259520e-01
-6.388644151864507625e-01
-6.043915590534575388e-01
-5.863788318540805733e-01
-5.442102560237260800e-01
-4.716393364826231838e-01
-4.248008816417180866e-01
-4.460922623978278434e-01
-5.094907662889521793e-01
-5.717517772802989118e-01
-6.178861462233593560e-01
-6.265783612252999735e-01
-5.636833212659793091e-01
-4.690179951390654467e-01
-4.980994212855578418e-01
-7.431986933129359763e-01
-9.255922818504175309e-01
-4.349009036324431587e-01
9.578425312824857540e-01
2.435999042708485440e+00
2.766824461622832576e+00
1.805830475770455301e+00
7.509173058663014544e-01
6.523873462088650710e-01
1.316770133102864060e+00
1.897531974892148643e+00
1.936068149191954024e+00
1.553424001311665359e+00
1.057306096847231203e+00
6.571078598650617053e-01
4.071889689810496704e-01
2.510871607328215571e-01
1.186646560166177838e-01
-5.397100980441535412e-03
-1.055129247410790949e-01
-1.789103639636511756e-01
-2.303286376796108703e-01
-2.575568737281017095e-01
-2.649720067261145395e-01
-2.703042012618744883e-01
-2.849718185281656657e-01
-3.014492334296812182e-01
-3.018393881994336780e-01
-2.776058514628153562e-01
-2.518956925865592500e-01
-2.688237564403115343e-01
-3.335988384452102662e-01
-3.707204549803050364e-01
-2.780128068852632528e-01
-5.468572330146492105e-02
1.401049747449474303e-01
1.227652157739488881e-01
-1.061473493586309880e-01
-3.532438182415542083e-01
-4.446490186281745194e-01
-3.859644182249408750e-01
-3.036727265619728611e-01
-2.864625399298441621e-01
-3.138719752328694157e-01
-3.184759456522837651e-01
-2.763674483856396469e-01
-2.142071897517437984e-01
-1.570923512971367231e-01
-1.107084354610013421e-01
-7.427482026637566292e-02
-2.885710460360364077e-02
5.396619086275374760e-02
1.374341108344954154e-01
1.172092585284499056e-01
1.191601961633726413e-02
1.075415626445856004e-01
6.989185953614391877e-01
1.612611683436767418e+00
2.190395456195648904e+00
1.926366798306512029e+00
1.029427521575054572e+00
2.166490642000633016e-01
9.245566349091634273e-04
2.886228287765351674e-01
6.386413377694668547e-01
7.519187703273449985e-01
6.299135505321682427e-01
3.957528826675252853e-01
1.420861015363303337e-01
-6.808354023291797452e-02
-1.986804531569293930e-01
-2.705878140542047339e-01
-3.332123231227913651e-01
-4.087912864650664613e-01
-4.869848149159649031e-01
-5.475533102375320649e-01
-5.746864972376007907e-01
-5.672716790243212959e-01
-5.442861477130207515e-01
-5.327083700065313732e-01
-5.421345870129975486e-01
-5.542165001075582964e-01
-5.430635160271091166e-01
-5.061347404349904044e-01
-4.718695177881965797e-01
-4.742240359001088645e-01
-5.181108966482576017e-01
-5.598543668249654770e-01
-5.189333910084495960e-01
-3.444822461137398428e-01
-9.919539212474370871e-02
5.669725960130085618e-02
5.892288971686972937e-03
-2.107497898922552348e-01
-4.364819613379672947e-01
-5.506690135128986530e-01
-5.638281900257158252e-01
-5.576821331553446504e-01
-5.691439308190771040e-01
-5.738604056147208476e-01
-5.520350903988183733e-01
-5.167282134300481555e-01
-4.878686904984130268e-01
-4.751828101678374772e-01
-4.859718096290439049e-01
-5.280434765521841989e-01
-5.937369411525215135e-01
-6.435495100609449626e-01
-6.291155291862899901e-01
-5.703889409817286538e-01
-5.957592429655110822e-01
-7.832133570830024372e-01
-8.630726242794095615e-01
-2.678273145214257189e-01
1.149703819758940426e+00
2.523640376881990832e+00
2.705511281379453958e+00
1.695569950861766539e+00
6.969512921223124380e-01
6.340493151168928865e-01
1.262470402459721974e+00
1.804908414917922199e+00
1.861184710764933081e+00
1.545041864957402034e+00
1.117083424384039292e+00
7.219446015678858686e-01
3.919076174102032462e-01
1.370537813446478237e-01
-3.013058219522825321e-02
-1.185947081787068758e-01
-1.644867860522971625e-01
-2.090107220817553624e-01
-2.696375647834942102e-01
-3.277997714207454560e-01
-3.520922102001589060e-01
-3.382964509027952538e-01
-3.167376075087793286e-01
-3.140431073352972224e-01
-3.189490712333167277e-01
-3.024611398935729834e-01
-2.671797894716388955e-01
-2.536716048841333171e-01
-2.840488635817715601e-01
-3.039777869946316269e-01
-2.158309472436310827e-01
-8.888885357789123864e-03
1.744118877347450580e-01
1.668757700450655690e-01
-3.984781686771699666e-02
-2.893879210932314705e-01
-4.237864972750162718e-01
-4.113481185841991739e-01
-3.277653949614686146e-01
-2.554728954430504073e-01
-2.163167628218549132e-01
-1.891430409564130721e-01
-1.657360328845533803e-01
-1.594467771498248310e-01
-1.567800489645688189e-01
-1.000663753178637622e-01
4.220012182381711885e-02
2.009494416848803255e-01
2.440686697107701808e-01
1.131203235865212292e-01
-4.437772180397650534e-02
1.062943126629904422e-01
7.685288527375229162e-01
1.604626472123426240e+00
1.870407709161830745e+00
1.208294410942045483e+00
1.465057268605713392e-01
-4.306027751768787826e-01
-1.825413400476390280e-01
4.906997782375261963e-01
9.993508468680081247e-01
1.091699149655334322e+00
8.827280333814530033e-01
5.818448679029123438e-01
3.074481676862707569e-01
9.154848153383220166e-02
-6.274730366870347187e-02
-1.668034280978789585e-01
-2.451813737495819878e-01
-3.149985999365346179e-01
-3.738866954317762170e-01
-4.158481357951396840e-01
-4.479605437863827255e-01
-4.859323632412570482e-01
-5.373316477679720427e-01
-5.864412096535873697e-01
-6.005203483714114387e-01
-5.660506709541428538e-01
-5.113624211216677429e-01
-4.770317725612116533e-01
-4.717434222641495589e-01
-4.734438275113345695e-01
-4.734498568310977484e-01
-4.953599019832229944e-01
-5.416255568437857715e-01
-5.364945178193754050e-01
-3.883314957339211171e-01
-1.382244280982685702e-01
2.394394840709676564e-02
-4.303292264717578641e-02
-2.677088365850646134e-01
-4.631399083969186536e-01
-5.390264252055166905e-01
-5.454629864751080470e-01
-5.529084012750978827e-01
-5.781571882318777833e-01
-6.084526683333463248e-01
-6.268714938324644326e-01
-6.176564255098913048e-01
-5.855228908183102154e-01
-5.720176929388151033e-01
-6.278623122617525976e-01
-7.435302423962003582e-01
-8.260207112205832924e-01
-7.876589373690581208e-01
-6.446449781990719607e-01
-5.213413040681551536e-01
-5.805644618904185483e-01
-8.357189389996007023e-01
-9.056887421308079666e-01
-1.919805547424843495e-01
1.319062223953278989e+00
2.606735741114193594e+00
2.572769644230609387e+00
1.434627039205653265e+00
5.165159590714473170e-01
6.413877812684911639e-01
1.380313520996707011e+00
1.886964317759395104e+00
1.839424362336293139e+00
1.451780913205382717e+00
1.009567713727286931e+00
6.230705254929150838e-01
2.880942378648700397e-01
8.969246961210708413e-03
-1.795963159243110507e-01
-2.678082273961984727e-01
-2.957547302927789334e-01
-3.128930784166733536e-01
-3.366470164607418547e-01
-3.562695911642956292e-01
-3.600305924683936398e-01
-3.571432108540308903e-01
-3.771011764738174676e-01
-4.348527593849719763e-01
-4.970766783299670477e-01
-5.069511297399269534e-01
-4.498431411090070831e-01
-3.761268505882874313e-01
-3.416779136607897005e-01
-3.264940444344210935e-01
-2.427175699483588023e-01
-5.841309232902693049e-02
1.121849704228692762e-01
1.091588700431964654e-01
-8.097795992191775261e-02
-3.008519070991810263e-01
-4.039264615006709636e-01
-3.946600558267072678e-01
-3.594805579209038315e-01
-3.252923862330255322e-01
-2.521927882667390208e-01
-1.379678104338871170e-01
-5.228824687828046575e-02
-4.843925433850259504e-02
-8.991297328403270728e-02
-8.843043804475742009e-02
6.051926569009134088e-03
1.478154639017474348e-01
2.164358114274133327e-01
1.562891528637799787e-01
1.501993856834725194e-01
5.390466355073340043e-01
1.374942714868577776e+00
2.118842014126933737e+00
2.081567223223815155e+00
1.215963043250710252e+00
2.204219918765668307e-01
-1.928566984621214453e-01
6.895610889782650965e-02
5.814104467386177477e-01
9.109014788147877795e-01
9.187313117311211030e-01
6.994663961242948425e-01
4.057159670370507620e-01
1.589502462323367782e-01
1.126960463566859319e-02
-7.104950446706163880e-02
-1.524430399592933971e-01
-2.526050524538914765e-01
-3.452312373805201395e-01
-4.066019502747536540e-01
-4.398647756190515734e-01
-4.617487793082237779e-01
-4.845529100656270627e-01
-5.125219221553805049e-01
-5.404043703526641984e-01
-5.524528356528923823e-01
-5.361475955438669283e-01
-4.967330195283473082e-01
-4.508811498876029167e-01
-4.136665322543738310e-01
-3.987982160183052294e-01
-4.198727670758382602e-01
-4.721650485716125112e-01
-5.075355158690583179e-01
-4.466116401987578199e-01
-2.569307288158060865e-01
-3.438880106930065905e-02
4.803765591101162580e-02
-8.436830857601623768e-02
-3.271909030745425717e-01
-5.142108289610650695e-01
-5.638660345273723840e-01
-5.037478289262021791e-01
-4.194401334209404975e-01
-3.969610267337346787e-01
-4.604234304861073435e-01
-5.530048332789444521e-01
-6.039425497984408642e-01
-5.964590131232659909e-01
-5.609635530753126487e-01
-5.376152703075195438e-01
-5.516622645028790295e-01
-5.938570909286271515e-01
-6.173574623326162358e-01
-5.844619922080831476e-01
-5.479092725125771501e-01
-6.479557718027512125e-01
-8.976126392803545073e-01
-9.183509150318239778e-01
-1.430174568852994599e-01
1.389755216799950732e+00
2.652692337017475754e+00
2.616809789459357827e+00
1.542001476462740550e+00
6.635230178760351816e-01
6.955092519683711005e-01
1.260076773302863717e+00
1.660069068794267189e+00
1.625906884499189298e+00
1.303041864162492347e+00
9.125402833008813275e-01
5.736648428986268478e-01
3.226211524585570478e-01
1.589023735724568176e-01
4.631426405207784286e-02
-6.925445039610021725e-02
-1.987787071545256135e-01
-2.930753424562470011e-01
-3.104566835875241515e-01
-2.751108389037373869e-01
-2.530255022043286228e-01
-2.862553548005467574e-01
-3.549261033892614492e-01
-4.030085755246827772e-01
-4.043539052290584523e-01
-3.871813820235649461e-01
-3.885989430956861557e-01
-4.086876210446372948e-01
-4.105712523519611801e-01
-3.435429265843604196e-01
-1.762136251031306278e-01
5.076320658467856073e-02
2.034985670243677214e-01
1.510277048971787883e-01
-8.657703989375348241e-02
-3.361385742360339934e-01
-4.440404006887283539e-01
-4.145049134088657494e-01
-3.630902185588575359e-01
-3.697991775755341548e-01
-4.041776603258828704e-01
-3.859590470222480918e-01
-2.923676094528797065e-01
-1.812425991796803582e-01
-1.159691763443371632e-01
-9.679701968400615530e-02
-6.966071110397800692e-02
8.750555845983373771e-03
1.073064233738176693e-01
1.320096678805067203e-01
6.369318804862805772e-02
1.066711979690707635e-01
5.680965440083036722e-01
1.429729857556360173e+00
2.129656559315219244e+00
2.028098463295657350e+00
1.122477454700280264e+00
1.155653585520760862e-01
-2.699025628785289843e-01
6.360158601310555992e-02
6.382207818844564118e-01
9.601618624294268045e-01
9.162782009616572410e-01
6.878131281926048723e-01
4.555826136299114815e-01
2.628373558076378402e-01
8.476330991339756094e-02
-7.778464700147572075e-02
-2.040349452650826734e-01
-2.973121736130707182e-01
-3.746268264707987017e-01
-4.342203042331471141e-01
-4.632621323832594173e-01
-4.628676622517483574e-01
-4.513012595022266593e-01
-4.500491961353935144e-01
-4.693404700166976529e-01
-5.040267305128343089e-01
-5.399743978596446281e-01
-5.605025922447950393e-01
-5.527442327101550479e-01
-5.172079606783110961e-01
-4.711706406910403100e-01
-4.361245952046641228e-01
-4.050212701885023137e-01
-3.220638283177254535e-01
-1.473875933977410735e-01
3.697804669050157311e-02
6.573154224561818249e-02
-1.188175592941186354e-01
-3.859301542970682841e-01
-5.643231246528734868e-01
-6.062031536188795533e-01
-5.770663054711534512e-01
-5.480081417327398174e-01
-5.456589223661271193e-01
-5.746547720662784631e-01
-6.289644350323192468e-01
-6.682175997752015650e-01
-6.319383890518165403e-01
-5.203861666468024838e-01
-4.280563762908244363e-01
-4.412007907293924447e-01
-5.263090763813701445e-01
-5.728917355141645018e-01
-5.329392300161646112e-01
-5.004005531805378881e-01
-6.426644529200765676e-01
-9.430323118370871338e-01
-9.536940726040332716e-01
-8.533038196475782600e-02
1.529939119839204720e+00
2.743471960396772324e+00
2.549053059527703891e+00
1.373245406708016425e+00
5.530112270884657288e-01
7.090459917968123804e-01
1.308145295942022779e+00
1.632193316082893864e+00
1.517691070968114175e+00
1.190987162711857783e+00
8.562218418235131301e-01
5.674286053050473511e-01
3.133114007026746028e-01
9.357075862973859848e-02
-7.830420250739587862e-02
-1.951740615296244652e-01
-2.641245638120892081e-01
-3.069308113323647169e-01
-3.505360607435620279e-01
-4.026058763245659589e-01
-4.395913458879585622e-01
-4.345890614514029138e-01
-3.934973361459698782e-01
-3.500773167966199084e-01
-3.297125648271010401e-01
-3.251473018111954438e-01
-3.108036471852945182e-01
-2.885922174076618885e-01
-2.960302865664090621e-01
-3.309776686072646856e-01
-3.066974006098492911e-01
-1.564114599091308011e-01
3.801255762772387525e-02
1.028422123507929942e-01
-3.376169440793218984e-02
-2.631839640234893141e-01
-4.258968309407465958e-01
-4.644539204952118916e-01
-4.247287792791771821e-01
-3.668050877316769709e-01
-3.196222440326334513e-01
-2.870480008585284404e-01
-2.569559884253871940e-01
-2.089148802119432657e-01
-1.311770667924783418e-01
-3.406630727239198103e-02
5.935720321225625151e-02
1.228480295905401698e-01
1.110926036550327622e-01
-1.090369186255477074e-03
-6.773416656029457306e-02
2.492641248555799716e-01
1.098648120613300971e+00
2.026002919141809855e+00
2.264789791488083015e+00
1.574490416008432314e+00
5.349117526311074622e-01
-9.525854458119741019e-02
-8.305769985790494025e-02
2.725637127149008188e-01
5.850039938554291163e-01
6.788084116683046343e-01
5.822104314794934732e-01
4.015890474902704121e-01
2.195098861206594698e-01
5.622174674760465479e-02
-9.800557596348194456e-02
-2.389689680340743583e-01
-3.509959702771353607e-01
-4.261530203348379287e-01
-4.665876081173261913e-01
-4.798828066583907259e-01
-4.721001807048934573e-01
-4.479826573775494425e-01
-4.233386427671260721e-01
-4.210219797092495386e-01
-4.497604219659475100e-01
-5.016386232226812680e-01
-5.619658461591573451e-01
-6.073024573689339567e-01
-6.102562032095077971e-01
-5.660958896265433360e-01
-5.104330041377023175e-01
-4.897640479477650133e-01
-4.945156792205037677e-01
-4.372925888741454603e-01
-2.514428910507111037e-01
-2.251991952510557643e-02
5.069933476399528932e-02
-1.253470642096812804e-01
-4.174550027835875476e-01
-6.122593279554636725e-01
-6.305144001557492217e-01
-5.518573007943342601e-01
-4.843729153473761428e-01
-4.700677589428908232e-01
-4.915858969996904637e-01
-5.151630615535433000e-01
-5.207043641953106317e-01
-5.107168926511540530e-01
-4.954220770998298273e-01
-4.780703504761158462e-01
-4.631868889888953733e-01
-4.580789777612199187e-01
-4.513188351796003639e-01
-4.221811372477703994e-01
-4.103771853376568246e-01
-5.351904769262689765e-01
-8.040039342427159896e-01
-8.463954474006972761e-01
-1.083722826635823838e-01
1.355479710717302444e+00
2.528538074915891887e+00
2.453000001102700889e+00
1.462563082624140698e+00
7.601469200269732607e-01
9.338326144289579300e-01
1.519514778219056561e+00
1.845252390387993158e+00
1.718876655176787116e+00
1.333575624754962163e+00
9.128650759511438562e-01
5.599546508480509610e-01
2.960417187369180358e-01
1.172797610893757392e-01
5.677420055493126450e-03
-6.794885368578282292e-02
-1.246396353363382337e-01
-1.695797969973534824e-01
-2.088657738527305296e-01
-2.559186255550210398e-01
-3.076976349006305123e-01
-3.333195867318837768e-01
-3.103202161332507814e-01
-2.640304327362635872e-01
-2.535317835313882218e-01
-3.157046048423471363e-01
-4.210314225074638927e-01
-4.941891433898245034e-01
-4.869401385024440532e-01
-3.993934320389452841e-01
-2.356564072613173133e-01
-2.259358495410198481e-02
1.286346222822227214e-01
9.231992836125925417e-02
-1.163484276036362980e-01
-3.351652795954142006e-01
-4.225031434899700344e-01
-3.789364717425002249e-01
-3.000003907292328464e-01
-2.663856450415869048e-01
-2.960817868724004431e-01
-3.549825698794446538e-01
-3.840467835962507737e-01
-3.403885936079344976e-01
-2.391413967399988183e-01
-1.418210733667119028e-01
-8.452803212030837732e-02
-3.918243561729568836e-02
2.810431494688819462e-02
7.673335194383326674e-02
2.585721985739657114e-02
-6.902365665601589706e-02
9.209665939734192064e-02
7.996945102312881248e-01
1.847918152163237071e+00
2.476846770554967492e+00
2.072647472484118847e+00
9.057887995179584317e-01
-7.084530587639581434e-02
-2.057465179982514991e-01
2.837882810461057614e-01
7.564666295652641148e-01
8.594997072969363661e-01
6.711003588409196752e-01
3.961034471581763583e-01
1.463283856361947965e-01
-4.849666019770518949e-02
-1.800163259956945039e-01
-2.581613405828014352e-01
-3.157104726094835945e-01
-3.836003547685233883e-01
-4.685052764610278531e-01
-5.525388058259390611e-01
-6.074288012684269100e-01
-6.159785580229661939e-01
-5.847067784858135386e-01
-5.329811873736123307e-01
-4.786442439426106255e-01
-4.431869879574303339e-01
-4.499064632090791216e-01
-4.925823971486205100e-01
-5.276252363306381810e-01
-5.273682195126626615e-01
-5.123274382386259207e-01
-4.896345810946611810e-01
-3.994342297777618289e-01
-2.005361476614105909e-01
6.672000654290868860e-03
4.166534454874571552e-02
-1.488067428774842438e-01
-4.216024282229605680e-01
-5.993832944261179296e-01
-6.369130458656961924e-01
-6.025003532692236874e-01
-5.585009003630103663e-01
-5.153364136588617361e-01
-4.756555342285757049e-01
-4.597089494706717572e-01
-4.754384293185560106e-01
-5.009487956853995172e-01
-5.137057569683295410e-01
-5.193223773244090014e-01
-5.374439737199547817e-01
-5.633669402661227732e-01
-5.561986640148387506e-01
-4.903444494893793304e-01
-4.388500969220385795e-01
-5.496320873640911930e-01
-8.002165436696929701e-01
-7.564214452248625431e-01
1.246356552418118879e-01
1.660321491094415736e+00
2.729893971729369984e+00
2.449724535340748410e+00
1.326765622211588891e+00
6.302062475165737254e-01
8.718115257662768514e-01
1.502975456818633981e+00
1.840174106928074149e+00
1.716163029071185342e+00
1.335177667658366651e+00
9.157943714214331621e-01
5.580726404398501650e-01
2.839047217139326063e-01
8.895567048835491264e-02
-4.043684698847366255e-02
-1.205520197577431146e-01
-1.645813004699216153e-01
-1.882890321525367283e-01
-2.169276045077598303e-01
-2.703090632530805726e-01
-3.368734467354233542e-01
-3.773381933687175449e-01
-3.670919081685964924e-01
-3.281150747810270274e-01
-3.014018024186959077e-01
-2.963001361388282184e-01
-2.985120654692317577e-01
-3.131467127392896233e-01
-3.415845719714848405e-01
-3.226302070831574276e-01
-1.787029361892989998e-01
4.942710380900090794e-02
1.843847196245931574e-01
9.078747383351319644e-02
-1.640022566595563114e-01
-3.840983519560868253e-01
-4.504646325900908965e-01
-4.008065051521545463e-01
-3.357635762744485275e-01
-3.141760862902456819e-01
-3.418832738935776439e-01
-3.897950118455951740e-01
-3.812239562432907514e-01
-2.309269754511496242e-01
2.718848836680132913e-02
2.175792964488337256e-01
2.191594946840779989e-01
9.999133550081806820e-02
-2.584701018253884527e-02
-1.214147792077779064e-01
-7.533627676541693186e-02
3.685969042173531385e-01
1.242839652358807667e+00
2.014519889130961694e+00
1.990811701263925704e+00
1.129323816433644767e+00
1.429371363927698091e-01
-2.661322545253390071e-01
-2.706816837237523143e-02
4.545612125196031306e-01
7.880148631047964036e-01
8.326829718807395864e-01
6.431057754387079495e-01
3.562337501488922475e-01
1.083263855594186892e-01
-3.510228129556390575e-02
-1.043364657597052603e-01
-1.728256095018624316e-01
-2.767321444045052203e-01
-3.901175311712279381e-01
-4.742570741457035610e-01
-5.303592793537644789e-01
-5.852618207204060008e-01
-6.395821787809562453e-01
-6.625698945688870412e-01
-6.389215203545638433e-01
-5.909659433347663748e-01
-5.511557022100080916e-01
-5.347386453814375606e-01
-5.330517197601462032e-01
-5.198098538287077020e-01
-4.836879559355256042e-01
-4.553796824624686268e-01
-4.658947947230193121e-01
-4.801348397449115568e-01
-4.141889741255599389e-01
-2.367558354243616270e-01
-4.137991746443106522e-02
1.349576852638559310e-02
-1.339699839587959462e-01
-3.719966859099298473e-01
-5.413368260549749067e-01
-6.025040812575189753e-01
-6.240039421171119649e-01
-6.529014591358032193e-01
-6.713561523023094946e-01
-6.557420115429171137e-01
-6.173877520938499952e-01
-5.867157285783742848e-01
-5.829143259107579800e-01
-6.011016294829586437e-01
-6.272937943866648824e-01
-6.561154488062352907e-01
-6.755236225465333089e-01
-6.524331793805615565e-01
-5.822237330087512985e-01
-5.618975457454757905e-01
-7.265807002609497856e-01
-9.729861902092828974e-01
-7.904552817236688567e-01
2.803799735386865999e-01
1.828643931171235915e+00
2.653112233896238070e+00
2.106910389094460268e+00
9.748793231548564808e-01
5.107070969899071278e-01
9.945837892109870015e-01
1.718200853637184222e+00
2.001569029050158655e+00
1.753516702081182821e+00
1.257013113954135619e+00
7.878881245994118210e-01
4.527144466795867128e-01
2.293506196082643889e-01
7.046776903496479449e-02
-4.496932230846864553e-02
-1.243000403389747099e-01
-1.752691353680549957e-01
-2.003073712998116040e-01
-2.026652623893997474e-01
-2.026455800976199040e-01
-2.250840659999052140e-01
-2.695243975833024330e-01
-3.122102628541839620e-01
-3.296933304108870533e-01
-3.097595983865634728e-01
-2.631307425451659410e-01
-2.300471574189826285e-01
-2.425958699233642657e-01
-2.705021348824879213e-01
-2.306382369960679746e-01
-8.302791057486931525e-02
8.234224600041255282e-02
1.120495057024069596e-01
-3.446394419203985260e-02
-2.393156237772192940e-01
-3.660902892121504770e-01
-3.781268246660553500e-01
-3.231051065639793940e-01
-2.625844648702759798e-01
-2.288694456810861921e-01
-2.200266416277315007e-01
-2.146286352125823527e-01
-1.946940872415276469e-01
-1.612612051992615980e-01
-1.210817672197656292e-01
-6.108940806056793044e-02
3.816801684216192259e-02
1.482460114574239707e-01
1.830263355731303887e-01
1.110097228843368450e-01
1.079330019060835838e-01
4.908165573519335800e-01
1.321684362594604423e+00
2.108186400386722337e+00
2.169013113757114919e+00
1.387435598185548624e+00
3.844688383026990675e-01
-1.317391800798868307e-01
1.392182424013822806e-03
4.396544510567845232e-01
7.754942705965544025e-01
8.386069237039566193e-01
6.854219802603037648e-01
4.424322829282817393e-01
1.966538255974861482e-01
-1.300546432125201587e-02
-1.659584817741842910e-01
-2.513243537939956473e-01
-2.819798249490382269e-01
-3.062363444701382553e-01
-3.806933666232560909e-01
-5.005213733999800407e-01
-5.840589633558215255e-01
-5.725762022331564172e-01
-5.086927707534599774e-01
-4.747805835516530903e-01
-4.975663503954288469e-01
-5.380223097470849813e-01
-5.392174723120823909e-01
-4.808712217816681345e-01
-4.086851822270700652e-01
-3.971588412715320038e-01
-4.689779242041486884e-01
-5.629711142228088772e-01
-5.820397457743703429e-01
-4.649129011336045059e-01
-2.414396958668471593e-01
-4.616356626218769132e-02
-3.001172381772011094e-02
-2.073283490871012102e-01
-4.303630781397102534e-01
-5.538049086485242745e-01
-5.750571064493191775e-01
-5.805927819175875637e-01
-6.157132092604663542e-01
-6.558731740883921857e-01
-6.661334509803367165e-01
-6.403827277071081348e-01
-5.930202595768551133e-01
-5.441272671523582627e-01
-5.175786563057822587e-01
-5.332345709746789675e-01
-5.857412995866476679e-01
-6.335001203215931964e-01
-6.213125410708449925e-01
-5.429096310905987544e-01
-5.031654840262264061e-01
-6.551536119475265263e-01
-9.326792968703128128e-01
-8.449625669882286916e-01
1.358774650026355890e-01
1.715831103276299840e+00
2.692388673959893453e+00
2.261026544747464673e+00
1.078772601905746642e+00
4.477112581268269942e-01
7.960489971378311713e-01
1.503086522087977439e+00
1.864704342787922187e+00
1.716254133343779964e+00
1.283445088118174482e+00
8.273189871847067556e-01
4.814353755964310144e-01
2.494333375703288169e-01
7.057774281569850761e-02
-8.835938375501312114e-02
-2.044798185186961770e-01
-2.612610990836010116e-01
-2.860507759346331280e-01
-3.054668571024132251e-01
-3.137254961376427231e-01
-3.034249716592062329e-01
-2.882689186475370091e-01
-2.831606143383299523e-01
-2.867547494547499354e-01
-2.897839888744207504e-01
-2.894772506602059092e-01
-2.928610859626095131e-01
-3.057317872549921156e-01
-3.126248145884359952e-01
-2.658777618105666041e-01
-1.198551552680308663e-01
8.737994565553593163e-02
2.094558997200164641e-01
1.199129696577953957e-01
-1.302832454929382655e-01
-3.494406328652958083e-01
-4.090751433528990177e-01
-3.505398029444928842e-01
-2.840547884405131285e-01
-2.567823273235161352e-01
-2.465442943630258010e-01
-2.249290439537473540e-01
-1.877421090271612913e-01
-1.436709946780109493e-01
-9.358079827662953154e-02
-2.668561602885807793e-02
5.677589162583274868e-02
1.156114545885136152e-01
8.119481548983061014e-02
-2.942354590636954773e-02
1.975600866880010062e-02
5.486623130892640532e-01
1.478886617574025841e+00
2.105560183185009926e+00
1.731563642095337974e+00
5.573160277593132150e-01
-4.193294275465237475e-01
-4.597411283636223533e-01
2.404078245162283300e-01
9.567553964256145793e-01
1.217083086190938079e+00
1.063092072797878984e+00
7.654638281968451086e-01
5.042670533174055114e-01
3.027262584503684906e-01
1.262956609640303041e-01
-3.194747270895952757e-02
-1.518247629690696043e-01
-2.256817801044419813e-01
-2.677235169050606323e-01
-2.932560287852033487e-01
-3.103881598277824505e-01
-3.291233426711844823e-01
-3.604687448748802314e-01
-4.092445621176095671e-01
-4.810530877779827796e-01
-5.765556005924306060e-01
-6.554446477954285477e-01
-6.447994419445729486e-01
-5.286905149873878385e-01
-3.926237284834586672e-01
-3.352496666043106588e-01
-3.704830144264297798e-01
-4.361752301688862077e-01
-4.500377219571891629e-01
-3.495160111651066104e-01
-1.445447726867482574e-01
4.351182376363155191e-02
5.907434152375118375e-02
-1.275260017338228080e-01
-3.749337508019519594e-01
-5.159770750632250991e-01
-5.154883074574818647e-01
-4.641277853370864848e-01
-4.547063466719171165e-01
-4.985448275383820849e-01
-5.485551864209391448e-01
-5.730832604889362081e-01
-5.855075262379926260e-01
-6.011526408632121843e-01
-6.000566112431723331e-01
-5.648055563379464905e-01
-5.355135489247162539e-01
-5.762105295385829828e-01
-6.689312759452160639e-01
-7.064239358607697916e-01
-6.674817792062294197e-01
-7.121125032730324378e-01
-9.003963942090131845e-01
-8.344691418490697288e-01
6.469137013338895070e-02
1.661896597912648765e+00
2.824289476851779224e+00
2.575442655368952227e+00
1.345886599761008551e+00
4.691707466547584415e-01
5.976413549137200576e-01
1.219436380248549945e+00
1.583933610008446680e+00
1.509391641177599386e+00
1.256927722221371280e+00
1.020533932363925533e+00
7.443201291420290522e-01
3.415474209063892319e-01
-8.739487423256130094e-02
-3.421579646822253129e-01
-3.658767790495232042e-01
-3.013819907669726961e-01
-3.092893154705133041e-01
-4.037107469302930740e-01
-4.786725571095198362e-01
-4.514476964301564754e-01
-3.556842954783073218e-01
-2.935190778585217708e-01
-3.148246529039650521e-01
-3.734269903263421897e-01
-4.029298922028302088e-01
-4.027244213007692419e-01
-4.213804873940283358e-01
-4.634499024124444366e-01
-4.527960569314429806e-01
-3.151403756031350145e-01
-8.189142952799255415e-02
1.173055261456090737e-01
1.695461255770454312e-01
6.373147467106334008e-02
-1.340203038323393991e-01
-3.380560217695618985e-01
-4.692268923480868437e-01
-4.857666441741278485e-01
-4.168419282203993381e-01
-3.378223200788450509e-01
-2.961671919193671343e-01
-2.760212390469614085e-01
-2.444205135911054205e-01
-2.031878837164955431e-01
-1.641403008658442464e-01
-1.043897904504275526e-01
-5.900305678128594730e-03
7.038943505242627185e-02
4.022357817740980501e-02
-7.504902509216020839e-03
2.441286596559965050e-01
9.938479050158811612e-01
1.892428497935388032e+00
2.224312370385809867e+00
1.667331355833127082e+00
6.721758281804325330e-01
-3.223883045767576838e-02
-1.283592855148490142e-01
1.732790097238676441e-01
5.024038762959330828e-01
6.523627082282318357e-01
6.161529481393481777e-01
4.678252885428882957e-01
2.731261980132510536e-01
7.092426729592321566e-02
-1.149390066137977312e-01
-2.654981892105534591e-01
-3.696199865343856028e-01
-4.278044072677901211e-01
-4.459150965949890688e-01
-4.352519023158037959e-01
-4.204462482300022619e-01
-4.297524056367966194e-01
-4.678441929690640988e-01
-5.069511784326912185e-01
-5.186275380352379782e-01
-5.095057090334988992e-01
-5.064108710511910916e-01
-5.104530983569481872e-01
-4.902228654377515094e-01
-4.285375048439532542e-01
-3.614468270222563895e-01
-3.450548815340820363e-01
-3.714387856997930504e-01
-3.456238135014698676e-01
-1.925862435963265895e-01
9.184463980985433859e-03
6.370616601549741742e-02
-1.220630581316972385e-01
-4.048753550414877500e-01
-5.634390316466947324e-01
-5.419784362702709801e-01
-4.589502188019611295e-01
-4.264360857937695148e-01
-4.530067933365619082e-01
-4.993325463887922089e-01
-5.403430480580719841e-01
-5.572342540947309297e-01
-5.278544289845642501e-01
-4.563889569456467399e-01
-3.882381971008905808e-01
-3.754768126041557186e-01
-4.257613393606566876e-01
-4.846009509742204013e-01
-4.895347294981403641e-01
-4.755136413542786489e-01
-5.863377923285583160e-01
-8.480451527955741309e-01
-8.923016419114688791e-01
-1.580492418931533638e-01
1.326888335180117506e+00
2.568555720218902216e+00
2.561948696984328144e+00
1.555393098319716394e+00
7.522276892687856931e-01
8.373981255560702941e-01
1.421106977534049909e+00
1.819099841836701481e+00
1.778691218322394185e+00
1.440710655707457821e+00
1.019574932998854377e+00
6.513338266280166433e-01
3.846523287253281742e-01
2.031403198607412142e-01
6.475524545237969221e-02
-5.730154550443807004e-02
-1.645249713146282322e-01
-2.512158697380861838e-01
-3.178961233167610367e-01
-3.617685598877721231e-01
-3.723421292622919321e-01
-3.527804610597462531e-01
-3.282702265920491858e-01
-3.190461131683747231e-01
-3.200655381490197793e-01
-3.180557949090104253e-01
-3.207241523425967689e-01
-3.552198926109334520e-01
-4.217271417578840054e-01
-4.478458407667337826e-01
-3.323789936510281873e-01
-8.221480071098671849e-02
1.296474740022786898e-01
1.191311497153572929e-01
-1.065912629914846504e-01
-3.628169532332135017e-01
-4.864973942225990222e-01
-4.666125915941616853e-01
-3.945944877202166579e-01
-3.471289792336058611e-01
-3.336397992318436145e-01
-3.248061575916161292e-01
-2.961583323755339614e-01
-2.414502842119542469e-01
-1.722723765600590040e-01
-1.153577985887161150e-01
-8.581277705965011104e-02
-5.914641982577844431e-02
-2.962940449854963888e-03
5.364943912638894807e-02
3.159927698189431144e-02
-4.305520268641992859e-02
8.808202267365013161e-02
7.088327636289124545e-01
1.668141148215204428e+00
2.297612972734589754e+00
2.028508365931249280e+00
1.044015863155209667e+00
1.322047354636579630e-01
-1.030265165530618726e-01
2.525439547499478965e-01
6.897746603986010250e-01
8.509193463831014048e-01
7.425127072745368872e-01
5.306649339279359001e-01
3.116349047513039539e-01
8.763043692583676048e-02
-1.405055160436238237e-01
-3.258564455942590810e-01
-4.205642766460034321e-01
-4.380417040783651794e-01
-4.416205993363884197e-01
-4.758337730865450088e-01
-5.303319425986150470e-01
-5.663428066670446182e-01
-5.630970162814548097e-01
-5.390380246572192835e-01
-5.320647027402957141e-01
-5.631317198851463202e-01
-6.160833469622825076e-01
-6.447753247313570135e-01
-6.142711207913003069e-01
-5.462351707839420145e-01
-5.000325834965799743e-01
-4.928880097003306426e-01
-4.560665625548488422e-01
-3.064780820369786829e-01
-8.176495657884511048e-02
4.433085480683968821e-02
-6.044637906446853615e-02
-3.280611505612113787e-01
-5.587276722901632908e-01
-6.186485981788620858e-01
-5.406905490994349250e-01
-4.560962937152965857e-01
-4.539401621709047707e-01
-5.139137067148534799e-01
-5.660714967756106386e-01
-5.804709180874593200e-01
-5.771846343843222149e-01
-5.770016660741185133e-01
-5.787558157641504719e-01
-5.790116354213349359e-01
-5.794658483155739059e-01
-5.638489828106370005e-01
-5.039681808840843491e-01
-4.360313765112360240e-01
-5.036653519097865628e-01
-7.855790179797205175e-01
-9.800127131963227711e-01
-4.545204405660350222e-01
1.001487571893811213e+00
2.516193843655571527e+00
2.836048407193479726e+00
1.850050364335606101e+00
7.687798356178108250e-01
6.161989400657507110e-01
1.208048425023165562e+00
1.748832426317042055e+00
1.802218058340727680e+00
1.470178531454427118e+00
1.033360643002811941e+00
6.755581463805445663e-01
4.401575957831622699e-01
2.854875173332649951e-01
1.483858797306128186e-01
-6.627116470709067814e-03
-1.648798699580245053e-01
-2.820109457854620416e-01
-3.388744746635606875e-01
-3.594160734433630155e-01
-3.615009479974657380e-01
-3.371930583293064054e-01
-2.959708711270086501e-01
-2.697690964428140492e-01
-2.691767682878393186e-01
-2.789835912351559810e-01
-2.912701994151151164e-01
-3.164347109489328291e-01
-3.577486483758337554e-01
-3.713389830977695261e-01
-2.758116512100876605e-01
-5.647217206670775841e-02
1.554180623352930390e-01
1.900729059214373851e-01
2.732755231007730212e-02
-1.933842880110634155e-01
-3.368280523199619902e-01
-3.786014202416619900e-01
-3.691037101064791881e-01
-3.571277019225992388e-01
-3.527296998682796225e-01
-3.322215352543714806e-01
-2.713491284817551863e-01
-1.801355549662352340e-01
-1.002365452061149548e-01
-6.022175580778234977e-02
-3.725785022550253539e-02
1.653811292685217899e-02
8.742324269458677521e-02
7.350440704685282101e-02
-5.378287721727798010e-02
-4.430648373004503898e-02
4.727633982453628980e-01
1.433428323252339709e+00
2.126428522839712620e+00
1.873199969172133050e+00
8.454113329244593578e-01
-9.717284654745173000e-02
-3.151885826491021558e-01
1.179738916783852343e-01
7.223005249462283173e-01
1.097298211873624085e+00
1.102060876951664659e+00
8.187705571560884854e-01
4.492490770818559076e-01
1.580176973232979010e-01
-2.761176763778706855e-02
-1.577118268969552872e-01
-2.554164068839635537e-01
-3.168516105773986347e-01
-3.660196888403328686e-01
-4.399780925606757154e-01
-5.271219231122141746e-01
-5.752555718957708120e-01
-5.691801724391964967e-01
-5.525932014488569299e-01
-5.606389484460834183e-01
-5.809569934980334249e-01
-5.933942965229739297e-01
-6.013127506008720813e-01
-6.138077411581883691e-01
-6.272042465969178693e-01
-6.306733544391470714e-01
-6.184464482714565614e-01
-5.880301494907882454e-01
-5.163773949993496482e-01
-3.603578669310318339e-01
-1.399276587852165410e-01
8.554713725325807476e-05
-8.425006284411068469e-02
-3.454176843648671391e-01
-5.768405011202017985e-01
-6.432421820279689006e-01
-5.996768726866207322e-01
-5.672674830764508069e-01
-5.639184216691154328e-01
-5.158147503323496919e-01
-4.095085748210795518e-01
-3.481604862667779798e-01
-4.158858141661943009e-01
-5.560555871823122942e-01
-6.523850643804345317e-01
-6.714087354840225785e-01
-6.562730538390749713e-01
-6.278381909601375988e-01
-5.661942527753568433e-01
-5.018330631194607427e-01
-5.681491716435876915e-01
-8.258147162859770241e-01
-9.539442130345604509e-01
-3.484924010722106891e-01
1.100456934014743871e+00
2.461978884257131295e+00
2.592821483634277335e+00
1.560953383294388708e+00
6.079947327832069259e-01
6.211072058610277447e-01
1.281555964717322027e+00
1.781712438711369195e+00
1.760693200387186019e+00
1.379272687902006300e+00
9.154902745014892318e-01
5.266251868685769555e-01
2.501964191894606171e-01
6.887002764428226675e-02
-4.675809056992627499e-02
-1.281238461501979509e-01
-2.044653357989515419e-01
-2.827326972589082055e-01
-3.411970946403273808e-01
-3.614659351249810415e-01
-3.591273964117748796e-01
-3.649117034840211882e-01
-3.805262466132353083e-01
-3.732099991361772506e-01
-3.182402739743283582e-01
-2.370362289648809961e-01
-1.863575312477958601e-01
-2.069950170840752501e-01
-2.822648463310784561e-01
-3.383259858790625962e-01
-2.834663036110032786e-01
-9.049729087094268709e-02
1.283534704588396025e-01
1.904119028095571098e-01
3.966794446341802977e-02
-1.824983046740375758e-01
-3.018100623411889560e-01
-2.833108353130449064e-01
-2.146320433074942469e-01
-1.830034226510705575e-01
-2.052055782850775167e-01
-2.412955342860002850e-01
-2.390944920947379315e-01
-1.758912415427225095e-01
-7.883910496595100681e-02
5.089987551549675533e-03
6.551686183347323056e-02
1.217170046214030577e-01
1.497647796684984656e-01
9.676125631003272554e-02
4.970579322156021274e-02
3.018826909514524259e-01
1.027780752101252526e+00
1.862168874326611379e+00
2.091010735389679187e+00
1.435044558601150211e+00
4.284610717785432010e-01
-1.501120763158346749e-01
-4.740081235455891745e-02
3.902715433359333352e-01
7.209550791551518900e-01
7.863932312218979703e-01
6.704236912507607338e-01
4.932260679705308126e-01
3.140503441331979340e-01
1.458987539904895991e-01
-1.119164351027876828e-02
-1.499368285718084004e-01
-2.523162407537291596e-01
-3.115310029810984815e-01
-3.533859496347363516e-01
-4.115163771524328329e-01
-4.826630025242452660e-01
-5.336007510081398619e-01
-5.465482657984785941e-01
-5.318195490823733884e-01
-5.064390130722238315e-01
-4.846283945982045038e-01
-4.794737206943977537e-01
-4.918010141346139119e-01
-5.042946136148068748e-01
-5.058896433514895596e-01
-5.102452060382304255e-01
-5.252241904862687827e-01
-5.137457622679647562e-01
-4.116860661510892139e-01
-1.974602691523048292e-01
4.859648797334944342e-02
1.688267003261521293e-01
5.704749040144743016e-02
-2.263838819497903943e-01
-5.041764793891748697e-01
-6.492356352151906762e-01
-6.703435394169648953e-01
-6.462899439940590351e-01
-6.257006264122991768e-01
-6.029549367184690034e-01
-5.642093372070426938e-01
-5.260469060398087482e-01
-5.109485664809109151e-01
-5.084150160008519270e-01
-5.028792845969067837e-01
-5.186711369345429201e-01
-5.837093586074431073e-01
-6.674160729696066996e-01
-7.051033679561178324e-01
-6.857487234671041376e-01
-7.028870147890058373e-01
-8.633390133662476318e-01
-1.017682939349115356e+00
-6.427691056055354624e-01
6.210435156342128948e-01
2.180608220813282649e+00
2.786460103844542679e+00
2.000391848921096560e+00
8.278465515053813339e-01
4.710110156382747437e-01
1.003619050547614133e+00
1.647739927902235557e+00
1.826037197956853708e+00
1.554171641781419089e+00
1.119888964875454196e+00
7.298322189659823822e-01
4.323255331835942905e-01
2.033975775419874510e-01
2.660911208229711430e-02
-9.656949294159171415e-02
-1.742035235075628796e-01
-2.287793867264318881e-01
-2.733063882502040354e-01
-3.075249859130435581e-01
-3.376432343536936997e-01
-3.733859044127554316e-01
-4.068189072340104850e-01
-4.140579802170901158e-01
-3.811863295115296424e-01
-3.251574303020681178e-01
-2.873961800435996805e-01
-3.018665780707159296e-01
-3.592613519101618968e-01
-3.930172882088904807e-01
-3.152236179140016081e-01
-1.059864468408640847e-01
1.191919982799021088e-01
1.807534061235624989e-01
2.078723415925051721e-02
-2.202099702069847120e-01
-3.584989140685418407e-01
-3.547155712954044304e-01
-3.020831308954808336e-01
-2.820588639278081566e-01
-2.945819747358501273e-01
-3.007901594566286252e-01
-2.749857669426594153e-01
-2.191995420383310855e-01
-1.576134649823789091e-01
-1.095544173464935156e-01
-5.746526689413784805e-02
3.554741212405517631e-02
1.569705545540466818e-01
2.163442850174156773e-01
1.483892626247455548e-01
8.657494623513040111e-02
3.476477169479737506e-01
1.065485879287011883e+00
1.842396354417488835e+00
2.019378628881654869e+00
1.398286314796333363e+00
4.937441415426652158e-01
-8.028234724125712929e-03
1.218052702056071496e-01
5.840135145680744877e-01
9.392280401815510382e-01
9.754303186731090314e-01
7.617304772117321487e-01
4.777037787310746131e-01
2.523023618782851973e-01
1.135899390271909448e-01
2.130868772579922604e-02
-7.209567485908274787e-02
-1.753940638993746193e-01
-2.608429983142370179e-01
-3.145347747508833169e-01
-3.636329001162775798e-01
-4.304427699336103030e-01
-4.932009241623339091e-01
-5.240510380157125114e-01
-5.284728677735966995e-01
-5.227761154063838012e-01
-5.098428078357359894e-01
-4.909884833509642332e-01
-4.694472099807772691e-01
-4.401110980740805534e-01
-4.095839714065577231e-01
-4.192549158194119330e-01
-4.951112551153877273e-01
-5.625900883601555602e-01
-4.808319565544755259e-01
-2.228293755109742313e-01
3.077549856548473031e-02
6.363390482337996645e-02
-1.406446550140683094e-01
-4.068566031536985372e-01
-5.753584336774323349e-01
-6.247763646656939729e-01
-6.158436093995627303e-01
-6.009563870983967160e-01
-6.010494590634973822e-01
-6.134170046667960507e-01
-6.177014338923326742e-01
-5.932418506140653136e-01
-5.435518985016212223e-01
-5.030035471961920024e-01
-5.100045764622384015e-01
-5.630741259731636417e-01
-6.060629900379864710e-01
-5.751139567431131638e-01
-4.877391991448596364e-01
-4.822910616379502691e-01
-6.806116908396931953e-01
-8.993262864721480732e-01
-5.878185722546425129e-01
6.011016012660269636e-01
2.079816244266698977e+00
2.661802098300849462e+00
1.943938982858795406e+00
8.550804688599422665e-01
4.987522820695441395e-01
9.701845816332077543e-01
1.596428600315665358e+00
1.831581940969159605e+00
1.612437158254373726e+00
1.158228419742092452e+00
7.036676114052832220e-01
3.658729515449629099e-01
1.409951178718676923e-01
-1.814583237029976023e-02
