1.641396724688337638e-01
1.075396430167541162e+00
1.601079506060766988e+00
1.163077711681643756e+00
1.749353080120691906e-01
-4.168238890034087207e-01
-2.599992274172770457e-01
1.941983566449526910e-01
4.197340225307921169e-01
3.219071745338767387e-01
1.031800000659143790e-01
-5.690582705377572603e-02
-1.256506032335309442e-01
-1.566368276439632778e-01
-2.015120285820427015e-01
-2.723230636887778999e-01
-3.450020407810281964e-01
-3.829123171585779861e-01
-3.652145024802053164e-01
-3.006931419751954770e-01
-2.212096796414693978e-01
-1.650097799105016416e-01
-1.566467398615501716e-01
-1.898892096872744628e-01
-2.284080524547370261e-01
-2.267386784779966691e-01
-1.547183019554024264e-01
-1.821906627997204806e-02
1.262468103859472890e-01
1.901782564134691100e-01
1.210748966944043825e-01
-3.621987545559789828e-02
-1.701509927536635214e-01
-2.110648174150314693e-01
-1.905504428442467146e-01
-1.829030482641401667e-01
-2.165104559821718899e-01
-2.590869419030686904e-01
-2.658419631277910700e-01
-2.244389574652639330e-01
-1.614510885766153314e-01
-1.132662730197081941e-01
-9.578118478444637429e-02
-1.061595084750990570e-01
-1.366513043542983696e-01
-1.655884117927560462e-01
-1.620893195607681914e-01
-1.451019751213509512e-01
-2.013827354427501493e-01
-3.430472527424721640e-01
-3.387321704751530826e-01
1.231467784256496389e-01
9.076028169116171496e-01
1.289708346937120886e+00
7.784953184309683083e-01
-1.073741847531251847e-01
-4.480993664090366924e-01
-8.331411013056899684e-02
3.830461104699042219e-01
4.739641402404801140e-01
2.553762048691326503e-01
2.993953762563291571e-02
-3.694784575057276366e-02
9.483978460341335043e-03
4.601568427637780373e-02
7.757847087347552809e-03
-8.105087532114786664e-02
-1.616811891937019463e-01
-1.950449912388340923e-01
-1.778464228406694547e-01
-1.383427397068034970e-01
-1.101813095527143377e-01
-9.378787387554576860e-02
-6.143805507034388880e-02
-1.029887865679013879e-02
2.109811810380350997e-02
1.139912371102344037e-02
4.840813459202366470e-03
6.359947989214402575e-02
1.760612666949929461e-01
2.466954827026128227e-01
1.919809529176577101e-01
3.584927522456976545e-02
-1.059468885496928775e-01
-1.446048703951167413e-01
-1.042815057482819330e-01
-7.392403470023903300e-02
-1.011839814561965728e-01
-1.584170097905891472e-01
-1.891539700366162424e-01
-1.629868841084604059e-01
-9.568125666762486436e-02
-3.319101501214102856e-02
-1.511116677128148712e-02
-4.618126589833991547e-02
-9.753473608416370066e-02
-1.278058541704794604e-01
-1.145456797404600519e-01
-9.832392936022632535e-02
-1.794807022881686198e-01
-3.672798000771994031e-01
-3.843584919028930069e-01
1.759051370652977564e-01
1.224751189341734881e+00
1.901130171312879646e+00
1.447657160670920984e+00
2.741724501728850516e-01
-4.746755698820865343e-01
-3.138571972115881681e-01
2.254227199280635641e-01
4.739694866857268041e-01
3.072494230914451507e-01
1.453090556888095297e-02
-1.387988473105037923e-01
-1.345786421408780575e-01
-1.085097916292696169e-01
-1.453125344218881010e-01
-2.182985434665400404e-01
-2.784123611903595030e-01
-3.040869965243176987e-01
-2.755976987436011827e-01
-1.921428255322319423e-01
-1.075382266633391343e-01
-7.931564570848448348e-02
-1.069227496625748952e-01
-1.605401095895093444e-01
-2.180055220165224572e-01
-2.453700473188787090e-01
-1.952407053068504206e-01
-5.614464897767128954e-02
1.090694233732902030e-01
1.942907641292685450e-01
1.423856292450377536e-01
6.126434012062618312e-03
-1.026962526286707839e-01
-1.236394317499761863e-01
-9.288121010700357838e-02
-8.393872725524781364e-02
-1.260900157721665249e-01
-1.890941919060906973e-01
-2.276256716087934340e-01
-2.228714517025533748e-01
-1.871602714045943472e-01
-1.403347919129857568e-01
-9.205880124941882847e-02
-5.371535075616742927e-02
-4.350314391373310413e-02
-5.323061649342554491e-02
-4.737667451861994616e-02
-3.982848974137194464e-02
-1.134542460834286892e-01
-2.554671432533614506e-01
-2.021233202405923746e-01
3.172071144993314218e-01
1.045817750986586026e+00
1.245050568889605191e+00
6.129045396655721234e-01
-2.122286052923127442e-01
-4.597235540473332271e-01
-1.296807989137251371e-01
2.419307375060816279e-01
3.162585291277982824e-01
1.661488103969261387e-01
8.846441531139479647e-03
-4.696860052687107379e-02
-3.408331875994084770e-02
-2.648686359008360636e-02
-5.597171331816382100e-02
-1.106554174327920997e-01
-1.711298595604209827e-01
-2.225717353397239362e-01
-2.473792888638945142e-01
-2.302381280402879260e-01
-1.743806652978667215e-01
-1.081126430212378114e-01
-6.934920860820911748e-02
-7.788876667098294793e-02
-1.187035310386107823e-01
-1.454318957261138689e-01
-1.067962249264655661e-01
7.404594322576906612e-03
1.430852905890560300e-01
2.169660945795302553e-01
1.808252090802773826e-01
6.524369611999815410e-02
-3.773963463881677138e-02
-6.100675515604530447e-02
-3.173488972833728855e-02
-2.947158270762147148e-02
-8.625998481868817069e-02
-1.594275301431990199e-01
-1.961540287486280565e-01
-1.896103692683815400e-01
-1.619231189418138539e-01
-1.241832009625894184e-01
-8.058041506151752964e-02
-5.244777003291912348e-02
-6.187910869652667178e-02
-9.493725444718696671e-02
-1.182098101623706293e-01
-1.440203205028778299e-01
-2.348728860093605708e-01
-3.659120601626495994e-01
-2.817490066077486532e-01
3.103445410946270577e-01
1.212300392317344100e+00
1.648991459774247659e+00
1.126365868418084837e+00
1.681248912423480291e-01
-2.928405509036255405e-01
-3.468047029033372031e-02
4.030785016373141794e-01
5.366275385595081771e-01
3.701708874794837900e-01
1.475433853006000717e-01
1.111056293490065260e-02
-5.517710797088182240e-02
-1.043556671362868282e-01
-1.452230053303918689e-01
-1.644564176468498173e-01
-1.715967160775184464e-01
-1.923142950107385452e-01
-2.328639980352325278e-01
-2.685097372319085185e-01
-2.592061343484254321e-01
-1.803544694558558981e-01
-6.200574985564979991e-02
1.305722940547822050e-02
-7.792146171344924155e-03
-7.108053217304982629e-02
-6.677755777389834946e-02
4.458112687498261978e-02
1.807726299641912449e-01
2.182096871663425641e-01
1.180309990533785491e-01
-3.139577720326518911e-02
-1.103465149089900288e-01
-9.909213345398884543e-02
-7.885339771521440722e-02
-1.122781622958787390e-01
-1.765425450169418042e-01
-2.119296007571561391e-01
-1.921223724238787511e-01
-1.404540114007508389e-01
-9.299349154940847462e-02
-6.072396915553705810e-02
-4.005617308490511813e-02
-3.658416599573668937e-02
-4.570568802759941013e-02
-3.607931332889047910e-02
-2.077427928077790580e-03
-1.952442532111594090e-02
-1.703885516034782943e-01
-3.489011355156379501e-01
-2.129165887204799157e-01
4.429404908679708819e-01
1.186607162119346581e+00
1.209268764843442368e+00
3.800108183350525692e-01
-4.360771969234261691e-01
-4.792408282463628821e-01
2.591986966568980699e-02
3.970875019073464296e-01
3.601373516486366944e-01
1.194670310937243074e-01
-6.301400049104961820e-02
-1.096494316470060099e-01
-8.249035271108370870e-02
-6.526424502085904911e-02
-9.842241379444728600e-02
-1.699512921015981504e-01
-2.421593737942673574e-01
-2.860809259385980186e-01
-2.910213253319533511e-01
-2.583366002395312000e-01
-2.069274992275695058e-01
-1.722551574575136024e-01
-1.723086820733154001e-01
-1.803408323558844950e-01
-1.544979405774055681e-01
-8.563694396823985644e-02
5.003215418310676121e-03
9.676143558611965956e-02
1.660592520687982632e-01
1.702986285837455593e-01
8.433620995907614715e-02
-4.422586065364889074e-02
-1.222855432050582725e-01
-1.126138279106932982e-01
-7.665020181262210963e-02
-9.501184894362477151e-02
-1.660654825174394944e-01
-2.102665268578535751e-01
-1.817059005315223019e-01
-1.565924576172109395e-01
-2.568166380269524263e-01
-4.578771378608124110e-01
-5.625899620808721968e-01
-4.435343837986882587e-01
-2.049749429595816297e-01
-2.482256275193914230e-02
3.143829030376094069e-02
-3.113574050922428976e-02
-2.119772247675081045e-01
-3.954373236637380717e-01
-2.289834660236153285e-01
5.617624472720700313e-01
1.573598128208863356e+00
1.859270437253134345e+00
1.063380104152343186e+00
-4.552981294562996606e-04
-3.568381647399497814e-01
1.412268840905381295e-02
4.534945672915918768e-01
5.382243635250613112e-01
3.503201058533771950e-01
1.362715674450647174e-01
1.660563535955467823e-02
-2.652362663472192239e-02
-5.217125127665924594e-02
-9.748488700570157039e-02
-1.608033955949092209e-01
-2.189957186008852086e-01
-2.582873738784886575e-01
-2.790298537132611112e-01
-2.784846320033127487e-01
-2.502179591210925702e-01
-1.999400391602117466e-01
-1.504825204077056278e-01
-1.258884499112116195e-01
-1.191364543389771824e-01
-7.895390122981033043e-02
3.824695862894080672e-02
1.963215469798380852e-01
2.910573631957283358e-01
2.479293514958468836e-01
9.762156966684747139e-02
-5.276654502144516312e-02
-1.193575708596893714e-01
-1.044894868247576436e-01
-6.970068157540255938e-02
-7.047731049768608813e-02
-1.180136929555138936e-01
-1.785779634474845556e-01
-2.024999259356105585e-01
-1.691195274579734842e-01
-1.081345860123720526e-01
-6.883002240928880189e-02
-6.723358045173973008e-02
-7.193124434076626772e-02
-3.944741046430285530e-02
3.867889663764263741e-02
1.005926824868887959e-01
3.223829469471883868e-02
-2.013704796532867491e-01
-3.864635821631949852e-01
-1.281087755733544831e-01
6.684992589656758577e-01
1.389777038489324434e+00
1.236946531271251537e+00
2.978358967060990015e-01
-4.674952609298854700e-01
-4.530350751386206798e-01
-8.831498187661615540e-03
2.480513590422139258e-01
1.555548265556279397e-01
-5.584186425204294008e-02
-1.748441569490605252e-01
-1.925286682977162545e-01
-1.985034150827826582e-01
-2.392750313527894634e-01
-2.957460438911682643e-01
-3.355628233317955456e-01
-3.533262116752202697e-01
-3.691262144892744068e-01
-3.961403150845994037e-01
-4.148489462638851322e-01
-3.897138313451385949e-01
-3.143397871416816480e-01
-2.309723746179051795e-01
-1.916208067870402154e-01
-1.941749954203495221e-01
-1.729288370195068147e-01
-7.274329755703391742e-02
7.388608367098238594e-02
1.638359707392439413e-01
1.237074712510705388e-01
-1.231923073490131734e-02
-1.348904463444783597e-01
-1.711097639206726750e-01
-1.449721586240994842e-01
-1.237195434764139651e-01
-1.419919840373297659e-01
-1.932631272938299116e-01
-2.547654883299896311e-01
-2.979565104841339629e-01
-3.009662273794085352e-01
-2.683903995676388821e-01
-2.243091235774173631e-01
-1.839109933529781138e-01
-1.504293804057802719e-01
-1.265223378958855727e-01
-1.074905120310957751e-01
-9.799041244326055222e-02
-1.527212647256540323e-01
-3.114663674891347545e-01
-4.113123839809849080e-01
-8.977828713746187350e-02
7.573597216613445759e-01
1.549818518059505656e+00
1.495008390628736361e+00
6.183467194541598655e-01
-1.684066434498155962e-01
-1.856002962632924413e-01
3.220773255186959450e-01
7.113539820517835732e-01
6.912758630139957949e-01
4.218867285321534211e-01
1.717440277047678487e-01
5.567900195384786061e-02
3.238466241657250028e-02
2.709708126906327369e-02
6.865183466412801139e-03
-2.560895559311065356e-02
-6.282555829542538217e-02
-1.054159662461332803e-01
-1.488023878587450000e-01
-1.619053319052055073e-01
-1.022737859814307759e-01
1.928167282525982199e-02
1.130340649775981032e-01
1.021150092038622670e-01
2.396576542249304401e-02
-9.596547248475251202e-03
6.381804121122812423e-02
2.037310485056390286e-01
3.093689841935958751e-01
2.925062004697323026e-01
1.409575552738501214e-01
-5.509767650750777707e-02
-1.623773325924856570e-01
-1.242630787848732765e-01
-7.225137352129325230e-03
7.460245249997925210e-02
4.967648836811388441e-02
-6.893506537018005698e-02
-1.888414947412795086e-01
-2.213983926880290221e-01
-1.702293007902761501e-01
-9.721855059377237929e-02
-3.954175146220298420e-02
-2.241417130595550755e-03
2.407597907658585307e-02
6.029708147551979258e-02
9.467675867444522164e-02
4.392692355427493811e-02
-1.446805605967092234e-01
-2.914030045806484948e-01
-1.168075906119809756e-02
7.847854400876932424e-01
1.456637943901309518e+00
1.206090415699921481e+00
2.104557244497962110e-01
-4.767076334733879039e-01
-2.888239369600280604e-01
2.866187573117739418e-01
5.566825194932868426e-01
3.995473287399629592e-01
1.229374037891619309e-01
-1.911264944076026748e-02
-2.149366762143506068e-02
-1.423707754448915591e-02
-9.085701774538079700e-02
-2.296632914812744286e-01
-3.306089449274607350e-01
-3.307380257834430237e-01
-2.696393717913852517e-01
-2.196808764680015513e-01
-2.011729805159745976e-01
-1.958088238021006011e-01
-1.900509897313499841e-01
-1.777293607168952405e-01
-1.510163582235339308e-01
-1.063000477592499077e-01
-4.479963873791185242e-02
3.662568275740463175e-02
1.289657956927646731e-01
1.795060390236166148e-01
1.231146209505711575e-01
-2.923843588070102611e-02
-1.752350623839357691e-01
-2.273051405729765162e-01
-2.015498284854306821e-01
-1.750347751478348313e-01
-1.935146657986118457e-01
-2.478823131258073298e-01
-3.027095838771094449e-01
-3.230594754673066227e-01
-2.955618325274812497e-01
-2.377938338909025839e-01
-1.877408930062119674e-01
-1.771432554488458488e-01
-1.921948066002421296e-01
-1.670306456745856982e-01
-6.442743059842090392e-02
3.281347279460162386e-02
-2.765209993983535480e-02
-2.752211319562667402e-01
-4.544345180627697434e-01
-1.324836429944931393e-01
7.918721082420911994e-01
1.656879952284659563e+00
1.572603172277668548e+00
5.744079606619386658e-01
-3.101924102153080787e-01
-3.428301540559169913e-01
1.690654399902854488e-01
5.254197773448708864e-01
4.736590403463278864e-01
2.268587162539565105e-01
2.941974966395154503e-02
-6.297300663410294874e-02
-1.037496749835331716e-01
-1.368431683494321649e-01
-1.702364818579548134e-01
-1.999014426522628396e-01
-2.287743945955014735e-01
-2.649212834580118581e-01
-3.090365573751779893e-01
-3.441664312466428122e-01
-3.417836804832898867e-01
-2.925186474972810702e-01
-2.259359701327363357e-01
-1.794583353715587248e-01
-1.519148669202432800e-01
-1.058050548260162649e-01
-1.563577498620858514e-02
9.225182597858680444e-02
1.487856004118132958e-01
1.005415997432906883e-01
-3.094355704781184477e-02
-1.587732733803245144e-01
-2.108631744995789481e-01
-1.883544740180196353e-01
-1.406149801282508827e-01
-1.116479506380461950e-01
-1.228750765398185923e-01
-1.745940467411126185e-01
-2.406897906300088097e-01
-2.781193303242877612e-01
-2.597397064083942775e-01
-1.977301400863906988e-01
-1.328882301774381436e-01
-1.008032670582609397e-01
-9.959123963441261773e-02
-9.237152061910987311e-02
-7.066255674426430433e-02
-1.085106024725853019e-01
-2.583292470429493504e-01
-3.387542719078186493e-01
1.355744008406482848e-03
7.623981217629571816e-01
1.290504944117886854e+00
9.594583961801325112e-01
8.293474921634247377e-02
-4.258259159404822469e-01
-2.208758452284416141e-01
2.266075149472772665e-01
4.044117569028276571e-01
2.643454695957072609e-01
3.229513009870139950e-02
-1.218793271283005464e-01
-1.836298042892630100e-01
-2.113156472074855241e-01
-2.343481959828437600e-01
-2.406451491547109411e-01
-2.319348807324533857e-01
-2.428159580952082008e-01
-2.919216097144424205e-01
-3.422985376733851393e-01
-3.370462604803100004e-01
-2.672750394439021848e-01
-1.835690849821789428e-01
-1.419241522070166517e-01
-1.460363061978720567e-01
-1.370404723795400070e-01
-4.750506017705593415e-02
1.161844317934909721e-01
2.556368454818740976e-01
2.699404390130952791e-01
1.563273886082904574e-01
6.135331749319204719e-03
-8.429855825755906695e-02
-8.927636525380377996e-02
-5.600598869345914388e-02
-4.330156806023280347e-02
-6.568147510744538897e-02
-9.837828902646156282e-02
-1.185068507930869680e-01
-1.278071832133580998e-01
-1.421543034788971260e-01
-1.639536847759310023e-01
-1.618307689086522783e-01
-9.530692433969827071e-02
1.678366507370067026e-02
8.907889637170671171e-02
7.463818398977327406e-02
1.488694661147568071e-02
-6.631926063918054670e-02
-1.948266865307657081e-01
-2.530983595078563075e-01
8.008596639180315391e-02
8.897646829960370596e-01
1.594611059282273091e+00
1.449214025764084646e+00
5.615603802323624327e-01
-1.442411369528603937e-01
-8.723685192325489335e-02
3.946092758534390232e-01
6.738739099431942936e-01
5.446859053646991855e-01
2.283013341167135224e-01
-1.356049141757520449e-03
-5.617512125351493274e-02
-1.427333719192894201e-02
1.447822727779973784e-02
-1.607268670767996940e-02
-8.323191691005116244e-02
-1.447614222748396795e-01
-1.837671697799190540e-01
-2.123535552754163280e-01
-2.373431565276137578e-01
-2.357108442493916767e-01
-1.849155105310142377e-01
-1.105140159010195022e-01
-6.576280764834004089e-02
-5.560718378130965339e-02
-1.975171135305698114e-02
8.388716766618130316e-02
2.039549427037214147e-01
2.362803867836560934e-01
1.376270578181418569e-01
-2.040670264474234857e-02
-1.236315970843820528e-01
-1.353520768944856956e-01
-1.154751496754846951e-01
-1.189590180354955506e-01
-1.295308248362935233e-01
-1.155260212974686673e-01
-9.589060611804442469e-02
-1.133670028241012123e-01
-1.691339083290988865e-01
-2.144680846736930768e-01
-2.105427493839792663e-01
-1.781587165966835584e-01
-1.606412019749502706e-01
-1.458071644794789179e-01
-7.673845141394552982e-02
2.818417704861480438e-02
1.577698444484809670e-02
-2.212401646530979260e-01
-4.594141094747137277e-01
-2.193550871130371949e-01
6.193873612333462564e-01
1.365515802337743390e+00
1.161512643114553933e+00
1.646236563007094089e-01
-5.450824776720215592e-01
-3.641872366169038866e-01
2.189211087881048345e-01
4.825487449565829534e-01
2.933681980035630632e-01
-2.689261897345343599e-02
-2.011553695767679950e-01
-1.999836172929555511e-01
-1.363806482860269453e-01
-1.094181049378107062e-01
-1.428907949138043809e-01
-2.091891073277030999e-01
-2.714886782500777751e-01
-3.073276460793463172e-01
-3.141855982964625871e-01
-3.037159601898212213e-01
-2.851168061059569658e-01
-2.462734355511671247e-01
-1.650870243494891032e-01
-5.877310272453552947e-02
4.162556804859418244e-03
-1.249733438250913778e-02
-3.926042961904772227e-02
1.609214110738493159e-02
1.174982839292596226e-01
1.256830073682332627e-01
-8.418929724574669704e-03
-1.691682090144611961e-01
-2.246727817115175274e-01
-1.710611897079913069e-01
-9.703024929675088672e-02
-6.985313897928024929e-02
-9.821952565239565336e-02
-1.615871289628077190e-01
-2.271353406455614843e-01
-2.573435036754473937e-01
-2.387181273684701455e-01
-1.979635534899054083e-01
-1.681301853853290618e-01
-1.479368285328285793e-01
-1.122279626433076716e-01
-5.444889064195355954e-02
-1.495662159699638616e-02
-6.960690389641956133e-02
-2.325278277199639143e-01
-3.015327181766123132e-01
8.430837048915329479e-02
9.666031487337359840e-01
1.690893850627257056e+00
1.481088527538939381e+00
4.849360006828508651e-01
-3.036151598992838929e-01
-2.645383162482154438e-01
2.529459604438554221e-01
5.834295258379507132e-01
4.953994794527728507e-01
2.128043876952625535e-01
1.290053637895030927e-02
-3.339609027416336196e-02
-1.376156454653690991e-02
-1.131083436350056523e-02
-3.113009002708273798e-02
-4.618764042079710752e-02
-7.343312685414342400e-02
-1.691585158855619109e-01
-3.266551369743822542e-01
-4.288363377069094318e-01
-3.702987710063693205e-01
-1.924376405354402131e-01
-3.655516984675835634e-02
1.015442657990119069e-02
-1.292403217808290976e-02
1.816845209159092698e-03
1.163893365113514572e-01
2.768026668369357179e-01
3.519696355737995663e-01
2.624332434953803861e-01
6.964623884348269955e-02
-8.673096879587585684e-02
-1.304193247197703298e-01
-9.792601821736904300e-02
-6.098727919065827924e-02
-4.802485716894958068e-02
-5.625238010759670004e-02
-8.788698360683078192e-02
-1.272040567362037466e-01
-1.270419929763166866e-01
-7.444662261570765549e-02
-2.572086948566257997e-02
-2.946185568255886567e-02
-5.984867411799919823e-02
-5.527236009996303739e-02
5.743592780056187667e-03
6.356159532665005274e-02
5.559697044394383732e-03
-1.980994702130535468e-01
-3.316799102293664370e-01
-3.127887012396306232e-02
7.160153920156439034e-01
1.261084044299286555e+00
9.486172614923173985e-01
7.455641642081448084e-02
-4.116121565099549184e-01
-1.408789346703564482e-01
3.605917734711708289e-01
5.133344619400069808e-01
2.840140152487301006e-01
-2.386879162070459220e-02
-1.876502184643421001e-01
-2.049743433481578947e-01
-1.897724784570227752e-01
-2.228556826812883862e-01
-2.873237147366131672e-01
-3.168015851180566167e-01
-2.856499360785400565e-01
-2.349648224533644747e-01
-2.149184675454189619e-01
-2.311057938698914682e-01
-2.540887247694060824e-01
-2.565379003269170344e-01
-2.329383049355043811e-01
-1.946077976485271754e-01
-1.481789628117311242e-01
-8.147952272716077471e-02
1.762869566936303700e-02
1.236789987672333030e-01
1.661323763374725204e-01
8.276839996240387132e-02
-1.006816791938542621e-01
-2.569629829607437688e-01
-2.641825076459220489e-01
-1.426857038509597442e-01
-4.339990867024672017e-02
-7.232662123988264913e-02
-1.822503370293143965e-01
-2.706364855444139961e-01
-3.109164925659339551e-01
-3.375050903503472588e-01
-3.553799663649144791e-01
-3.250685307202109131e-01
-2.339551270102007419e-01
-1.369574178325550229e-01
-9.416907454750800266e-02
-9.609882677026289344e-02
-1.047807273382455467e-01
-1.555737545964352431e-01
-3.149289951765575912e-01
-4.536277657930095075e-01
-1.838112678298449432e-01
6.696438708532043149e-01
1.525876054909338642e+00
1.496234943853826271e+00
5.672348717437151189e-01
-2.727079877720247070e-01
-3.049691948377442619e-01
1.605751217142423748e-01
4.526069291256268889e-01
3.641266193275038976e-01
1.293477697536618010e-01
-2.640644838348323725e-02
-8.206356850045093410e-02
-9.891907630464311096e-02
-9.480236142201414751e-02
-7.356009934009284656e-02
-8.543604813979192858e-02
-1.835327473912857499e-01
-3.307549508124664195e-01
-4.061265110642821030e-01
-3.370383011190731803e-01
-1.847372072620965255e-01
-6.325489329141147088e-02
-2.388444321250318692e-02
-4.054014895614842934e-02
-5.149492881114334231e-02
-5.263095639521692300e-04
1.226617463849626194e-01
2.591446381440545843e-01
3.080789866172846114e-01
2.132190064468211521e-01
3.541764652779522127e-02
-9.598811541634688638e-02
-1.143427367499432745e-01
-6.296463335457636035e-02
-1.637348250270335287e-02
-5.862284961519808810e-03
-2.622489765644239398e-02
-6.525973408058222125e-02
-1.079137839278055677e-01
-1.342050631102550129e-01
-1.292675450406576276e-01
-9.695320654204199473e-02
-5.841134947563106361e-02
-3.275262248987342861e-02
-1.789663559759694517e-02
8.785827603917160597e-03
4.476255984935920140e-02
6.635425750917893321e-03
-1.790805958455642111e-01
-3.348240060002796725e-01
-4.690963661404383422e-02
7.778936651357923893e-01
1.464997291503963739e+00
1.203506586658495081e+00
1.794309347292535051e-01
-5.505975393125973616e-01
-3.970214061851053411e-01
1.940592916853474126e-01
5.238967620529847435e-01
4.068328055322387726e-01
1.061806812134437061e-01
-9.683446907202397647e-02
-1.340818940115065805e-01
-9.268606521035294143e-02
-5.912167275281302037e-02
-5.272028742583442090e-02
-6.638028619713438883e-02
-1.032530332176561927e-01
-1.583570717390077875e-01
-2.055991475554160286e-01
-2.232737268648867512e-01
-2.114642789231344078e-01
-1.760249021280204385e-01
-1.102458982251619257e-01
-5.351125656812446424e-03
1.167030832029287007e-01
2.065244244977667287e-01
2.482431229214367152e-01
2.728119714247906891e-01
2.793693107874587467e-01
2.120695552551959961e-01
5.566431503805402414e-02
-1.098876475584275730e-01
-1.933326787442093408e-01
-1.893230673886145965e-01
-1.574109224366397330e-01
-1.396119203608445769e-01
-1.378217564172297127e-01
-1.479214708609569995e-01
-1.724464563419368657e-01
-2.002058410563717639e-01
-2.068440356786284129e-01
-1.911333403256806340e-01
-1.892417139521527791e-01
-2.303915115156842663e-01
-2.843406099296849621e-01
-2.809305854496726984e-01
-2.106247995517050997e-01
-1.841406814213552290e-01
-3.017700933272807196e-01
-4.123986449507209273e-01
-1.350741363517444504e-01
6.459487904576549644e-01
1.367023948714453985e+00
1.285791344762763133e+00
4.698055327981369711e-01
-2.090262734280197432e-01
-1.692451259301971933e-01
2.914937705803031798e-01
5.689434180800838625e-01
4.531986950265508574e-01
1.493068844516864113e-01
-8.779274671684696163e-02
-1.705987680484535030e-01
-1.551550146206791270e-01
-1.405133564323072515e-01
-1.781244949209087325e-01
-2.194489003271244409e-01
-1.708612366804023730e-01
-3.712584979592552237e-02
4.293414336424925676e-02
-3.080924594499913349e-02
-1.770250115601954000e-01
-2.420625553739647884e-01
-1.835859497077443891e-01
-7.629151534215809771e-02
8.649812545235462460e-03
6.916176882298853690e-02
1.310726179101512068e-01
1.831940912048716508e-01
1.772335196051189887e-01
8.526282236563809125e-02
-5.435530574832938416e-02
-1.588885714968914231e-01
-1.837017377011630481e-01
-1.646949012932679424e-01
-1.568177172405228470e-01
-1.654484839147234987e-01
-1.662777462038188547e-01
-1.579683753141299385e-01
-1.631684173871110755e-01
-1.889815075251710386e-01
-2.112029386619415083e-01
-2.078058452831435809e-01
-1.909100403839033289e-01
-1.809187273357472925e-01
-1.609825734135161279e-01
-9.877770837985909436e-02
-2.621280830789075519e-02
-5.504845745382008076e-02
-2.392364316940799873e-01
-3.816476764567496849e-01
-9.877484788029963769e-02
6.719226685348721473e-01
1.288134089058112330e+00
1.015420872424315002e+00
7.860652157865924416e-02
-5.243815174683330582e-01
-3.127529175739685585e-01
2.280863339707688842e-01
4.711222651931894490e-01
3.221111567356235161e-01
4.867680313560959066e-02
-1.346209320903296591e-01
-1.860539619296149305e-01
-1.476004151732034364e-01
-8.012218091673198317e-02
-4.279038208765432311e-02
-6.401664868465815894e-02
-1.247609966209093507e-01
-1.810380104090376918e-01
-2.059722044205169189e-01
-2.067084459725213041e-01
-1.967082378238602103e-01
-1.711065977105732661e-01
-1.282026586138493851e-01
-8.884787471458996388e-02
-6.279725286654717908e-02
-1.350796559980274765e-02
1.050221573022225852e-01
2.651387842905855163e-01
3.510285185574484879e-01
2.706743232794352472e-01
6.977083346958226628e-02
-1.113655013921843462e-01
-1.800135314594979996e-01
-1.510107109686125160e-01
-9.202510198308071210e-02
-5.684171810016752646e-02
-6.344354869903860716e-02
-1.031800946892389576e-01
-1.586074623889303925e-01
-2.104764668737334754e-01
-2.350818053812640529e-01
-2.200995134264677189e-01
-1.881126161807877839e-01
-1.742819308022894309e-01
-1.724664828871513567e-01
-1.401872436293583879e-01
-8.038677507869700090e-02
-8.533649279783422914e-02
-2.241394787735258853e-01
-3.335673159469382809e-01
-3.263819982910219630e-02
7.923945888111534330e-01
1.542731998892336920e+00
1.419720232252731806e+00
5.010674345499165350e-01
-2.628668734982222421e-01
-2.549349634695120548e-01
2.031522492329760898e-01
5.056930002124062629e-01
4.573180121557106070e-01
2.308558241296055635e-01
2.410753391905899601e-02
-9.195297967341423129e-02
-1.306568515195579705e-01
-1.232972526190244666e-01
-9.988964524710193527e-02
-8.801866855594284167e-02
-1.013341332493779834e-01
-1.313553548666505921e-01
-1.596125449295257293e-01
-1.768317846234968571e-01
-1.850150409000010654e-01
-1.859055088623413066e-01
-1.775187176720344762e-01
-1.558830063057053128e-01
-1.063312936393222968e-01
-2.443632220055466306e-03
1.602391865410315586e-01
3.205824738662294004e-01
3.581577637126429625e-01
1.851289788835885353e-01
-1.276203247671603425e-01
-3.602475470656657519e-01
-3.603138292740495352e-01
-2.051349801373917037e-01
-7.529965378501986273e-02
-4.514122799301649447e-02
-7.038680602136478115e-02
-9.938822835631075381e-02
-1.218720410089737666e-01
-1.435912997949168324e-01
-1.600129950637956544e-01
-1.578322924094008872e-01
-1.312724961720927452e-01
-9.218359129389437634e-02
-5.747636638157110900e-02
-2.599491282947734988e-02
4.213035065975703590e-03
-1.279527981733207323e-02
-1.167248029236658269e-01
-1.583970710490054667e-01
1.784144459151987550e-01
9.006530281573891239e-01
1.380905596821194736e+00
9.990728989362178680e-01
6.024856163396277720e-02
-5.086461670236642751e-01
-3.198292347399676050e-01
1.763360790454989724e-01
4.336303666572792759e-01
3.541388035925507882e-01
1.446625950606250099e-01
-1.835974189100323187e-02
-1.021755671748672961e-01
-1.387862587559501870e-01
-1.453042104053555439e-01
-1.267329873365238835e-01
-1.014359199137007117e-01
-9.327087194896244160e-02
-1.139925255398443332e-01
-1.612607328008647534e-01
-2.218598516301617529e-01
-2.749200946964570069e-01
-3.009509729107351927e-01
-2.938596753974249132e-01
-2.608645594637729048e-01
-2.037486851432794011e-01
-1.064377219640207234e-01
4.054592750704746201e-02
1.950032589658275417e-01
2.630595692876100400e-01
1.782449182683789601e-01
-1.454351362445238313e-02
-1.812049478250683798e-01
-2.225367583650283698e-01
-1.655348525039164742e-01
-1.155776076586479684e-01
-1.314035682255571547e-01
-1.769179037649006581e-01
-1.917605625912698897e-01
-1.721979848075449460e-01
-1.661618929149610013e-01
-2.073638770998045833e-01
-2.750816996379791823e-01
-3.184233221610411335e-01
-3.040442223901281271e-01
-2.341760419656634118e-01
-1.418407632753265202e-01
-9.355788493422405316e-02
-1.687348408394589716e-01
-3.540705041455747271e-01
-4.181640882082330313e-01
-2.942261707622385175e-02
7.789809579688394825e-01
1.365078765560365781e+00
1.109325899568155416e+00
2.704653467088899976e-01
-2.733018190665171265e-01
-1.128782644159403298e-01
3.462933655358910734e-01
5.609816195440195941e-01
4.226160860817227416e-01
1.548358787130345304e-01
-3.685141530857542064e-02
-1.121536171005236004e-01
-1.295155408981043255e-01
-1.420534129616018160e-01
-1.591266930557813097e-01
-1.704822789492101420e-01
-1.776268474716864998e-01
-1.928773094778679920e-01
-2.157559190453054443e-01
-2.257271636229778722e-01
-2.086278486909786678e-01
-1.778622527362287709e-01
-1.539225386568304765e-01
-1.336219519722170734e-01
-9.106076383067894520e-02
-1.050206164740367758e-03
1.360758290323989539e-01
2.729407431660222927e-01
3.177818239627153152e-01
1.958576405375533902e-01
-5.066097127665047939e-02
-2.418994345710726857e-01
-2.152413212665427733e-01
-2.514329736316462185e-02
9.264775478744480264e-02
3.090133458624471849e-03
-1.704322057266671742e-01
-2.318470384293807585e-01
-1.597720117049359623e-01
-8.571584986162701647e-02
-9.734570350623433788e-02
-1.559541598690102893e-01
-1.830313488611132189e-01
-1.538518691291939355e-01
-9.585829703403953017e-02
-4.004372363229092430e-02
-1.308758425506214088e-02
-6.126570385432435900e-02
-1.882187063197310051e-01
-2.140394399834427974e-01
1.421402054777232971e-01
8.101141542360569270e-01
1.166632773968996561e+00
7.265095984267397888e-01
-8.860543086919574207e-02
-4.196186586306682176e-01
-6.788547304600833776e-02
4.097944807595368388e-01
5.255774896676529417e-01
3.107317423872332784e-01
4.572705558041681440e-02
-1.059169772105622576e-01
-1.498818445891555440e-01
-1.361340230167002174e-01
-9.991976353652927412e-02
-7.807846077773733517e-02
-9.769318926608390463e-02
-1.462593925515213167e-01
-1.857009900471651709e-01
-1.909841421543989337e-01
-1.668506791231866293e-01
-1.400325662075333211e-01
-1.373091537132199447e-01
-1.604185638115456225e-01
-1.785540030890552798e-01
-1.478181702470187098e-01
-4.198782189519486424e-02
1.245233766764532873e-01
2.881139131996912628e-01
3.570930312910899351e-01
2.743900013438532737e-01
7.912303976994534971e-02
-1.080528588206771806e-01
-1.840674824661271136e-01
-1.468258751101644277e-01
-7.093303809818798933e-02
-2.363122481660055035e-02
-2.299849466025821743e-02
-5.078666342855812921e-02
-8.122084954388794631e-02
-1.043387980947962507e-01
-1.257281011637828294e-01
-1.405224833443833587e-01
-1.230392560592522277e-01
-6.184330018738947582e-02
1.376225810207658794e-02
6.381438734854288919e-02
5.481394433203588823e-02
-6.075121489980211259e-02
-2.645995800477931592e-01
-3.090690876021709999e-01
1.641825911542336147e-01
1.080479994436340796e+00
1.678551539811710791e+00
1.288314480931087802e+00
2.901695253991816159e-01
-2.914535859965954878e-01
-7.066316375876169342e-02
4.212061043749051881e-01
5.988078193725864251e-01
4.081064029299539264e-01
1.136004406604944755e-01
-9.074997729532700841e-02
-1.798356423235033807e-01
-1.973496310101473250e-01
-1.806580950542273356e-01
-1.563797028308780146e-01
-1.425527152179658086e-01
-1.366385288920673458e-01
-1.220263738175297874e-01
-9.877976443793079486e-02
-8.875603390868774811e-02
-9.956417831875441493e-02
-1.162021872330485928e-01
-1.346041288429462024e-01
-1.557630386780301524e-01
-1.464469626337322472e-01
-5.812981966909255838e-02
1.011650563415321391e-01
2.367106487305667140e-01
2.330412880330800518e-01
6.708779711706680526e-02
-1.551524873463834830e-01
-2.983743574082888816e-01
-3.243910050414155477e-01
-2.966996457681884136e-01
-2.838662731564840502e-01
-2.963422890211781513e-01
-3.035077654070536535e-01
-2.799211168096726321e-01
-2.362738352946165687e-01
-2.130676525222541529e-01
-2.366344293595925574e-01
-2.860882582714380229e-01
-3.157847399607108252e-01
-2.980055476049943142e-01
-2.328708693292779186e-01
-1.462979315440801897e-01
-1.045084313486535771e-01
-1.845609334480088903e-01
-3.395007580901058253e-01
-2.959359522360647810e-01
2.121272248863214360e-01
9.382142807887073888e-01
1.130135184014188665e+00
4.340012815503032084e-01
-4.957916274306108373e-01
-7.658069613131716080e-01
-3.071650200614486348e-01
2.482641800257370801e-01
4.155164444956929160e-01
2.194022324198872664e-01
-6.354834329511360735e-02
-2.338954860000282687e-01
-2.700947677157797822e-01
-2.501205437621092376e-01
-2.397482192840006965e-01
-2.434198938594189232e-01
-2.267212478333974768e-01
-1.748059613543434809e-01
-1.345091362601302520e-01
-1.758512362306006160e-01
-2.881915404169246298e-01
-3.563914987559328451e-01
-2.904521978572759955e-01
-1.376881112414963249e-01
-9.332120567837939168e-03
6.461426926303887042e-02
1.484914874274902430e-01
2.859842268880614102e-01
4.206807941937286688e-01
4.487824535986894570e-01
3.339511986151383338e-01
1.519611763977518626e-01
2.343813206449787620e-02
7.031257780669313007e-03
5.768600300903668071e-02
8.990567998548505690e-02
7.262739863589730283e-02
4.914049700609138260e-02
6.604723357208565349e-02
9.698520413436066689e-02
6.455720719490817827e-02
-4.820171940644649849e-02
-1.540714974428983031e-01
-1.665538591187691042e-01
-1.001110345165694415e-01
-2.774995808958724552e-02
8.352096656882331341e-03
-6.464953319301381188e-03
-1.031646207193745723e-01
-2.491362141245435091e-01
-1.989253433277730632e-01
3.514738908065341283e-01
1.235347579067121115e+00
1.686036174785470187e+00
1.179782848380161564e+00
2.163032672002139500e-01
-2.565110514816368315e-01
7.435613749804476091e-03
4.633395474970105621e-01
6.009053322843406209e-01
4.154704002071506475e-01
1.747152573852027435e-01
3.807810549209360990e-02
-3.308297665370279333e-02
-1.110662627519088536e-01
-1.717732363225804026e-01
-1.533402171812590364e-01
-7.332112528608231150e-02
-2.557838114480247282e-02
-6.571811240376113084e-02
-1.508535726764651530e-01
-2.169657895354464849e-01
-2.578470121253911840e-01
-2.880791002840327741e-01
-2.902495765463157795e-01
-2.418892896220510846e-01
-1.464284342450616061e-01
-1.623853796308605268e-02
1.296274586355389835e-01
2.430221845490614374e-01
2.608388155635381622e-01
1.557764970258334880e-01
-2.998433763135073885e-02
-2.026925047823646964e-01
-2.827012434257544227e-01
-2.645350524690149308e-01
-2.085661869567292104e-01
-1.729607409228478276e-01
-1.623678560175656760e-01
-1.482701991693691213e-01
-1.265721953593873517e-01
-1.307995768432751171e-01
-1.846651675380725222e-01
-2.611442531108977283e-01
-3.004045752975291195e-01
-2.622589672981269215e-01
-1.559635184448062706e-01
-3.637427514314790777e-02
9.642599795413337588e-03
-8.559245438745434476e-02
-2.461085220803987672e-01
-1.894852741281471131e-01
3.154951253070664707e-01
9.880183707268478388e-01
1.113508659259306199e+00
4.345742683355278135e-01
-3.506761303662697116e-01
-4.394025778363392920e-01
8.051791002975536293e-02
5.205851969974846227e-01
5.079044639700351915e-01
2.237770988966866770e-01
-2.086562460286591619e-02
-1.224188436187093054e-01
-1.484953762605139005e-01
-1.656301165947109966e-01
-1.743081973582968625e-01
-1.571980582197594623e-01
-1.274894355073123708e-01
-1.185113417034583533e-01
-1.436884133020856491e-01
-1.833153700148384968e-01
-2.147146474807071492e-01
-2.391636446359991786e-01
-2.652207295978744050e-01
-2.801093995260328651e-01
-2.526613795580313626e-01
-1.599100888830146117e-01
-9.422341787420067394e-03
1.571726260939538544e-01
2.772295507424088479e-01
2.909681333487266208e-01
1.797598631428155014e-01
-2.807627423056749394e-03
-1.578577109363251130e-01
-2.176022593989525578e-01
-1.876332965553294541e-01
-1.195200378760653687e-01
-6.656524031319692447e-02
-5.999482108260453112e-02
-9.628181567607084490e-02
-1.415130593661582947e-01
-1.643960172861820279e-01
-1.701409911981589806e-01
-1.904648817360712065e-01
-2.330969029927643654e-01
-2.577159057105553042e-01
-2.157967111583756481e-01
-1.105515502943683198e-01
-3.169673665598270185e-02
-1.148755675973560236e-01
-3.525237544593320393e-01
-4.071023484001312642e-01
1.411680838125835835e-01
1.120217449501148099e+00
1.627542485348761891e+00
1.048564584537335920e+00
-2.601447047511787347e-02
-4.862396475443049870e-01
-6.794123384051664605e-02
5.360868773613390870e-01
6.882743817014709276e-01
4.105068481639073674e-01
8.223124461083472503e-02
-6.978726157008606490e-02
-9.424267872021130366e-02
-1.163877072878291979e-01
-1.690536120335023040e-01
-2.083783040921644292e-01
-2.052407912272867785e-01
-1.755057877873495709e-01
-1.466742109470615396e-01
-1.308337100253662844e-01
-1.302532634430946523e-01
-1.521098726364935871e-01
-2.012346822924860335e-01
-2.531421463773964597e-01
-2.568787467705765382e-01
-1.797537114033699313e-01
-3.408456415678826762e-02
1.323389668739179681e-01
2.463538648424934419e-01
2.360735827814974541e-01
9.502764284018552776e-02
-8.951309384205080599e-02
-2.082684177456916030e-01
-2.253698496457385014e-01
-1.833030284583962999e-01
-1.343738662110184334e-01
-9.875598002379563922e-02
-7.721261413930605166e-02
-7.119420342286186809e-02
-8.192882026258201111e-02
-1.027295172323002825e-01
-1.243446997124847686e-01
-1.458081097798845926e-01
-1.665786749979230874e-01
-1.654266953445580335e-01
-1.067724867208677958e-01
2.830122205741815097e-03
6.412933697654402132e-02
-3.948182955739983763e-02
-2.280831259228339181e-01
-1.426411093561826826e-01
4.739927071391236701e-01
1.221420567991161610e+00
1.270532662605839302e+00
4.432754639951923537e-01
-4.162333808070680097e-01
-5.055336626139098621e-01
1.794332639405306351e-02
4.691973130649046420e-01
4.946615280876653364e-01
2.413894430858655737e-01
-1.544869226353615815e-02
-1.615482546188365398e-01
-2.316265003529326405e-01
-2.758857964054159950e-01
-3.025111818297691046e-01
-3.039485779931444531e-01
-2.804644099608346042e-01
-2.389645998164917073e-01
-1.960416059731098226e-01
-1.745044393985597797e-01
-1.769083497652046422e-01
-1.809294867298963660e-01
-1.779929662834983106e-01
-1.866025235732596266e-01
-2.049735897197923207e-01
-1.787679404177692499e-01
-5.105825506400510361e-02
1.549543157209862798e-01
3.265602901930501623e-01
3.520930190873017840e-01
2.191223462550805356e-01
1.936172807242588639e-02
-1.358467326965989708e-01
-1.989381053697077129e-01
-1.952957107651174806e-01
-1.714135722137101747e-01
-1.500559669973711152e-01
-1.312971811169612590e-01
-1.148462136415278612e-01
-1.066114354685708809e-01
-1.128163638898261323e-01
-1.366630445341102396e-01
-1.717325731241987341e-01
-1.966069957442842242e-01
-1.871049785753289008e-01
-1.355022546558716512e-01
-6.568580724623468425e-02
-4.964882422016360375e-02
-1.648749719726079199e-01
-3.283089555697806805e-01
-2.021651628376610055e-01
4.828396257952168313e-01
1.385180939710860537e+00
1.669912933491183527e+00
9.938645907427922088e-01
4.576478552799212451e-02
-2.863328280440207707e-01
6.192219257055409792e-02
4.972501755138837853e-01
5.902898274165964132e-01
3.864523825822104297e-01
1.292052930845774272e-01
-3.793573942332331694e-02
-1.170201650499884671e-01
-1.526052460155371548e-01
-1.620634948564255717e-01
-1.487043116053453351e-01
-1.245378477051820726e-01
-9.951804484540308082e-02
-7.547288035313244603e-02
-6.194140584813123684e-02
-7.506790903044979757e-02
-1.153308552880338705e-01
-1.609589355983487846e-01
-1.821424032858951214e-01
-1.571631833355535413e-01
-7.910902683279262548e-02
4.703444059410565037e-02
1.980972200416137585e-01
3.124479899391452431e-01
3.053841471751070902e-01
1.523780112574597556e-01
-5.235288983313450550e-02
-1.767072842911825425e-01
-1.879909996061038258e-01
-1.571145429652956726e-01
-1.426769306870071530e-01
-1.352897950416910022e-01
-1.099663907451545186e-01
-7.795022764441746077e-02
-7.240802643231909752e-02
-1.023455091522367799e-01
-1.389600719071607815e-01
-1.550686065967266380e-01
-1.567986057195766003e-01
-1.532843983961306167e-01
-1.229452234907411901e-01
-5.546448927290877767e-02
-1.947918267106215490e-02
-1.154161125243969438e-01
-2.759974066953196914e-01
-1.664984723537829558e-01
4.471637515689357301e-01
1.138175272599547760e+00
1.092110420723170883e+00
2.265466816780976056e-01
-5.490931552814755090e-01
-5.202067781461091611e-01
2.977126883640039690e-02
4.336617505216390778e-01
4.424004927674227150e-01
2.262475966848334075e-01
4.094268425316287263e-03
-1.316361260616239759e-01
-1.814583322946981547e-01
-1.789188515918505862e-01
-1.734524816367752353e-01
-2.064039696066164165e-01
-2.627789991637196065e-01
-2.814160716537099649e-01
-2.391039397392634991e-01
-1.837419235296385844e-01
-1.674327974649772455e-01
-1.902911108559665054e-01
-2.205697115318394075e-01
-2.311322836011219239e-01
-2.034867467103132765e-01
-1.191789262177147118e-01
2.798228166692932201e-02
1.968036046949130924e-01
2.939567157040551826e-01
2.452144904401057091e-01
7.749780608142289862e-02
-9.670289983862954963e-02
-1.866443334324667247e-01
-2.010779433197517341e-01
-2.060347408647642264e-01
-2.252453539015882578e-01
-2.243193176667016564e-01
-1.851401109213056673e-01
-1.390761556025901513e-01
-1.198695866002659344e-01
-1.322249811053061441e-01
-1.730006952752064509e-01
-2.386874225144048622e-01
-2.991069345459482776e-01
-2.978976219848427087e-01
-2.067417669512752465e-01
-8.197711695717328773e-02
-5.235990920305203661e-02
-1.967560595605643003e-01
-3.592262041879409895e-01
-1.419021024870531222e-01
6.589985651513635689e-01
1.526439814156062225e+00
1.558041351016486109e+00
6.153253303469266022e-01
-3.516066567328713921e-01
-4.739880395559923354e-01
6.682247229778945363e-02
5.329552724100368177e-01
5.674448793225548293e-01
3.405845780383431887e-01
1.165479741049561258e-01
-2.274428310914573120e-02
-1.171607922948392499e-01
-1.896749917689016240e-01
-2.203904482404554221e-01
-1.995909430459708034e-01
-1.518293254540796777e-01
-1.087878804176665021e-01
-8.649197207698744450e-02
-9.179975651206206955e-02
-1.245683982312622423e-01
-1.663205418963146220e-01
-1.928924639487567816e-01
-1.994575965327887168e-01
-1.835374422389123295e-01
-1.145441471137496892e-01
3.283065980848282051e-02
2.097190483515693760e-01
3.015424044451689989e-01
2.352031742937339964e-01
6.279935193755993572e-02
-8.728343958565475125e-02
-1.396339904176627233e-01
-1.275476526653407383e-01
-1.186183506945116400e-01
-1.257799983681114897e-01
-1.194737966702039689e-01
-9.269714719118947455e-02
-6.774278731464597469e-02
-5.216955196478324092e-02
-3.396174213778824919e-02
-2.139112863142736062e-02
-4.622217801835620810e-02
-1.128802687458794474e-01
-1.675772903791224733e-01
-1.383289616979563319e-01
-2.301609691739054525e-02
6.492034404748280030e-02
1.255643028535789740e-02
-6.210825003529404226e-02
1.855610931340398173e-01
8.495595296452164158e-01
1.369713934284638501e+00
1.065423385425411151e+00
1.235191698802375060e-01
-5.255965586721241811e-01
-3.859256003762573384e-01
1.400989536813072867e-01
4.592321763261735246e-01
4.201852422982695900e-01
2.151703977022723091e-01
2.753338917553031437e-02
-9.721179785071681900e-02
-1.763919847196711577e-01
-2.184197013876752747e-01
-2.273494727905402690e-01
-2.187180770985657496e-01
-2.087336612290668358e-01
-2.054562412784180780e-01
-2.110789754420283881e-01
-2.219329541406296069e-01
-2.320357587464384197e-01
-2.401761215931134119e-01
-2.487991269995496468e-01
-2.538504195667691254e-01
-2.319043645921196328e-01
-1.459176962885930795e-01
1.330709398874147312e-02
1.901604739880050077e-01
2.910486761404591505e-01
2.606737545072370099e-01
1.285496677052574976e-01
-2.360562186820312769e-02
-1.348436207114819263e-01
-1.950951596172494640e-01
-2.138207572228945363e-01
-1.953461439870783634e-01
-1.545940839875184769e-01
-1.207371870824154592e-01
-1.067695818966306054e-01
-1.022357681804058477e-01
-1.061231469771201225e-01
-1.356166608918168703e-01
-1.930477480155554371e-01
-2.493825334210272027e-01
-2.639114662230445663e-01
-2.164590737419052890e-01
-1.451362707704335619e-01
-1.494935708663658880e-01
-2.792546755183667462e-01
-3.606665738580821512e-01
-4.084664640352472093e-02
7.666119901806544013e-01
1.495994889869453282e+00
1.392700663459571775e+00
5.049202332900312173e-01
-2.575387751017708671e-01
-2.319559085838072410e-01
3.093985587089106426e-01
7.010120151806236155e-01
6.610038550853200023e-01
3.791865306752414400e-01
1.308503032136365540e-01
2.886793570254194904e-03
-7.220969424549555926e-02
-1.596938105393965468e-01
-2.537912605460264648e-01
-3.104625635772912950e-01
-2.960644217954440105e-01
-2.234062776546486273e-01
-1.531131208563571988e-01
-1.341154233652748773e-01
-1.530130585353310368e-01
-1.672224331138866815e-01
-1.675134040946881508e-01
-1.757055958395311313e-01
-1.814739690866088995e-01
-1.184797853068621371e-01
5.632348499825241828e-02
2.727527084602839325e-01
3.866790826471739329e-01
3.186526798677802863e-01
1.288757924630848928e-01
-4.738345776404414428e-02
-1.251146534229070906e-01
-1.253621049993818015e-01
-1.118719814939037327e-01
-1.074946201139333757e-01
-1.093330049440215529e-01
-1.405868261811914766e-01
-2.083968755313608812e-01
-2.483535335960699864e-01
-2.039251485802984487e-01
-1.231015657798457119e-01
-9.660259437041632258e-02
-1.408374911429327303e-01
-1.868509751393222229e-01
-1.542523503318711242e-01
-4.376776779646733562e-02
1.716088053703434396e-02
-9.961758651481116000e-02
-2.562990639542703786e-01
-3.863219557033188006e-02
6.954918973875362509e-01
1.320920788624146081e+00
1.034820449712439139e+00
2.265927063356426574e-02
-6.466582663049299518e-01
-4.086455714050111210e-01
2.250059201838593981e-01
5.370270210128819111e-01
3.999285841637672534e-01
1.207717557153522303e-01
-5.489088570635672348e-02
-1.122816999309420444e-01
-1.341994227618726332e-01
-1.673677127816317889e-01
-2.038145736639773720e-01
-2.166834877393223890e-01
-1.930725108095331932e-01
-1.483737497410987094e-01
-1.178075203269555588e-01
-1.299755482992365763e-01
-1.812398820005677591e-01
-2.361784649999598973e-01
-2.587589966434090116e-01
-2.401407589561443123e-01
-1.895161247990903852e-01
-1.056799758958981567e-01
2.362988752970512571e-02
1.822082426276928069e-01
2.937458128119595502e-01
2.657350508398621525e-01
9.215496995135603886e-02
-1.137594580871763017e-01
-2.246490607510428228e-01
-2.203981957725078822e-01
-1.761987823905968864e-01
-1.539979845441583617e-01
-1.495583302549494120e-01
-1.356270307871924596e-01
-1.098337988566854828e-01
-9.163196892555881823e-02
-1.003709976225143352e-01
-1.445733207727089853e-01
-2.121041454618457778e-01
-2.579698429516361635e-01
-2.256033152874226955e-01
-1.164070579883595830e-01
-2.805984864413241936e-02
-8.256093792785512697e-02
-2.814216924920535656e-01
-3.874815067116844647e-01
-2.037464342570581566e-02
8.670884427583327447e-01
1.601309424308027918e+00
1.369645661710120477e+00
3.274089091948253483e-01
-4.726360956943506664e-01
-3.867697085598247320e-01
2.013646226813199935e-01
6.034942423651634691e-01
5.779869778735751140e-01
2.999500493910673971e-01
9.444151209590960494e-03
-1.657573839086283751e-01
-2.185844560112367441e-01
-2.131437218441841475e-01
-2.082026252342124295e-01
-2.194298122776487392e-01
-2.420881429760374515e-01
-2.614344157677094826e-01
-2.508351329329908119e-01
-2.048226443828192467e-01
-1.587393276300466671e-01
-1.514063353177836635e-01
-1.848524292648192624e-01
-2.240486887226822432e-01
-2.175132049915708965e-01
-1.230833211497648350e-01
5.692596628837963413e-02
2.468103253523764584e-01
3.238223512057141762e-01
2.208895891755443264e-01
1.243923290361588496e-02
-1.482816883979326816e-01
-1.916937845717871236e-01
-1.807288405530340647e-01
-1.886355831520389881e-01
-2.011952801219910048e-01
-1.682514051731441307e-01
-8.988620041745143396e-02
-1.527384652455601559e-02
1.493383177477774180e-02
2.362731045604658797e-03
-2.562594055968751144e-02
-5.320800380451408407e-02
-8.461412509808013960e-02
-1.117664384119849141e-01
-1.002688374317879660e-01
-5.030087095280713627e-02
-5.190102436124310187e-02
-1.675436277149153497e-01
-2.089891452837513985e-01
1.829047544457940988e-01
9.931006819070814506e-01
1.528026095943824991e+00
1.127787032041842386e+00
1.214470466768725887e-01
-5.046983666741917673e-01
-3.284399853141207193e-01
1.858211822309632499e-01
4.579979847861636033e-01
3.760243225017348978e-01
1.615408197798198497e-01
5.006040381943596337e-03
-7.626404178727479166e-02
-1.467183257168710175e-01
-2.307555440260740387e-01
-2.911089585773640187e-01
-2.900926924950942842e-01
-2.483510510899687995e-01
-2.270633668413359341e-01
-2.437742879727318457e-01
-2.423439764680343222e-01
-1.806725746904699059e-01
-1.046166834743446072e-01
-9.035618670133448160e-02
-1.442667709967362100e-01
-1.877751070813425960e-01
-1.302210795689512646e-01
4.356004743463826046e-02
2.493860832066874811e-01
3.634516845711486810e-01
3.103836176536776126e-01
1.211925638126400695e-01
-8.006944924828168775e-02
-1.786359208616009053e-01
-1.716639291445835602e-01
-1.412616902807974917e-01
-1.411438767057767441e-01
-1.585110133185632375e-01
-1.629515576014402833e-01
-1.303676233080831581e-01
-4.180628304293692449e-02
7.239282359492880958e-02
1.127762083714689972e-01
1.422061708474763909e-02
-1.534090938620192857e-01
-2.523488009173781021e-01
-2.197555238463253513e-01
-1.245602609151916923e-01
-1.172036351508019270e-01
-2.747075022699185798e-01
-3.993887665775116003e-01
-6.961675005752994416e-02
8.260486442113774697e-01
1.625419393500018073e+00
1.462037895159764345e+00
4.253563066588080810e-01
-4.448958822008114988e-01
-4.524878684621596592e-01
8.250728256032335839e-02
4.838426726168761349e-01
4.814992586986902579e-01
2.394886868407961056e-01
-2.241228112942646178e-03
-1.450374405132260625e-01
-2.067164643473518026e-01
-2.304488037200379813e-01
-2.439000321797483439e-01
-2.515664300066878800e-01
-2.424190575893783173e-01
-2.141271818482411715e-01
-1.860756945301555720e-01
-1.781767236829973622e-01
-1.835086972744768563e-01
-1.800535072317306085e-01
-1.684239468526537720e-01
-1.703407166669677619e-01
-1.779629401025313029e-01
-1.368307847890979090e-01
-1.089318578023391708e-02
1.533826369507689802e-01
2.579754168879141440e-01
2.402150135636102746e-01
1.198976641222534306e-01
-2.242406906600747166e-02
-1.118995155675944625e-01
-1.369751378022124877e-01
-1.378545353412019836e-01
-1.444914823225806333e-01
-1.507468750625850229e-01
-1.443471223624490374e-01
-1.272619572906626417e-01
-1.028736271941148861e-01
-7.282557909035922150e-02
-5.171841097315563879e-02
-6.242880128653167243e-02
-1.070934117925946977e-01
-1.476092525050688442e-01
-1.293481338882631615e-01
-5.303717306103479523e-02
-1.814608672290012048e-02
-1.123235500725047881e-01
-1.901455483904143373e-01
1.122433648444616378e-01
8.732973430749433330e-01
1.457386877070886211e+00
1.107091316937780068e+00
4.171869976854408746e-02
-6.851978263154938631e-01
-5.159064291616933806e-01
8.547766439704149177e-02
4.401434320268655109e-01
3.871973841514788628e-01
1.718901086368213871e-01
1.241976419477276022e-02
-7.529223702256354622e-02
-1.608081843310425474e-01
-2.468756855950522688e-01
-2.714269092179916187e-01
-2.219370403712229989e-01
-1.721793017872229881e-01
-1.812240431545931729e-01
-2.190193469900532097e-01
-2.245415388798072398e-01
-1.875929359216943759e-01
-1.483557820462760302e-01
-1.445621171515848458e-01
-1.719986838494341752e-01
-1.844440003668636752e-01
-1.257512168867284119e-01
2.017921993726208563e-02
1.935040017366543019e-01
2.891511459184817334e-01
2.440273924074300715e-01
9.225448427481323932e-02
-6.846593705476623770e-02
-1.663752343186974403e-01
-2.081412889593114435e-01
-2.363411770749555552e-01
-2.589600127182029587e-01
-2.494985258335597478e-01
-2.002485956526929844e-01
-1.442011254577496848e-01
-1.181768144090547118e-01
-1.207081514961588081e-01
-1.257710845808581168e-01
-1.279278121759640785e-01
-1.425034450795511776e-01
-1.614379621216093796e-01
-1.488738199062173695e-01
-1.099438896222570544e-01
-1.317200680436827476e-01
-2.640075320172382556e-01
-3.135465821622345217e-01
9.171832537867191659e-02
9.831210821015844425e-01
1.689625376596260775e+00
1.453884955726848283e+00
4.488768247679684187e-01
-3.405860000274588129e-01
-3.068525658202883033e-01
2.128626360103129389e-01
5.637273292333602193e-01
5.048435912351123545e-01
2.400131924458437371e-01
2.997576566618916083e-02
-5.361418062195845435e-02
-8.156673378083062476e-02
-1.243827544444730537e-01
-1.881891600247613816e-01
-2.371842891258752750e-01
-2.394217081737798070e-01
-1.934321279546519778e-01
-1.299829467640668812e-01
-9.075385363817801976e-02
-9.112889646425618995e-02
-1.093415915929351334e-01
-1.249369154638574758e-01
-1.455413394628881085e-01
-1.680080553750789019e-01
-1.406822070783544931e-01
-1.759018061058503085e-02
1.566791824645777653e-01
2.660732539850002576e-01
2.339142465468761201e-01
9.329663843247364141e-02
-5.021803320432122186e-02
-1.184155644721330281e-01
-1.224603697830042720e-01
-1.244219355322913889e-01
-1.550022457712118273e-01
-1.870723362414500601e-01
-1.770657363016703845e-01
-1.174506172069554738e-01
-4.813190165533871856e-02
-1.789625546705984199e-02
-4.226985128906842609e-02
-1.000350069192585956e-01
-1.531633331109795160e-01
-1.629305095425886418e-01
-1.103133176429478973e-01
-3.068755241918180027e-02
-2.294873038963016199e-02
-1.517378258568554961e-01
-2.602047654496746909e-01
1.638745927253920306e-02
7.693809023687866455e-01
1.382504189967011410e+00
1.093870980090130729e+00
9.118784239730581831e-02
-5.964101019012324478e-01
-4.134302838179461648e-01
1.768734123147800430e-01
4.982693852055589678e-01
4.068089949548073792e-01
1.666977185117086702e-01
4.318566613352205208e-03
-5.678083091180334552e-02
-8.585713070752278020e-02
-1.253961979982218533e-01
-1.747823695504206742e-01
-2.190262369890969008e-01
-2.505638291172038179e-01
-2.733177823318069799e-01
-2.809176103808431191e-01
-2.480387139269913943e-01
-1.724951058205006493e-01
-1.038845771856951039e-01
-1.011805005354418224e-01
-1.717707919161325925e-01
-2.513546533319148124e-01
-2.375006486757662294e-01
-7.610540826307812812e-02
1.556161568975104048e-01
2.820296431358579881e-01
1.967505107177836554e-01
-9.215969751050837044e-03
-1.416253596958794714e-01
-1.291136536559095715e-01
-8.581950863856549483e-02
-1.249678001125114901e-01
-2.059612354468358109e-01
-2.286246327038022053e-01
-1.846488026462830556e-01
-1.377998562582999353e-01
-1.214188596570584255e-01
-1.184701932391148266e-01
-1.094678293702625871e-01
-1.037033930777057217e-01
-1.224326060225734425e-01
-1.536080496360850145e-01
-1.524376018458221127e-01
-1.296363076185801932e-01
-2.004541746218682363e-01
-4.286759573268084100e-01
-5.841899518768096655e-01
-2.184397225071806614e-01
7.785911370409348553e-01
1.735009853213473008e+00
1.731101658004092325e+00
7.388706946672345399e-01
-2.481761527142986035e-01
-4.159100230582838953e-01
5.211913269360464451e-02
4.839297294749487222e-01
5.365558465939694877e-01
3.382739869893308660e-01
1.409380863642154535e-01
4.281413926776460321e-02
-8.296570310509643678e-03
-7.411184736787829186e-02
-1.483329316056369862e-01
-1.885723371673282134e-01
-1.796836573268072168e-01
-1.537482578867943039e-01
-1.514085718708655937e-01
-1.706722002926914505e-01
-1.674603199620219585e-01
-1.153800696646417184e-01
-5.467409194370106973e-02
-5.300829375973059587e-02
-1.060557014682658034e-01
-1.161504313742759836e-01
-6.718842813783858919e-03
1.692275185549108607e-01
2.746890361084930454e-01
2.303963378308920562e-01
8.303587017893891697e-02
-5.915524227482341080e-02
-1.322508258129615755e-01
-1.530706665653202292e-01
-1.655303481059450244e-01
-1.750658563488693698e-01
-1.582034514126805791e-01
-1.196132560312252319e-01
-9.386625403406911872e-02
-9.110647861993062535e-02
-8.257060260320987777e-02
-5.406246846215744667e-02
-5.358181300810134495e-02
-1.467872795306761902e-01
-2.976486912710706867e-01
-3.545609437206769243e-01
-2.436914355099233376e-01
-1.113608462373410907e-01
-1.291203651864061830e-01
-1.687502096121063777e-01
1.452607759597319137e-01
8.844666245464399834e-01
1.441928624117379654e+00
1.130295482298973475e+00
1.651815796403017234e-01
-5.024055132021337799e-01
-3.769952018265666505e-01
1.277765640762375254e-01
4.121705606796244314e-01
3.406313858350182855e-01
1.363095667021086421e-01
-5.372653835174065126e-03
-6.690560403075608564e-02
-1.158246889179285338e-01
-1.888095351207909889e-01
-2.687860716224791391e-01
-3.223044582798738622e-01
-3.330300811839336794e-01
-3.091625406309733148e-01
-2.680486433780981947e-01
-2.160204649653910680e-01
-1.561684901449625906e-01
-1.143663930862847400e-01
-1.269079715529056740e-01
-1.940587409077580150e-01
-2.633617386558917417e-01
-2.559303209382575162e-01
-1.209297479728907859e-01
9.537903818957611801e-02
2.501451739374748184e-01
2.297679029213491042e-01
6.921481474530050138e-02
-9.442105313894480489e-02
-1.736414176423407285e-01
-1.937515487590174001e-01
-2.132754802278660489e-01
-2.399386449414551425e-01
-2.475246859641720143e-01
-2.280836425086165686e-01
-1.933215747994927736e-01
-1.527379789249583564e-01
-1.171421051731283136e-01
-1.054636067587515630e-01
-1.296599991724859680e-01
-1.784208151087231242e-01
-2.156926047913329259e-01
-2.005187788374722668e-01
-1.414036024383343859e-01
-1.329524792232043562e-01
-2.512285261387320889e-01
-3.402166058025807294e-01
-3.217892928068780134e-02
7.701237392992192898e-01
1.489065389498990477e+00
1.378731087703505054e+00
5.148042272802909602e-01
-2.187036632471074382e-01
-2.285949987042372178e-01
2.121141927473206290e-01
5.334746354937497381e-01
5.241431702895908984e-01
3.251173160391268024e-01
1.150475663045134461e-01
-2.959770833034197982e-02
-9.804397051351927683e-02
-1.145570067835591233e-01
-1.321752735018212055e-01
-1.877401254492315208e-01
-2.558810144746294091e-01
-2.766812415263658620e-01
-2.288010716923200016e-01
-1.541191986235613820e-01
-1.080449807169197307e-01
-1.076773565108163216e-01
-1.385051889220836607e-01
-1.827151908351565546e-01
-2.115795654209375320e-01
-1.720062311660725540e-01
-2.942325591282607400e-02
1.668928883513367545e-01
2.958817062165266520e-01
2.667311649270396323e-01
1.076588416477142762e-01
-5.707537205384822371e-02
-1.310409983862108052e-01
-1.365667255609790687e-01
-1.552840231604003252e-01
-2.023198081855141217e-01
-2.172971666462021056e-01
-1.691903984665666938e-01
-1.037151024661443627e-01
-7.347617441093205748e-02
-7.410632614841486387e-02
-7.651369864960899658e-02
-8.361999110364791432e-02
-1.180072900558232496e-01
-1.660858969681014707e-01
-1.674016928268540760e-01
-8.906869160006312958e-02
-1.604738948299923307e-02
-8.089877229028698269e-02
-1.938080179937274050e-01
3.038627793960950105e-02
7.568685284067400154e-01
1.397727778689272560e+00
1.146864821203320783e+00
1.437949343892720167e-01
-5.752797619826152120e-01
-4.170011813001708312e-01
1.752760003049270154e-01
5.168109751376069871e-01
4.379530691775761486e-01
1.823297004901276996e-01
-1.325607342399365979e-02
-9.324380710532487182e-02
-1.148666245083835441e-01
-1.371131517080025619e-01
-1.680867994619444639e-01
-1.838065054826176492e-01
-1.775842493112582132e-01
-1.698066984317247452e-01
-1.726966880969165452e-01
-1.705555882822522573e-01
-1.377436907188077375e-01
-6.921746610982329462e-02
4.997753749074775043e-05
1.657149232304465716e-02
-2.558359188947890300e-02
-5.362771321585287077e-02
1.357286216171362143e-02
1.639080433759362299e-01
2.814169105476105881e-01
2.509002518578221652e-01
8.027282593874435213e-02
-9.902308284541580519e-02
-1.727081101820257814e-01
-1.546565338842342541e-01
-1.301305620515338934e-01
-1.363425880896665110e-01
-1.503462346661536275e-01
-1.531013950404822022e-01
-1.417482829797744037e-01
-1.036780212957872371e-01
-4.212743122970015464e-02
-2.185706886817622221e-02
-1.201609639813052688e-01
-2.988392300587472961e-01
-3.938751158591363710e-01
-3.039894938741625197e-01
-1.369697590176360280e-01
-9.965116239220532524e-02
-2.467395306913532094e-01
-3.241443655544499758e-01
7.671943261975522343e-02
9.915322588642014878e-01
1.737774726208359155e+00
1.528404637589663606e+00
5.132380100325090178e-01
-3.197081129812915368e-01
-3.597611893158632057e-01
7.108531828651838691e-02
3.827426292371756689e-01
3.853090857730519514e-01
2.344376548724837195e-01
9.273135171454499615e-02
-7.192472838653897298e-03
-9.647691914319328488e-02
-1.858398585921497148e-01
-2.534276994018307416e-01
-2.798506646950126298e-01
-2.714914227213504061e-01
-2.467321044638207950e-01
-2.123403013220296620e-01
-1.646298883732064677e-01
-1.123150942801545704e-01
-8.643144930005783322e-02
-1.129870928638646993e-01
-1.741772529392999203e-01
-2.072043608817239480e-01
-1.501703335936098727e-01
7.787538452999204219e-04
1.731500079272542680e-01
2.677578699855496236e-01
2.404873344277374536e-01
1.288187562328762525e-01
-1.129852308597987381e-02
-1.666487110748769707e-01
-3.251303441971846175e-01
-4.187518026505038793e-01
-3.950253946761049795e-01
-3.039384647889578628e-01
-2.290164185259775109e-01
-1.790049839324974745e-01
-1.063921059744094705e-01
1.576403289735813992e-03
8.456849141378816603e-02
7.317672885190903975e-02
-1.103651017775382145e-02
-6.622021724573902424e-02
-4.146822483558731259e-02
-5.982374945787715878e-03
-6.155097540226888569e-02
-1.934952977389183537e-01
-1.847137220989598094e-01
2.443017183580690199e-01
1.007954700343232979e+00
1.459879175364603432e+00
1.045496632413131177e+00
1.132783538225831388e-01
-4.424019877107627230e-01
-2.802506633990365370e-01
1.571421611706189103e-01
3.691967581938884746e-01
2.862910226264772096e-01
1.125480775233978076e-01
9.104548058307494751e-03
-1.740252752913163531e-02
-3.738563749347981885e-02
-8.874335066919940285e-02
-1.503501000269774623e-01
-1.932894692095336597e-01
-2.224655412924209652e-01
-2.581359123763894980e-01
-2.946299692864219333e-01
-2.995154046195822040e-01
-2.564412492756844575e-01
-1.868631174362962444e-01
-1.247190151441212452e-01
-9.307609009812298217e-02
-9.406225403592936851e-02
-9.244855159850517978e-02
-3.405679781734837624e-02
8.482165612417170986e-02
1.853320572325067861e-01
1.765977329754762071e-01
5.650223876637766596e-02
-8.360560155575835761e-02
-1.605116544405812418e-01
-1.765853127798311384e-01
-1.844661218211686993e-01
-2.102952793756772687e-01
-2.379561620186168291e-01
-2.483193272439275512e-01
-2.435793428714821962e-01
-2.306371778352614144e-01
-2.038857591026473903e-01
-1.633905886333641422e-01
-1.363475275193637148e-01
-1.498910617944134160e-01
-1.841797104998167400e-01
-1.907026449796656864e-01
-1.759661619821148160e-01
-2.287946991754901127e-01
-3.877146360537817582e-01
-4.477067479047940890e-01
-4.305768383020943529e-02
8.363460498503486606e-01
1.512345983120855220e+00
1.264619247220661657e+00
3.216948159346613156e-01
-3.447786826883348366e-01
-2.283686557828843722e-01
2.687167653919974586e-01
5.552328527283281190e-01
4.875114215780867455e-01
2.704605929809526521e-01
9.680053981276412478e-02
6.928861657933283076e-03
-4.062110870725908762e-02
-8.132784184328312183e-02
-1.252469879359019989e-01
-1.720986485995762427e-01
-2.152575032943631339e-01
-2.404287648382817111e-01
-2.356031428192711386e-01
-1.981785856962610670e-01
-1.348086182737028016e-01
-6.960815928312710787e-02
-4.297042349098967318e-02
-7.386719138146762009e-02
-1.216260551148443114e-01
-1.089654307954572021e-01
2.255469636367147743e-03
1.628399919161354903e-01
2.709746308818202221e-01
2.556673991951086133e-01
1.338514720797748803e-01
-5.785768508728982712e-03
-8.576076535830108594e-02
-1.089144595047690928e-01
-1.298040527885982731e-01
-1.735976597932032961e-01
-2.148203945037912566e-01
-2.222238639705812757e-01
-1.925896704428542716e-01
-1.437119184550377515e-01
-9.425385664757922333e-02
-5.553619252853898847e-02
-3.423165642611363663e-02
-3.092744841624059729e-02
-3.338839851569987832e-02
-2.495334717955257492e-02
-2.010097737833026893e-02
-8.078898821371396921e-02
-2.195655409508525668e-01
-2.402893961136622070e-01
1.590096541859495893e-01
8.891299194273923900e-01
1.255227792279336674e+00
7.186300977983277605e-01
-2.447005799669063897e-01
-6.501745157056293412e-01
-2.449584354547932885e-01
3.491815772289750264e-01
5.550189185131422231e-01
3.747638343169036323e-01
1.168699968968752861e-01
-2.019527293182529770e-02
-4.901398103492204256e-02
-6.675624633107901662e-02
-1.302970405666994125e-01
-2.242598111067416189e-01
-2.947429143446056443e-01
-3.044707797549646711e-01
-2.686654491313069659e-01
-2.337037827406271140e-01
-2.196353725406160196e-01
-2.026046244680532182e-01
-1.584106647799755907e-01
-1.018211519394155440e-01
-6.988094187024219972e-02
-7.422401007850898402e-02
-7.679835781318829213e-02
-1.897978941543418396e-02
1.086713227822955763e-01
2.277191601582959635e-01
2.339599107224558938e-01
1.080194071938260780e-01
-6.070104597202834878e-02
-1.679633133238963849e-01
-1.892448099634084502e-01
-1.747032711840003638e-01
-1.788605905486928549e-01
-2.111521922997274536e-01
-2.365106228949006573e-01
-2.109608367267009343e-01
-1.288566289484310567e-01
-4.376367550441090382e-02
-2.855409238369352801e-02
-9.719425986043569998e-02
-1.719495484753747472e-01
-1.508484122498658098e-01
-2.435677840237454594e-02
7.646735625716651052e-02
-1.615282018389313165e-02
-2.861696372444587633e-01
-3.881631541467477908e-01
1.294154620050700089e-01
1.199741084968589444e+00
1.950041616582139703e+00
1.554529112324671170e+00
3.664093737715662380e-01
-4.300226055162966743e-01
-2.729595174510896505e-01
3.124983434924391568e-01
6.146745410504274032e-01
4.872222480960624047e-01
1.991485222517110909e-01
-1.485908964159844865e-02
-1.121812491913900811e-01
-1.482598657776470763e-01
-1.744847970279216343e-01
-2.105819372228884268e-01
-2.532544577149350995e-01
-2.858323503831626811e-01
-2.905376242742113146e-01
-2.662271455027216960e-01
-2.288592906012680284e-01
-1.894304320691619914e-01
-1.474477768196983674e-01
-1.113858688399719937e-01
-9.889728169832923133e-02
-1.017723963800009901e-01
-7.318289101475103364e-02
2.677952180291602244e-02
1.726264472563996399e-01
2.738762723115937270e-01
2.519686877329362917e-01
1.221734408615836459e-01
-1.871337380718318330e-02
-9.322335287919855662e-02
-1.101381262970202723e-01
-1.247565980998185109e-01
-1.612614586548622719e-01
-1.948963334284568305e-01
-1.968972556963570486e-01
-1.731409900447451189e-01
-1.534535303600444711e-01
-1.540965165422191752e-01
-1.626588954138056820e-01
-1.592074834091755375e-01
-1.378562371644113660e-01
-1.060437267437965569e-01
-8.440823399891814183e-02
-1.163166705414645369e-01
-2.439295809044315921e-01
-4.064303830969723808e-01
-3.469685434068764951e-01
2.004577368631194623e-01
1.027928067569529258e+00
1.386219354231461365e+00
8.212046360903126896e-01
-1.300617376244051770e-01
-5.655707406489069999e-01
-3.011717974839591694e-01
1.237324728713845717e-01
2.520185737480054033e-01
1.008952476667810405e-01
-8.760423830336844242e-02
-1.610045314524822802e-01
-1.328706379809295457e-01
-1.015221058468685489e-01
-1.335813419996712270e-01
-2.167358752957411483e-01
-3.089101759797627800e-01
-3.808311294396753421e-01
-4.051025651334686506e-01
-3.638720768627269342e-01
-2.787411307634726776e-01
-1.967297971364494191e-01
-1.506412299999578819e-01
-1.457610795215918131e-01
-1.576706418111484542e-01
-1.349236619563787820e-01
-3.912227788144977125e-02
1.057893283564381587e-01
2.223669165180283958e-01
2.398852074478225183e-01
1.476893718885551599e-01
5.494097316759344318e-03
-1.013347172716367317e-01
-1.315716023090840736e-01
-1.127069831081916329e-01
-1.001172484335755564e-01
-1.257539946721750179e-01
-1.774044939681706790e-01
-2.122268353497519522e-01
-1.993487342606363455e-01
-1.503893509861857769e-01
-9.881506847701740370e-02
-6.693427929791012643e-02
-6.402325575461020879e-02
-8.805753130721742650e-02
-1.132122745280701587e-01
-1.084979948309681697e-01
-1.020747838538541424e-01
-1.853090031627140921e-01
-3.509739395237675974e-01
-3.228111484125675279e-01
2.448007798712006355e-01
1.198672876334625936e+00
1.744106584200407317e+00
1.297667386922805033e+00
3.180268807884329973e-01
-2.260149817169896380e-01
-2.891439232442073737e-02
4.102135648650749866e-01
5.872120230428821142e-01
4.630531021242605405e-01
2.568621375800556050e-01
1.196144754637354229e-01
5.855411006168116661e-02
2.577986149415585626e-02
-1.539919003643660383e-02
-7.945615931439474477e-02
-1.557964471265788076e-01
-2.165173182895692716e-01
-2.391391948438551240e-01
-2.142816095389521447e-01
-1.430016623849290069e-01
-4.671540332510329407e-02
3.055179043893818669e-02
4.849914956481687911e-02
5.720286257551198024e-03
-4.576494242617740182e-02
-2.928556600889527933e-02
8.423934743304911654e-02
2.270045893416999805e-01
2.878184637308175975e-01
2.232278663884941783e-01
9.272028894813631739e-02
-1.160917223933447678e-02
-4.705493495169733170e-02
-4.049549901993538398e-02
-4.717140823462243060e-02
-9.179790611864878380e-02
-1.499550268680261145e-01
-1.840847122622824017e-01
-1.810744013826276200e-01
-1.502221878334986382e-01
-1.051210209071392759e-01
-5.918686985670207346e-02
-2.598585741746354746e-02
-1.062993327287808584e-02
-3.064419345674493887e-03
4.616471418265161684e-03
-1.819132894829207647e-02
-1.303060718744674662e-01
-2.962431705535950033e-01
-2.652282752119615727e-01
2.344078023376783559e-01
9.863314744127015254e-01
1.234841253475974066e+00
5.775827193737465004e-01
-3.556280683647097263e-01
-6.467935897909258269e-01
-2.079718949301448405e-01
3.241691685575176507e-01
4.723239205946648256e-01
2.834885943270250008e-01
3.404787763096641523e-02
-1.065651453673489013e-01
-1.421067500927866156e-01
-1.492251649687743598e-01
-1.820789095266898416e-01
-2.414230194373164218e-01
-2.899665338412353299e-01
-2.917506974181918733e-01
-2.515616408970641205e-01
-2.130197557137777920e-01
-2.077671156818857445e-01
-2.196546638106318117e-01
-2.157343042348835171e-01
-1.970435379010958554e-01
-1.921349211381311872e-01
-2.043046242643002941e-01
-1.913389229887390297e-01
-1.108330233921586278e-01
2.116527871990363588e-02
1.263345053566363452e-01
1.251893551577902552e-01
1.306544869439861187e-02
-1.240737461892667398e-01
-1.896777881983242597e-01
-1.711435968298774812e-01
-1.328062139879537251e-01
-1.324732665640747098e-01
-1.737814486760548283e-01
-2.219338050849855026e-01
-2.386380007058365171e-01
-2.083788640984753637e-01
-1.470992229688491137e-01
-9.137059615845841143e-02
-7.555763371013066165e-02
-1.040445625501145444e-01
-1.389366273045151146e-01
-1.399211059514493538e-01
-1.396781433898176550e-01
-2.402811933930327493e-01
-4.350645163055676945e-01
-4.173874419881464792e-01
2.064964562036434859e-01
1.267766033891328137e+00
1.852695410957463817e+00
1.284376368662011103e+00
1.014990699137604535e-01
-5.459974433219609846e-01
-2.723711648992652168e-01
3.351798598821787989e-01
6.229508278146907996e-01
4.775127772348040089e-01
1.683871038516812912e-01
-4.727568558094719098e-02
-1.140099576796543696e-01
-1.184987400802750279e-01
-1.482408774064851720e-01
-2.184820787772627781e-01
-2.908722372637403963e-01
-3.286052197697147403e-01
-3.272805341337063911e-01
-3.011193221210630711e-01
-2.573351164380718870e-01
-1.933864266969076151e-01
-1.173691272937044255e-01
-6.314464422687647571e-02
-6.119475439900300129e-02
-8.289111538609417185e-02
-5.062883829930689417e-02
6.427974090068357127e-02
1.834828034722377210e-01
2.000891766031950569e-01
1.013882170708639563e-01
-2.010082229345695748e-02
-7.492957905970265564e-02
-6.579030353716742996e-02
-5.939545609152547395e-02
-9.547764630811597653e-02
-1.501649115216972252e-01
-1.815736994012550620e-01
-1.781582353983931499e-01
-1.513274785737092620e-01
-1.109502215413032122e-01
-6.768501405974192142e-02
-3.790969573852519953e-02
-2.979657160046183043e-02
-3.223191033958319740e-02
-2.276915453734397465e-02
2.999366648913403752e-03
-3.995080450412126678e-03
-1.096541599257635918e-01
-2.388874454977622241e-01
-9.482328164221223710e-02
5.249726748017646827e-01
1.236403638652587400e+00
1.275981700622233816e+00
4.896542728157469160e-01
-3.300592249360113639e-01
-4.363574374138134426e-01
1.981845616985929148e-02
4.033552362374084321e-01
4.055059775363195063e-01
1.906746813856139422e-01
1.840600289530790537e-02
-3.648161529961340549e-02
-4.548184751709902218e-02
-7.619796938759762495e-02
-1.357772459808382071e-01
-1.993054782009906489e-01
-2.455873242584603877e-01
-2.695199108754143258e-01
-2.692145728351701406e-01
-2.348176078015061230e-01
-1.645836889148742377e-01
-8.447013762278079985e-02
-3.582668404853398686e-02
-3.890430042513907255e-02
-7.199268820909306144e-02
-8.846056652391530439e-02
-5.233447791728581405e-02
3.550445979932895929e-02
1.299505405361958688e-01
1.644400660747430964e-01
1.083473572178092481e-01
7.567702345506591155e-03
-5.896711917416531945e-02
-6.841485163403990266e-02
-6.991428877352853788e-02
-1.087826899593477836e-01
-1.716048469023902234e-01
-2.193512018113100426e-01
-2.421013859780942745e-01
-2.559353138550585771e-01
-2.644091624517845296e-01
-2.514398848053101543e-01
-2.108540509302982979e-01
-1.678517668349510383e-01
-1.667140986912713230e-01
-2.272876837040000986e-01
-3.101494521795247761e-01
-3.684075014610772580e-01
-4.334574818564004839e-01
-5.186474167462193918e-01
-4.060654821548773108e-01
2.037377674262003946e-01
1.123519001832381736e+00
1.571938472715512125e+00
1.059768044742399828e+00
1.313189917507306126e-01
-2.802200132443494196e-01
1.449824285788134381e-02
4.487960643166237773e-01
5.509430561399789594e-01
3.610289432808924670e-01
1.424152592238054349e-01
2.497941365239966099e-02
-2.900090499819780662e-02
-7.702785826102741262e-02
-1.191856280325895440e-01
-1.356668918685846881e-01
-1.342299000827147371e-01
-1.443318044902244246e-01
-1.778022705678808657e-01
-2.065084862239382479e-01
-1.916065466377451787e-01
-1.333504917016378466e-01
-7.362759091572315673e-02
-4.643890990401065844e-02
-3.783719728940449639e-02
1.177322410489061756e-03
1.008624531108089639e-01
2.292453178890762888e-01
3.070272238863947512e-01
2.728728555061521455e-01
1.420515328342277228e-01
1.076851380760237079e-02
-1.256227254974106103e-02
8.184228585483180329e-02
1.714278975735596400e-01
1.270838263561914760e-01
-4.007191633606256576e-02
-2.050918013042060395e-01
-2.732983720783596637e-01
-2.482691589834431223e-01
-1.872725948294624021e-01
-1.384174724072443352e-01
-1.119646276743024860e-01
-8.899510898949686277e-02
-5.456227591759134354e-02
-1.498656928985598290e-02
8.620420884696266065e-03
-2.678670393545620754e-02
-1.643073375819082693e-01
-3.166776394256788363e-01
-1.828605818628449564e-01
4.524232266017544357e-01
1.205690693981078532e+00
1.273965206054438415e+00
4.756017588788447603e-01
-3.517371941152928061e-01
-4.182324379568361228e-01
7.099152563874136512e-02
4.065407833384553915e-01
3.057467278585218051e-01
1.786088894980732839e-02
-1.673072964448830136e-01
-2.029513710822646866e-01
-1.778910218796840859e-01
-1.573319437578774016e-01
-1.548930739251092592e-01
-1.528433476174610728e-01
-1.372727462159601952e-01
-1.331631901343776625e-01
-1.669625636493134169e-01
-2.122113423545853583e-01
-2.230271315286099787e-01
-1.944890396229099760e-01
-1.600413809368375906e-01
-1.523475718304991289e-01
-1.674288077558686860e-01
-1.516381192151649571e-01
-5.033729352184230371e-02
1.116138261933753428e-01
2.304116648557364422e-01
2.222380609286150055e-01
1.012580421774201128e-01
-4.436985129760070978e-02
-1.346170607335060443e-01
-1.488877901495211931e-01
-1.188259413237274797e-01
-1.005422350097403411e-01
-1.400757625396192307e-01
-2.288074570495012561e-01
-3.017007631441981363e-01
-3.066278988304952380e-01
-2.577580665554243811e-01
-2.021928603275750524e-01
-1.644243733097996985e-01
-1.429085539986253706e-01
-1.297825195543176047e-01
-1.138413309395882034e-01
-9.498157976648052836e-02
-1.242020745605638132e-01
-2.770289885365047611e-01
-4.767120483927608787e-01
-3.637439179833836245e-01
3.872488913423857149e-01
1.435693174268580785e+00
1.819044074684123879e+00
1.065458854428213087e+00
-7.657317889901982255e-02
-5.303790711245615075e-01
-1.511431814718683930e-01
3.731615976457672845e-01
5.053950140404472879e-01
2.967187657884954310e-01
5.762181128205173114e-02
-4.084115251035238398e-02
-3.576673378127771807e-02
-3.168193811214019273e-02
-7.712181014199478990e-02
-1.510087947886114557e-01
-2.199867286530481081e-01
-2.727642243896851726e-01
-3.007745057206432926e-01
-2.852061225242658593e-01
-2.219518667652499166e-01
-1.401429985077456419e-01
-8.163371378085478025e-02
-6.519388047365008709e-02
-6.943172054360029211e-02
-4.250983089005336280e-02
5.850501600729073048e-02
2.094555294524034772e-01
3.110771764896739788e-01
2.763549919157103907e-01
1.257531856402286652e-01
-2.497069575374727748e-02
-7.578180856086406958e-02
-3.414085221812752230e-02
1.526337320925902179e-02
1.618072376700073131e-02
-1.923202435001116969e-02
-5.665446433330099257e-02
-7.842085570277358697e-02
-8.207455727157966785e-02
-6.766018484117819476e-02
-3.565520119789586384e-02
-2.297879865618999290e-03
3.165319689292287516e-03
