3.902825370940897487e-02
6.846297245865712311e-02
1.147674865088660345e-01
1.393654439255748723e-01
7.211894505508702202e-02
-8.266410024486899044e-02
-1.938082830688993563e-01
-1.363024467872020751e-01
3.712142617409703443e-02
1.536497573843326470e-01
1.371743352799545124e-01
7.302099208735265967e-02
5.864292084675946926e-02
8.062360753247849177e-02
7.993772764538895070e-02
6.515443524474562320e-02
8.451121722555163251e-02
1.355410140234443173e-01
1.755647984294423092e-01
1.863553474319414871e-01
1.786000773452752211e-01
1.609772279221222124e-01
1.388550244160426383e-01
1.250075660034531133e-01
1.291360650503678431e-01
1.455721617449640126e-01
1.594879730800023709e-01
1.603331020769854232e-01
1.490598889020452178e-01
1.339183650248774449e-01
1.207373309639111769e-01
1.065445712223530433e-01
7.520097603105180273e-02
1.104124984063971707e-02
-6.942311506912872410e-02
-1.434623862590757581e-01
-2.554391717497679903e-01
-4.528861878994529522e-01
-6.154205339534327690e-01
-5.209552431635763314e-01
-1.477631543100489109e-01
2.538597483295620405e-01
4.412262225981846697e-01
4.015349952696469216e-01
2.768308247071348260e-01
1.817748897209116310e-01
1.378556810154515089e-01
1.191416725170010432e-01
1.019506201488072777e-01
7.897011338648486645e-02
5.626594785446937391e-02
4.340449788215995641e-02
4.218853675618219196e-02
4.293891577303173002e-02
2.605449511405679569e-02
-2.554151942081929125e-02
-9.396399581915292065e-02
-1.227473956876156680e-01
-8.258991713024189940e-02
-1.396044234174863632e-02
3.218271030671365773e-02
5.589231305463250588e-02
8.004929815399472459e-02
1.026943665257245286e-01
1.077452563310035416e-01
9.454192320961972429e-02
6.884271633087524211e-02
2.891763295534901385e-02
-1.416510292059354470e-02
-3.141743532019406621e-02
-1.093571775668822008e-02
2.838534512760554698e-02
6.209609152644444963e-02
7.684782410921772722e-02
7.010267052529754739e-02
5.128843870495666812e-02
3.346473789669904275e-02
1.790670483473408986e-02
1.862694612377089817e-03
-8.487559316745010851e-03
-1.581462318385581586e-02
-3.568911868343720151e-02
-5.814429602026369853e-02
-4.481798093415684248e-02
9.545723085538531869e-03
4.396012501292197172e-02
-8.178630879014436861e-03
-1.222054988769657458e-01
-1.901565224254746500e-01
-1.601103583112133411e-01
-1.008546256137645425e-01
-1.014097823794259945e-01
-2.112910622136912608e-01
-4.509411972348195685e-01
-7.164639785394613103e-01
-7.573164762765971503e-01
-4.568408244661406603e-01
-3.893541733752067802e-02
1.832284765877390253e-01
1.562826013004108561e-01
5.436883859599860730e-02
1.173830191325207772e-02
1.077683976498259276e-02
-2.098131440101344558e-02
-9.637307107303817733e-02
-1.585793609632073775e-01
-1.577222646974114351e-01
-1.117824834282775681e-01
-7.324904577144630835e-02
-5.703675214161715162e-02
-3.806097910601716899e-02
-8.444750373254785586e-03
6.076736841903455921e-03
-1.032668643082734240e-02
-3.811643610099881008e-02
-4.682874313242389036e-02
-2.704840194993077956e-02
3.115575826434565515e-03
2.180605205735645577e-02
3.298934577434684684e-02
5.512973999558598570e-02
8.035125652206739910e-02
7.700031945437527114e-02
4.122267474263471149e-02
1.404876874270776475e-02
3.262225560979219868e-02
8.926322979411152603e-02
1.513362872352530530e-01
1.960706956632167486e-01
2.135017126866797788e-01
2.032844437269705207e-01
1.820348663247262078e-01
1.687348642979984992e-01
1.601168237990523713e-01
1.464705242319924439e-01
1.397546970948461698e-01
1.537152845462436412e-01
1.704567622515263947e-01
1.577123595592187510e-01
1.082745251294159466e-01
4.215210022141022833e-02
-1.191351214288754665e-02
-2.341520010321296308e-02
2.119080028604150914e-02
8.658311700629170438e-02
9.982763727770163631e-02
2.299409697247919299e-02
-1.036252774891715800e-01
-2.426134083277444176e-01
-4.286502493290132998e-01
-6.284283964728066829e-01
-6.367039326894913254e-01
-3.250593536052854837e-01
1.185711647001992386e-01
3.909381919912393588e-01
3.954893788932841159e-01
2.533612692283671031e-01
1.211967709680528971e-01
7.305232388035123869e-02
8.586228186336265777e-02
9.526564832395956195e-02
7.253259687640137288e-02
3.960689142369901161e-02
2.154574997888424048e-02
1.659877654237938011e-02
8.033784712687893487e-03
-1.481652250866597083e-02
-4.175771640537162543e-02
-4.289850764488579299e-02
2.110462448319898147e-03
7.333155063420436492e-02
1.242639842677447787e-01
1.277543165570038664e-01
9.697188576393511728e-02
6.532801635736115720e-02
5.493464458492792329e-02
6.058756373112390153e-02
6.307730848967910142e-02
6.207496889271091334e-02
8.084214092550730257e-02
1.256967370110626259e-01
1.664474779153911899e-01
1.721285209941716687e-01
1.425366347318793303e-01
1.030494654781805158e-01
8.484347086716612085e-02
9.683965075160275160e-02
1.125510299466511849e-01
1.070645255437483456e-01
9.595510161933480664e-02
1.031278982734696453e-01
1.035865737445928469e-01
4.630004178423289402e-02
-5.590380419747884022e-02
-1.096504555836731870e-01
-5.283214643997083404e-02
6.258062862568655738e-02
1.441183432047961899e-01
1.655115994469917029e-01
1.564955706680384306e-01
1.263690029658194602e-01
4.587992837006549252e-02
-8.499809346774037100e-02
-1.728925260552719168e-01
-1.157669038121320326e-01
-1.988546807272830244e-02
-1.756430094748648862e-01
-6.102872296195555046e-01
-8.828807022226131673e-01
-6.271081345120219641e-01
-5.037689038813454590e-02
3.677569644937574433e-01
4.117948604762569076e-01
2.109890839708010724e-01
8.660909083862723679e-03
-5.426743925292754067e-02
-1.638916468282410402e-02
2.165064749497212955e-03
-5.190972541108103411e-02
-1.369402957580167501e-01
-1.933141689065434599e-01
-2.044191047670884664e-01
-1.910748568894103383e-01
-1.753201238343455315e-01
-1.673739197607444495e-01
-1.747368185427072562e-01
-1.937367813759113266e-01
-1.997257247965449622e-01
-1.727660141112089542e-01
-1.247677483110372493e-01
-8.580793912867691609e-02
-7.095032777574665495e-02
-6.706610345162848652e-02
-5.127851747750025724e-02
-2.031550046460034453e-02
7.650341165957240744e-03
2.289407904904538008e-02
3.825557719297649484e-02
6.665345979978033741e-02
9.917018013901830742e-02
1.082680854863004583e-01
7.241053904288921594e-02
9.104844949568504514e-03
-2.702154240361603899e-02
2.171234488144782593e-04
6.471047196110311928e-02
1.055575231915003021e-01
9.394805080381964102e-02
5.576834673160502992e-02
2.187137497344763745e-02
-9.597719323553449006e-03
-3.766898656972227089e-02
-4.044204018490243913e-02
-2.986676061758562414e-02
-4.425887074223075479e-02
-3.257497684810665983e-02
1.313835041919433622e-01
4.023999114192480797e-01
4.813668870114112264e-01
2.013054809250433563e-01
-1.433040802604173547e-01
-1.813794817153600580e-01
-7.210976156087546551e-02
-2.627101087480852026e-01
-6.739308181701449962e-01
-7.254905613840291201e-01
-2.315915482156765126e-01
3.274041610944755654e-01
4.956006789425539960e-01
3.229171971099074612e-01
1.129009058737339699e-01
2.668379162023284609e-02
1.852810155048528404e-02
-6.211572233733332442e-03
-7.431771021846833580e-02
-1.503428728811828929e-01
-1.954346038375577022e-01
-2.052184518073493780e-01
-1.992575183612210754e-01
-1.895619488473530012e-01
-1.797987619066317433e-01
-1.769321650780101285e-01
-1.722059787705368383e-01
-1.370812648172144432e-01
-6.651571486007390455e-02
1.937679032132067283e-03
3.067908730127157091e-02
2.376009777678101537e-02
1.739445911701634900e-02
3.766064239192175311e-02
7.373006825818421983e-02
9.714054707797374622e-02
1.023974918688144720e-01
1.130929800204325403e-01
1.459482102602150388e-01
1.857248834639444457e-01
2.043271313804366218e-01
1.928035902390805578e-01
1.670797909149889515e-01
1.519312589661683255e-01
1.625518476138882451e-01
1.912619385532565719e-01
2.114533188032809985e-01
2.058591370229138073e-01
1.876377611165874204e-01
1.792683422524493086e-01
1.806887819311796262e-01
1.795117275994553840e-01
1.775374473086908378e-01
1.778417000778324264e-01
1.642506354841773430e-01
1.311394396155472208e-01
1.105246036510749152e-01
1.203858962951793871e-01
1.099314926090712713e-01
2.913604312293899268e-02
-6.003566041009424092e-02
-7.237330691688829976e-02
-1.128082051399248997e-01
-3.618700382658340264e-01
-6.882557542213373347e-01
-7.080452976255809938e-01
-3.152438893285449684e-01
1.691513183919728935e-01
4.127754250834312910e-01
3.803782774271743938e-01
2.356297309019513286e-01
1.211901423034150577e-01
6.826475612666262072e-02
4.288573199082571646e-02
2.038466912105221795e-02
1.086419950353707982e-03
-2.191810474542947584e-02
-7.208392602215679679e-02
-1.491453294476930702e-01
-2.059008811472208822e-01
-2.015303514972089094e-01
-1.569855424940878597e-01
-1.182293626498917422e-01
-9.203885893772639770e-02
-5.457916133037778172e-02
2.536707412696013672e-03
5.895637310841519985e-02
8.307611671485432003e-02
5.736242928553242360e-02
2.118872168210654550e-06
-3.373588204234637122e-02
5.709101617924410704e-03
9.026281828087494297e-02
1.141081669095004164e-01
1.227138569458496170e-02
-1.475767791048737121e-01
-2.284206728592370617e-01
-1.571087372111816260e-01
1.405567556540935487e-02
1.603644710377862270e-01
1.972806224943750575e-01
1.392272617106120880e-01
6.178552479185905194e-02
3.142418421633837167e-02
5.747639635790391388e-02
9.830261067262223429e-02
1.204993449059673788e-01
1.291200936799953014e-01
1.299596269269122917e-01
1.043999872571993309e-01
4.829159612446540240e-02
7.930757643789799333e-03
3.512747933244108473e-02
1.068579719545307422e-01
1.353232848568744762e-01
7.880810544110095073e-02
-3.625420694602548080e-04
-4.980779207644345924e-02
-1.648156534878964519e-01
-4.489337856679556649e-01
-7.272104713537764775e-01
-6.621400277122609923e-01
-2.162509630885475209e-01
2.625036970361843691e-01
4.558550070034262935e-01
3.670660721130585835e-01
1.950750484016037789e-01
8.404798596290324886e-02
4.214558238911114002e-02
2.143319081301640894e-02
-4.315085232231600457e-04
-1.912624990003498893e-02
-3.862758216024044650e-02
-7.545784185660538157e-02
-1.250346044230836451e-01
-1.435064656205049527e-01
-9.994401746311842860e-02
-5.730035097837374997e-02
-1.373929658690960232e-01
-3.401981363770977818e-01
-4.726203871365527442e-01
-3.686033120046898759e-01
-1.067977721088162329e-01
9.890199283936040864e-02
1.451091175703373148e-01
9.252371145870462443e-02
4.612415118648246354e-02
5.089102631200746740e-02
8.270620240456832972e-02
1.018052577079589238e-01
9.769036870891187330e-02
8.674680286767555426e-02
8.889277984290575030e-02
1.052876058806905407e-01
1.060442707402647622e-01
6.608715423710172232e-02
1.454054509214380841e-02
3.860042759176928080e-03
4.418006536731301087e-02
1.057681407170185800e-01
1.533278982681608171e-01
1.590418967691761831e-01
1.223494073063294829e-01
7.854886462387027091e-02
5.322251308857045560e-02
2.303296493520648122e-02
-3.994578087596772908e-02
-1.007629841545555072e-01
-8.921925130077498767e-02
-2.373187075960672340e-03
6.557537872763585796e-02
2.750507421677825248e-02
-9.185444212945342857e-02
-2.178264453881735008e-01
-3.645346358401422848e-01
-5.671450431312538010e-01
-6.849802892646649211e-01
-5.057885516729365705e-01
-7.783450434291594444e-02
2.887329454994373434e-01
3.734130170659485937e-01
2.342942751434496373e-01
5.902724334554732694e-02
-3.696167154107816988e-02
-3.255190067312235119e-02
6.868087383344567698e-02
2.190471221189358997e-01
2.965007268514142647e-01
2.181809094626220857e-01
5.306457530893886332e-02
-5.749094459420568681e-02
-5.230072799262931726e-02
1.485850743118127988e-02
5.317600975404170038e-02
2.446761026138142073e-02
-3.457859579193502120e-02
-6.886812348395414396e-02
-6.276804484930521844e-02
-3.563024630440315282e-02
-7.715809708027744629e-03
1.548961233347468866e-02
3.844200660784158341e-02
5.892746169120775118e-02
6.167718598269396335e-02
4.329967208555235425e-02
2.814263629949545834e-02
3.424508915726374308e-02
4.564718877836999172e-02
4.496382228360110145e-02
4.295596701312958537e-02
5.111366879851092504e-02
6.079003265247027304e-02
6.895962542923290972e-02
8.851729449517663217e-02
1.187802061924615876e-01
1.346854229299767336e-01
1.163321846317555974e-01
7.432075211138974846e-02
3.952624169353920885e-02
3.274115487859511481e-02
4.957797844681278987e-02
7.305473915559120013e-02
8.707400235316314907e-02
7.268287483824834028e-02
1.527326375729389646e-02
-6.344212850648751900e-02
-1.099244739873883048e-01
-1.035055915209349142e-01
-7.959131529315247033e-02
-9.421370795341878213e-02
-2.169425503315893511e-01
-4.618894611961815722e-01
-6.492037845135625318e-01
-5.215778335804127641e-01
-9.133265447633910628e-02
3.211669615459752936e-01
4.501061482081222809e-01
3.323197638978162005e-01
1.811961447989097751e-01
1.311546164138393811e-01
1.483179905066772664e-01
1.415618638981646638e-01
8.470163978489059220e-02
1.486035071294162374e-02
-2.584180945811473049e-02
-2.024486797777960700e-02
1.282735717958390260e-02
2.820526323427121132e-02
-2.957779920801780968e-03
-6.766833652447505620e-02
-1.283486680750940689e-01
-1.418100208069785206e-01
-8.627898199647712763e-02
2.740102534846911020e-03
6.318923023058020672e-02
7.818696271826788835e-02
7.545099302230580396e-02
7.580187070786258141e-02
7.876979104250039776e-02
8.148304491196743660e-02
9.548976391097882543e-02
1.408401047399636674e-01
2.043837632096354717e-01
2.234160168623713638e-01
1.610518633768395769e-01
7.463001090523309344e-02
4.641643911630908420e-02
7.261194041781410258e-02
9.103343746916539581e-02
9.098876123195551169e-02
1.134419981336672323e-01
1.601200689826455248e-01
1.852898101168909406e-01
1.725822703282702819e-01
1.475460647836818739e-01
1.067930423082476543e-01
7.273499908137784700e-03
-1.340912985316891903e-01
-2.027046074215329563e-01
-1.222528087586294832e-01
3.635624446747946770e-02
1.422629033173593571e-01
1.244179186529745379e-01
-5.276868042263382561e-03
-1.365840596717708133e-01
-1.114764122227577398e-01
3.398254137350537746e-02
-2.517264004509353267e-02
-4.576388178386462391e-01
-8.687161481151544073e-01
-7.437456798227451982e-01
-1.499162583235824076e-01
3.926639207140005805e-01
5.590213277193044616e-01
4.171651589412601058e-01
1.517968273444866845e-01
-1.096112025465929840e-01
-2.586331277336645917e-01
-2.357245819070208637e-01
-1.157740861837021074e-01
-3.331433378444571825e-02
-3.446306872195144255e-02
-7.157180220837347506e-02
-9.833521213128446070e-02
-1.108456534657409759e-01
-1.184566035058161049e-01
-1.210458454130579481e-01
-1.180103266493987835e-01
-1.085317952788419915e-01
-7.855425809739059739e-02
-1.759947919646905404e-02
4.589778537847793993e-02
6.341856323614886159e-02
3.782429250000493570e-02
2.625425698049881421e-02
4.912450292244165823e-02
6.406593475212546407e-02
4.764885526302312102e-02
2.897823644117442088e-02
3.059201761233745764e-02
3.626941259242705967e-02
2.838450979659988896e-02
1.716264909474377737e-02
2.005900736240825988e-02
3.529534727774056441e-02
4.734298520817453032e-02
4.667775427184160664e-02
3.787231983437040067e-02
3.224661726173478488e-02
3.234897455973792524e-02
2.832487555917848066e-02
1.760364308553807530e-02
1.863571406813026993e-02
4.876007821889415117e-02
9.514393383394803561e-02
1.319011157879592111e-01
1.572460196696604251e-01
1.649659167977871599e-01
8.824636593165134657e-02
-1.298926245076404418e-01
-3.752604656231021685e-01
-3.922554543853129516e-01
-1.119359898294823713e-01
1.170240226577573261e-01
-1.041992493583728252e-01
-5.971319769152416690e-01
-7.340461184725516341e-01
-2.820485785322997541e-01
3.091500653377653451e-01
5.390839576263243282e-01
3.875589682179092499e-01
1.462864623373722472e-01
1.286420661803703083e-02
-2.621054508266308994e-02
-4.873919500655916892e-02
-7.471612733179669452e-02
-8.553111045428332671e-02
-8.408702953993994755e-02
-9.727107493121339710e-02
-1.377994954239510905e-01
-1.861201291311797290e-01
-2.107974182740576796e-01
-1.998186653959868053e-01
-1.646367858115802552e-01
-1.162894421913195503e-01
-5.951842403924566954e-02
-1.719404895681377748e-02
-2.516456616502010801e-02
-7.610178028464353872e-02
-1.047728188792865500e-01
-6.483715637022237355e-02
1.781411688836313442e-02
9.423074864187419575e-02
1.469876135342369772e-01
1.746216923874444327e-01
1.652092742684980742e-01
1.130605856799000164e-01
4.731444746326703144e-02
2.157497428524531025e-02
6.178735346426503239e-02
1.285003531442900082e-01
1.507568827933410127e-01
1.046113881480034979e-01
4.087231814502191585e-02
2.678610778334598874e-02
7.493244857029338069e-02
1.350302925469411552e-01
1.491402574486824506e-01
1.115203397340141511e-01
6.522326593816078766e-02
4.521218050744137823e-02
5.103906900622456888e-02
7.514150919099533976e-02
1.224306817045384826e-01
1.785398282875843567e-01
1.857048802831391676e-01
1.071018306264304998e-01
6.557683477667225133e-03
-4.452164892720708589e-02
-1.419072267991784986e-01
-4.173312785016193849e-01
-7.064554435707757207e-01
-6.560944877087898641e-01
-2.133495164906358266e-01
2.824352095803300267e-01
5.050562796367596974e-01
4.231535754065412491e-01
2.155657506696346815e-01
6.330431195480201723e-02
2.276828049255030795e-02
3.277056743233998370e-02
1.347335759289731809e-02
-5.100005641518167571e-02
-1.137809799179526626e-01
-1.251263698255842549e-01
-8.995820371782822789e-02
-7.102011056762883023e-02
-1.199601901460878306e-01
-1.993019446388424598e-01
-2.109693750789103928e-01
-1.225406095186395705e-01
-1.135460898663510562e-02
3.979790808812582598e-02
3.018449814543764861e-02
1.321951040230032182e-02
3.714693268292319772e-02
1.109883756613717493e-01
1.865743727325283874e-01
1.899251340325734116e-01
1.055894216486415321e-01
5.844347646175515609e-03
-3.362513262116340745e-02
-1.261937887502362007e-02
2.709017948111422380e-02
6.604325708563484054e-02
9.739434059146234723e-02
1.007674490550538038e-01
7.606739063723502725e-02
6.374280601256759882e-02
8.679303639067956211e-02
1.110576995975112863e-01
9.639336246748425596e-02
5.324269185805214494e-02
2.553875469514986160e-02
3.581729653299713101e-02
6.073622349454197572e-02
6.028197650647989375e-02
2.792857329565957489e-02
4.497385995076334277e-03
3.709394550801237839e-02
1.224171566629542324e-01
1.866043977581072211e-01
1.467681024859145700e-01
1.947023277373569755e-02
-1.064063268044070226e-01
-2.464051046949355950e-01
-4.937634130151398737e-01
-7.382933779633175098e-01
-6.797601809437162634e-01
-2.504468896936772326e-01
2.319314933839126958e-01
4.406391263865119812e-01
3.650790801872590974e-01
2.027122785695024410e-01
9.386288047356841635e-02
3.877376093885622627e-02
-8.256539232932265729e-03
-5.264730272438603725e-02
-7.475323021143644164e-02
-7.645676728516326293e-02
-6.464466837810325939e-02
-1.668663563264215915e-02
6.766901479737398584e-02
1.030594795830075683e-01
1.024886478598535829e-02
-1.372876328272405189e-01
-1.746695641864237369e-01
-5.729231828425562778e-02
9.050816947116599454e-02
1.355944610068994249e-01
6.390807637343749736e-02
-3.544083923199070618e-02
-5.868461617576328782e-02
1.653059762786425815e-02
1.075570413415257304e-01
1.301577657847755032e-01
1.044639059898114508e-01
1.085967925293332276e-01
1.537876479476399660e-01
1.756599178550672102e-01
1.442231517017188991e-01
1.019200491429208960e-01
8.422508804668021876e-02
9.003423957156862778e-02
1.322709488458980176e-01
2.196909015393290754e-01
2.933907667246182793e-01
2.754172131349594266e-01
1.689144458207222366e-01
4.241517935961404417e-02
-5.214435925201169747e-02
-9.716954287841200744e-02
-8.877721143357224232e-02
-3.908061930590826794e-02
2.501498620697394787e-02
8.186914355502998564e-02
1.127042893551578606e-01
7.307303407140344764e-02
-8.706652407517752323e-02
-3.273834122430858695e-01
-4.985610695221332489e-01
-5.223240195282142784e-01
-5.124245474419587554e-01
-5.633846825806132497e-01
-5.434871434588085526e-01
-2.966735386333848590e-01
8.097924219751106989e-02
3.438537722079512693e-01
3.722895170202354942e-01
2.378140057891162118e-01
8.341566756935714366e-02
2.853516008772033138e-02
1.253018478161651017e-01
2.965750459701699815e-01
3.603550280925354454e-01
2.292781082343547383e-01
2.276594037429961748e-02
-1.094429606883310091e-01
-1.602205580952541231e-01
-1.836045160639232510e-01
-1.699267229172133076e-01
-9.436806692104940386e-02
-1.888613153102589037e-02
-4.677198167390182043e-02
-1.687359285290217781e-01
-2.416105565886212947e-01
-1.680973847905284924e-01
-1.488119971211498971e-02
9.896988874163167860e-02
1.413927522704790385e-01
1.450516242780985343e-01
1.288657002824346032e-01
1.038456856489831520e-01
1.004557056006635390e-01
1.282485502216973161e-01
1.512121521693134685e-01
1.416878241890034418e-01
1.084823793789690405e-01
6.656457689528126609e-02
3.541389589769840945e-02
4.298025706738536206e-02
8.256419502536734012e-02
1.048434923297425353e-01
8.388861002804418043e-02
5.381536522763287478e-02
5.804008257417824640e-02
8.032356218676746373e-02
5.739551248018714275e-02
-2.191951115620343823e-02
-7.117078662635119291e-02
-1.112413484976197513e-02
1.085085335068981249e-01
1.436222081503165660e-01
3.220783633559624534e-03
-2.562964851650466613e-01
-4.584154253353566744e-01
-4.348101751504678258e-01
-2.274596539832279274e-01
-1.511859469683263235e-01
-4.296557943546168712e-01
-7.795278284306387251e-01
-7.009320259062602476e-01
-1.697878667610320247e-01
3.335085912350956305e-01
4.509746931967263395e-01
2.723828371379360958e-01
7.373522429102721820e-02
-1.734141924184032929e-03
1.898215932710903622e-02
5.302486916437101211e-02
4.415875214512851588e-02
-1.791394087749632880e-02
-1.065654236942304711e-01
-1.758139385253198461e-01
-1.897698126102680682e-01
-1.497865387649404967e-01
-9.404666591144839050e-02
-7.373004082294584705e-02
-1.126930363552334224e-01
-1.677987094715487071e-01
-1.566522779110560981e-01
-5.941877350521589107e-02
4.543293498658659141e-02
8.109212765352358243e-02
5.652520761457829890e-02
2.469328347058472387e-02
1.252171525935566118e-02
1.825750144883187681e-02
4.194986606067043627e-02
8.743460299251321066e-02
1.362928956948889769e-01
1.489411373109382764e-01
1.136168718411383061e-01
7.192028543849431077e-02
6.830555690999098872e-02
9.509967954097020559e-02
1.152647005894047172e-01
1.169716727189022559e-01
1.135397003146343120e-01
1.097806165399813488e-01
1.025858862976747055e-01
9.818004885741292431e-02
9.927115150759337203e-02
9.193845332440947482e-02
6.792393860750062240e-02
4.205405163435983751e-02
3.338353743728476875e-02
4.836595578627503333e-02
8.487241326433463129e-02
1.205906822962203445e-01
9.861677591202849813e-02
-1.018381525655297215e-02
-1.022000606706960774e-01
-2.128233570438418237e-02
1.416796565901712046e-01
3.486118093101067683e-02
-4.149907449081630673e-01
-7.216786643719440564e-01
-4.550264082331553217e-01
1.484067475030314553e-01
5.210889238268900936e-01
4.466510954240962006e-01
1.628675359309346982e-01
-2.221226389097333970e-02
-2.882667550041575003e-02
2.570482863766847259e-02
3.049090860920295257e-02
-1.677836318747402689e-02
-7.586785629542487641e-02
-1.349640255478883610e-01
-1.855365070673256622e-01
-1.949907571133110695e-01
-1.514075250091179714e-01
-8.983019039227391200e-02
-4.151593791240337783e-02
-4.082327378755251299e-04
4.041273733751835767e-02
5.868425497806144947e-02
3.262560311908822147e-02
-1.638467456610145923e-02
-3.746536788770030851e-02
-1.098723446014625467e-02
3.004010965371173986e-02
4.721503545357988441e-02
3.959953125531860685e-02
3.569368672726569436e-02
5.997977924604296074e-02
1.079533251329006655e-01
1.488081452616215605e-01
1.513442646877475317e-01
1.170302340316182327e-01
8.988116884637491200e-02
1.048832462220681688e-01
1.362812151424343532e-01
1.425758607995825100e-01
1.352561756979294705e-01
1.511250567215536023e-01
1.847853367752330389e-01
1.965111024348505098e-01
1.715791685416239998e-01
1.320649979094397075e-01
9.799335552405609440e-02
6.977001626161317971e-02
4.591496085776786140e-02
3.654641709955969153e-02
5.234406076941534175e-02
7.787133016971389821e-02
6.962936855576971895e-02
1.763182301071077734e-02
-1.303182880097451292e-02
-3.529677530392157439e-03
-1.022315924807854631e-01
-4.078350642142540838e-01
-6.816561693316635084e-01
-5.816468508429172291e-01
-1.357317546684818632e-01
2.913757882345552330e-01
4.302719352211217263e-01
3.167327431764361267e-01
1.443588727282513196e-01
4.580755132957897713e-02
2.333661033964144413e-02
1.957578247026651661e-02
-7.959819344742311009e-03
-7.159982293886842097e-02
-1.518898912786833533e-01
-2.027433505320623552e-01
-1.993070491257998289e-01
-1.724834871419453908e-01
-1.597032333438711815e-01
-1.521869330927866082e-01
-1.312062630841046573e-01
-1.139453631359329533e-01
-1.205331550749622477e-01
-1.340513724539391383e-01
-1.266087237013718836e-01
-9.442634786356776666e-02
-4.755760017704837445e-02
5.962640257203806818e-03
4.684643085353307201e-02
4.283081568832387137e-02
-1.000614559781773383e-02
-6.375581683026704249e-02
-6.565691984880851761e-02
-5.163669113434568234e-03
9.909636795500299800e-02
2.115340245498510685e-01
2.741587747455114799e-01
2.488214331683694658e-01
1.662830611669366410e-01
9.293119841257770075e-02
6.352567532215802615e-02
6.967279517723388993e-02
8.965196135859462845e-02
1.058213988041048909e-01
1.059365303578446021e-01
8.848849589746481115e-02
6.414091711824138065e-02
4.301940577807410182e-02
2.982845134259668948e-02
3.341256180776304430e-02
6.041323668157071169e-02
9.048601640992437467e-02
7.416938946833653845e-02
-2.006114484965942565e-02
-1.441852168511616739e-01
-2.031085895231838634e-01
-2.108406699587547506e-01
-3.183185673927136361e-01
-5.432966057440460350e-01
-6.221953375624033056e-01
-3.479943651096604196e-01
1.039175344819939784e-01
3.910125465843901083e-01
3.919025274734751485e-01
2.392802989871756769e-01
1.015769618536947749e-01
4.172024706286586726e-02
2.712213646328994615e-02
8.182470635139056647e-03
-2.295737242161360880e-02
-4.466461069656064292e-02
-4.924806929504215586e-02
-4.882163375385712573e-02
-5.418481531910048637e-02
-6.803349979367098732e-02
-8.978433581587294543e-02
-1.150599336032735315e-01
-1.281282562800833691e-01
-1.038535523709506886e-01
-3.726213523406420036e-02
3.619743191785607800e-02
7.695890859753523605e-02
8.638772850391149283e-02
9.333646897847422408e-02
1.107759890127593683e-01
1.199722658840784023e-01
8.597882015951235912e-02
-7.280105003515112069e-03
-1.177744906961855076e-01
-1.650388647603592274e-01
-1.190335946832084685e-01
-3.051969568475286498e-02
4.446074289068289997e-02
9.298133672647036774e-02
1.178699349262610219e-01
1.230868555231051237e-01
1.251053224680737652e-01
1.394831528725557490e-01
1.547654879921203930e-01
1.374790493129829094e-01
7.126965170988872056e-02
-8.373992394305602299e-03
-3.655222311875745700e-02
4.496917756329306057e-03
5.644038250252243760e-02
5.731562683993682988e-02
1.258523893572249634e-02
-2.647823556464209277e-02
-3.095081680699447030e-02
-2.317742781969629046e-02
-3.868243813264712200e-02
-7.844151229187881769e-02
-1.423798276717480327e-01
-2.874310179068517712e-01
-5.293274649240686802e-01
-6.962993726495840807e-01
-5.748765684327382663e-01
-2.108464525367482745e-01
1.217365079926810145e-01
2.364493509637886626e-01
1.769061459186260510e-01
8.534327098586948213e-02
4.359428284158412686e-02
4.141642920181796972e-02
3.817443206930329347e-02
1.829141865402116734e-02
-6.827776576405705095e-03
-1.940343136747615937e-02
-8.632879102171961416e-03
1.847771386883971870e-02
3.796724976848199484e-02
3.467946719716452630e-02
2.283836168640446945e-02
3.030718464288047892e-02
6.788708959635171569e-02
1.158847954853859663e-01
1.365795775060825723e-01
1.098445238118331141e-01
6.112515014978585348e-02
3.722372995058398359e-02
5.031617606742096183e-02
6.803577240242331126e-02
6.498249475494018157e-02
5.906494472870110757e-02
7.730669206081368372e-02
1.019870906285547385e-01
9.119349652956885988e-02
5.137470933136997070e-02
3.645544444423315378e-02
6.942797153682508937e-02
1.122308305324995897e-01
1.199518299398798504e-01
9.560745082664401373e-02
7.911883345641043674e-02
9.185400110895082515e-02
1.088270043981494628e-01
8.878880651972567706e-02
2.907622122714671395e-02
-5.978630308939339791e-03
5.452840791004913423e-02
1.658052714367601599e-01
1.880292064116435569e-01
9.148283087942822578e-02
1.785035719947079130e-02
7.275199559701983620e-02
1.786793288031902627e-01
1.775898511796794033e-01
2.054489265982113386e-02
-1.766547984737316113e-01
-3.053743081964319095e-01
-4.246356495900409089e-01
-5.989021296687719875e-01
-6.956658672237184815e-01
-5.665167431747175630e-01
-2.792408323250787916e-01
6.540050877536646157e-03
2.106097549056685225e-01
2.985200447513741140e-01
2.625310309925598107e-01
1.639030039759366564e-01
8.327668021734672965e-02
3.564349995957792616e-02
-1.235428935006804493e-02
-5.855787900511778138e-02
-5.438613659308847575e-02
6.596814182613553942e-03
4.199112776816001785e-02
-2.465477453593700394e-02
-1.423443886194367125e-01
-1.787443678341353037e-01
-1.125914034792161178e-01
-8.707628523671379073e-02
-1.950145582417715517e-01
-3.130569515975285544e-01
-2.660748950382365585e-01
-6.973877654811717897e-02
1.109102817510650291e-01
1.719142522314189292e-01
1.347790465187561626e-01
6.592601712506356015e-02
2.440565508109102111e-02
5.102953539631720214e-02
1.383986105823035162e-01
2.189123311895520285e-01
2.196777709277383250e-01
1.349700660938543961e-01
4.132554976188317075e-02
3.264070649770534072e-02
1.156055403867009973e-01
1.873297409735887598e-01
1.564584277185808170e-01
5.570521066210649963e-02
-4.276059124837075162e-03
3.543462816276916200e-02
1.171804318567408604e-01
1.214827431084758297e-01
5.785908318937793039e-03
-1.175559752107852574e-01
-1.040438589780819656e-01
3.734879155655250471e-02
1.662363268902404545e-01
1.849454170345868342e-01
1.044431855367160544e-01
-1.892517354187144701e-03
-2.685890488731595971e-02
8.870029051813300980e-02
2.019053352740406149e-01
5.304730374931920789e-02
-3.374589906763474922e-01
-5.640999411849205725e-01
-3.353102845768310414e-01
1.413036395455785077e-01
4.548763406087167338e-01
4.565916069702284918e-01
2.912872158759994834e-01
1.388570419282122159e-01
5.817315551982715771e-02
2.291951700611347120e-02
1.528409518373605863e-03
-2.172372495325720909e-02
-5.215183304096260991e-02
-8.444564656843767114e-02
-1.124552567946880965e-01
-1.346235514763567676e-01
-1.441888364712593795e-01
-1.327422105852837375e-01
-1.019345082861874141e-01
-5.954965062858098845e-02
-1.747069353300407385e-02
4.805092847166129305e-03
-6.532272665071210335e-03
-4.469949184016696470e-02
-8.502587565521045609e-02
-9.503256296809690917e-02
-5.932343854753211604e-02
-5.035264862122015503e-03
3.269179151159370966e-02
7.003194341356387687e-02
1.421239002482262426e-01
2.180824773141160078e-01
2.203040056133872826e-01
1.335444180581131512e-01
3.460179033727475012e-02
3.724485128430926086e-03
4.990954580260305307e-02
1.275255549675167466e-01
1.825856604991417664e-01
1.759926542794018889e-01
1.081618586506271212e-01
3.397210127592899948e-02
1.649335975338567586e-02
6.107689486924256644e-02
1.183130878646042050e-01
1.362583910738697779e-01
8.656608689022718406e-02
-2.654571334594112153e-02
-1.378656929847271451e-01
-1.437747329024294252e-01
-2.767337587446941360e-02
7.098481026543557171e-02
5.395942641798949849e-04
-1.869343214581097867e-01
-2.596802429851733374e-01
-1.526571915202920848e-01
-1.603850322512956617e-01
-4.898489665255922887e-01
-7.899085286649314419e-01
-5.833789064041152717e-01
2.010984996983897211e-02
4.900549640494702985e-01
5.383231346607644241e-01
2.886524328971633579e-01
-7.646800092289969542e-03
-1.881613020059957897e-01
-2.173812890982686763e-01
-1.588670700292892091e-01
-1.169136122245262172e-01
-1.556719106011488774e-01
-2.431121840234432008e-01
-2.851346032199645886e-01
-2.364029437015689739e-01
-1.538369881597386468e-01
-1.214394999396850722e-01
-1.553564989967077259e-01
-1.926440868860201105e-01
-1.448653809243903579e-01
1.754928970334911770e-02
1.935118573969569211e-01
2.162320820143098232e-01
6.078616744863728216e-02
-9.295256074651178646e-02
-9.031410988286896202e-02
1.464866461132608919e-02
8.790098526449112437e-02
1.051856937749408444e-01
1.234760915201861819e-01
1.409892365226836086e-01
8.064553660479487074e-02
-7.839361163300062607e-02
-2.226373541690833402e-01
-2.243452669723978166e-01
-9.805114789903202066e-02
3.561297604755508245e-02
1.011441230449010575e-01
1.162718199925889262e-01
1.227959586749420573e-01
1.255343119853606082e-01
1.012591121093575908e-01
5.070815896705185843e-02
1.666329459996147844e-02
2.677386878550072971e-02
4.950771049726304662e-02
4.778100695618980875e-02
4.238550500231722667e-02
7.786296149315367898e-02
1.431296890961871182e-01
1.636889549386860432e-01
9.498533787408376672e-02
1.484155563454455165e-02
5.058285044824275406e-02
1.474192584489702196e-01
3.776969242607666755e-02
-3.575398068591642553e-01
-6.605010402849779139e-01
-4.787823287308260456e-01
5.008119796976601146e-02
4.572187402853049032e-01
5.081435082657361768e-01
3.352883338430728832e-01
1.569930578514277253e-01
5.781420669736681006e-02
5.401863427808379671e-03
-3.660563090667286190e-02
-6.262803994690296916e-02
-6.626057192647084870e-02
-7.091537213176782317e-02
-9.799766414721078345e-02
-1.379697238240625845e-01
-1.709008904705101584e-01
-1.871717734054925975e-01
-1.842609977207208261e-01
-1.734802094854366039e-01
-1.762989150336639332e-01
-1.870917930046517574e-01
-1.710433329017699566e-01
-1.150617816666017756e-01
-4.419344661759479903e-02
1.197270494847326762e-02
4.084500062303814127e-02
4.523835694482963854e-02
4.010226069496774376e-02
4.614009329498287848e-02
6.962326137304668261e-02
8.364606866326879109e-02
4.986145735084544783e-02
-2.708283086711181856e-02
-8.382294352747042543e-02
-6.032616188766719983e-02
2.357673163176523742e-02
8.755886206417834439e-02
1.059395876764447630e-01
1.514498289577077550e-01
2.725439921904204144e-01
3.894670914929996286e-01
3.941492701819956368e-01
2.972116345792513714e-01
1.951950517055430490e-01
1.442351445435753610e-01
1.313287731955423421e-01
1.312382816958723997e-01
1.415052488368291339e-01
1.652523751439257949e-01
1.758470464619702189e-01
1.208230370280917870e-01
-3.236500302661664188e-03
-1.000149332797525270e-01
-9.628176735691119925e-02
-1.113874073629494005e-01
-3.157800636450716070e-01
-5.864184291706704411e-01
-5.723058758578104532e-01
-1.798159604870869233e-01
2.769616444637502672e-01
4.720773157293241540e-01
3.911776256536994567e-01
2.275682481560419301e-01
1.268211618376967054e-01
9.349335123603917663e-02
7.010894001824781452e-02
3.267427254870677866e-02
-1.985550787727100117e-03
-2.251812980905745082e-02
-3.777911158491600169e-02
-5.144939569122461420e-02
-5.002041702718411365e-02
-2.769874967291537093e-02
-1.320052746692194218e-02
-4.691702995189801079e-02
-1.175387798378784709e-01
-1.504746170526755078e-01
-9.360131933063817189e-02
1.346930378679671997e-02
9.599104261717190945e-02
1.293170691715849197e-01
1.160788841365194418e-01
3.321212528978773754e-02
-1.143177173458111290e-01
-2.249107776731075481e-01
-1.882622887063004069e-01
-3.175850189281596153e-02
1.084342493457384482e-01
1.523816570636215006e-01
1.365228015105975912e-01
1.213913423940812530e-01
1.184845125944990613e-01
1.162719615150094726e-01
1.125309847148121545e-01
1.032358822539740512e-01
8.206582572653915719e-02
5.988160128552839911e-02
5.657435575002302958e-02
7.174417955676408443e-02
8.399987223009768023e-02
8.176686573183265805e-02
7.736120293428512540e-02
8.006835575784936043e-02
7.493968466179073973e-02
5.342853746779718804e-02
3.853540008145565215e-02
3.903603956221799592e-02
1.760993025318634622e-02
-3.730561268710480549e-02
-6.701352948472111271e-02
-7.843756219999092894e-02
-2.488986743271867641e-01
-6.763046844377926803e-01
-1.072751101353644376e+00
-1.010183983501676819e+00
-4.654573793012136695e-01
1.480975337980826589e-01
4.568324274401324714e-01
4.250296369767913029e-01
2.404608029673116487e-01
8.446415039860222240e-02
2.297265038183880781e-02
2.126689635832067909e-02
3.356822802645535730e-03
-7.860416769714521912e-02
-1.844733423473994827e-01
-2.194936493457053384e-01
-1.589300470793922615e-01
-8.304686429826149685e-02
-6.737983642259907924e-02
-1.075089726985364869e-01
-1.520704246007717475e-01
-1.516932283387370239e-01
-9.239072549924422229e-02
-9.898724911183834352e-03
4.736282213685641396e-02
6.376480102935094818e-02
5.214289504523828001e-02
3.367530224480541623e-02
3.128639145695714940e-02
4.931786038942784917e-02
6.019527766902564581e-02
4.152453543502940270e-02
1.153982459376495621e-02
1.314330543406322382e-03
1.434308221208210193e-02
3.346352612780327529e-02
4.729618941512947483e-02
5.916309917476417213e-02
8.178966704450782443e-02
1.167803154214521744e-01
1.326854209715367106e-01
9.515165206500474093e-02
3.077918083917752928e-02
1.102570591812794716e-02
5.384957926825806318e-02
9.580722771732114174e-02
8.230950196313890910e-02
3.640933108409504654e-02
2.035316581959087032e-02
6.439164096332829212e-02
1.394755908138574363e-01
1.777370450941487268e-01
1.239138455522375559e-01
-1.300626276019065282e-02
-1.413407991318557655e-01
-1.497212453526437781e-01
-7.306091936623562710e-02
-1.296551656940217456e-01
-3.986417010631384539e-01
-5.772988646076334662e-01
-3.511657422657209482e-01
1.322761138354281996e-01
4.452320005326467767e-01
3.988555747460341694e-01
1.664087902192803448e-01
-6.623779219783645922e-03
-4.582557022731182511e-02
-2.553690099879522835e-02
-2.319029971409107549e-02
-4.252233426605749739e-02
-4.581537995617466358e-02
-2.507230199515516830e-02
-1.902326234096173019e-02
-5.156841446590305911e-02
-9.198420400977981581e-02
-1.046940656697815386e-01
-8.911683783250091972e-02
-4.940462579466901177e-02
1.346503248819303118e-02
7.323972903174456872e-02
9.610113905806672019e-02
8.122642270680219267e-02
5.633728139959435360e-02
4.664462190012663018e-02
5.807067070862403924e-02
7.948523923239410316e-02
9.521119010508838354e-02
1.006292257498942744e-01
1.098446455899386998e-01
1.394054102021760055e-01
1.782269663629030831e-01
1.862624789358500732e-01
1.346314040877887863e-01
4.551084202554173813e-02
-1.566889460704571496e-02
-4.640508069504055075e-04
7.009251429172674852e-02
1.288724832019556565e-01
1.346940290906478432e-01
1.037477746490886588e-01
8.004024963060979436e-02
9.447115719846344017e-02
1.398412809470480633e-01
1.682187255415563132e-01
1.280012125956585256e-01
2.399227555984607616e-02
-6.192559583861857037e-02
-3.680399687336925046e-02
8.677202895510112424e-02
1.648761737756847534e-01
7.524213139023382124e-02
-1.038640583995947275e-01
-1.539242694343992135e-01
-4.067607703865894209e-02
-6.487319199453345231e-02
-4.268781963312607841e-01
-7.691891295548710650e-01
-5.928727301143251749e-01
-6.432854652335576184e-03
4.188253227331880657e-01
4.076944168439582961e-01
1.853863458318171231e-01
3.997486310442798646e-02
9.073759378620645938e-03
-1.642133339209289958e-02
-8.475677403163282830e-02
-1.461329904403976809e-01
-1.518073835531952576e-01
-1.194826519832254408e-01
-9.781912566194066183e-02
-1.081313096853673134e-01
-1.332058612763250549e-01
-1.439152590099103124e-01
-1.318855546240848553e-01
-1.161828966723649215e-01
-1.128819607471152342e-01
-1.092813662683417703e-01
-8.321456274138533393e-02
-3.640995581955679128e-02
1.058878873370620345e-02
4.735906746563733200e-02
7.854947933379746727e-02
1.068181541261259276e-01
1.259454361738632788e-01
1.295693612201414824e-01
1.196887380219130992e-01
1.020841604027015181e-01
7.824564792164995231e-02
5.396736921928497327e-02
4.512323634727972987e-02
5.862353521796125760e-02
8.476254555670384438e-02
1.159473834988031110e-01
1.456963973958134984e-01
1.497308922027132672e-01
1.047960643341496190e-01
3.009767082427701121e-02
-1.887135795164122942e-02
-4.491900158189837157e-03
5.611314989751080284e-02
1.094985981035337397e-01
1.182110265858523496e-01
9.376098996761637883e-02
7.424185780691952563e-02
7.221573784125863427e-02
5.353543592228256903e-02
-3.313590515553933163e-02
-1.870106240550508669e-01
-2.874920683825149537e-01
-1.811283542914614020e-01
4.980852550818527791e-02
6.144954764830571486e-02
-2.756563248569994795e-01
-5.739499881044640706e-01
-4.133077843582678157e-01
8.223053096990586008e-02
4.447413341340197834e-01
4.380593668829154685e-01
2.043869699368701942e-01
-9.041260752717474036e-03
-8.647667762019993487e-02
-6.324497067877471457e-02
-2.916631223464170170e-02
-3.847337710915388342e-02
-8.453802918220063023e-02
-1.322753678253264509e-01
-1.575743789945030782e-01
-1.612892931345913106e-01
-1.638027114473024071e-01
-1.832622259067375747e-01
-2.043730339951811414e-01
-1.878040362322813128e-01
-1.311474997039957513e-01
-8.306701821778048056e-02
-7.203658048884105380e-02
-6.881331890384262406e-02
-4.077807402324816477e-02
3.599639620150267474e-03
3.821301541076178865e-02
4.913049067560569527e-02
3.812228801763958147e-02
2.433958890354002286e-02
3.015616885618834647e-02
4.790429212087621291e-02
4.902298389072588802e-02
3.431862199928526619e-02
4.138424877624624632e-02
9.560660924772725056e-02
1.714806140855307526e-01
2.103991982698345808e-01
1.828005777890908123e-01
1.248715302717069431e-01
9.588501653215518450e-02
1.061677900653770629e-01
1.046015557921397970e-01
4.352480411938038085e-02
-4.543137267182609934e-02
-7.157840980602747649e-02
-3.959452013851016278e-03
8.452792841833482729e-02
1.223334606770083849e-01
1.165706726603169957e-01
9.713377845413867506e-02
6.072062984099729777e-02
1.390797461472947395e-02
5.733770194455952221e-04
-9.661758072080375848e-03
-1.789959079384615126e-01
-5.453456721669567298e-01
-8.003759550531905909e-01
-6.144108238655978660e-01
-9.289289721344570760e-02
3.553364747468268914e-01
4.872533986154587993e-01
3.705914578838326312e-01
1.871516249293665168e-01
5.605575902198353666e-02
6.448175548174733471e-03
1.054577821985246827e-02
1.535747429956904782e-02
-1.791961710388304679e-02
-7.854002823885450346e-02
-1.123919642063826441e-01
-7.304126968762303385e-02
1.967958804705206496e-02
7.970582113255880730e-02
4.300910615159835720e-02
-5.406495314320084594e-02
-1.164512701330946143e-01
-9.474786799895640321e-02
-2.098600368962772605e-02
4.427448595805998782e-02
7.231940265368243248e-02
7.379366189128928888e-02
6.986568123808235831e-02
7.001290412656538398e-02
6.957222228782980467e-02
6.378333411731723634e-02
6.467114017751880717e-02
8.812999625106174295e-02
1.214364307607771754e-01
1.328391530085160921e-01
1.183894589838888761e-01
1.084080303374216625e-01
1.218857794981528381e-01
1.395622955141385402e-01
1.286921401502351403e-01
7.881698781016313604e-02
7.714940350562269310e-03
-5.794926947992573574e-02
-9.656447448332813877e-02
-9.080662459560420730e-02
-3.771459218676508074e-02
3.234442086215941203e-02
7.081777794914329016e-02
5.765960464932519403e-02
2.163621389475759230e-02
5.045490887730445274e-03
5.298427215645345849e-03
-3.507791776602216943e-02
-1.466672217519103816e-01
-2.527561984475901191e-01
-2.586211043305250978e-01
-2.331804752124959634e-01
-3.397572924138621553e-01
-5.303009970024958886e-01
-5.316882670263208821e-01
-2.283380981533136567e-01
1.664077746497725219e-01
3.934276466570596487e-01
4.044542646111979334e-01
2.985737185488315792e-01
1.716484795534073127e-01
7.445099223989132264e-02
2.034412703909029008e-02
-9.191077628513618508e-03
-3.894767413017939661e-02
-6.757360490851119228e-02
-7.129585892571015104e-02
-4.741840199330702582e-02
-3.485820036825069967e-02
-6.374921215834311594e-02
-1.057158233370328881e-01
-1.133886780307172271e-01
-8.684773992111025076e-02
-5.942075677326604660e-02
-4.108469191418816918e-02
-1.803384803465056530e-02
5.702779562137915911e-03
2.449789490069239489e-03
-3.741801452801379879e-02
-7.790186064011420108e-02
-7.176064036288741510e-02
-1.285676060547105010e-02
6.290838760587406930e-02
1.070327206769091516e-01
8.913557613890064901e-02
4.821070082866710238e-02
8.552395147196409364e-02
2.234820486312363019e-01
3.227352561461160341e-01
2.476160904461980339e-01
5.902091355894797942e-02
-6.150943308949588517e-02
-3.232318042085195048e-02
6.691754762991709848e-02
1.248658682046137336e-01
1.190818507336040000e-01
9.575004775973909588e-02
8.067131866337669266e-02
5.650750887997837979e-02
1.105552197727669231e-02
-3.262635150408049745e-02
-4.166134140213311604e-02
-1.677496934793796385e-02
-2.148392899734188899e-03
-4.412076504989203424e-02
-1.272286360982495257e-01
-1.719168754067891824e-01
-1.661862988219318660e-01
-2.551698584868870578e-01
-5.134401700853361561e-01
-6.884689510174836213e-01
-4.699939660200215807e-01
3.590357134887928181e-02
4.045683311156174078e-01
4.110314956669239850e-01
2.144930117681992376e-01
7.469161991548542434e-02
7.177607476978500878e-02
1.160019756699449123e-01
1.112478453866455885e-01
5.189036695234437724e-02
-7.802789286652083225e-03
-3.373579085894081592e-02
-3.925715244919543434e-02
-4.820461699291580387e-02
-5.979536207636525907e-02
-5.664754590715803673e-02
-3.951880510030573307e-02
-3.679253204844978170e-02
-6.326946465876348569e-02
-8.395671990034217491e-02
-4.166053499344963412e-02
7.951004129003952370e-02
2.200343202982820989e-01
2.850218676828532027e-01
2.432805584985729130e-01
1.691916743260362122e-01
1.502444338683620595e-01
1.859882657054871269e-01
2.241954425885021862e-01
2.480822583028800821e-01
2.630153092199145060e-01
2.433935090252091205e-01
1.672999924098611257e-01
7.790366334065165765e-02
4.787754397009993945e-02
8.529675424914344439e-02
1.215291332969464649e-01
1.103468788773762782e-01
9.497045777842880177e-02
1.300559544316537974e-01
1.660619448465840142e-01
8.897946083908547799e-02
-1.026253595808796076e-01
-2.500983771073576056e-01
-2.345600001027549342e-01
-1.235547546297879329e-01
-3.728381384695581002e-02
9.618382521672602659e-03
5.759710140659585198e-02
9.598178437914016425e-02
7.278799977297499557e-02
-6.970500326692640955e-03
-4.182244965242986473e-02
-4.401781397992196934e-03
-1.104525551255908650e-01
-5.238722152675003851e-01
-9.148718504686027542e-01
-7.653337184186485009e-01
-1.144782570009660883e-01
4.589866926432558669e-01
5.603331260110542278e-01
3.197537055491237457e-01
7.590948668739351535e-02
-4.824811048927360457e-03
2.182529520597724371e-02
4.450286481736782929e-02
1.690904819597944045e-02
-4.524693467707871508e-02
-1.062889924842491118e-01
-1.358012665417590303e-01
-1.284145562233143245e-01
-1.131462336224531018e-01
-1.232684013433751891e-01
-1.499562899750456479e-01
-1.501790462024970851e-01
-1.085258688885304135e-01
-6.338219382681123393e-02
-5.883763749624361383e-02
-9.117027363497140491e-02
-1.150201556246586848e-01
-9.348015397297952667e-02
-3.571546233528964664e-02
1.351568081171245113e-02
2.079171178664266512e-02
9.399898478669732604e-04
-1.082814475803635726e-03
2.832490401895358667e-02
5.124042959664201757e-02
3.856098157140600002e-02
1.716862372592645528e-02
2.422321944636040419e-02
4.887703548795432201e-02
6.343023486292634350e-02
7.744934796694220858e-02
1.100171855979290014e-01
1.423324545288414678e-01
1.413646322694263602e-01
1.036360916254340514e-01
5.515460314971970535e-02
2.710561406784284602e-02
3.227584431360096262e-02
5.394058124627012368e-02
6.418887265910264150e-02
5.646216735891836785e-02
5.139143291942368380e-02
6.216828691814529906e-02
5.638030725431233264e-02
-1.122999546060280199e-02
-9.265306522715287263e-02
-5.694821715469749329e-02
6.370899544030109163e-02
-2.058635055340358316e-02
-4.272069762188364095e-01
-7.562806768260234014e-01
-5.672402785990459106e-01
-6.812157949593514172e-03
4.104770202204268137e-01
4.397038887863676804e-01
2.380870219201819959e-01
4.975917148755371056e-02
-1.984822857956689696e-02
-8.042436074022228697e-04
2.670279956999100160e-02
4.913112085680413146e-03
-6.418016105057990084e-02
-1.303633452771576495e-01
-1.499695702570717770e-01
-1.298416912325749129e-01
-1.090681450844045580e-01
-1.107419204866235268e-01
-1.311107168219017016e-01
-1.575722150322514947e-01
-1.684342057208282895e-01
-1.380294978387377192e-01
-7.469233456633794788e-02
-2.296267604831057213e-02
-2.138622096390679038e-03
1.589525992765544737e-02
4.981971798757097586e-02
7.385163113367056165e-02
5.468715255814810688e-02
-7.397376392769569250e-03
-8.120911523339918725e-02
-1.222969164956223542e-01
-9.001503296848510638e-02
1.660925949849455241e-02
1.396713754787769213e-01
2.094945024473390538e-01
2.067786528465317131e-01
1.641328792539143155e-01
1.241539302562073982e-01
1.104644336961396051e-01
1.213563531730850464e-01
1.342922875380087033e-01
1.276972197846340806e-01
1.064689872865968168e-01
9.490071694870395869e-02
1.019409728580471380e-01
1.066331769936544882e-01
8.622000071304418423e-02
4.981190360179958004e-02
3.101254717595298624e-02
4.444114519518636841e-02
5.798902981335372908e-02
3.342112214863108416e-02
-9.172937058262869287e-03
-4.805925596975912928e-02
-1.739470982156045564e-01
-4.592468511002565368e-01
-7.051627769506436660e-01
-5.955333202752000066e-01
-1.338889161860291055e-01
3.276622022657255107e-01
4.977707337496835027e-01
3.967017923253347012e-01
2.237735083596840147e-01
1.188242453846918845e-01
7.961519573323323773e-02
4.365765147393999707e-02
-9.123822114414922163e-03
-4.559510369415113729e-02
-4.508348310134017989e-02
-4.147172467948397750e-02
-8.191826724128153936e-02
-1.550854326547715656e-01
-1.897941529962844931e-01
-1.389826612917352266e-01
-4.307888660418969506e-02
1.183106270200855875e-02
-1.269439918765309823e-02
-7.000267133067815395e-02
-8.352514513288322728e-02
-3.201646217190526333e-02
3.881266971002221566e-02
8.321362461633984020e-02
9.523084536655337939e-02
8.590123728224727251e-02
6.485355574163145786e-02
4.887865417704694015e-02
5.455670723831463481e-02
7.112006728885277018e-02
6.612883935187148510e-02
3.014030527141078539e-02
-5.891845135569910921e-03
-5.454762419650237455e-03
3.414589133324676812e-02
7.708428429043258368e-02
8.528713243670636712e-02
6.267981354358648227e-02
4.436348649280420081e-02
4.486966554058309520e-02
5.311673335682010055e-02
6.575301162926948384e-02
7.973728815005218240e-02
7.016931372221558993e-02
2.146775016689873514e-02
-3.213246639550100536e-02
-3.449682861609489060e-02
2.088162578314285006e-02
6.539869269059978008e-02
2.328341152038165482e-02
-8.358356220652378432e-02
-1.512060842090491020e-01
-1.747489790613208360e-01
-3.035526325737580855e-01
-5.650136947594150971e-01
-6.901947382796383978e-01
-4.427469279375027544e-01
2.652007940209535203e-02
3.606552936980674806e-01
3.995993046716246888e-01
2.603751363236893601e-01
1.263060820249256033e-01
7.052346686300384193e-02
5.207964977782936905e-02
1.503965474503841590e-02
-3.793001389280045016e-02
-6.568021854432531947e-02
-5.118779035042307635e-02
-1.715842481132925229e-02
6.379077315744580146e-03
6.665757161516476861e-03
-8.528472728252713825e-03
-1.805760831701648875e-02
-5.734316545018652324e-03
2.258224147485318051e-02
4.507804938682778706e-02
4.765969933005511500e-02
3.453392928009641621e-02
1.966312920954991356e-02
1.962929394761927723e-02
4.216970007360679173e-02
6.663069034860627515e-02
6.002820370882492457e-02
3.090598148286292229e-02
3.157578016396647702e-02
8.118685928998849166e-02
1.303702678124974146e-01
1.377554642027351561e-01
1.311060230127009674e-01
1.444809559621340611e-01
1.506008273078309756e-01
1.186855078130748392e-01
8.297978144101737785e-02
8.531774497917628264e-02
1.062232909773129924e-01
1.091746135260988626e-01
9.532025474210976956e-02
7.896316997589630793e-02
6.089842233155406265e-02
4.455697639756739381e-02
4.072308229434639520e-02
4.859462548431325857e-02
5.693871987667675078e-02
6.250301368561342330e-02
6.370892710312858753e-02
3.843469144772711232e-02
-3.739853741561353223e-02
-1.337191743505739550e-01
-1.851250365874615167e-01
-2.137266521114405682e-01
-3.311960316979703500e-01
-5.197819712643509948e-01
-5.578985720866740383e-01
-3.074433414035714907e-01
6.926946747565296270e-02
3.066811194965348153e-01
3.235320375798903525e-01
2.259861715925599313e-01
1.302338296586698918e-01
6.520890112910356085e-02
5.875151264953424116e-03
-5.884763642175007414e-02
-1.032460789663308259e-01
-1.011329682950789094e-01
-6.381705479995687658e-02
-2.376791423474878054e-02
-6.064327073610558620e-04
2.643157361678405686e-03
-4.175694078688134761e-03
-9.483982968105193409e-04
2.078133199637408404e-02
4.420307231017032296e-02
5.119704337346962092e-02
4.548379449125957569e-02
3.577522083760963784e-02
1.542508954120885324e-02
-1.634632807808480276e-02
-4.016889320088544435e-02
-5.283139358443959821e-02
-6.820968008923250503e-02
-5.891439785334492973e-02
2.101048105857173526e-02
1.377109370294449242e-01
1.905856044627697032e-01
1.413804298310002983e-01
6.757684415788609011e-02
6.472550467565935106e-02
1.341984428815013730e-01
2.016939126174382424e-01
2.160340476351220729e-01
1.859562488651176071e-01
1.435731741461970801e-01
1.086476127795907576e-01
7.949792680459699667e-02
4.603371254176701760e-02
1.212138591556995333e-02
1.436972170498062185e-03
4.044074500435988068e-02
1.294349597387344508e-01
2.198727405145820546e-01
2.427480545565024184e-01
1.797898567770896405e-01
7.030800686401256216e-02
-4.475478540327182397e-02
-1.236565183173378019e-01
-1.477835720766165484e-01
-2.337990955165699380e-01
-5.247695129275813386e-01
-8.499587491965461261e-01
-8.152408262110173442e-01
-3.679139120211291081e-01
9.692688125667558996e-02
2.684316646872982326e-01
2.087526820312249343e-01
1.097009039440880601e-01
5.081403421884937710e-02
8.724693591405884713e-03
-5.117614551290034647e-02
-1.201891990253077663e-01
-1.517630027413718330e-01
-1.223406248695878273e-01
-8.556793114996841254e-02
-1.314992689564363770e-01
-2.595384470582018377e-01
-3.452039220568585143e-01
-2.978442456828300777e-01
-1.774659614001142804e-01
-8.775259697539687653e-02
-4.887332286182572566e-02
-3.162387558819325373e-02
-2.399272054953837524e-02
-1.980065450656270584e-02
-2.828216395470629918e-03
3.266806393322682633e-02
7.255702675120022371e-02
9.439506733013640349e-02
8.486582372735590463e-02
6.186526561333970803e-02
6.321128194217941199e-02
8.984530517258976223e-02
9.176036012711123735e-02
3.804097635505676589e-02
-3.339535165266976913e-02
-6.076582698454068010e-02
-2.679069593033826455e-02
3.060026431340126529e-02
6.475268607635764617e-02
7.990902590101049696e-02
1.254922229027120029e-01
2.042156160662102204e-01
2.390501869889821163e-01
1.862884289930745729e-01
1.090552712141769631e-01
7.889603088361150929e-02
8.406374801503256611e-02
8.169107994494720359e-02
7.141829932068033404e-02
7.916698072652565699e-02
9.479202560254570975e-02
5.791537755095598622e-02
-4.843386901325489463e-02
-1.040099809092880911e-01
-8.630329395229889566e-03
3.728860199530487779e-02
-2.706374364857470072e-01
-7.577187047887908866e-01
-8.378040379936341209e-01
-3.173404766722114356e-01
3.330524742467136923e-01
6.169908032723423474e-01
5.174877019784041021e-01
3.030224646692165069e-01
1.529714471677902365e-01
8.058810982525110855e-02
4.811246985035459722e-02
2.902653045199005133e-02
-1.198557139033016444e-02
-1.132210284108621789e-01
-2.469064180595290092e-01
-3.071866303820567912e-01
-2.328225188572569104e-01
-9.514278267391043653e-02
-3.037655729781155861e-03
1.593398667266921268e-02
-5.322933172061550949e-03
-3.786952531145256623e-02
-6.288338606154786348e-02
-6.211705079157989889e-02
-2.617569821918034820e-02
3.520801089770023151e-02
9.233663498315368423e-02
1.140539912422521701e-01
9.764132325820103209e-02
7.676146162866490097e-02
8.889821612185602739e-02
1.278960072306755680e-01
1.436563472634537486e-01
1.078682750036347171e-01
5.857796051149978533e-02
5.266186887463459448e-02
9.772879512753078479e-02
1.567678627278858150e-01
1.953947318883161033e-01
1.978783313267132304e-01
1.577624601297492879e-01
8.820841880998997464e-02
3.579242427246084185e-02
4.463521611900368030e-02
9.870822493637429473e-02
1.353870281693856925e-01
1.206328915573393751e-01
7.767963325293296417e-02
5.138100797068551051e-02
7.007400217295742251e-02
1.143325708004185037e-01
1.077775565420053955e-01
-7.789569181609418136e-03
-1.615205887308061861e-01
-1.996336624105664870e-01
-1.232613904345331718e-01
-1.662136950819333714e-01
-4.469310068647881495e-01
-6.762552078062155081e-01
-5.007300453212421010e-01
-1.001547187822893203e-02
3.825904070981538396e-01
4.421551522189327565e-01
2.771024560693071681e-01
1.017269529145308909e-01
6.659323840929954122e-03
-4.357644456966187213e-02
-9.046823714940101235e-02
-1.202270139339969429e-01
-1.100667037885758176e-01
-8.329486180226999825e-02
-8.404226713598991760e-02
-1.223512525701859338e-01
-1.711338820625671608e-01
-1.943987501203548740e-01
-1.690631199959151676e-01
-1.093185108822372770e-01
-7.558941578589929711e-02
-1.236094557150985984e-01
-2.202044789687556403e-01
-2.504007803151910849e-01
-1.578955890946295570e-01
-2.539533807371789631e-02
4.172547031124931860e-02
3.591150257515016153e-02
3.388734743988522716e-03
-3.015313190129442072e-02
-4.896958478811166277e-02
-3.988990122367431362e-02
-2.170206827993266877e-02
-2.229422773840636710e-02
-2.549102233401116108e-02
3.945880983306631132e-03
5.919124896531682833e-02
1.016333049371723751e-01
1.095163135307118951e-01
9.086154486325306867e-02
6.969442067365430593e-02
7.265808404457466119e-02
1.178251560937266240e-01
1.990092989712421989e-01
2.716488376002139660e-01
2.770851184336561301e-01
2.045041660446388909e-01
1.046908443634554514e-01
2.987804191587718067e-02
-9.698454517012710004e-04
1.461344011445278243e-02
5.065907268998736529e-02
4.043573492835100813e-02
-5.329897454840376581e-02
-1.866594844130709252e-01
-3.219566900270397491e-01
-4.836346481825711252e-01
-6.252013297473683062e-01
-5.705683364194366058e-01
-2.384718880703360078e-01
1.856758566103737795e-01
4.305859810404105148e-01
4.117047664539996710e-01
2.519628334357889576e-01
1.087775383379219474e-01
5.012570920562072624e-02
5.749787188849361103e-02
7.580388448582967009e-02
5.031478385574540690e-02
-4.185490272245690618e-02
-1.597783876553151017e-01
-2.103610498269844753e-01
-1.394536503452280252e-01
-8.627959502056588292e-03
7.185051179371708396e-02
7.090766202159851095e-02
4.098385150182546482e-02
2.543330935926758907e-02
2.215941060591561720e-02
1.868015791917288643e-02
1.279071298281878565e-02
4.855054404882472308e-03
6.798572713809338149e-03
4.600614002719152773e-02
1.175495860079816546e-01
1.593009957505669705e-01
1.288642025567502680e-01
7.014561525965354316e-02
5.166349802357256271e-02
7.774463023019963226e-02
1.046024040124924753e-01
1.114294833995379541e-01
1.172053778334872925e-01
1.423973144619292697e-01
1.818045098268978033e-01
2.129238269298157349e-01
2.153618220428512031e-01
1.840202594135687819e-01
1.367346115844562948e-01
1.076865439221828119e-01
1.190791013908504281e-01
1.560062961678538307e-01
1.796232033911359105e-01
1.678504206224332440e-01
1.339125536039309505e-01
1.062410958886988444e-01
1.024544180065774662e-01
1.171510422485122216e-01
1.177916159052749268e-01
6.301323608634569473e-02
-5.742993744790741290e-02
-2.287515756409129741e-01
-4.541347968499480636e-01
-6.977992278300418905e-01
-7.983111826292951241e-01
-6.020961949088053933e-01
-1.862498731682227238e-01
1.927933294642703577e-01
3.538909771027216600e-01
3.094733577495817345e-01
1.814528794403928169e-01
7.577570153728105384e-02
3.018917338646148751e-02
3.451812138838619703e-02
6.081771963598611719e-02
7.395992370148408990e-02
5.072488382596537781e-02
6.824727327335169437e-03
-1.734882804981478094e-02
-9.686046640089899726e-03
1.298826987463056956e-03
-3.565740517349324807e-03
-9.017199513831718541e-03
-1.957176022064307554e-04
1.762964674525298661e-02
4.038673099133645999e-02
6.988982849706713851e-02
9.013566377981578615e-02
6.846981162681020638e-02
2.829397611226221534e-03
-5.111926825525409807e-02
-4.209883042013384813e-02
-2.401276128712742652e-05
5.683744844193310865e-03
-2.591085129965346734e-02
-1.960877475889870325e-02
7.235685076393770510e-02
1.879624340412783257e-01
2.040402081207799700e-01
9.352708217796126822e-02
-1.661757882428493635e-02
-1.051922293895790617e-02
6.245069825951862080e-02
7.425236490686201729e-02
-3.516270182502588722e-03
-7.841868627568296390e-02
-7.176209748577545844e-02
-1.395589372656864252e-02
1.462763344404018583e-02
-8.421994629100171617e-03
-3.331065057865350426e-02
-4.371469238406787590e-03
8.052559066074163607e-02
1.630945892639595607e-01
1.689638194887280731e-01
6.821919318859487325e-02
-9.486260180578130752e-02
-2.438561373191641679e-01
-3.714224307461579944e-01
-5.480470859652633031e-01
-7.458648972912611530e-01
-7.562698941396318597e-01
-4.439115570333030947e-01
1.052159116918625209e-02
2.783798296951256468e-01
2.360191144314163214e-01
5.277880670664046592e-02
-4.316546634333746912e-02
-6.791710638362397079e-03
4.535835367249131667e-02
2.646743730450189930e-02
-3.484613258263912633e-02
-6.714624959491834189e-02
-4.172816939443631246e-02
9.817111844847726393e-03
2.896359688455599213e-02
-1.562909357260029025e-02
-8.987297085564552312e-02
-1.224104826538939816e-01
-8.723800625121556906e-02
-3.073743471775016584e-02
-9.171369677121836428e-04
8.539231011968141313e-03
2.724048204822047264e-02
5.966656857286841559e-02
8.573073874170815400e-02
9.013031206773303161e-02
7.869227553853025414e-02
6.872726539292919878e-02
6.597422818218418028e-02
5.270505366566607258e-02
3.717744128545603238e-03
-7.217257452289554953e-02
-1.115538854688917642e-01
-5.735771340685608122e-02
6.093308377795025876e-02
1.547899003170563892e-01
1.736917602175541697e-01
1.379322742483702902e-01
9.521380492424706687e-02
7.483486749143124228e-02
7.677503737732858935e-02
8.874116625287942206e-02
1.030669467817231510e-01
1.120291244339914893e-01
1.037298232793781028e-01
7.898574341898287332e-02
5.439439859748367023e-02
3.901592684233418096e-02
3.083923435357400350e-02
3.180395276954080253e-02
2.923399698472600727e-02
-2.744653420903572782e-02
-1.693736880956797086e-01
-3.360900933286116166e-01
-4.519907788709862650e-01
-5.381544686078582052e-01
-6.085373897254794384e-01
-5.433401069770791292e-01
-2.583548966885653719e-01
9.987430168422467558e-02
3.009334112826233532e-01
2.857230062362295375e-01
1.746624986778762267e-01
1.001850396843447372e-01
9.621823988004285511e-02
1.139532664984142518e-01
1.012814506776260060e-01
5.545569266857144908e-02
5.746843214094108504e-03
-2.718344369284842604e-02
-3.976993280446176199e-02
-4.140424351723753782e-02
-5.554157679562458927e-02
-9.405266751691081228e-02
-1.264255765159923162e-01
-1.091850436843773142e-01
-4.138048313110302689e-02
3.516163163310832840e-02
7.656873260608762499e-02
6.689612659703608744e-02
2.679202201484632423e-02
-1.202860882431766587e-03
1.254457033292524434e-02
5.416408182795583170e-02
7.619528876509495952e-02
5.899515844625626698e-02
4.579181665065472362e-02
7.302901955495312569e-02
1.007593394299447637e-01
8.291946316089519875e-02
6.037836336114669328e-02
9.767379331773010098e-02
1.677072168674466068e-01
1.816858135245880967e-01
1.162804505420576284e-01
5.007735380390968688e-02
6.615090058177992838e-02
1.521752038995169420e-01
2.163257713686689565e-01
1.909529746214659041e-01
1.047309649482510152e-01
4.451605686719589672e-02
5.010694447504502463e-02
8.088776894424622166e-02
1.053086997417874010e-01
1.594873988927303921e-01
2.548204326373880169e-01
2.944958587161317087e-01
1.839922227894990325e-01
-2.002557302189737765e-02
-1.889714189772226383e-01
-3.213603669885133907e-01
-5.047246953358777155e-01
-6.669762437310485792e-01
-5.791649403642815663e-01
-1.908156288510579612e-01
2.331599656945690657e-01
4.069203658463318440e-01
3.174009702883864303e-01
1.568678831225998882e-01
6.608753774763827249e-02
3.514950815086947955e-02
1.016029239443156512e-02
-1.213095648818449460e-02
-1.236111970960583964e-02
-4.144898019610132253e-03
-2.529351743746753242e-02
-8.217678296597263898e-02
-1.232379385690299672e-01
-9.517681813613365627e-02
-2.402910383360124663e-02
7.451282950638389233e-03
-2.887249272398634270e-02
-7.498527560130560654e-02
-7.406889279623278532e-02
-3.351763320208057950e-02
7.648886366664566470e-03
2.863899024704731622e-02
2.919330582094781246e-02
1.423978074986990278e-02
-1.932888789621544593e-03
4.142799278940434080e-03
4.030225493502775924e-02
8.369613640138245936e-02
1.008035929318668034e-01
8.296565130062533155e-02
6.155630779499856459e-02
7.289019463207030425e-02
1.073614356465067005e-01
1.261002084047479210e-01
1.230363225320979248e-01
1.245723306682992582e-01
1.332736944641838839e-01
1.169567968186358831e-01
6.046664691124571667e-02
1.341312520025616205e-03
-7.350265675363829888e-03
3.511876617488450536e-02
7.342221773471184487e-02
6.440252710034929939e-02
1.965642374221006697e-02
-2.338727884003081667e-02
-4.123625503179405294e-02
-3.214135210754512362e-02
-1.636333761122670677e-02
-1.972489538714169294e-02
-1.163390918242634096e-02
6.622899428299283686e-02
9.540788198413772958e-02
-1.861954086881333903e-01
-6.967146482472031943e-01
-8.893585266896837371e-01
-4.605827943740219976e-01
1.938790653903527950e-01
5.147076522941287369e-01
4.073487649578007019e-01
1.515159396816123383e-01
-1.282243889429644443e-02
-5.600739905898208248e-02
-7.693619084471096936e-02
-1.629836566762171701e-01
-2.962460772778710560e-01
-3.720675167983646392e-01
-3.238345292519050345e-01
-2.092739846241823687e-01
-1.471946143323281941e-01
-1.886836398926345360e-01
-2.694902598254345638e-01
-2.846047496187825154e-01
-2.017211016732597950e-01
-8.412922615215318034e-02
-7.526961499484289414e-03
7.389553145251318012e-03
-1.559622405111669996e-02
-4.040677642564207556e-02
-3.771463764558487947e-02
-1.947990170065014293e-03
4.489427765918913016e-02
7.458302191012264326e-02
8.137721357534027922e-02
9.158634437886876978e-02
1.323351592207552552e-01
1.812127470107157134e-01
1.788207795499587027e-01
1.190986928075249279e-01
8.137412324964123089e-02
1.286116008220088425e-01
2.242638129408702496e-01
2.900016363994601942e-01
2.958292245019842892e-01
2.664465897124390081e-01
2.334782059742830096e-01
2.037201289182760666e-01
1.691694275624963661e-01
1.323890249099540783e-01
1.124760131328371854e-01
1.242072045606962549e-01
1.482450439324842772e-01
1.414933758896709803e-01
9.769409824352214000e-02
6.095868627964898950e-02
5.172780544408734499e-02
5.257890398683444377e-02
8.892061593174860334e-02
1.602933550829956644e-01
7.570744532661818904e-02
-3.278410763767886094e-01
-7.675791237095529462e-01
-7.424078265724392001e-01
-2.175709858675228814e-01
3.244499194137567821e-01
4.991769266190347332e-01
3.606836291618242818e-01
1.705035528487454655e-01
7.574108879588835330e-02
4.832256185123010722e-02
7.235103055130747730e-03
-7.743006805467558817e-02
-1.687048263383364444e-01
-2.116816726502137314e-01
-1.977902197920270166e-01
-1.666711025410676505e-01
-1.457922859429701679e-01
-1.304274146722146366e-01
-1.200266556750519964e-01
-1.231452632890320809e-01
-1.255544160527987674e-01
-9.741826334562794787e-02
-4.348948073140421200e-02
-1.554403622623684762e-02
-4.884460450607875509e-02
-1.004801466873251337e-01
-9.302836590492655211e-02
-2.373564326514980560e-02
2.529476204659775185e-02
3.869715294885008906e-03
-3.907589640278313903e-02
-3.279998193233028825e-02
2.217679329224529414e-02
7.766498054546470964e-02
1.134458662199098189e-01
1.387256865549766349e-01
1.522109515002948998e-01
1.486423635775292185e-01
1.382366136301066417e-01
1.316418019484242863e-01
1.280802895415297793e-01
1.300414361726250911e-01
1.487078944916659928e-01
1.848523738714611953e-01
2.197732632635043259e-01
2.311172150962284844e-01
2.052202866204035359e-01
1.429329541302277184e-01
7.524458198668289299e-02
5.377074570265391595e-02
8.831734713582367613e-02
1.066626432421261400e-01
3.247826245349742791e-02
-8.256130934208029404e-02
-9.998631196611636185e-02
-4.659263785535902591e-02
-1.614603541835673839e-01
-4.997196202405368437e-01
-7.054162877410415922e-01
-4.599040824089056234e-01
5.465141394789113649e-02
3.947515421264744528e-01
3.745262774086055013e-01
1.666503387904709199e-01
1.695718969686482031e-02
-2.151885306598333610e-03
1.920351707568055538e-02
-7.470506660737500325e-03
-7.649848276082601983e-02
-1.382288066609644039e-01
-1.701438343470084436e-01
-1.786632340077991543e-01
-1.768208751431975256e-01
-1.808950923893659080e-01
-2.010878731511465123e-01
-2.214052992644984508e-01
-2.086785979361862609e-01
-1.578264668678117655e-01
-1.080571753084472175e-01
-9.104718873661576950e-02
-8.901188977520579915e-02
-6.743267211820871965e-02
-2.035079834526960785e-02
3.084140926274607508e-02
5.950060212272907656e-02
5.207498443280471345e-02
2.109159787388796559e-02
-1.863943347037471526e-03
5.313022940516229711e-03
3.582162461135699610e-02
6.301018614537141904e-02
6.375663580946543119e-02
3.973137481890548495e-02
2.231578017104611164e-02
4.156927045068380122e-02
8.550302406420513812e-02
1.126026029969193903e-01
1.039638681041088614e-01
8.007546719858904538e-02
7.094438836377503499e-02
8.058872811856054863e-02
7.565723461573443942e-02
2.137646249587846908e-02
-5.738377649816585324e-02
-8.320553507662312165e-02
-1.964780762797594532e-02
8.690734312698494834e-02
1.714832529627661750e-01
1.924650887936282806e-01
1.324175877627406517e-01
3.268663981936388574e-02
-5.033972556049702562e-02
-1.768389989513990956e-01
-4.332279232227065902e-01
-6.692357035384945974e-01
-5.928636983918965653e-01
-1.804068292683586039e-01
2.606344527558899782e-01
4.566548977279690225e-01
4.017852602368963688e-01
2.458846502850667581e-01
1.080074381425259467e-01
2.378386230728499195e-02
-1.152048921744372456e-02
-1.080678314668455896e-02
1.423206258743247524e-03
-3.955690413684799511e-03
-3.112383887126447812e-02
-5.464646671202798983e-02
-5.632566001210764783e-02
-4.721336359005388894e-02
-4.135143414918764082e-02
-3.302513201237254614e-02
-1.390135671591526470e-02
1.030721852714274085e-02
2.995940088374913005e-02
4.307663885206621662e-02
5.492319740074444456e-02
7.241073690820439002e-02
9.114292738897390722e-02
9.042514492009433302e-02
6.079277681238789283e-02
2.576508320774042321e-02
1.441945499206919237e-02
3.407237596617938846e-02
7.708529950826199795e-02
1.215186244590541198e-01
1.363478510002624489e-01
1.168165626044210953e-01
9.233238818683589533e-02
8.580366813616413513e-02
9.505862860513002166e-02
1.152371647081430056e-01
1.436632039708135300e-01
1.617673307420091633e-01
1.466643523279992090e-01
1.010530027499556421e-01
4.645511636972469299e-02
-2.878894386793769654e-03
-3.911991828954422545e-02
-5.105459322344486212e-02
-3.471300722115122639e-02
-3.854649982257455851e-03
1.471917834641046571e-02
-1.391770034894526664e-02
-1.079714959037477717e-01
-2.115589056378496813e-01
-2.108483579201862190e-01
-1.100558717856826574e-01
-1.374125639722884595e-01
-4.563697691785518762e-01
-7.966979052523180949e-01
-7.045558129455042895e-01
-1.686492656480840235e-01
3.507175024889933601e-01
5.066250087004515734e-01
3.746889239401992588e-01
2.013930075467940950e-01
9.951587301565967270e-02
3.890810969454206597e-02
-1.733341526129266938e-02
-6.376424432234696626e-02
-9.116171846999052142e-02
-1.040342796661471725e-01
-1.022527655377334366e-01
-8.151037275917971670e-02
-5.445920402495093432e-02
-4.433142279802483599e-02
-5.325469309789941652e-02
-6.111987149156053456e-02
-5.945806361469067186e-02
-6.149703004368210074e-02
-7.081139231716276905e-02
-6.458420817690545268e-02
-2.567719044185782021e-02
2.720503486348712502e-02
6.094364193158188781e-02
6.333633941276024804e-02
4.162158763911383286e-02
7.854159919876629176e-03
-1.596796423967040621e-02
-4.888657849677907272e-03
3.308933019502273420e-02
5.534929463644749220e-02
4.039490263790264379e-02
1.709991305882559848e-02
2.347326263801216215e-02
6.199871868779879142e-02
1.051204616829914118e-01
1.275073708350260293e-01
1.264442546597593087e-01
1.152159336658427208e-01
1.007360070822227727e-01
7.540602266046975144e-02
3.616702629616067727e-02
2.354514370671214035e-03
-3.517582741249917350e-03
1.115006305221746818e-02
2.266419725675645688e-02
3.359285137884405331e-02
6.693614500380704047e-02
1.123891708456394856e-01
1.017526196952940609e-01
-1.810316187025657816e-02
-1.535294832083768657e-01
-1.140192361188666348e-01
5.846700396437495839e-02
2.711793777017579288e-03
-4.173933801520000042e-01
-7.446104780790475663e-01
-5.142684601518099363e-01
7.855796549544995233e-02
4.804525374809297533e-01
4.668224425902759434e-01
2.368889246120116643e-01
4.991423337422109391e-02
-5.944151873220607750e-03
1.316277845237045184e-02
1.190214975731200900e-02
-5.865970363757780359e-02
-1.569116779572578835e-01
-1.938814210637814506e-01
-1.427107572566405913e-01
-6.809893017017798478e-02
-3.013531478092058846e-02
-1.911729727542407428e-02
1.279173556161328565e-03
3.915486183647945428e-02
6.647568971203288157e-02
4.616696963208499760e-02
-1.295463682366363931e-02
-2.483244042320334466e-02
9.594899828605317482e-02
2.920664845704332713e-01
3.776367651596443387e-01
2.637316346462155181e-01
7.570728220824096688e-02
-1.975468175613791233e-02
5.419778412926432726e-03
6.815156117205220521e-02
7.986411535993531707e-02
2.099059365030050625e-02
-2.355137506424892849e-02
6.227219876282159838e-02
2.565414576710450256e-01
3.734381710210089023e-01
2.918931303411879119e-01
1.165547535132568646e-01
1.843380432352468082e-02
2.708132995440398066e-02
6.164270727069769834e-02
6.719854570731040311e-02
4.993432444373536311e-02
3.102775252600910652e-02
1.875282252739488703e-02
1.595135675449756846e-02
2.989373143125474350e-02
6.653191588850490557e-02
1.056700132583780760e-01
8.807401272125330027e-02
-2.138712309586114288e-02
-1.364068151865798217e-01
-1.173760716729021769e-01
-2.486881496270602551e-02
-1.325787668291076582e-01
-4.833902810972787734e-01
-6.714010947359981829e-01
-3.756798428100484588e-01
1.522214765415297322e-01
4.395586823987098768e-01
3.659173076277770220e-01
1.514033410966043602e-01
1.042263931491611145e-03
-5.295807742319345868e-02
-7.071542838496107375e-02
-9.696273924930767785e-02
-1.314455717573244087e-01
-1.585824830774480998e-01
-1.763639739338710988e-01
-1.920125596306226923e-01
-2.023068774423821548e-01
-1.940411469658306909e-01
-1.659641537849101955e-01
-1.343441721809311429e-01
-1.095534220765063821e-01
-8.174558024980640991e-02
-4.363208418028563518e-02
-2.179722454105770257e-02
-5.441246885468396799e-02
-1.173775526208518938e-01
-1.183178563345457374e-01
-1.644222023045086717e-02
9.137942036938977164e-02
7.070700823788100831e-02
-7.820114507198980269e-02
-2.131161119764821976e-01
-2.275460016588419510e-01
-1.593881923820790469e-01
-9.172790907016230288e-02
-4.325819701022629027e-02
1.544644530409197865e-03
4.394164071903333690e-02
8.332375934975419507e-02
1.184237205642412472e-01
1.319429966424763845e-01
1.136721700872460744e-01
9.085843448885398688e-02
1.040910494881732012e-01
1.550426069985803013e-01
1.990711628801010158e-01
1.933824592615309423e-01
1.419563624853921457e-01
8.682148423776230028e-02
6.324482066448515460e-02
7.657475275829743466e-02
1.061233615497009369e-01
1.070211117794116346e-01
4.428530281042364347e-02
-4.234070493029358506e-02
-8.496664772040250779e-02
-1.381000704100292520e-01
-3.213274978182187325e-01
-5.417938215923763234e-01
-5.139744525159802846e-01
-1.602988144475691601e-01
2.460375405517934433e-01
4.184648788838203903e-01
3.454868303877845492e-01
1.981009742150872110e-01
9.905449111713165999e-02
5.196948621013434272e-02
2.110056169195366482e-02
-4.815658658802532063e-03
-2.329017611028908960e-02
-3.898224365532436397e-02
-5.753866397618299239e-02
-7.838645491038091773e-02
-9.620647812464910853e-02
-9.844733619427505078e-02
-7.284814553178747820e-02
-2.897191799162019202e-02
4.724701427045310126e-03
1.385720711094437334e-02
1.023998024408499623e-02
1.004512197939607353e-02
1.943908629825723960e-02
3.719335097926303874e-02
5.566480471957759718e-02
6.584632300252386827e-02
6.453104567087891708e-02
5.260917944933387463e-02
3.733995985034219145e-02
3.325792682680857315e-02
4.299936791146222181e-02
4.736960252196004834e-02
3.283269369200512988e-02
1.800249322950306721e-02
3.538701852610415255e-02
8.592303691161629065e-02
1.219723856251878485e-01
9.510192818809064252e-02
2.652712067755338965e-02
-4.081428969230357223e-03
3.925189844563657660e-02
1.003371071748461185e-01
1.079162784321973378e-01
5.593063541721436660e-02
-4.852776526217458114e-03
-1.663317291441636023e-02
3.766272741910020594e-02
1.158547072258820504e-01
1.605758207122816028e-01
1.470003034122844832e-01
6.927236479127800439e-02
-6.025273245167599850e-02
-1.794099477281171362e-01
-2.555736665123286011e-01
-3.936490431124634592e-01
-6.621184904700296858e-01
-8.402396081899325964e-01
-6.342241738713852994e-01
-1.158262279753780599e-01
3.337032619145474110e-01
4.633122819163044137e-01
3.346997032138492312e-01
1.481762283268990010e-01
4.730238965737218471e-02
5.722286023100095487e-02
1.118045019249584437e-01
1.290528324345336930e-01
7.959420710006182009e-02
-5.784488929508946331e-03
-7.499323843788881228e-02
-1.016295174185636724e-01
-9.856580086991269252e-02
-8.589434240270099608e-02
-7.040353948199676304e-02
