1.091746135260988626e-01
9.532025474210976956e-02
7.896316997589630793e-02
6.089842233155406265e-02
4.455697639756739381e-02
4.072308229434639520e-02
4.859462548431325857e-02
5.693871987667675078e-02
6.250301368561342330e-02
6.370892710312858753e-02
3.843469144772711232e-02
-3.739853741561353223e-02
-1.337191743505739550e-01
-1.851250365874615167e-01
-2.137266521114405682e-01
-3.311960316979703500e-01
-5.197819712643509948e-01
-5.578985720866740383e-01
-3.074433414035714907e-01
6.926946747565296270e-02
3.066811194965348153e-01
3.235320375798903525e-01
2.259861715925599313e-01
1.302338296586698918e-01
6.520890112910356085e-02
5.875151264953424116e-03
-5.884763642175007414e-02
-1.032460789663308259e-01
-1.011329682950789094e-01
-6.381705479995687658e-02
-2.376791423474878054e-02
-6.064327073610558620e-04
2.643157361678405686e-03
-4.175694078688134761e-03
-9.483982968105193409e-04
2.078133199637408404e-02
4.420307231017032296e-02
5.119704337346962092e-02
4.548379449125957569e-02
3.577522083760963784e-02
1.542508954120885324e-02
-1.634632807808480276e-02
-4.016889320088544435e-02
-5.283139358443959821e-02
-6.820968008923250503e-02
-5.891439785334492973e-02
2.101048105857173526e-02
1.377109370294449242e-01
1.905856044627697032e-01
1.413804298310002983e-01
6.757684415788609011e-02
6.472550467565935106e-02
1.341984428815013730e-01
2.016939126174382424e-01
2.160340476351220729e-01
1.859562488651176071e-01
1.435731741461970801e-01
1.086476127795907576e-01
7.949792680459699667e-02
4.603371254176701760e-02
1.212138591556995333e-02
1.436972170498062185e-03
4.044074500435988068e-02
1.294349597387344508e-01
2.198727405145820546e-01
2.427480545565024184e-01
1.797898567770896405e-01
7.030800686401256216e-02
-4.475478540327182397e-02
-1.236565183173378019e-01
-1.477835720766165484e-01
-2.337990955165699380e-01
-5.247695129275813386e-01
-8.499587491965461261e-01
-8.152408262110173442e-01
-3.679139120211291081e-01
9.692688125667558996e-02
2.684316646872982326e-01
2.087526820312249343e-01
1.097009039440880601e-01
5.081403421884937710e-02
8.724693591405884713e-03
-5.117614551290034647e-02
-1.201891990253077663e-01
-1.517630027413718330e-01
-1.223406248695878273e-01
-8.556793114996841254e-02
-1.314992689564363770e-01
-2.595384470582018377e-01
-3.452039220568585143e-01
-2.978442456828300777e-01
-1.774659614001142804e-01
-8.775259697539687653e-02
-4.887332286182572566e-02
-3.162387558819325373e-02
-2.399272054953837524e-02
-1.980065450656270584e-02
-2.828216395470629918e-03
3.266806393322682633e-02
7.255702675120022371e-02
9.439506733013640349e-02
8.486582372735590463e-02
6.186526561333970803e-02
6.321128194217941199e-02
8.984530517258976223e-02
9.176036012711123735e-02
3.804097635505676589e-02
-3.339535165266976913e-02
-6.076582698454068010e-02
-2.679069593033826455e-02
3.060026431340126529e-02
6.475268607635764617e-02
7.990902590101049696e-02
1.254922229027120029e-01
2.042156160662102204e-01
2.390501869889821163e-01
1.862884289930745729e-01
1.090552712141769631e-01
7.889603088361150929e-02
8.406374801503256611e-02
8.169107994494720359e-02
7.141829932068033404e-02
7.916698072652565699e-02
9.479202560254570975e-02
5.791537755095598622e-02
-4.843386901325489463e-02
-1.040099809092880911e-01
-8.630329395229889566e-03
3.728860199530487779e-02
-2.706374364857470072e-01
-7.577187047887908866e-01
-8.378040379936341209e-01
-3.173404766722114356e-01
3.330524742467136923e-01
6.169908032723423474e-01
5.174877019784041021e-01
3.030224646692165069e-01
1.529714471677902365e-01
8.058810982525110855e-02
4.811246985035459722e-02
2.902653045199005133e-02
-1.198557139033016444e-02
-1.132210284108621789e-01
-2.469064180595290092e-01
-3.071866303820567912e-01
-2.328225188572569104e-01
-9.514278267391043653e-02
-3.037655729781155861e-03
1.593398667266921268e-02
-5.322933172061550949e-03
-3.786952531145256623e-02
-6.288338606154786348e-02
-6.211705079157989889e-02
-2.617569821918034820e-02
3.520801089770023151e-02
9.233663498315368423e-02
1.140539912422521701e-01
9.764132325820103209e-02
7.676146162866490097e-02
8.889821612185602739e-02
1.278960072306755680e-01
1.436563472634537486e-01
1.078682750036347171e-01
5.857796051149978533e-02
5.266186887463459448e-02
9.772879512753078479e-02
1.567678627278858150e-01
1.953947318883161033e-01
1.978783313267132304e-01
1.577624601297492879e-01
8.820841880998997464e-02
3.579242427246084185e-02
4.463521611900368030e-02
9.870822493637429473e-02
1.353870281693856925e-01
1.206328915573393751e-01
7.767963325293296417e-02
5.138100797068551051e-02
7.007400217295742251e-02
1.143325708004185037e-01
1.077775565420053955e-01
-7.789569181609418136e-03
-1.615205887308061861e-01
-1.996336624105664870e-01
-1.232613904345331718e-01
-1.662136950819333714e-01
-4.469310068647881495e-01
-6.762552078062155081e-01
-5.007300453212421010e-01
-1.001547187822893203e-02
3.825904070981538396e-01
4.421551522189327565e-01
2.771024560693071681e-01
1.017269529145308909e-01
6.659323840929954122e-03
-4.357644456966187213e-02
-9.046823714940101235e-02
-1.202270139339969429e-01
-1.100667037885758176e-01
-8.329486180226999825e-02
-8.404226713598991760e-02
-1.223512525701859338e-01
-1.711338820625671608e-01
-1.943987501203548740e-01
-1.690631199959151676e-01
-1.093185108822372770e-01
-7.558941578589929711e-02
-1.236094557150985984e-01
-2.202044789687556403e-01
-2.504007803151910849e-01
-1.578955890946295570e-01
-2.539533807371789631e-02
4.172547031124931860e-02
3.591150257515016153e-02
3.388734743988522716e-03
-3.015313190129442072e-02
-4.896958478811166277e-02
-3.988990122367431362e-02
-2.170206827993266877e-02
-2.229422773840636710e-02
-2.549102233401116108e-02
3.945880983306631132e-03
5.919124896531682833e-02
1.016333049371723751e-01
1.095163135307118951e-01
9.086154486325306867e-02
6.969442067365430593e-02
7.265808404457466119e-02
1.178251560937266240e-01
1.990092989712421989e-01
2.716488376002139660e-01
2.770851184336561301e-01
2.045041660446388909e-01
1.046908443634554514e-01
2.987804191587718067e-02
-9.698454517012710004e-04
1.461344011445278243e-02
5.065907268998736529e-02
4.043573492835100813e-02
-5.329897454840376581e-02
-1.866594844130709252e-01
-3.219566900270397491e-01
-4.836346481825711252e-01
-6.252013297473683062e-01
-5.705683364194366058e-01
-2.384718880703360078e-01
1.856758566103737795e-01
4.305859810404105148e-01
4.117047664539996710e-01
2.519628334357889576e-01
1.087775383379219474e-01
5.012570920562072624e-02
5.749787188849361103e-02
7.580388448582967009e-02
5.031478385574540690e-02
-4.185490272245690618e-02
-1.597783876553151017e-01
-2.103610498269844753e-01
-1.394536503452280252e-01
-8.627959502056588292e-03
7.185051179371708396e-02
7.090766202159851095e-02
4.098385150182546482e-02
2.543330935926758907e-02
2.215941060591561720e-02
1.868015791917288643e-02
1.279071298281878565e-02
4.855054404882472308e-03
6.798572713809338149e-03
4.600614002719152773e-02
1.175495860079816546e-01
1.593009957505669705e-01
1.288642025567502680e-01
7.014561525965354316e-02
5.166349802357256271e-02
7.774463023019963226e-02
1.046024040124924753e-01
1.114294833995379541e-01
1.172053778334872925e-01
1.423973144619292697e-01
1.818045098268978033e-01
2.129238269298157349e-01
2.153618220428512031e-01
1.840202594135687819e-01
1.367346115844562948e-01
1.076865439221828119e-01
1.190791013908504281e-01
1.560062961678538307e-01
1.796232033911359105e-01
1.678504206224332440e-01
1.339125536039309505e-01
1.062410958886988444e-01
1.024544180065774662e-01
1.171510422485122216e-01
1.177916159052749268e-01
6.301323608634569473e-02
-5.742993744790741290e-02
-2.287515756409129741e-01
-4.541347968499480636e-01
-6.977992278300418905e-01
-7.983111826292951241e-01
-6.020961949088053933e-01
-1.862498731682227238e-01
1.927933294642703577e-01
3.538909771027216600e-01
3.094733577495817345e-01
1.814528794403928169e-01
7.577570153728105384e-02
3.018917338646148751e-02
3.451812138838619703e-02
6.081771963598611719e-02
7.395992370148408990e-02
5.072488382596537781e-02
6.824727327335169437e-03
-1.734882804981478094e-02
-9.686046640089899726e-03
1.298826987463056956e-03
-3.565740517349324807e-03
-9.017199513831718541e-03
-1.957176022064307554e-04
1.762964674525298661e-02
4.038673099133645999e-02
6.988982849706713851e-02
9.013566377981578615e-02
6.846981162681020638e-02
2.829397611226221534e-03
-5.111926825525409807e-02
-4.209883042013384813e-02
-2.401276128712742652e-05
5.683744844193310865e-03
-2.591085129965346734e-02
-1.960877475889870325e-02
7.235685076393770510e-02
1.879624340412783257e-01
2.040402081207799700e-01
9.352708217796126822e-02
-1.661757882428493635e-02
-1.051922293895790617e-02
6.245069825951862080e-02
7.425236490686201729e-02
-3.516270182502588722e-03
-7.841868627568296390e-02
-7.176209748577545844e-02
-1.395589372656864252e-02
1.462763344404018583e-02
-8.421994629100171617e-03
-3.331065057865350426e-02
-4.371469238406787590e-03
8.052559066074163607e-02
1.630945892639595607e-01
1.689638194887280731e-01
6.821919318859487325e-02
-9.486260180578130752e-02
-2.438561373191641679e-01
-3.714224307461579944e-01
-5.480470859652633031e-01
-7.458648972912611530e-01
-7.562698941396318597e-01
-4.439115570333030947e-01
1.052159116918625209e-02
2.783798296951256468e-01
2.360191144314163214e-01
5.277880670664046592e-02
-4.316546634333746912e-02
-6.791710638362397079e-03
4.535835367249131667e-02
2.646743730450189930e-02
-3.484613258263912633e-02
-6.714624959491834189e-02
-4.172816939443631246e-02
9.817111844847726393e-03
2.896359688455599213e-02
-1.562909357260029025e-02
-8.987297085564552312e-02
-1.224104826538939816e-01
-8.723800625121556906e-02
-3.073743471775016584e-02
-9.171369677121836428e-04
8.539231011968141313e-03
2.724048204822047264e-02
5.966656857286841559e-02
8.573073874170815400e-02
9.013031206773303161e-02
7.869227553853025414e-02
6.872726539292919878e-02
6.597422818218418028e-02
5.270505366566607258e-02
3.717744128545603238e-03
-7.217257452289554953e-02
-1.115538854688917642e-01
-5.735771340685608122e-02
6.093308377795025876e-02
1.547899003170563892e-01
1.736917602175541697e-01
1.379322742483702902e-01
9.521380492424706687e-02
7.483486749143124228e-02
7.677503737732858935e-02
8.874116625287942206e-02
1.030669467817231510e-01
1.120291244339914893e-01
1.037298232793781028e-01
7.898574341898287332e-02
5.439439859748367023e-02
3.901592684233418096e-02
3.083923435357400350e-02
3.180395276954080253e-02
2.923399698472600727e-02
-2.744653420903572782e-02
-1.693736880956797086e-01
-3.360900933286116166e-01
-4.519907788709862650e-01
-5.381544686078582052e-01
-6.085373897254794384e-01
-5.433401069770791292e-01
-2.583548966885653719e-01
9.987430168422467558e-02
3.009334112826233532e-01
2.857230062362295375e-01
1.746624986778762267e-01
1.001850396843447372e-01
9.621823988004285511e-02
1.139532664984142518e-01
1.012814506776260060e-01
5.545569266857144908e-02
5.746843214094108504e-03
-2.718344369284842604e-02
-3.976993280446176199e-02
-4.140424351723753782e-02
-5.554157679562458927e-02
-9.405266751691081228e-02
-1.264255765159923162e-01
-1.091850436843773142e-01
-4.138048313110302689e-02
3.516163163310832840e-02
7.656873260608762499e-02
6.689612659703608744e-02
2.679202201484632423e-02
-1.202860882431766587e-03
1.254457033292524434e-02
5.416408182795583170e-02
7.619528876509495952e-02
5.899515844625626698e-02
4.579181665065472362e-02
7.302901955495312569e-02
1.007593394299447637e-01
8.291946316089519875e-02
6.037836336114669328e-02
9.767379331773010098e-02
1.677072168674466068e-01
1.816858135245880967e-01
1.162804505420576284e-01
5.007735380390968688e-02
6.615090058177992838e-02
1.521752038995169420e-01
2.163257713686689565e-01
1.909529746214659041e-01
1.047309649482510152e-01
4.451605686719589672e-02
5.010694447504502463e-02
8.088776894424622166e-02
1.053086997417874010e-01
1.594873988927303921e-01
2.548204326373880169e-01
2.944958587161317087e-01
1.839922227894990325e-01
-2.002557302189737765e-02
-1.889714189772226383e-01
-3.213603669885133907e-01
-5.047246953358777155e-01
-6.669762437310485792e-01
-5.791649403642815663e-01
-1.908156288510579612e-01
2.331599656945690657e-01
4.069203658463318440e-01
3.174009702883864303e-01
1.568678831225998882e-01
6.608753774763827249e-02
3.514950815086947955e-02
1.016029239443156512e-02
-1.213095648818449460e-02
-1.236111970960583964e-02
-4.144898019610132253e-03
-2.529351743746753242e-02
-8.217678296597263898e-02
-1.232379385690299672e-01
-9.517681813613365627e-02
-2.402910383360124663e-02
7.451282950638389233e-03
-2.887249272398634270e-02
-7.498527560130560654e-02
-7.406889279623278532e-02
-3.351763320208057950e-02
7.648886366664566470e-03
2.863899024704731622e-02
2.919330582094781246e-02
1.423978074986990278e-02
-1.932888789621544593e-03
4.142799278940434080e-03
4.030225493502775924e-02
8.369613640138245936e-02
1.008035929318668034e-01
8.296565130062533155e-02
6.155630779499856459e-02
7.289019463207030425e-02
1.073614356465067005e-01
1.261002084047479210e-01
1.230363225320979248e-01
1.245723306682992582e-01
1.332736944641838839e-01
1.169567968186358831e-01
6.046664691124571667e-02
1.341312520025616205e-03
-7.350265675363829888e-03
3.511876617488450536e-02
7.342221773471184487e-02
6.440252710034929939e-02
1.965642374221006697e-02
-2.338727884003081667e-02
-4.123625503179405294e-02
-3.214135210754512362e-02
-1.636333761122670677e-02
-1.972489538714169294e-02
-1.163390918242634096e-02
6.622899428299283686e-02
9.540788198413772958e-02
-1.861954086881333903e-01
-6.967146482472031943e-01
-8.893585266896837371e-01
-4.605827943740219976e-01
1.938790653903527950e-01
5.147076522941287369e-01
4.073487649578007019e-01
1.515159396816123383e-01
-1.282243889429644443e-02
-5.600739905898208248e-02
-7.693619084471096936e-02
-1.629836566762171701e-01
-2.962460772778710560e-01
-3.720675167983646392e-01
-3.238345292519050345e-01
-2.092739846241823687e-01
-1.471946143323281941e-01
-1.886836398926345360e-01
-2.694902598254345638e-01
-2.846047496187825154e-01
-2.017211016732597950e-01
-8.412922615215318034e-02
-7.526961499484289414e-03
7.389553145251318012e-03
-1.559622405111669996e-02
-4.040677642564207556e-02
-3.771463764558487947e-02
-1.947990170065014293e-03
4.489427765918913016e-02
7.458302191012264326e-02
8.137721357534027922e-02
9.158634437886876978e-02
1.323351592207552552e-01
1.812127470107157134e-01
1.788207795499587027e-01
1.190986928075249279e-01
8.137412324964123089e-02
1.286116008220088425e-01
2.242638129408702496e-01
2.900016363994601942e-01
2.958292245019842892e-01
2.664465897124390081e-01
2.334782059742830096e-01
2.037201289182760666e-01
1.691694275624963661e-01
1.323890249099540783e-01
1.124760131328371854e-01
1.242072045606962549e-01
1.482450439324842772e-01
1.414933758896709803e-01
9.769409824352214000e-02
6.095868627964898950e-02
5.172780544408734499e-02
5.257890398683444377e-02
8.892061593174860334e-02
1.602933550829956644e-01
7.570744532661818904e-02
-3.278410763767886094e-01
-7.675791237095529462e-01
-7.424078265724392001e-01
-2.175709858675228814e-01
3.244499194137567821e-01
4.991769266190347332e-01
3.606836291618242818e-01
1.705035528487454655e-01
7.574108879588835330e-02
4.832256185123010722e-02
7.235103055130747730e-03
-7.743006805467558817e-02
-1.687048263383364444e-01
-2.116816726502137314e-01
-1.977902197920270166e-01
-1.666711025410676505e-01
-1.457922859429701679e-01
-1.304274146722146366e-01
-1.200266556750519964e-01
-1.231452632890320809e-01
-1.255544160527987674e-01
-9.741826334562794787e-02
-4.348948073140421200e-02
-1.554403622623684762e-02
-4.884460450607875509e-02
-1.004801466873251337e-01
-9.302836590492655211e-02
-2.373564326514980560e-02
2.529476204659775185e-02
3.869715294885008906e-03
-3.907589640278313903e-02
-3.279998193233028825e-02
2.217679329224529414e-02
7.766498054546470964e-02
1.134458662199098189e-01
1.387256865549766349e-01
1.522109515002948998e-01
1.486423635775292185e-01
1.382366136301066417e-01
1.316418019484242863e-01
1.280802895415297793e-01
1.300414361726250911e-01
1.487078944916659928e-01
1.848523738714611953e-01
2.197732632635043259e-01
2.311172150962284844e-01
2.052202866204035359e-01
1.429329541302277184e-01
7.524458198668289299e-02
5.377074570265391595e-02
8.831734713582367613e-02
1.066626432421261400e-01
3.247826245349742791e-02
-8.256130934208029404e-02
-9.998631196611636185e-02
-4.659263785535902591e-02
-1.614603541835673839e-01
-4.997196202405368437e-01
-7.054162877410415922e-01
-4.599040824089056234e-01
5.465141394789113649e-02
3.947515421264744528e-01
3.745262774086055013e-01
1.666503387904709199e-01
1.695718969686482031e-02
-2.151885306598333610e-03
1.920351707568055538e-02
-7.470506660737500325e-03
-7.649848276082601983e-02
-1.382288066609644039e-01
-1.701438343470084436e-01
-1.786632340077991543e-01
-1.768208751431975256e-01
-1.808950923893659080e-01
-2.010878731511465123e-01
-2.214052992644984508e-01
-2.086785979361862609e-01
-1.578264668678117655e-01
-1.080571753084472175e-01
-9.104718873661576950e-02
-8.901188977520579915e-02
-6.743267211820871965e-02
-2.035079834526960785e-02
3.084140926274607508e-02
5.950060212272907656e-02
5.207498443280471345e-02
2.109159787388796559e-02
-1.863943347037471526e-03
5.313022940516229711e-03
3.582162461135699610e-02
6.301018614537141904e-02
6.375663580946543119e-02
3.973137481890548495e-02
2.231578017104611164e-02
4.156927045068380122e-02
8.550302406420513812e-02
1.126026029969193903e-01
1.039638681041088614e-01
8.007546719858904538e-02
7.094438836377503499e-02
8.058872811856054863e-02
7.565723461573443942e-02
2.137646249587846908e-02
-5.738377649816585324e-02
-8.320553507662312165e-02
-1.964780762797594532e-02
8.690734312698494834e-02
1.714832529627661750e-01
1.924650887936282806e-01
1.324175877627406517e-01
3.268663981936388574e-02
-5.033972556049702562e-02
-1.768389989513990956e-01
-4.332279232227065902e-01
-6.692357035384945974e-01
-5.928636983918965653e-01
-1.804068292683586039e-01
2.606344527558899782e-01
4.566548977279690225e-01
4.017852602368963688e-01
2.458846502850667581e-01
1.080074381425259467e-01
2.378386230728499195e-02
-1.152048921744372456e-02
-1.080678314668455896e-02
1.423206258743247524e-03
-3.955690413684799511e-03
-3.112383887126447812e-02
-5.464646671202798983e-02
-5.632566001210764783e-02
-4.721336359005388894e-02
-4.135143414918764082e-02
-3.302513201237254614e-02
-1.390135671591526470e-02
1.030721852714274085e-02
2.995940088374913005e-02
4.307663885206621662e-02
5.492319740074444456e-02
7.241073690820439002e-02
9.114292738897390722e-02
9.042514492009433302e-02
6.079277681238789283e-02
2.576508320774042321e-02
1.441945499206919237e-02
3.407237596617938846e-02
7.708529950826199795e-02
1.215186244590541198e-01
1.363478510002624489e-01
1.168165626044210953e-01
9.233238818683589533e-02
8.580366813616413513e-02
9.505862860513002166e-02
1.152371647081430056e-01
1.436632039708135300e-01
1.617673307420091633e-01
1.466643523279992090e-01
1.010530027499556421e-01
4.645511636972469299e-02
-2.878894386793769654e-03
-3.911991828954422545e-02
-5.105459322344486212e-02
-3.471300722115122639e-02
-3.854649982257455851e-03
1.471917834641046571e-02
-1.391770034894526664e-02
-1.079714959037477717e-01
-2.115589056378496813e-01
-2.108483579201862190e-01
-1.100558717856826574e-01
-1.374125639722884595e-01
-4.563697691785518762e-01
-7.966979052523180949e-01
-7.045558129455042895e-01
-1.686492656480840235e-01
3.507175024889933601e-01
5.066250087004515734e-01
3.746889239401992588e-01
2.013930075467940950e-01
9.951587301565967270e-02
3.890810969454206597e-02
-1.733341526129266938e-02
-6.376424432234696626e-02
-9.116171846999052142e-02
-1.040342796661471725e-01
-1.022527655377334366e-01
-8.151037275917971670e-02
-5.445920402495093432e-02
-4.433142279802483599e-02
-5.325469309789941652e-02
-6.111987149156053456e-02
-5.945806361469067186e-02
-6.149703004368210074e-02
-7.081139231716276905e-02
-6.458420817690545268e-02
-2.567719044185782021e-02
2.720503486348712502e-02
6.094364193158188781e-02
6.333633941276024804e-02
4.162158763911383286e-02
7.854159919876629176e-03
-1.596796423967040621e-02
-4.888657849677907272e-03
3.308933019502273420e-02
5.534929463644749220e-02
4.039490263790264379e-02
1.709991305882559848e-02
2.347326263801216215e-02
6.199871868779879142e-02
1.051204616829914118e-01
1.275073708350260293e-01
1.264442546597593087e-01
1.152159336658427208e-01
1.007360070822227727e-01
7.540602266046975144e-02
3.616702629616067727e-02
2.354514370671214035e-03
-3.517582741249917350e-03
1.115006305221746818e-02
2.266419725675645688e-02
3.359285137884405331e-02
6.693614500380704047e-02
1.123891708456394856e-01
1.017526196952940609e-01
-1.810316187025657816e-02
-1.535294832083768657e-01
-1.140192361188666348e-01
5.846700396437495839e-02
2.711793777017579288e-03
-4.173933801520000042e-01
-7.446104780790475663e-01
-5.142684601518099363e-01
7.855796549544995233e-02
4.804525374809297533e-01
4.668224425902759434e-01
2.368889246120116643e-01
4.991423337422109391e-02
-5.944151873220607750e-03
1.316277845237045184e-02
1.190214975731200900e-02
-5.865970363757780359e-02
-1.569116779572578835e-01
-1.938814210637814506e-01
-1.427107572566405913e-01
-6.809893017017798478e-02
-3.013531478092058846e-02
-1.911729727542407428e-02
1.279173556161328565e-03
3.915486183647945428e-02
6.647568971203288157e-02
4.616696963208499760e-02
-1.295463682366363931e-02
-2.483244042320334466e-02
9.594899828605317482e-02
2.920664845704332713e-01
3.776367651596443387e-01
2.637316346462155181e-01
7.570728220824096688e-02
-1.975468175613791233e-02
5.419778412926432726e-03
6.815156117205220521e-02
7.986411535993531707e-02
2.099059365030050625e-02
-2.355137506424892849e-02
6.227219876282159838e-02
2.565414576710450256e-01
3.734381710210089023e-01
2.918931303411879119e-01
1.165547535132568646e-01
1.843380432352468082e-02
2.708132995440398066e-02
6.164270727069769834e-02
6.719854570731040311e-02
4.993432444373536311e-02
3.102775252600910652e-02
1.875282252739488703e-02
1.595135675449756846e-02
2.989373143125474350e-02
6.653191588850490557e-02
1.056700132583780760e-01
8.807401272125330027e-02
-2.138712309586114288e-02
-1.364068151865798217e-01
-1.173760716729021769e-01
-2.486881496270602551e-02
-1.325787668291076582e-01
-4.833902810972787734e-01
-6.714010947359981829e-01
-3.756798428100484588e-01
1.522214765415297322e-01
4.395586823987098768e-01
3.659173076277770220e-01
1.514033410966043602e-01
1.042263931491611145e-03
-5.295807742319345868e-02
-7.071542838496107375e-02
-9.696273924930767785e-02
-1.314455717573244087e-01
-1.585824830774480998e-01
-1.763639739338710988e-01
-1.920125596306226923e-01
-2.023068774423821548e-01
-1.940411469658306909e-01
-1.659641537849101955e-01
-1.343441721809311429e-01
-1.095534220765063821e-01
-8.174558024980640991e-02
-4.363208418028563518e-02
-2.179722454105770257e-02
-5.441246885468396799e-02
-1.173775526208518938e-01
-1.183178563345457374e-01
-1.644222023045086717e-02
9.137942036938977164e-02
7.070700823788100831e-02
-7.820114507198980269e-02
-2.131161119764821976e-01
-2.275460016588419510e-01
-1.593881923820790469e-01
-9.172790907016230288e-02
-4.325819701022629027e-02
1.544644530409197865e-03
4.394164071903333690e-02
8.332375934975419507e-02
1.184237205642412472e-01
1.319429966424763845e-01
1.136721700872460744e-01
9.085843448885398688e-02
1.040910494881732012e-01
1.550426069985803013e-01
1.990711628801010158e-01
1.933824592615309423e-01
1.419563624853921457e-01
8.682148423776230028e-02
6.324482066448515460e-02
7.657475275829743466e-02
1.061233615497009369e-01
1.070211117794116346e-01
4.428530281042364347e-02
-4.234070493029358506e-02
-8.496664772040250779e-02
-1.381000704100292520e-01
-3.213274978182187325e-01
-5.417938215923763234e-01
-5.139744525159802846e-01
-1.602988144475691601e-01
2.460375405517934433e-01
4.184648788838203903e-01
3.454868303877845492e-01
1.981009742150872110e-01
9.905449111713165999e-02
5.196948621013434272e-02
2.110056169195366482e-02
-4.815658658802532063e-03
-2.329017611028908960e-02
-3.898224365532436397e-02
-5.753866397618299239e-02
-7.838645491038091773e-02
-9.620647812464910853e-02
-9.844733619427505078e-02
-7.284814553178747820e-02
-2.897191799162019202e-02
4.724701427045310126e-03
1.385720711094437334e-02
1.023998024408499623e-02
1.004512197939607353e-02
1.943908629825723960e-02
3.719335097926303874e-02
5.566480471957759718e-02
6.584632300252386827e-02
6.453104567087891708e-02
5.260917944933387463e-02
3.733995985034219145e-02
3.325792682680857315e-02
4.299936791146222181e-02
4.736960252196004834e-02
3.283269369200512988e-02
1.800249322950306721e-02
3.538701852610415255e-02
8.592303691161629065e-02
1.219723856251878485e-01
9.510192818809064252e-02
2.652712067755338965e-02
-4.081428969230357223e-03
3.925189844563657660e-02
1.003371071748461185e-01
1.079162784321973378e-01
5.593063541721436660e-02
-4.852776526217458114e-03
-1.663317291441636023e-02
3.766272741910020594e-02
1.158547072258820504e-01
1.605758207122816028e-01
1.470003034122844832e-01
6.927236479127800439e-02
-6.025273245167599850e-02
-1.794099477281171362e-01
-2.555736665123286011e-01
-3.936490431124634592e-01
-6.621184904700296858e-01
-8.402396081899325964e-01
-6.342241738713852994e-01
-1.158262279753780599e-01
3.337032619145474110e-01
4.633122819163044137e-01
3.346997032138492312e-01
1.481762283268990010e-01
4.730238965737218471e-02
5.722286023100095487e-02
1.118045019249584437e-01
1.290528324345336930e-01
7.959420710006182009e-02
-5.784488929508946331e-03
-7.499323843788881228e-02
-1.016295174185636724e-01
-9.856580086991269252e-02
-8.589434240270099608e-02
-7.040353948199676304e-02
-5.696989871456641097e-02
-4.505582409734941451e-02
-1.987204370268398287e-02
2.296689607135178265e-02
5.830604127315378721e-02
5.870263706398742148e-02
2.659486963948569371e-02
-9.417157994784956451e-03
-1.964459526269473136e-02
2.285188829578954205e-03
3.118689560261864169e-02
3.522941346010680791e-02
1.589174840198219821e-02
5.814217332840542450e-03
2.112621872828963562e-02
4.505561682811484031e-02
6.239041691610455048e-02
7.405370392923986411e-02
7.846660367191871099e-02
7.380503571890785486e-02
7.233540028183742254e-02
8.098314217779242763e-02
8.284956876008489624e-02
6.835347006836113570e-02
6.097458979054763695e-02
8.342789578189088728e-02
1.225100912462683406e-01
1.449692347091815492e-01
1.259471259060050974e-01
6.126741307889792265e-02
-2.012530266364685044e-02
-6.125249353602878893e-02
-3.329432401901122329e-02
9.750004629132178260e-03
-1.675488127324371163e-02
-1.095545819479866040e-01
-1.936078694829810598e-01
-2.737672127078406570e-01
-4.172976619071483984e-01
-5.393813567708434231e-01
-4.255929694596714552e-01
-5.634773481128647898e-02
3.017152332373138623e-01
4.115281407983522044e-01
3.072029702674956564e-01
1.629160719922277678e-01
6.592100464003618210e-02
4.965409028387199331e-03
-2.254553432296041784e-02
-9.390019618943409863e-03
-6.927033362080486228e-04
-5.882604754409306858e-02
-1.666303896253196193e-01
-2.294312886814142693e-01
-1.897001777376229326e-01
-8.703915047226620794e-02
1.121383253547602980e-02
7.646130790581662229e-02
1.069229170582821908e-01
1.083694709510708148e-01
9.266934368691492896e-02
6.948379772799441467e-02
4.744574193904688153e-02
4.661472517998761778e-02
8.483862551068702129e-02
1.427009309796998249e-01
1.685892565303982460e-01
1.398831083028387323e-01
9.933973046835005427e-02
1.025993903481547120e-01
1.459854685624536741e-01
1.804067514741566902e-01
1.814457006323101362e-01
1.624263524124537339e-01
1.232014293257571308e-01
4.052780530861267716e-02
-6.491650363505679922e-02
-1.054228421196584248e-01
-2.864882101043786378e-02
9.853348978073980802e-02
1.715243655599301698e-01
1.680255475425390110e-01
1.338119654808106185e-01
9.891069435836458146e-02
5.170388823305241410e-02
-2.510877255922192713e-02
-1.047966392974433725e-01
-1.178335984726624902e-01
-3.501083495087725650e-02
7.115532462035741024e-02
8.758513359184985636e-02
-1.842274514404453056e-02
-1.372418170750237532e-01
-1.112050260829286485e-01
1.507974440540925387e-02
-7.350297606333699996e-02
-5.259144024086053193e-01
-9.306729882111042240e-01
-7.629413866799306110e-01
-1.213528682202102693e-01
4.084654281301554057e-01
4.998896415114441050e-01
3.262026976673492173e-01
1.722399245414708568e-01
1.127148929302193014e-01
7.158800826076691659e-02
3.638937712895999252e-03
-6.177161101013429328e-02
-9.036893462997241944e-02
-1.020415322635145616e-01
-1.538671715121656680e-01
-2.524819681554946738e-01
-3.134719798824396886e-01
-2.662094623400950155e-01
-1.603184923311687105e-01
-9.761854757715478226e-02
-1.022503392727520805e-01
-1.172572040962769485e-01
-9.347652360184813269e-02
-3.792785432198020334e-02
1.260428014244056524e-02
3.882424822059649810e-02
5.448041402656036980e-02
8.112561872292757548e-02
1.164925911285469989e-01
1.405780013466697564e-01
1.454851908372870317e-01
1.366949019351118566e-01
1.150520783154976023e-01
8.330818760230268571e-02
5.865055599259560992e-02
5.708246719166751998e-02
7.574741339503096582e-02
1.004878245075210702e-01
1.180168807057744157e-01
1.176824408989959603e-01
9.612086642855675878e-02
6.517581723090369594e-02
4.628100189140132992e-02
5.241863197425832704e-02
7.635179976011756409e-02
9.532417825387069776e-02
8.925037127388844860e-02
6.091762527533543109e-02
4.037224614937656719e-02
6.119155612099146102e-02
1.186668148357222369e-01
1.489981063892366620e-01
8.039500925997293546e-02
-5.080421269535059098e-02
-7.703605087778432614e-02
6.401397200582642499e-02
1.060540001236898039e-01
-2.247503304334778906e-01
-6.673592920078281754e-01
-6.601909471645192040e-01
-1.455871353029914994e-01
3.455814685583420420e-01
4.287833161138922544e-01
2.537285178824960075e-01
1.267400822921374015e-01
8.941174824741057736e-02
-6.220824167692953939e-03
-1.918686655923567963e-01
-3.193171390383994779e-01
-2.757338138055692722e-01
-1.334756122111465104e-01
-3.787086699365953268e-02
-3.630780127738127833e-02
-7.555759057018178459e-02
-1.007594148374095361e-01
-1.039352645942957787e-01
-1.054286337927442113e-01
-1.177779004610846891e-01
-1.253018648286992887e-01
-1.012893064503962159e-01
-4.829545280756043085e-02
-3.008744213702267949e-03
1.245106342845462774e-02
2.216731229423458266e-02
5.627653806276813192e-02
9.939834014482164248e-02
1.112623753213721339e-01
8.734870917170965698e-02
6.358981002767075119e-02
6.432545674878009656e-02
8.249372775497795796e-02
1.100968422917652095e-01
1.453208958891454572e-01
1.694924665119000584e-01
1.625539495069422691e-01
1.375441250859270881e-01
1.203256398976812053e-01
1.105671943642491245e-01
9.543553737581489393e-02
8.161951184942285720e-02
8.755641595295124424e-02
1.144563462385190661e-01
1.368020537947425563e-01
1.234283987833617591e-01
7.688212180794136430e-02
4.498563114183442430e-02
6.994555583903000473e-02
1.279329999041533827e-01
1.362089157864480871e-01
3.526701087920668110e-02
-1.168588157141016159e-01
-1.799232834525885949e-01
-1.480239036052697355e-01
-2.265140313742284861e-01
-5.019743238806604335e-01
-6.905977587284254371e-01
-4.914051872438907065e-01
-2.624539555040698857e-02
3.276464413100070860e-01
3.843276989165985702e-01
2.461214455602041551e-01
8.227888555474620336e-02
-3.888046383039564513e-02
-1.177462738480135052e-01
-1.388528277591582760e-01
-9.595393712681561660e-02
-4.460406902191849793e-02
-4.725455425328469600e-02
-9.724330230380853757e-02
-1.439786619749525709e-01
-1.594158795626771097e-01
-1.494673023968334791e-01
-1.279916954399558382e-01
-1.032021963636740869e-01
-7.157378450476203913e-02
-1.773957865418793189e-02
5.065559807717540108e-02
6.916053226020853206e-02
-2.517034819345322777e-02
-1.775207355587238300e-01
-2.306550840024636506e-01
-1.183557246176748928e-01
3.222398582683436152e-02
6.946912320605723445e-02
8.826668501336988604e-03
-2.530645771440321462e-02
2.036297510024970975e-02
8.966513840556095127e-02
1.218167558744651657e-01
1.193705513635913429e-01
1.164063901259143330e-01
1.311128826437261141e-01
1.595723470857902671e-01
1.868025413816083447e-01
1.925601635428117742e-01
1.662525272737798154e-01
1.262993177888051266e-01
1.060967680773263616e-01
1.121749665415134739e-01
1.164010400273817192e-01
9.839036455909512535e-02
7.518586629766592366e-02
7.752513983050794699e-02
1.087677850177750649e-01
1.314134142846427877e-01
9.169083936688185443e-02
-2.218590470965703387e-02
-1.372492531043983943e-01
-1.668037794137242624e-01
-1.613176440681238777e-01
-2.812350360554754514e-01
-5.204208032823716135e-01
-6.088865803325496096e-01
-3.544307453547781428e-01
7.137968110794279397e-02
3.459262016251746230e-01
3.577211469608814198e-01
2.376241265090838772e-01
1.333853195880350395e-01
6.996058359268857163e-02
1.440216709560688743e-02
-2.559879760107038396e-02
-2.395057152071542947e-02
2.783527981978050139e-03
1.412343242465502122e-02
-2.599687775199513787e-03
-2.594889043577135179e-02
-2.890979224863701388e-02
-9.032455647475035390e-03
-1.384591922207917790e-03
-4.649099060138298795e-02
-1.239322720482890355e-01
-1.499612430782939487e-01
-7.996563574221866866e-02
3.026791932695260118e-02
1.034112518352689747e-01
1.230454935087239160e-01
1.070543447031190309e-01
6.112431213478756314e-02
-4.733410088008034415e-03
-5.460144340866269347e-02
-5.710975385967956980e-02
-1.894662526809867686e-02
2.839781088168211870e-02
6.111253164866400217e-02
7.923758131964163398e-02
9.893029835706401709e-02
1.275825497794536578e-01
1.491483873685783001e-01
1.432573221299162647e-01
1.153472278010004570e-01
9.002404900710057889e-02
7.659810210655489116e-02
6.571358842340088713e-02
5.731930445080011399e-02
6.328207061209469020e-02
7.735645630252549476e-02
6.920521333037461809e-02
2.838582742089174396e-02
-5.807491246203854741e-03
1.105840004806855903e-02
6.189852509699202143e-02
6.658965515116144207e-02
-4.309539259527745553e-02
-2.296814051580594318e-01
-3.605071583804148605e-01
-3.833058739899556366e-01
-4.161010180372026190e-01
-5.180426701603687567e-01
-5.088250424293585539e-01
-2.303304832746789488e-01
1.649151168270118206e-01
3.895067173342828815e-01
3.555986039449225422e-01
2.013509870541342894e-01
8.298503012985769534e-02
3.124027083417224571e-02
-1.666382010510916722e-02
-9.052605172857124127e-02
-1.351595735849271673e-01
-1.054651592486841871e-01
-4.806009275948216336e-02
-3.023380777455128565e-02
-4.794109249431221381e-02
-5.718766105371383274e-02
-4.410130278017471844e-02
-2.512706831545286762e-02
-1.603786746211838948e-02
-2.427717348698101366e-02
-4.054405918179897900e-02
-1.967365158290693486e-02
8.835957148519323068e-02
2.480030103487378956e-01
3.315343297090578289e-01
2.702656971502268579e-01
1.473592746095485906e-01
7.209763990738546346e-02
5.228844744249790816e-02
4.958207872159895585e-02
5.946050636552717428e-02
8.207693611441513326e-02
9.106394406762732818e-02
7.277689945615825606e-02
5.105878978757313891e-02
5.214418210841016005e-02
7.288188033657092002e-02
9.187953688529698626e-02
9.366591832565622500e-02
7.609687789537393499e-02
4.622232016368356400e-02
1.972998584004675288e-02
1.874994427909793329e-02
5.080095840147162700e-02
8.623623518646175712e-02
7.985561169032838469e-02
2.726942180210319144e-02
-1.709533727068713801e-02
1.178201190055222676e-03
5.858826607435086570e-02
5.970116725662857893e-02
-4.944605549871779887e-02
-1.876016861632503474e-01
-2.359231286689481566e-01
-2.482324203837727172e-01
-3.975038630627507064e-01
-6.313017371350871931e-01
-6.301386435321996160e-01
-2.512717385974778672e-01
2.347777606412329021e-01
4.758013450859563953e-01
4.055130173937691040e-01
2.105518317160346431e-01
8.689743400650865035e-02
9.140551728186498137e-02
1.495514851416268609e-01
1.569980128929709950e-01
8.894970097285954946e-02
6.331140783751182735e-03
-4.237588557378756116e-02
-7.302845670832580627e-02
-1.127467452813230159e-01
-1.514760972964901975e-01
-1.627694782411867602e-01
-1.439578639016883266e-01
-1.197721819903952850e-01
-1.061540366222559206e-01
-8.572434905737942590e-02
-3.970320340384514424e-02
1.203237901672946780e-02
3.264832983826258112e-02
1.370760229305822628e-02
-2.436477533199099196e-02
-5.462840886816609787e-02
-5.273427660979038839e-02
-1.177398005474078295e-02
4.239978034433148496e-02
7.037724650530659265e-02
5.746164964387014129e-02
2.734818417115787714e-02
1.871110110898484280e-02
4.700634519824248292e-02
8.886201914175866079e-02
1.060481388779402900e-01
8.516634787136719009e-02
5.096470061158846904e-02
4.186482493313294084e-02
7.801556330425522823e-02
1.458222001491921993e-01
2.048955445827534139e-01
2.167732538155268118e-01
1.702332464557649583e-01
8.484567450912951225e-02
7.128842671704375966e-03
-6.501252388160842777e-03
6.100643003761735406e-02
1.409083863330336250e-01
1.059867049574224201e-01
-1.010001687536903614e-01
-3.380893448042243121e-01
-3.563443443018831092e-01
-1.492028050388830018e-01
-8.697643098100198145e-02
-4.210164928530414352e-01
-7.900169249318403919e-01
-6.459653848509248064e-01
-3.754169496181382348e-02
4.754960312778648279e-01
5.468077768817696249e-01
3.191957191408655303e-01
9.219032316416038431e-02
-8.963142324862220789e-03
-3.443563106308087512e-02
-4.891368876334280247e-02
-6.583113467620275994e-02
-9.433922595642786624e-02
-1.562936626686085295e-01
-2.382574878444819466e-01
-2.794654338585130793e-01
-2.399562010358840536e-01
-1.539901582812583936e-01
-8.694714806111952798e-02
-6.178135163418311399e-02
-5.671675992762732071e-02
-5.813950678882110618e-02
-7.869088361928135156e-02
-1.140717880176863042e-01
-1.203527039845315866e-01
-7.049826888221286114e-02
3.264006147336573349e-04
4.549353967742563593e-02
6.638280916597334713e-02
8.993064302993790393e-02
1.203203562351516515e-01
1.357424761325883855e-01
1.175898617532770973e-01
7.725889487541329204e-02
5.640204331052663111e-02
8.544746117035056931e-02
1.417589119351607418e-01
1.737704233736243886e-01
1.604181216901899854e-01
1.237069183938755007e-01
1.000591694631571826e-01
1.133857218080639856e-01
1.505630394305873809e-01
1.606502424308818844e-01
1.087217983331598831e-01
2.896005107796602307e-02
-6.363874116064744887e-03
2.916279557056551675e-02
9.647464622586954253e-02
1.544851704047434660e-01
1.912859177811287448e-01
1.831308821735740944e-01
9.499013239266937414e-02
-3.050760921332508480e-02
-5.943170403240663480e-02
3.125239843109695048e-02
5.228663251208874596e-03
-3.234770153886884492e-01
-6.906654091419085484e-01
-6.573392616767631536e-01
-2.184112083805481719e-01
2.243407012529983202e-01
3.857531607325800360e-01
3.075579403697430436e-01
1.636896991754379638e-01
6.861443887041522582e-02
4.176069334986203668e-02
4.392822756143738294e-02
2.927319121832625340e-02
-8.789966531151428147e-03
-4.018112571776768366e-02
-4.714504585566922645e-02
-5.152857974703173305e-02
-8.367604070524793658e-02
-1.380678740671650861e-01
-1.745916944868722287e-01
-1.593887923487105895e-01
-9.500737631160457997e-02
-1.578489186925754323e-02
3.877950861453723086e-02
5.369055902117110535e-02
5.149543521925832590e-02
6.898554970083801974e-02
1.124861454266059407e-01
1.483047331414729386e-01
1.484585475576037095e-01
1.293597295837181915e-01
1.276194671020470517e-01
1.483449282252584100e-01
1.565690981180885843e-01
1.187522367725032668e-01
4.323020505266952918e-02
-1.685684381499792661e-02
-7.779675629640173118e-03
6.112091857394797573e-02
1.200727684160217829e-01
1.237000616509335016e-01
9.771734068860493672e-02
8.838071525843657628e-02
1.042514975320191079e-01
1.222215262951834025e-01
1.245886261056268762e-01
1.111629943194914344e-01
8.752541101487212871e-02
6.372992146798255042e-02
5.997863358017180985e-02
8.933619564934000556e-02
1.295278665982909916e-01
1.276287601753959278e-01
5.279463004334489923e-02
-4.599725356131014603e-02
-8.344709201196970350e-02
-9.690912382210048470e-02
-2.529573240008700097e-01
-5.512567241452789313e-01
-6.873153286644229087e-01
-4.298991176711042250e-01
3.596966251189856467e-02
3.418790549407421109e-01
3.506586849360163738e-01
2.004241425734117343e-01
6.839421018354244208e-02
1.029984287139549919e-02
-1.290554057764896866e-02
-3.956141961550359992e-02
-6.856404629755642743e-02
-8.608442199428721631e-02
-9.650353857938095969e-02
-1.173290855634514240e-01
-1.477640485828707884e-01
-1.594839301285213284e-01
-1.347814845789093163e-01
-9.716214869912843943e-02
-8.035709571232213522e-02
-8.394248264545572935e-02
-8.366314145549708092e-02
-6.800828811939584051e-02
-4.471618149094596512e-02
-2.525923811592335755e-02
-1.366139784891246683e-02
-6.043155381742656290e-03
-3.398117922640578499e-03
-1.980153329679670837e-02
-5.995767522039464198e-02
-9.293442195321374721e-02
-7.751429652961848438e-02
-1.918008522099093685e-02
2.170169100195692979e-02
-6.943542951530778246e-03
-7.674889707675829065e-02
-9.483058746145607565e-02
-2.097057416039273606e-02
7.477627305691725290e-02
1.138733119714327446e-01
1.060437219274889264e-01
1.036111079017190545e-01
1.172337116784837874e-01
1.131325312844202319e-01
7.259210711855079712e-02
2.778236571565910126e-02
2.503974089362977912e-02
7.006049014414029996e-02
1.282957327163777583e-01
1.610472589684764921e-01
1.466538521125518857e-01
7.431188645745022414e-02
-5.754057766755298065e-02
-2.041750408509615533e-01
-2.835638548426835936e-01
-3.010473762798157038e-01
-3.748702937426000581e-01
-5.163246999291186690e-01
-5.263149365531463175e-01
-2.694628447170122620e-01
9.784828501598802353e-02
3.134555319658404726e-01
2.938084418558100652e-01
1.450348618359030284e-01
3.540168785964283027e-03
-6.300803671418721275e-02
-6.305501112582853618e-02
-4.848750133733095019e-02
-5.858914020306208587e-02
-7.798347332712220192e-02
-5.932600181108255849e-02
1.308176169188208886e-02
9.095280129671647062e-02
9.620449401346370388e-02
3.872706527133659704e-03
-1.046844672037472307e-01
-1.149065312904461317e-01
-2.013883088106834668e-02
7.387321506056809817e-02
9.295254467103769569e-02
6.197381974929795645e-02
3.275186593146781067e-02
2.699891618336673627e-02
4.873484435844034623e-02
8.873432343486221952e-02
1.089873282380616065e-01
7.205904612745563098e-02
4.642000112204454354e-03
-1.785875955254327685e-02
2.300233508090139892e-02
6.316673425220498128e-02
6.557149069778979433e-02
7.306153178218303956e-02
1.199868674644122279e-01
1.715315046095691742e-01
1.845790213941624069e-01
1.682867931003977635e-01
1.555592704332088572e-01
1.558479187313155101e-01
1.566431754370795904e-01
1.453559783357983026e-01
1.207034513796761549e-01
9.674121550529611591e-02
9.124294819390847688e-02
1.026331303173553533e-01
1.159169550814171529e-01
1.354369488059928850e-01
1.712198593353238818e-01
1.788314556377527120e-01
8.316578042849205599e-02
-9.750530479840002762e-02
-2.498419987286386312e-01
-3.469470973348844911e-01
-4.751817935402745663e-01
-5.985132139790407813e-01
-5.173336235940451111e-01
-1.696705467154611957e-01
2.372442219028342847e-01
4.659122423253335143e-01
4.521609050785808659e-01
2.710603410689366721e-01
5.382835670788189281e-02
-7.057468495326239821e-02
-6.401911440256584374e-02
-4.350388640435326471e-03
1.983833770917629857e-02
-5.830570060736865387e-03
-5.490003190981205400e-02
-1.039575149967816303e-01
-1.256353214697820686e-01
-1.006946243081633385e-01
-4.698166527816232535e-02
1.477276253926263286e-03
3.216035913921137107e-02
4.952524196880134233e-02
5.470966633809832419e-02
4.328303210934899420e-02
1.221138751184366877e-02
-3.075778549764385250e-02
-5.473782765809444978e-02
-2.043074701474136348e-02
6.322020683332385538e-02
1.250151304919029649e-01
1.166138430488309480e-01
7.700861345295562099e-02
7.090037395845830148e-02
9.919493336918926152e-02
1.130471611566553902e-01
9.357847126536486537e-02
7.146185361772966482e-02
7.037981475252033658e-02
7.525896133914498909e-02
6.561827815368630190e-02
4.492892210580604756e-02
2.812674880975895436e-02
2.374587423805310515e-02
3.012753523919863702e-02
3.614338305647965544e-02
2.969774058568466074e-02
1.087122928897342813e-02
-7.686279509501384513e-03
-9.963409217397353052e-03
1.894194702530620916e-02
7.972469792242482811e-02
1.250429263836940752e-01
6.118117250956899705e-02
-1.415277429132493769e-01
-3.245311884702941629e-01
-2.659832828988082931e-01
-3.176972010960084358e-02
9.098774888322065657e-03
-2.696697678364979867e-01
-4.780342218246116937e-01
-2.717307016136199516e-01
1.387550128079792777e-01
3.320823912926734178e-01
2.274201340631704649e-01
4.956597299274386609e-02
-3.433037901831387240e-02
-3.943211434207080646e-02
-3.393099984851231238e-02
-4.132947201364142731e-02
-6.086835512172962537e-02
-1.021588473216879095e-01
-1.679263309415792993e-01
-2.239108113337636707e-01
-2.241211295178206775e-01
-1.732091929272347453e-01
-1.256247841461656800e-01
-1.161204276613616720e-01
-1.298992725953106442e-01
-1.358959767404642749e-01
-1.171930635902809353e-01
-8.224791441980745799e-02
-5.940904219762791622e-02
-6.119695526797608309e-02
-5.802686196380864997e-02
-1.188625663226518941e-02
6.744511078014021888e-02
1.232634687705665005e-01
1.183322262414897713e-01
8.423534364065096702e-02
8.110104872961212963e-02
1.142580080662267128e-01
1.251335253100421818e-01
7.073930125549751646e-02
-2.269447088538930832e-02
-9.391606334457683336e-02
-1.063472049534583130e-01
-6.687619276638662180e-02
-1.264413573473010220e-03
7.124951061965492660e-02
1.292768245310652597e-01
1.399635542058162985e-01
8.943556687197361244e-02
1.307835008189225587e-02
-2.857936177934963101e-02
-8.713060459292038332e-03
4.085989389240474168e-02
7.211015627321198940e-02
7.869744167862854911e-02
8.846088539472926615e-02
9.515685964982083245e-02
4.363664591357553635e-02
-6.492859527870614711e-02
-1.200946559390557306e-01
-9.920887614715721836e-02
-2.195253211572653906e-01
-5.948547537458990231e-01
-8.595965159461975702e-01
-5.803223088946695141e-01
7.486488897569627821e-02
5.311612857967772383e-01
5.297756746569224351e-01
2.874236975774750458e-01
8.185837363404743772e-02
-1.869600390056146144e-02
-6.767015676299091564e-02
-9.557768915842054791e-02
-9.779549838051077026e-02
-7.979647172644183106e-02
-6.619908721519780770e-02
-7.469679436356153890e-02
-9.387132601365727469e-02
-9.836990498970892005e-02
-8.918668785063633975e-02
-9.610973296664046539e-02
-1.298111785233284632e-01
-1.570361671920422753e-01
-1.357751121475614109e-01
-6.064788700028471424e-02
2.997723245384563071e-02
8.932966027417986454e-02
1.077012748201335024e-01
1.115377976608025873e-01
1.138421807009496606e-01
9.609059436962363865e-02
5.345671749793398653e-02
2.384705468075401513e-02
4.437462037609431892e-02
9.883432165058186891e-02
1.363845674365971872e-01
1.282397196070312606e-01
8.477762158876707421e-02
4.183185038835697533e-02
5.606450519450428133e-02
1.742778504714347643e-01
3.502983888969388726e-01
4.362435188181026380e-01
3.467369792238512161e-01
1.820769231321728854e-01
9.943724054308651639e-02
1.320855937570513117e-01
2.023045106579062224e-01
2.365015996676936849e-01
2.169059249925325839e-01
1.695073273556925164e-01
1.401598411523765075e-01
1.589549461608449066e-01
1.959801661122443639e-01
1.743843455413168209e-01
7.423564132577492591e-02
-1.299445620223092963e-02
-4.094575437789328698e-02
-1.583624088040122835e-01
-4.628435541507798234e-01
-6.788899160588776072e-01
-4.591793314917948510e-01
6.952018539709171885e-02
4.506976023754928895e-01
4.677127276597571881e-01
2.688923188310051726e-01
7.998310867289053216e-02
3.953836759871799666e-03
1.423943386969274416e-02
3.093613755171718827e-02
4.443274546884427162e-03
-5.760444296210001647e-02
-1.195149178874217732e-01
-1.488036738174571827e-01
-1.367276870182630166e-01
-1.150759759014527150e-01
-1.360252428361748700e-01
-2.024882183025705773e-01
-2.381092765396836952e-01
-1.728754882267787285e-01
-3.986673825723460740e-02
6.181205618918840516e-02
7.990368835202441011e-02
4.747473605180289880e-02
3.082391522831198424e-02
5.885789043860607112e-02
8.949225249890845058e-02
5.576138667275837985e-02
-3.334903184952735938e-02
-7.709404546289096161e-02
-1.461332588309000209e-02
8.316164733831267475e-02
1.160032494103265671e-01
8.673836981409080438e-02
6.939640152036506693e-02
9.776167800307872247e-02
1.415076636084328654e-01
1.663996064223972893e-01
1.662444462297710535e-01
1.361987588552270034e-01
6.803493170147684177e-02
-6.660983363935026741e-03
-2.182146122480080330e-02
3.606100133834783117e-02
9.207185063398082292e-02
7.721937777315161788e-02
2.057362104191623811e-02
4.525440226651100163e-03
5.466627078984172272e-02
1.128677398662886328e-01
1.047229279702380916e-01
1.223828892016307762e-02
-9.587394763797650599e-02
-1.238817385028937179e-01
-1.157552359146727661e-01
-2.757640774286662100e-01
-6.338711760552261376e-01
-8.360347101795073677e-01
-5.610023207461158901e-01
7.696748249560098065e-03
4.043854223057612995e-01
4.209249945631715617e-01
2.177937424124864185e-01
3.324828862220913228e-02
-4.093796013734785078e-02
-4.174560527395429488e-02
-2.638026584556749793e-02
-2.108317012153707731e-02
-4.116181115749299735e-02
-1.138331240075887568e-01
-2.391315993341128487e-01
-3.452981736656953737e-01
-3.504498626227074976e-01
-2.636675941520895128e-01
-1.661229191153208995e-01
-1.112417133216745263e-01
-9.306036893358561601e-02
-8.540813277599643150e-02
-6.927673960177609114e-02
-3.840697109503092566e-02
-4.499034629493487564e-04
3.646186940907538560e-02
7.237972431971305409e-02
9.610982327770600797e-02
8.249956048852453983e-02
3.423463874784300059e-02
1.743779706563815257e-04
2.170665726996342040e-02
7.510298120716386860e-02
9.923206384934633861e-02
7.798267716669507466e-02
5.705526046705845788e-02
7.208161434392248990e-02
9.814328147134387947e-02
8.105622881158289217e-02
1.387982378374072803e-03
-8.892453876143874281e-02
-1.043948674217593520e-01
-2.450957402153749673e-02
7.633650174435063773e-02
1.230098306065490060e-01
1.156291066771005099e-01
9.414612774844226262e-02
8.532925971393280629e-02
1.035529892807575958e-01
1.495682259169832107e-01
1.848603758364074090e-01
1.500655105234169340e-01
3.440751180021667938e-02
-8.865560995233051633e-02
-1.278162732145616542e-01
-1.204298479574010122e-01
-2.520466292428475419e-01
-5.824195891707206751e-01
-8.328182900676966982e-01
-6.750792043060703795e-01
-1.645332667048924891e-01
3.190927831515145141e-01
4.973421251731764414e-01
4.126499771200709543e-01
2.654989171133707027e-01
1.623808427419031752e-01
7.529974079913519247e-02
-2.275598336693183954e-02
-9.012352640941451165e-02
-9.210879060567711551e-02
-6.205229997286742377e-02
-4.713047426722041799e-02
-4.149693657286689097e-02
-1.187560272012058889e-02
4.032235762313517852e-02
7.624884814135840516e-02
6.939211598075345488e-02
3.840299255111481735e-02
2.519750231762645995e-02
4.667818889809519090e-02
8.232068559835334365e-02
1.096249303329434738e-01
1.295991711594607909e-01
1.518143572307668887e-01
1.703347096311832731e-01
1.581102066763512282e-01
9.455720240447024194e-02
1.119999101741665781e-02
-2.367125776889222877e-02
9.185940272941573934e-03
5.674131199861047470e-02
7.512282536103216668e-02
7.743890591495217190e-02
8.912128955958123488e-02
1.074834844244983434e-01
1.150699518048791392e-01
1.003811923847058724e-01
6.322708736156151810e-02
2.208611675937758451e-02
6.234680437996093644e-03
1.495899054229893332e-02
7.993956517253809207e-03
-3.197975869950366035e-02
-6.564007452486322891e-02
-6.248377015754934261e-02
-4.849086647800596866e-02
-4.684027357635118377e-02
-3.131208248882458300e-02
1.062480401386475641e-02
2.012792833752852922e-02
-5.869896240417587369e-02
-1.613489211975386861e-01
-1.715254610583643591e-01
-1.522010692536269749e-01
-3.052355388563759431e-01
-5.744319719642290156e-01
-5.855632769509665492e-01
-1.737085307416540159e-01
3.389110157909149823e-01
5.622942869964946411e-01
4.664205693260158880e-01
2.717530165202042269e-01
1.309908740044928854e-01
4.668886091590867399e-02
-1.541311666800177296e-02
-6.467723161050273339e-02
-1.134704111654826347e-01
-1.718178541159576522e-01
-2.092783669332821395e-01
-1.869897576955437679e-01
-1.208519248757476544e-01
-6.153178473271683768e-02
-3.088978421674560063e-02
-1.366631601018896899e-02
7.858462310319686700e-03
3.084437017659971345e-02
3.620320604617690424e-02
1.354332356973363474e-02
-1.880731986923993987e-02
-2.782715834592649345e-02
3.222356911957429283e-04
4.633313586690640529e-02
6.936163776680785709e-02
3.645617458182473514e-02
-3.102395907285512844e-02
-5.505152601186879407e-02
2.504694739483613684e-03
6.797877743609594126e-02
5.149885079160464868e-02
-1.914567004513061457e-02
-3.949227837803145902e-02
2.218564328833769542e-02
9.508761747868381409e-02
1.174982909490414201e-01
1.059211556788308140e-01
1.030469211876656049e-01
1.127426163490919397e-01
1.097806366964831221e-01
8.930315066083710507e-02
8.122446627286325493e-02
1.047380755273547986e-01
1.279431096982491800e-01
1.088147908465374042e-01
6.241755364308783360e-02
4.343147220142654780e-02
6.824508257267095090e-02
8.362148207423256152e-02
2.255559820499345239e-02
-9.160982678206526508e-02
-1.298871393519347717e-01
-6.293303993116583506e-02
-1.213515465174699465e-01
-4.682968614311496247e-01
-7.866984938997132470e-01
-6.206156461129599400e-01
-4.341889459030900955e-02
4.424441279796202386e-01
5.413632678979367618e-01
3.635174711667085723e-01
1.392227411356849465e-01
-7.983899732100955410e-03
-6.671591195238719962e-02
-6.993279075566023739e-02
-4.919974613498612204e-02
-2.435801704775996876e-02
-1.048685852086252493e-02
-1.521491955157825912e-02
-3.171434747232691753e-02
-4.739000393674039358e-02
-5.887405925830148379e-02
-7.419151287090797187e-02
-9.963327484834834380e-02
-1.237365795860242701e-01
-1.220894753697282231e-01
-8.625343735132544321e-02
-3.788428750454132798e-02
-3.317906319927810179e-03
1.532798099024037727e-02
3.101891933155698916e-02
4.417835284819426889e-02
4.333117804792387118e-02
3.144743426016716192e-02
3.211041374866065168e-02
5.954659628453955189e-02
9.315697771298155072e-02
9.935332147174504025e-02
7.522131214361729712e-02
4.646397529704023033e-02
2.989224099127989545e-02
2.938295687573214479e-02
4.902329024095587046e-02
7.980784712968973238e-02
9.805205043759629424e-02
9.269058140137272084e-02
7.574389833615099987e-02
6.401401356853576863e-02
6.295095817310769615e-02
6.927888892568938306e-02
7.433076957830277165e-02
6.237136476662648310e-02
3.272413324924650091e-02
2.079042720724304238e-02
5.418348182418934733e-02
9.335186743742239501e-02
6.465906683091870999e-02
-3.182557390875780101e-02
-7.808826137911260845e-02
1.582385891952696466e-02
1.021426211871470924e-01
-7.605748854452380747e-02
-4.514429708776178107e-01
-6.045601876966010257e-01
-3.150606011105057114e-01
1.370510893299801414e-01
3.507833620148162468e-01
2.568496880040666563e-01
8.055199749913910523e-02
7.520754800612204291e-03
2.277216529606788942e-02
2.887910293484555191e-02
-1.015590428362532320e-02
-6.335238318800291701e-02
-9.358513127412974864e-02
-9.220520256918124380e-02
-7.483451315766839751e-02
-6.027966905774836959e-02
-5.485746986456069979e-02
-5.375238755449084777e-02
-5.705784061387544209e-02
-7.180346519790171966e-02
-8.919876668880134807e-02
-8.374710564671569712e-02
-4.755075253927694423e-02
-3.812350070481052358e-03
2.209243058754607053e-02
2.970094469620371963e-02
3.374756092534313134e-02
3.935258935149945486e-02
4.035253160200155675e-02
3.387667782562785168e-02
2.084486353281996690e-02
-8.371711853362908545e-04
-2.700996605693535904e-02
-3.768535458029318580e-02
-1.319726358849879731e-02
4.123742834256191592e-02
9.650740145535408043e-02
1.282187387038653259e-01
1.403153608385609152e-01
1.487231096182450862e-01
1.423613729097581160e-01
9.248401120502909578e-02
1.631932317750640210e-02
-1.656192521014011529e-02
2.401413124258922061e-02
7.947254964719184522e-02
8.153373102138777861e-02
4.107502402433969163e-02
3.015403332966662062e-02
9.240209884486402792e-02
1.818973072065780405e-01
1.915612489593453704e-01
6.232898332568680144e-02
-1.150055727931287297e-01
-1.720084713871818938e-01
-1.193002805946179329e-01
-1.903376577928880264e-01
-4.543748536488036449e-01
-6.043672271804677587e-01
-3.764245305369162686e-01
5.979679031372732434e-02
3.514341812342618998e-01
3.792493956156866575e-01
2.689537611700259512e-01
1.623821485665025155e-01
1.014473091099169777e-01
6.178348219332990138e-02
2.006650470942021591e-02
-1.410205213941520888e-02
-2.117455656077142645e-02
-1.505119291752884600e-02
-3.407313129625805931e-02
-8.162934241255696832e-02
-1.113706545457533448e-01
-8.982356628356850947e-02
-4.243216936113752835e-02
-1.406977152734300608e-02
-1.012127038554643498e-02
-2.376217982226110255e-03
2.389936273769848601e-02
5.291943302928372311e-02
6.534523193263208629e-02
6.411666760145917632e-02
6.599054182816968539e-02
7.699076275834131067e-02
8.241061943568257775e-02
6.351788246520123637e-02
3.062847899734941551e-02
2.313100127121203026e-02
5.524355601951233541e-02
9.053488191219034864e-02
9.658369294644882086e-02
8.831378773712024455e-02
9.587975746342573824e-02
1.237772130130738168e-01
1.538485696297089977e-01
1.649000489708994932e-01
1.471087229852941214e-01
1.114258570155701872e-01
8.159820386493835120e-02
7.315544552285269120e-02
8.720787319156017570e-02
1.160363935374145034e-01
1.385342078779721320e-01
1.275787889321425839e-01
8.735876692512864472e-02
5.865422363046456089e-02
5.583391940256723224e-02
2.911741093347455789e-02
-6.243805112800555196e-02
-1.558035555613287437e-01
-1.504176010495567872e-01
-1.138313440503121443e-01
-2.716986673497286953e-01
-6.355188737447856617e-01
-8.321668368789918446e-01
-5.581116982859326558e-01
-9.919737515315982246e-03
3.760856800171772374e-01
4.182118167396095543e-01
2.515784336957475054e-01
7.556047285544970071e-02
-7.124368014483312833e-03
8.172872377966940161e-03
5.829035130023679095e-02
5.317490660907572136e-02
-4.402614094224906877e-02
-1.696193916565710835e-01
-2.193824340944729445e-01
-1.582459907512811792e-01
-5.604733650039819132e-02
-6.876829538492298596e-03
-2.713348964304053423e-02
-5.669723528606061824e-02
-4.654245488684768256e-02
-9.254784765595339135e-03
9.163546822801496919e-03
-1.759521434569543200e-02
-6.708462665126541102e-02
-9.223606554957042292e-02
-7.721239240535793247e-02
-4.959779770382146541e-02
-3.652424053515550273e-02
-3.304840899413375582e-02
-1.558362798541068628e-02
2.549638135747570727e-02
6.736434140078033372e-02
7.388303234591903079e-02
3.956812371869224132e-02
1.407673065238805588e-03
-5.679991932036929092e-03
7.721727811615430523e-03
5.239858994176944777e-03
-1.846900335479428890e-02
-2.895555615080229114e-02
-9.717525165630539960e-03
1.254238362349715738e-03
-3.853648885915807870e-02
-1.047486756290804816e-01
-1.277884350200687580e-01
-8.885069747753947256e-02
-4.338101549859857409e-02
-3.913641793082728998e-02
-5.913035391784059874e-02
-5.481181003841817390e-02
-1.584809175668807149e-02
-2.972508787296617230e-03
-7.646395454713089679e-02
-1.696972785652548499e-01
-1.434625911995115466e-01
-6.413207084031052885e-02
-2.210988538466150677e-01
-6.331010484357244561e-01
-8.281238151277673376e-01
-4.633408427742837787e-01
1.525490793263064027e-01
4.871379272097223767e-01
4.248318315571074089e-01
2.270884151774055226e-01
1.081708848225540337e-01
6.941291171824195971e-02
3.822158461325032841e-02
-1.321466129617247798e-03
-2.855383821399972571e-02
-4.550923529030151404e-02
-6.682745877514113808e-02
-8.971987338974618531e-02
-1.054094632241939916e-01
-1.107757917802593972e-01
-9.706365761704360828e-02
-5.552248336329651535e-02
1.752627239372519727e-03
4.533351201602054542e-02
5.801903385425837695e-02
5.615151319260602847e-02
7.049114977999469678e-02
9.862239232111803811e-02
9.621494202455055378e-02
3.873566951561243504e-02
-2.647080000184106469e-02
-2.390932195056879803e-02
6.041813073613099688e-02
1.616932208589549613e-01
2.039929966616031431e-01
1.651356383469947675e-01
8.561401338602546429e-02
2.951992529807004675e-02
2.964135805230533327e-02
6.703485506185556664e-02
1.018772156287748448e-01
1.130515607677751583e-01
1.107515736077240298e-01
1.206920201130086134e-01
1.524603851726120674e-01
1.843682812096203993e-01
1.882734643305817579e-01
1.624810480850447381e-01
1.299313056754646256e-01
1.108973203377438127e-01
1.093779898602450090e-01
1.270432958062768791e-01
1.718699882497451148e-01
2.305768431631697868e-01
2.425437832684771700e-01
1.474536128918310929e-01
-3.599044257238014771e-03
-3.900790904603164411e-02
9.575469330549943314e-02
1.360150668029829757e-01
-1.807453785130466173e-01
-6.059450310572324083e-01
-6.082050288350556722e-01
-1.157787765970238331e-01
3.998108063968388581e-01
5.560452858882320992e-01
4.075596443587755635e-01
1.953783895531152892e-01
3.854312826926143548e-02
-6.684289887340467973e-02
-1.137072556712532267e-01
-8.447033472331266779e-02
-2.936697906243061415e-02
-2.743292728087011120e-02
-8.312207316438753602e-02
-1.297794381980142686e-01
-1.205298628728637689e-01
-7.514754422169052372e-02
-4.463209889879295178e-02
-5.060930993989071203e-02
-6.588395382091116748e-02
-5.346198606059295727e-02
-1.220926372001746377e-02
2.786116879754626380e-02
4.244595726692613341e-02
3.093889543970126596e-02
1.306968726566218146e-02
1.891007236638428055e-02
6.129869334984373863e-02
1.087560955452738093e-01
1.138462511829984314e-01
7.665737603372912989e-02
4.349381886865510971e-02
4.263760401256048993e-02
6.622205963033724052e-02
9.214053541273187209e-02
7.407801538546356090e-02
-3.012702234663995615e-02
-1.630588881790266398e-01
-1.863222196658817498e-01
-5.451764538164028534e-02
1.148574453291741210e-01
1.879744763919408701e-01
1.537265470778111653e-01
8.996173231062115638e-02
5.327785442134448657e-02
3.644120483442360448e-02
1.305512146451698677e-02
-1.043612538916521143e-02
-5.086579677378425847e-03
2.995386566232782766e-02
4.908006119404139528e-02
2.732191125376405572e-04
-1.084867633863096925e-01
-1.913451679865827149e-01
-2.031059261232030511e-01
-2.708700013487862490e-01
-5.245944801212372166e-01
-7.837285737656407569e-01
-7.007757143559567581e-01
-2.511166121030409815e-01
2.101854613256226856e-01
3.881325792215488679e-01
3.099847369915693651e-01
1.658156996143946293e-01
7.436925968438153067e-02
3.321886663021467873e-02
-3.953475521551325263e-03
-5.739101378568672862e-02
-1.126192424151834376e-01
-1.503968700490602162e-01
-1.650161283063299733e-01
-1.594130420092584877e-01
-1.426498119748184634e-01
-1.338465010893721552e-01
-1.561000306252813830e-01
-2.068570632139555832e-01
-2.242868621438406929e-01
-1.294232180907981256e-01
5.018449171756004384e-02
1.568451093786158435e-01
8.340175327834910279e-02
-7.154911441076544643e-02
-1.214315774035823886e-01
-2.881432734795001671e-02
7.153969721923333913e-02
6.871719167529014016e-02
-1.641858307167686631e-03
-3.882154210572780206e-02
-6.359667615014840542e-03
4.848314058604442228e-02
7.076395304308361056e-02
6.117552913587426255e-02
5.901220205514316058e-02
8.346897197657660028e-02
1.153982205431797053e-01
1.300060161232034772e-01
1.210090026138631036e-01
9.422551300091717985e-02
6.442898659217773105e-02
5.350563004560610070e-02
6.618749566872178525e-02
8.055074266732162314e-02
8.260225125654066525e-02
9.303210542779513648e-02
1.385957658036528761e-01
2.010600752967665328e-01
2.233158544398368972e-01
1.818193367789928960e-01
1.115675350689570994e-01
4.316462280324035589e-02
-2.384864108458151916e-02
-1.015336259668089269e-01
-2.387915249924356387e-01
-4.685458173363014622e-01
-6.494901059968204438e-01
-5.436316740689519644e-01
-1.429923590094888119e-01
2.697986390313564242e-01
4.391245741444343431e-01
3.598764264635544996e-01
1.839264879262546004e-01
4.402040566447568137e-02
-1.121012440001699188e-02
-9.684364629495949284e-05
2.972024876427438456e-02
4.163677529597304555e-02
2.761995837943522283e-02
-3.687438140328095412e-03
-3.836427120934771812e-02
-6.855222942978371481e-02
-1.063886831919527709e-01
-1.549520946269072608e-01
-1.691484435798986941e-01
-1.074093430841718960e-01
-8.037737910833429172e-03
5.119260007258944617e-02
4.842753321450640747e-02
3.091146310507256884e-02
5.305422053409332428e-02
1.178429127681188265e-01
1.754877634301599543e-01
1.798876797409043049e-01
1.376732714570073624e-01
1.033222196661548048e-01
1.323689170557405259e-01
2.166753091644632589e-01
2.712368677554580221e-01
2.309047428857975426e-01
1.388940261253219233e-01
8.623728213003803433e-02
9.927519339517493213e-02
1.333081228443590005e-01
1.381581148500604095e-01
9.427272873181595514e-02
1.887914698597475960e-02
-4.238719312258112937e-02
-6.247679161171963702e-02
-6.603824572919077263e-02
-8.488700355470281400e-02
-1.199976870819494251e-01
-1.649875471637440583e-01
-2.046965357453656709e-01
-2.023184227143728642e-01
-1.472477901020655122e-01
-7.585041662992728084e-02
-2.577632807761585237e-02
-2.573041442977710286e-02
-9.129754806791746946e-02
-1.874010375419555285e-01
-2.857700393080031542e-01
-4.351744867076171031e-01
-6.157686450781408860e-01
-6.221132468036754126e-01
-3.119273285145763852e-01
1.374016180712162860e-01
4.125046223121808797e-01
4.045236753857851530e-01
2.487685174195252702e-01
1.178326404077085776e-01
6.875005371005259158e-02
6.097269238838620015e-02
5.226714251810263279e-02
4.190197516212205292e-02
3.909501935335098904e-02
3.329764089944774186e-02
1.107655723997926812e-02
-1.665556759461712596e-02
-2.220855137337207977e-02
3.760412079502744968e-03
3.612636542317434335e-02
4.143548798169414266e-02
1.395627833109991042e-02
-1.793565162064046301e-02
-1.753531502278069670e-02
2.348583803925748809e-02
7.301162880611444805e-02
9.548088889740906360e-02
9.526957851056534754e-02
1.009682418740423526e-01
1.149445246383355018e-01
1.120777544749497895e-01
9.079847056542342254e-02
8.791023876734153919e-02
1.255170111633627239e-01
1.744760684654973470e-01
1.934670482679565207e-01
1.809319713723816503e-01
1.644863140875513219e-01
1.553928001942707915e-01
1.403605628391454418e-01
1.122459369002477003e-01
8.099085671055382407e-02
4.982696496392501062e-02
1.113703855088559423e-02
-2.035534586486700478e-02
-1.240482073789127629e-02
2.126389388057839738e-02
1.193316250102481428e-02
-7.829411668779293065e-02
-1.938626891605477742e-01
-2.325497327285731275e-01
-1.575771031383415011e-01
-4.706692684698666335e-02
-6.800946010340109399e-03
-5.344919464752591332e-02
-1.266187058748266259e-01
-2.232873070111418834e-01
-4.379456441424727231e-01
-7.533162131824248098e-01
-8.951046200266025155e-01
-6.230663600545143233e-01
-8.309419850295821086e-02
3.443310667001195924e-01
4.519443206213804576e-01
3.191183789662608850e-01
1.334375968040041049e-01
2.509036584384649257e-02
2.475833304407822760e-02
8.630383544044652189e-02
1.334219198943980556e-01
1.225656022609298290e-01
7.324087536140302945e-02
2.650629534368272380e-02
-9.060055522042243653e-03
-5.031627525213767937e-02
-8.841550847546206238e-02
-7.603252248973900451e-02
3.241879317482540719e-03
8.387105899902762285e-02
9.614805172059756599e-02
5.778054126897147480e-02
2.826841020496434487e-02
2.291251908122503636e-02
2.438948432699230423e-02
3.457619077957985870e-02
7.031297236093413117e-02
1.242731275185149364e-01
1.608593063181140426e-01
1.574706553301865597e-01
1.289580206932830209e-01
9.737832766729509482e-02
6.238265042990445708e-02
2.447393513980773011e-02
9.760840715126950506e-03
3.852315153952132198e-02
9.043429161317009801e-02
1.292199672994324700e-01
1.405103400493917243e-01
1.265659634136211686e-01
9.235949817828385811e-02
5.532052513566202562e-02
4.252947902530883340e-02
6.021270585400877867e-02
8.064260331933809089e-02
7.536589944735877511e-02
5.532201937305826489e-02
5.414336095585865066e-02
7.675175529151302689e-02
1.006474356628137556e-01
1.113991771490733390e-01
9.167761548772426772e-02
1.458586800571897227e-02
-8.862078941624779160e-02
-1.213996578292699802e-01
-1.109162719300435807e-01
-2.926406417233702872e-01
-7.267153230141563114e-01
-9.843795254518931115e-01
-6.479561834860868563e-01
5.087845153679577959e-02
5.212233137058172039e-01
5.315991307878078498e-01
3.056403348874411896e-01
1.106160455913423740e-01
2.232937963950667667e-02
-2.297802493061045816e-04
-6.059005269455802409e-03
-4.319750939030425618e-02
-1.561694570134089799e-01
-3.164327748562584253e-01
-4.041955171089356424e-01
-3.435477476097857918e-01
-2.082409518640089829e-01
-1.187783686496701741e-01
-9.903913916605661116e-02
-9.491865948626689031e-02
-7.183148665558548862e-02
-4.095132319730864640e-02
-1.879588559877972201e-02
-3.367930434288596286e-05
2.536193942547401714e-02
4.883045211566654914e-02
5.490542799384924566e-02
4.566883625797821256e-02
3.772421536641969164e-02
4.196970866689422180e-02
5.783708380894304890e-02
8.341991972759205121e-02
1.157805125240361083e-01
1.400191396079159545e-01
1.409502421407040629e-01
1.238262731440808451e-01
9.347376340329437150e-02
3.491298780776981581e-02
-3.739827513327684955e-02
-5.358211872300968487e-02
2.187076460346640272e-02
1.242578701186090179e-01
1.743334672815106123e-01
1.726213153711392279e-01
1.583853603460337878e-01
1.324873480314878726e-01
7.418389748415504803e-02
2.523048175592253368e-03
-2.443343223462418959e-02
3.071153726177150781e-02
1.328869956645348793e-01
1.762942031936192977e-01
7.137239706231873759e-02
-1.200113322386214543e-01
-1.810907272889266395e-01
-1.098330502822472861e-02
1.212512162251480896e-01
-1.212892925369761787e-01
-5.539116942381107078e-01
-6.084740151652897611e-01
-1.292174446522988962e-01
4.222566845891686516e-01
5.893929985788721737e-01
3.690838664728733343e-01
5.267706148418165035e-02
-1.079770410621224974e-01
-6.472374303913042137e-02
6.002991360756908257e-02
1.233217139869470097e-01
8.301716962407114375e-02
-6.530180517693875628e-03
-7.474866797795461093e-02
-9.287732729964129352e-02
-7.355584396585382323e-02
-4.427688199902569954e-02
-3.233989570833751409e-02
-5.342232934288987378e-02
-9.360804201516313705e-02
-1.147090108527677593e-01
-9.301105376058714513e-02
-4.648416083943721078e-02
-1.418008969667428239e-02
-8.933325733965278084e-03
-3.940050615918724505e-03
2.428206202357690441e-02
6.146461523764592400e-02
7.877224258921586286e-02
6.905270802706586775e-02
4.906924100761571317e-02
3.581311366932114076e-02
2.903069596802159910e-02
2.371265984704616636e-02
3.018402290314931707e-02
6.303445006168037490e-02
1.162123110212904264e-01
1.623908454975887816e-01
1.733115495955864227e-01
1.436211550014324934e-01
1.006191681041975483e-01
7.872150898068099034e-02
8.514142101768853999e-02
1.054717080841933302e-01
1.280367713933079077e-01
1.461672109521487961e-01
1.542658059265676895e-01
1.516367865070744614e-01
1.434968080791493017e-01
1.393808034938495699e-01
1.377904106652439453e-01
1.041694132102565229e-01
7.635377203241444991e-03
-1.045761136214647391e-01
-1.641470836469477723e-01
-2.390213044929128672e-01
-4.493002633245727351e-01
-6.735694171810718833e-01
-6.127095781926542584e-01
-2.350802702278759759e-01
1.286113449033745582e-01
2.205387257950260915e-01
1.315745402340975090e-01
7.208335294042357566e-02
9.165299171047062987e-02
1.119237720609997933e-01
7.191106659797345813e-02
-3.268651790085036479e-02
-1.562261645533392640e-01
-2.235539927254088788e-01
-2.025434248946395566e-01
-1.502993756331306996e-01
-1.497549364525282978e-01
-2.090038818793203412e-01
-2.521025646317361923e-01
-2.166221101283532235e-01
-1.281948858172598238e-01
-5.293424743770287766e-02
-1.473717625366918575e-02
4.961564427708614958e-03
1.935897216879049060e-02
2.291365831371410325e-02
1.293407861980452704e-02
4.206217624569104710e-03
1.346810106372772070e-02
3.047388274071732156e-02
2.611182028607288499e-02
-5.426762998109978253e-04
-1.407885160496382716e-02
5.864342729922469508e-03
3.853011442774162409e-02
5.735871020103988638e-02
6.447957302675434710e-02
7.837069523340663146e-02
1.017508033882479485e-01
1.209807241885885454e-01
1.318668652036007194e-01
1.419432605681904824e-01
1.503287301377202456e-01
1.460935775670001435e-01
1.244463576097549345e-01
9.278448440174323630e-02
6.219769951242488937e-02
3.983724809670115274e-02
3.213159015244648059e-02
5.207564190786224262e-02
1.097877165553576839e-01
1.787457704734164154e-01
1.868771330223284732e-01
9.034195811250432528e-02
-4.198827188548399925e-02
-1.003683246631566495e-01
-1.285529668602393982e-01
-3.052421557168921162e-01
-6.149771534427230790e-01
-7.346701813486927746e-01
-4.439543667947695171e-01
4.775464848611224444e-02
3.638785548826993788e-01
3.738464696735269710e-01
2.231906069171563090e-01
9.268154601297040607e-02
3.521165881329298142e-02
6.363867489432661548e-03
-2.771885471450272545e-02
-5.191209240099542432e-02
-4.411245203233319506e-02
-1.462989164712879056e-02
1.778875385089510267e-03
-1.480516007183466792e-02
-4.505732619200632227e-02
-5.509005578224800137e-02
-3.980936767262897857e-02
-2.860212615441756756e-02
-4.923313077928815479e-02
-8.815822640190147663e-02
-9.463777812117674104e-02
-4.350335222906085569e-02
2.237033036802601321e-02
4.807018361452843752e-02
4.215576557455878726e-02
5.020858904125621858e-02
7.560888724761008484e-02
7.845317680741328847e-02
4.129625999104052925e-02
-1.071123560467710130e-02
-4.778681279778156099e-02
-5.448938877860631108e-02
-2.368136569549322834e-02
3.353388059404679988e-02
8.636008298280856144e-02
1.119680636647101546e-01
1.081450949587343113e-01
8.058267285335767027e-02
4.092517191519533248e-02
1.171684845870362389e-02
1.565041947077708273e-02
5.692074554475061443e-02
1.113810449292699789e-01
1.416524158148452506e-01
1.329650088647466588e-01
1.046351149138814440e-01
8.127013193219262410e-02
7.156073122142729559e-02
7.339284006543358996e-02
6.981696945539010712e-02
2.827846590783959085e-02
-5.576784394821279051e-02
-1.425814742070836139e-01
-2.360380708993537746e-01
-4.104311477324479318e-01
-6.302963399220576912e-01
-6.661385923551937926e-01
-3.736526393766086973e-01
6.459105338051571166e-02
3.431540454248594996e-01
3.619187021051152864e-01
2.423766637448315220e-01
1.333403004436817807e-01
9.225007664548202924e-02
9.238866777611809411e-02
7.279980251383938450e-02
-4.958795308532348324e-03
-1.123889622105487679e-01
-1.737995990131975810e-01
-1.452477854513704036e-01
-5.542221257664808193e-02
3.248356287700462225e-02
6.692430956034842171e-02
2.731383946436167706e-02
-5.327422448688176604e-02
-9.568682712835570314e-02
-5.388152277044675614e-02
3.062587263563473078e-02
8.754004904157235145e-02
9.770126501480744241e-02
9.000180911094303460e-02
9.388839749522918943e-02
1.135897955483494148e-01
1.292700805208470416e-01
1.168767756998718987e-01
7.720307274091577077e-02
4.039057099615943336e-02
2.911469899654175672e-02
3.147816428825080809e-02
3.323582943072663637e-02
5.241145733707132381e-02
9.835615032091150900e-02
1.098888633059629250e-01
1.493532240761074378e-03
-1.861514398292045680e-01
-2.614120129707994677e-01
-1.165475623863272969e-01
1.030105827030982912e-01
1.916303156340949110e-01
1.334937675479153374e-01
5.600594439092136667e-02
4.368909548234221202e-02
7.531106519179908698e-02
9.071268451607883421e-02
7.221902382667508280e-02
5.169760847596666098e-02
5.058355113453655988e-02
4.625321550250147129e-02
1.358880578116915955e-02
-3.560334861970220616e-02
-1.138569442150051680e-01
-3.075771615467775555e-01
-6.094584419753054094e-01
-7.608991044918391733e-01
-5.097001603216168020e-01
1.922786777168425387e-02
4.372310723703775048e-01
5.158157870386128607e-01
3.455286292070486320e-01
1.472977646094308646e-01
4.802030937298046309e-02
3.261056945918163613e-02
3.869479193484377799e-02
3.690910617559178125e-02
1.584873333583687247e-02
-4.545005498802510285e-02
-1.332524054014798953e-01
-1.756564041694933243e-01
-1.296970603401783051e-01
-4.772656878906438027e-02
-6.331397698022791370e-03
-1.722225623501074179e-02
-4.185250739000351272e-02
-5.168171966650723925e-02
-4.595315563453227642e-02
-3.109414351772415291e-02
-6.218248098533458307e-03
3.167307128633452262e-02
8.049618768627347931e-02
1.350944921412024491e-01
1.866012638245582722e-01
2.153643939634644622e-01
2.053459654523799582e-01
1.743230251727368452e-01
1.592668267391679771e-01
1.658227446091380675e-01
1.681763800600875047e-01
1.562604966768365855e-01
1.441984741804376302e-01
1.373420809214490612e-01
1.236079207030886667e-01
9.664214976477279728e-02
7.119283756805483421e-02
6.855621533291116065e-02
8.580202977806909714e-02
9.407090137956841680e-02
7.847744880037563209e-02
5.940782866118273636e-02
5.826973902423992352e-02
6.220552214579616601e-02
4.026654866133523580e-02
-1.866570387750020668e-02
-8.991219806408652648e-02
-1.235619346049332407e-01
-9.669399645645217201e-02
-7.019208296685949811e-02
-1.073034339849752161e-01
-1.235680947146943487e-01
-2.280267034337193216e-02
-1.641477606542981332e-03
-3.362848264478667248e-01
-7.980886622765536176e-01
-7.981318475379852728e-01
-2.220689668026981090e-01
3.880145582540959759e-01
5.536131001134612095e-01
3.435128366282162449e-01
1.022427948345673576e-01
1.250861174070506954e-03
-4.074483744867149482e-02
-1.230523418348234699e-01
-1.982189666865010469e-01
-1.839570352516494423e-01
-1.208089934684987155e-01
-1.033114788785874927e-01
-1.257755634932862243e-01
