-5.590857011885890238e-01
7.145223576935233467e-02
2.117698049665165116e-01
1.109944201742519565e-01
6.650846235831602005e-02
1.079867587614745106e-01
1.441871027711167375e-01
1.512257424047703802e-01
1.580278344373916011e-01
1.725826722156690030e-01
1.861618235160595602e-01
1.997271572482227919e-01
2.199639746168016718e-01
2.505792811309369705e-01
2.861351356203260532e-01
3.087095528474285144e-01
3.008037249657309342e-01
2.555674197271280423e-01
1.713610484725999195e-01
6.368150111411033376e-02
-1.630033055898539446e-02
-1.849984145562557844e-02
4.781235664458498291e-02
1.306713194687272039e-01
1.961780163645655273e-01
2.337464878100843357e-01
2.213929376166313134e-01
1.264974290806964996e-01
-5.142655436809762115e-02
-2.474728516353583985e-01
-3.574428838249118501e-01
-3.120497801910298574e-01
-1.315433999906732709e-01
8.317584542011878523e-02
2.227200871398609672e-01
2.538426957036947762e-01
2.216432546065003617e-01
1.703992591421193137e-01
1.044677863912294724e-01
2.583325813766824616e-02
-3.614582920199463367e-02
-4.491251184129222557e-02
4.969765068929214019e-04
4.583041449923939969e-02
3.632224583755977454e-02
1.392829874465539852e-02
1.015252238798648871e-01
2.939565172005284555e-01
2.882884381884106562e-01
-2.572048795289293976e-01
-1.151445110595713528e+00
-1.635210977969520751e+00
-1.231375511871516837e+00
-3.700574796103431874e-01
1.751670773919699609e-01
1.880428633076082767e-01
1.993022016946795205e-02
-2.350897190180132809e-02
4.060323618173337229e-02
8.673138333876390105e-02
9.008446045378903921e-02
9.376743640740330121e-02
1.181174594721436377e-01
1.602414293752264796e-01
2.158462842426885353e-01
2.664678936123865416e-01
2.858339629809933946e-01
2.746813221844742192e-01
2.546293593290626101e-01
2.257613222569892220e-01
1.698330395494957179e-01
9.451377521807212412e-02
3.547615041615372056e-02
1.683103902477610381e-02
3.766187630363366373e-02
8.390706044243484429e-02
1.282834438058551019e-01
1.346767504772238555e-01
8.278971067742527112e-02
-2.030331017304230767e-02
-1.515692544739789538e-01
-2.751305947148151021e-01
-3.396570929245779080e-01
-3.013525601579439828e-01
-1.648468497335452143e-01
5.325404054278250893e-03
1.273581635410342416e-01
1.581257483375133055e-01
1.098278062185656517e-01
3.289586372581389945e-02
-1.540867502294297232e-02
-1.132001789888315707e-02
2.697071165164266482e-02
7.791662591815454175e-02
1.355254176734782823e-01
1.862284142687025967e-01
2.069833804066351368e-01
2.034797504110253674e-01
2.317797141294866137e-01
3.322135327640272640e-01
3.831175348953890780e-01
1.065224127606356069e-01
-5.632493552010326976e-01
-1.166487323911453489e+00
-1.126766696603618056e+00
-4.905155275571090323e-01
1.170704455035733171e-01
2.718787620752600720e-01
1.200868869932011918e-01
-5.160548201701045667e-03
6.016186209290614977e-03
6.469015477819943516e-02
9.821760073162057181e-02
1.243477810251599064e-01
1.777518650296696923e-01
2.511112766838861643e-01
3.140141075148951133e-01
3.525996174146783235e-01
3.720810904467466429e-01
3.674046573836797780e-01
3.151288830219721726e-01
2.090647645864458781e-01
8.733026985150917076e-02
9.920286973814109593e-03
1.624969449440582386e-02
9.684777668211679014e-02
1.950574362455452238e-01
2.478809279581913605e-01
2.301463739824037014e-01
1.592571420665437332e-01
7.473201158626581464e-02
1.249688051203281559e-02
-2.385390454078570310e-02
-6.536883934442871968e-02
-1.342433499058207913e-01
-1.993814783301686711e-01
-1.927792154663699464e-01
-8.593896031238011657e-02
5.807759701150419507e-02
1.354375373134990845e-01
1.041019553542494730e-01
1.477171942130386766e-02
-5.246280298809898046e-02
-5.895256170623389830e-02
-1.750796702054021811e-02
4.316687401729165513e-02
1.010033551691471437e-01
1.299043159916710710e-01
9.612022595487171306e-02
-4.791019782227046685e-03
-9.966057953346685316e-02
-6.065251104269538812e-02
1.379113124932069001e-01
2.458186660483581421e-01
-1.157595516073897379e-01
-9.161617116562292829e-01
-1.496707263459650772e+00
-1.275699575297731148e+00
-5.220588008278083114e-01
8.047801110710836592e-03
1.846962324587217430e-02
-1.688543839630727850e-01
-2.095477237584700281e-01
-8.983183963295454655e-02
4.486575456695654496e-02
1.260153568189380513e-01
1.772347577653852757e-01
2.237155606792514129e-01
2.549160630322000465e-01
2.523881385900333396e-01
2.196562525922288733e-01
1.733252501425980863e-01
1.188176127938093407e-01
5.948732522258162736e-02
2.278911885260633333e-02
3.703770701421943423e-02
7.538607721438754516e-02
7.350571952988230184e-02
2.389711027280357059e-02
-6.812853173914347124e-03
1.639697425030443509e-02
4.586774115979374428e-02
3.743552896587883094e-02
1.186728218149961031e-02
3.399498355115106521e-03
6.127686716589229171e-03
-1.146432351298489263e-02
-6.396411810330414338e-02
-1.229898631151252197e-01
-1.374645600057268768e-01
-9.126175673365745367e-02
-2.496758798127972703e-02
1.334304519116811735e-02
1.633787175195582433e-02
3.680179442924619293e-03
-9.393150187955074532e-03
-1.272896666175922682e-02
1.191047928355950039e-03
2.524777171548187038e-02
4.247009338282026203e-02
4.652603684010024609e-02
3.645314993637173429e-02
-4.062703543328289452e-03
-7.737319371038102467e-02
-1.110413787998857371e-01
-3.764930115125947503e-03
1.825477905987818450e-01
1.432991160463110980e-01
-3.403543118323625882e-01
-9.646154567146077996e-01
-1.109750082520881920e+00
-6.159040262555087741e-01
-1.680438088148039633e-02
1.502735042389223563e-01
-6.070466088977879981e-02
-2.402142783511016788e-01
-1.663923115982586243e-01
6.317520372515500471e-02
2.710794686749031235e-01
3.801217489044775855e-01
3.961189283885961920e-01
3.496646338209222216e-01
2.775166480364203436e-01
2.087546810258818775e-01
1.587924967656375030e-01
1.401289969603159713e-01
1.626751902405960681e-01
2.224365786142956936e-01
2.954557691541701003e-01
3.401054393299599576e-01
3.137582673912960307e-01
2.049516095380404801e-01
6.017652736997312901e-02
-3.736030969769265492e-02
-4.691921004902592507e-02
-1.134689637621318428e-02
1.453722062246515928e-02
3.738012375743393623e-02
7.994725874953914624e-02
1.050760967163766463e-01
4.980149169504995144e-02
-7.654154991505263128e-02
-1.843261729448193720e-01
-2.024962527362761111e-01
-1.453332194300652191e-01
-6.832656824764804515e-02
3.445537780369848854e-03
7.425939927055946743e-02
1.354106582694415140e-01
1.684447642117542776e-01
1.775864510038086264e-01
1.787643037993989770e-01
1.657280005165662484e-01
1.211976895489650097e-01
5.478571234936693152e-02
-1.683004396084235386e-03
-3.248431956533658765e-02
-2.589398484896852232e-02
7.423063068462124048e-02
2.926071539116787412e-01
4.290608061040550036e-01
1.206574220000002362e-01
-6.602296445733177865e-01
-1.317351729411841754e+00
-1.223850353515889333e+00
-5.214979422988054170e-01
7.894351577497521477e-02
1.948896224033309643e-01
6.474221501384758160e-02
4.159573000310846924e-02
1.765181651815377062e-01
3.113921756269271701e-01
3.290770986411249432e-01
2.398416195297171927e-01
1.286070084926934642e-01
6.974288685793397780e-02
7.516107244358700978e-02
1.135867092809029616e-01
1.591248316055459133e-01
2.056619872507405300e-01
2.540247555130749069e-01
2.960765773863234251e-01
3.069279234362632947e-01
2.626289998776090151e-01
1.675386926050926872e-01
5.508400405595352545e-02
-3.185390224818401839e-02
-5.873583714487728979e-02
-1.859434313081987158e-02
5.330765558365446050e-02
9.819917849426677836e-02
8.455456938958511026e-02
3.013977400802658746e-02
-4.156938033275085764e-02
-1.372308843075051576e-01
-2.582202956648341763e-01
-3.632169833789340441e-01
-3.918628826171293156e-01
-3.099857685614370584e-01
-1.369036943265145023e-01
5.990148771555828255e-02
2.092895167955782787e-01
2.739168006795191790e-01
2.481317830595071716e-01
1.592749735163774549e-01
7.243147211310441147e-02
4.235415222084547987e-02
5.573497951650611265e-02
5.736368921766415302e-02
2.719836419822749610e-02
1.439138773481214544e-02
1.037701636365795516e-01
3.080461697650671571e-01
4.294992354883624963e-01
1.313387911593613955e-01
-6.317995529500453067e-01
-1.320985594222577220e+00
-1.303928679737009766e+00
-6.364944459273049748e-01
1.648550103460237615e-02
2.056436595971893044e-01
7.549320814714786942e-02
-2.674732899301840439e-02
2.582634702532173379e-02
1.425424804175708104e-01
2.153904596835101437e-01
2.183948205010873833e-01
1.883113293703453928e-01
1.788011296079613788e-01
2.205830682699015943e-01
2.941387757196156638e-01
3.442233101615054802e-01
3.357486549290890632e-01
2.824400624836042040e-01
2.119292515930428777e-01
1.349171773211077785e-01
6.517103687558811753e-02
3.245616647320673231e-02
5.016196654474592426e-02
9.363621220292396574e-02
1.292453412635343468e-01
1.493144427964362420e-01
1.642079381018741735e-01
1.696287762164533086e-01
1.388121034901385054e-01
5.042396203522622744e-02
-8.433927069854246783e-02
-2.224608774758153606e-01
-3.090048253006273948e-01
-3.031930428342525241e-01
-2.060482591368734129e-01
-6.864420739535398441e-02
4.206379947261117136e-02
8.978986347401475554e-02
7.436905124855609783e-02
9.304068141177594328e-03
-7.774855706884215012e-02
-1.379559694198666531e-01
-1.360605702809387085e-01
-8.890498030222222792e-02
-4.115632208772415646e-02
-1.878461535825189793e-02
-2.698243112408676980e-02
-5.240102403940005704e-02
-3.422671065102382559e-02
9.148440446556428685e-02
2.180715101010755053e-01
3.562829165499591805e-02
-5.774917621499329190e-01
-1.175588049879373376e+00
-1.142638364670687245e+00
-4.958960965731256110e-01
1.175390628782446434e-01
2.382572046846219149e-01
1.762243483576008546e-02
-1.639463229642157960e-01
-1.571103007268318252e-01
-6.247915266565320230e-02
3.640975702103096436e-03
3.852285614885497811e-02
9.377904424011065943e-02
1.811125914759055822e-01
2.629426756119784825e-01
3.000200431671083967e-01
2.839173969478396842e-01
2.319561184198876969e-01
1.679829076554357203e-01
1.115632493301296491e-01
7.394154904239075288e-02
5.622869243665448713e-02
5.127849236887826317e-02
5.045955381704987641e-02
5.693385752917382719e-02
8.513470573351952786e-02
1.280886895692381067e-01
1.433287297772873892e-01
1.026835722205843848e-01
3.460020558302199373e-02
-1.518554106013608046e-02
-4.264650253608393699e-02
-7.480007572284672057e-02
-1.154879251277493579e-01
-1.296685190345808480e-01
-8.735365023518128214e-02
-1.104064146427687250e-02
3.928000561959393844e-02
2.823256048574099980e-02
-2.560223152688733544e-02
-7.636124591248855120e-02
-8.716240871156667736e-02
-4.876976219429061260e-02
1.869085009117244650e-02
8.595231490258864460e-02
1.396704196318234448e-01
1.735224341418951655e-01
1.623542616539950523e-01
8.976991626890847009e-02
2.088938855791210025e-02
7.457405062638597371e-02
2.138541963660221257e-01
1.260121285423498605e-01
-4.345656592066419743e-01
-1.149114273825609933e+00
-1.332902593106279010e+00
-7.796054507552010460e-01
-5.120147800288331330e-02
2.413726817845171513e-01
9.133553423797163839e-02
-1.233253043967248719e-01
-1.666309670135201204e-01
-6.121329878194292640e-02
9.032870915630986097e-02
2.178378503341983075e-01
2.963028397754607912e-01
3.338279769949021314e-01
3.421808257650794660e-01
3.210885073515919452e-01
2.741948734320412973e-01
2.183177374023705097e-01
1.742661604890410887e-01
1.589491057665588791e-01
1.783404794621293865e-01
2.176181682575540899e-01
2.392218809783787925e-01
2.039670161603118204e-01
1.133686307956114081e-01
2.300967073471393495e-02
-1.075841105605407182e-02
1.411706522575960701e-02
5.984676547799476498e-02
9.345854688180491032e-02
1.008471207997994612e-01
7.728292943273820659e-02
2.554069926158561085e-02
-3.382354735017524539e-02
-6.540731803587329640e-02
-4.953049466413110558e-02
-9.359882932469570233e-03
7.103871019172222287e-03
-1.849707296344834523e-02
-4.949741655674421564e-02
-3.660988119202841784e-02
2.679018554404281882e-02
1.033318790733051273e-01
1.516576313067032611e-01
1.589442653100234804e-01
1.396081440680204400e-01
1.042788192891207222e-01
3.906066601042927633e-02
-5.973495452932797711e-02
-1.190236350837983598e-01
-1.178195074760325471e-02
2.443240826886324546e-01
3.235796513826009746e-01
-1.317221997335762118e-01
-9.357609287686076138e-01
-1.357551472147924931e+00
-9.697855078563891729e-01
-2.109473963083738357e-01
2.015148550597887500e-01
1.187227101155139963e-01
-7.028772657366505472e-02
-4.288822615435905483e-02
1.716140750877250820e-01
3.678535873008186297e-01
4.085077890711683035e-01
3.143552524867072040e-01
2.103391107500403034e-01
1.912673630219979826e-01
2.305721379177892716e-01
2.376993965263745345e-01
1.836351586442250272e-01
1.272918720111553548e-01
1.304103744924592634e-01
1.910700632348286132e-01
2.604864073918308209e-01
2.885756683360767849e-01
2.504258232864398637e-01
1.562402481317079483e-01
4.503073445116563545e-02
-3.981980006899023261e-02
-7.444260316212727990e-02
-5.806790133229317030e-02
-5.223128946173476866e-03
5.207065399397498712e-02
6.584127292021907385e-02
8.580442959544336973e-03
-8.592675999026190559e-02
-1.489968056503783722e-01
-1.511491054191710370e-01
-1.213469318496152027e-01
-9.546824717834985485e-02
-7.474337175162006075e-02
-3.239811203719618338e-02
5.073442596295785895e-02
1.514276821699835629e-01
2.091484516767940782e-01
1.797991905999920537e-01
8.356941509806610491e-02
-1.215238935866870540e-02
-6.114160785841219609e-02
-8.305748372694948811e-02
-1.308153211134941152e-01
-1.948663200974976029e-01
-1.489514865290512136e-01
9.955246386255842128e-02
3.271693450196145325e-01
7.126183546099554289e-02
-7.390319133982995448e-01
-1.441348626355098528e+00
-1.350833140178296699e+00
-6.330569146749525089e-01
-2.517155616486382863e-02
1.097880445508694625e-01
1.694152571513758698e-02
1.679993190735558015e-02
1.373097056820694883e-01
2.384145235315995592e-01
2.427351884734679222e-01
1.818963963189457189e-01
1.153586597339992248e-01
6.945943216492660166e-02
4.560904279993199806e-02
5.045966879101548841e-02
9.606975413147311738e-02
1.724198593235498900e-01
2.364852504755821094e-01
2.506189695707125575e-01
2.249751665934236478e-01
1.898870966728802845e-01
1.423656922274995351e-01
6.583930421247484455e-02
-1.788542091662139594e-02
-6.226118942139650253e-02
-4.494754111045191902e-02
2.061556344514160061e-02
9.871049776632832840e-02
1.380774204991885579e-01
8.778400600033271772e-02
-5.984518244920311592e-02
-2.345017911589577786e-01
-3.222276994580589027e-01
-2.613761863699870513e-01
-1.009531219014155046e-01
5.044594013211532724e-02
1.258345432933463681e-01
1.371812887941271653e-01
1.273590492938084240e-01
1.140433365618339079e-01
8.805610360818932891e-02
4.844092366673011935e-02
1.717942410612575271e-02
1.439030024176087344e-02
2.607444856821706375e-02
6.159216067619856239e-03
-6.202514159782872294e-02
-8.913564470019630370e-02
6.634895282700509211e-02
3.535428529408132792e-01
3.850805528204898631e-01
-1.956246279917909781e-01
-1.102294702070138799e+00
-1.519326621250842724e+00
-1.067928732202778175e+00
-2.770849038049119084e-01
1.549791344568396956e-01
1.478910852244407492e-01
5.904687048206225253e-02
1.046071828078236204e-01
2.173986922447009584e-01
2.751046513351844136e-01
2.555404687514206685e-01
2.059905054292978377e-01
1.724644751461136272e-01
1.770337377712390692e-01
2.192216672701018110e-01
2.749345284393360789e-01
3.101400885624901460e-01
3.100727927507131443e-01
2.856026446025115573e-01
2.519077222292550600e-01
2.133375492237412629e-01
1.653732819417916000e-01
1.088840642851822971e-01
6.396725501771893807e-02
5.807076774205807007e-02
9.802254080116455659e-02
1.624415450445562126e-01
2.173463582010146111e-01
2.319708007840290964e-01
1.845802165894724900e-01
6.866976212426591231e-02
-9.130623699312642727e-02
-2.312256649845226553e-01
-2.748203204732584948e-01
-1.968171896220993478e-01
-5.743397049140290533e-02
5.538377616791012592e-02
1.100704651718555360e-01
1.268194790577992503e-01
1.196419450981689864e-01
8.588757578211214661e-02
3.024841037396900148e-02
-2.980407317134812703e-02
-7.519401934317263003e-02
-9.618161605768098255e-02
-9.583474420025296647e-02
-8.106532430229075603e-02
-3.811356603966668810e-02
8.192187111185356141e-02
2.899702008939140097e-01
4.080701942968237295e-01
1.109959102428038497e-01
-6.444640048198118087e-01
-1.310268995530866842e+00
-1.254055477324509393e+00
-5.651704838906668193e-01
6.404189485711665741e-02
2.175296426453545429e-01
9.029866804302368044e-02
1.420828711662942140e-02
5.868015815994719747e-02
1.243296237426400608e-01
1.553867720316629286e-01
1.637260019506337205e-01
1.557395549836938231e-01
1.209102605564561506e-01
8.068839240502687082e-02
9.814045580368617461e-02
2.019213883438573387e-01
3.238679113946096866e-01
3.588659710011586901e-01
2.755190795709987484e-01
1.410651238243977867e-01
5.003981895929537904e-02
3.936086263461237994e-02
7.281326838915123945e-02
1.076332420295742359e-01
1.460705448509364290e-01
1.941961154467433115e-01
2.083676383660267306e-01
1.393829136712105288e-01
1.345973153861858458e-02
-9.342483635664801389e-02
-1.565394220051694318e-01
-2.051534894898090489e-01
-2.266266464058257490e-01
-1.611231198466548109e-01
-1.221020853748612175e-02
1.204386057826856704e-01
1.486680735267115472e-01
8.504745063442864517e-02
1.486779026685628932e-02
8.833045941986222838e-03
5.607654976201153357e-02
8.336773562432071849e-02
5.920619066698083049e-02
3.885966753884345648e-02
7.176634015996696814e-02
1.165624814413174920e-01
9.027249996977160240e-02
-9.803394985763561054e-03
-5.730993712108687493e-02
5.654894438341043217e-02
1.709550392259666929e-01
-9.790658311814690040e-02
-8.281750713103587236e-01
-1.444577877430207602e+00
-1.291392308597800076e+00
-4.913741502789981119e-01
1.985366870677248152e-01
3.250285832569406730e-01
1.127822922517920795e-01
-2.747546098492654326e-02
2.362622181035287094e-02
1.343873493148567966e-01
1.859750963957622627e-01
1.931086801209356829e-01
2.374319808673523435e-01
3.480976620282122402e-01
4.574027764372649019e-01
4.681461338800745331e-01
3.542817872735842255e-01
1.820476065005557365e-01
3.611361975521017870e-02
-4.795460187075914482e-02
-6.448385043118058657e-02
1.428288562005330942e-03
1.327631747020625308e-01
2.403383813426689108e-01
2.472183055837973431e-01
1.802111674328215063e-01
1.138693843468509409e-01
7.477564150251035657e-02
4.702990924850963123e-02
1.855374711996765277e-02
-1.590904473917115203e-02
-6.606968794801751366e-02
-1.290112010515961916e-01
-1.687470204287259412e-01
-1.413145932304439578e-01
-5.033113921494912490e-02
4.295479961123707668e-02
7.812739740103560870e-02
5.041750717735739989e-02
3.669962267608952930e-04
-3.347335536751446655e-02
-3.893543121568340815e-02
-2.086190547852522989e-02
1.303153844371317434e-02
5.490318656232927308e-02
9.183771109435816260e-02
9.804982408045730125e-02
4.583906276608514657e-02
-4.075956366438857059e-02
-5.205677287337728137e-02
8.820778546902167949e-02
2.027483454216865988e-01
-8.140051803197337343e-02
-8.178046022542196924e-01
-1.421977746221027905e+00
-1.259631805714749309e+00
-4.778010907933344376e-01
1.722757069972220001e-01
2.571773359412851678e-01
9.891928054436366358e-03
-1.513777361764463980e-01
-9.182915539711455910e-02
6.295644038957939892e-02
1.782371563528955261e-01
2.318100887903289387e-01
2.601453412783360508e-01
2.725463101604477245e-01
2.399861079753149162e-01
1.534936739701533437e-01
6.289318963503080784e-02
3.198626474667619346e-02
6.859700329024240317e-02
1.195410961298722236e-01
1.266848065750639241e-01
8.304612202271963173e-02
3.455713729572380127e-02
2.169330334660974496e-02
3.360853235516169518e-02
3.089333056180339557e-02
-3.799921816637066505e-04
-2.896347392564137951e-02
-1.969115770094154866e-02
1.224244251710657552e-02
1.274957302217858551e-02
-4.503621492543800897e-02
-1.267150975696683946e-01
-1.712576907844473584e-01
-1.507058807207814488e-01
-9.228551701712670030e-02
-4.244386749545576987e-02
-1.672984019939152342e-02
7.351945415426574572e-03
5.358177549740492096e-02
1.119530308718387213e-01
1.492092242311600370e-01
1.576783568998577911e-01
1.644677720047505454e-01
1.737436713702884550e-01
1.444100689733251452e-01
5.115021478928517829e-02
-7.198306751552614735e-02
-1.505753124116804842e-01
-9.824512596902341965e-02
1.060380312194941776e-01
2.715921884276357723e-01
5.198935655595217364e-02
-6.075837299562456550e-01
-1.182769558475915250e+00
-1.100123488803640859e+00
-4.900549594981364887e-01
-8.009727985906309189e-03
1.373015926878921877e-02
-1.603422055225690035e-01
-1.704539326607861227e-01
1.926543956497112423e-02
2.246543865388422878e-01
3.228461222168149680e-01
3.287758641253317737e-01
2.964351241154216110e-01
2.492002617177538903e-01
1.920431075000197663e-01
1.245819118898739974e-01
3.805033325230375990e-02
-5.132846533312947213e-02
-8.115015814666563798e-02
-1.458650738429546727e-02
9.625197411134331360e-02
1.721360971666820172e-01
1.886997309053730365e-01
1.647505392930108670e-01
1.215031694214085550e-01
7.951165380466115873e-02
5.932268369086282633e-02
6.397426603427951164e-02
8.008842705483340541e-02
1.024845035686637873e-01
1.314632203817792944e-01
1.435994098054853563e-01
1.045806890307437315e-01
2.517401834835867810e-02
-3.566001996315981692e-02
-4.680813201225580283e-02
-4.486440520106249608e-02
-6.864284033216506986e-02
-8.754184874271783712e-02
-3.100798344449116201e-02
1.175543410957563262e-01
2.791459915355402610e-01
3.466164474634941817e-01
2.902371544603663533e-01
1.775795752077781731e-01
8.792888671550706803e-02
3.224702746962011812e-02
-1.871144911879396230e-02
-2.867189493172874262e-02
1.180539445959777195e-01
4.085183927387882608e-01
4.950620506052902381e-01
-2.441180828160777888e-02
-9.492726384200163015e-01
-1.452634260947418321e+00
-1.050954027394312318e+00
-2.361523220596420392e-01
2.078563322586083062e-01
1.277629004385608946e-01
-7.097694843720385449e-02
-6.526414797156517011e-02
1.172276574001751420e-01
2.958019008881492273e-01
3.667090759046236492e-01
3.401314564692837217e-01
2.694042855446160956e-01
2.022165543461341974e-01
1.720464747248531268e-01
1.868479051836276494e-01
2.209418365109230564e-01
2.474684952953389028e-01
2.706712045344262796e-01
2.959779778503567882e-01
2.938965129783497332e-01
2.358571668057282134e-01
1.460774290148086629e-01
7.971312856273347902e-02
5.795655394818226280e-02
5.305894568421044150e-02
3.869692570052395836e-02
3.100159977886210103e-02
5.981051223195406330e-02
1.063811186225546573e-01
1.009165866219026986e-01
4.939200621418143866e-04
-1.475233065555866252e-01
-2.422404156326408153e-01
-2.270483406976672169e-01
-1.332008384392261713e-01
-2.711793643500325091e-02
5.472067767082636897e-02
1.083034399998229480e-01
1.345772684801641028e-01
1.290630990221035557e-01
8.553356484393169479e-02
1.004642557489700792e-02
-6.692664091010183669e-02
-1.108815219391558193e-01
-1.180541441365364624e-01
-1.157961881141388871e-01
-1.217188303062709392e-01
-9.378831466230119762e-02
4.038034775540589455e-02
2.032633418901166888e-01
7.320155515866244578e-02
-5.462957381305314497e-01
-1.250119506531087721e+00
-1.352838188634083449e+00
-7.721251463280889293e-01
-1.313835602926776702e-01
7.508298707451765974e-02
-3.312724007882338756e-02
-1.023192832866932911e-01
-1.472074196676147195e-02
1.107131140116250356e-01
1.541548707725503842e-01
1.150241253765809518e-01
6.839832201730326744e-02
7.368407981911485882e-02
1.296332447298754187e-01
1.954924750912466203e-01
2.394296206720839815e-01
2.692690967481912723e-01
3.148540428884415432e-01
3.690367209051523267e-01
3.757005233036667669e-01
3.089005002223663698e-01
2.133031948570631164e-01
1.327046091380794657e-01
6.669590801696628768e-02
1.724862445000912778e-02
9.966052150119949007e-03
5.668844629109939803e-02
1.295443841072920765e-01
1.698746599148514558e-01
1.200737040643462955e-01
-2.900928268812883945e-02
-2.104023615194953178e-01
-3.211599613239912165e-01
-3.072040378743439160e-01
-2.014222940677616314e-01
-7.663692714910422255e-02
2.191366171351907810e-02
9.065872124883346539e-02
1.324287495413329907e-01
1.289844847803955641e-01
5.765159724982066303e-02
-6.535931794338933898e-02
-1.685902907667229667e-01
-1.776448344309319305e-01
-9.808125531575825895e-02
-2.035263670432458510e-02
-1.706249089254941592e-02
-4.743707153645820851e-02
1.354791976512013073e-02
2.115853817985148821e-01
3.395636056283373727e-01
3.401491907293346245e-02
-7.486415077146750807e-01
-1.439762746127480675e+00
-1.395139238406408522e+00
-6.893130353075616057e-01
9.538765511638291894e-04
2.305745075359676710e-01
1.313823958512124745e-01
2.770144230521801726e-02
5.734779246752388926e-02
1.600303376521217957e-01
2.283781200364947417e-01
2.209853329039702108e-01
1.803601988993753513e-01
1.646328825661724504e-01
1.806071977247813709e-01
2.003099942424330371e-01
2.144764778615033118e-01
2.319564376646757464e-01
2.410478744335394496e-01
2.088992387312614829e-01
1.264930938722433618e-01
3.349564300393965272e-02
-1.683165128242560676e-02
-4.072818350261966751e-03
5.828503743082134175e-02
1.433270868188732949e-01
2.165179358734934667e-01
2.420845093083388855e-01
2.030729645152252183e-01
1.168704410936080712e-01
1.959917902532071210e-02
-7.419794969419779562e-02
-1.734521961766053999e-01
-2.573054614233422632e-01
-2.625192942945541730e-01
-1.564114972129500292e-01
8.921920517294939373e-03
1.420642622569653069e-01
1.912479630988672130e-01
1.647878147497663370e-01
9.852719247844399231e-02
2.556597047382831722e-02
-2.981632271926548672e-02
-4.699787776819749213e-02
-1.249182697683525085e-02
6.062265231083550227e-02
1.206889433677052897e-01
1.094825849968829035e-01
3.406570856874199110e-02
3.719347499760551970e-04
1.046325507303208363e-01
2.279480248968198397e-01
4.210857166696695131e-02
-5.696844764112026782e-01
-1.154044452538755872e+00
-1.094384077796790145e+00
-4.068485820438362266e-01
2.519355964711459395e-01
4.072587048730691994e-01
2.109239103897067868e-01
4.221646050788538385e-02
3.304022798715892939e-02
8.589214826019365978e-02
1.203845601122500303e-01
1.529963682131761094e-01
2.150835447918317822e-01
2.968729839792547121e-01
3.645686924266123285e-01
3.898334671770898874e-01
3.625775733578078808e-01
2.913197006388048571e-01
1.982655317087342606e-01
1.145482686407298667e-01
6.789444754313460340e-02
6.332886642041514469e-02
8.441504374001870814e-02
1.178314950486211293e-01
1.602758995622338145e-01
1.980794604951631177e-01
2.040158079680510217e-01
1.669200548352378632e-01
1.082966036736033449e-01
5.471908572698854639e-02
2.751869642903406396e-03
-7.061205013064851543e-02
-1.615487537984852118e-01
-2.205680980954451975e-01
-1.959331701020795291e-01
-9.908063399550617878e-02
-9.018999885842718389e-03
9.294626551546425128e-03
-2.849689673679533727e-02
-6.537791122670155719e-02
-7.475241722415319756e-02
-6.264618118867697205e-02
-3.478872556795657711e-02
5.673008936333370431e-03
4.881423118588261445e-02
8.184094264489356896e-02
8.770975505999423216e-02
4.943933179451300702e-02
-1.095328382821041807e-02
-8.338257010590776480e-03
1.191196353787124657e-01
2.434713747623929170e-01
5.930405588352217344e-02
-5.353855923479529100e-01
-1.111801623814668405e+00
-1.094644833595330935e+00
-5.024039000585638348e-01
5.745173230595235214e-02
1.534710785743063355e-01
-6.012142761805468888e-02
-2.057438835616996198e-01
-1.389246088649401523e-01
3.082182374019170473e-02
1.727794908981795940e-01
2.565369316065368444e-01
2.997725998192562469e-01
3.030732670092277092e-01
2.633722416376526598e-01
2.067465901378706394e-01
1.683728547221299554e-01
1.502111298522579019e-01
1.290488081556034339e-01
1.025094144403957408e-01
9.823810028709764608e-02
1.337343941166379835e-01
1.853045973178569505e-01
2.048104825821004948e-01
1.652743654103032422e-01
8.538289239086775673e-02
4.941384324004318221e-03
-5.202856341006273366e-02
-7.858262496939122377e-02
-7.381788904913977323e-02
-5.782837022387110615e-02
-7.647248613331497635e-02
-1.513480293144885136e-01
-2.283560274265120649e-01
-2.186745452972559955e-01
-1.068019342171401126e-01
1.548088482152581297e-02
4.579682896919658880e-02
-1.675790096841041354e-02
-7.660854391349153358e-02
-5.098941747782977790e-02
4.940114896025873947e-02
1.519503340765956945e-01
2.039773468769621734e-01
2.024078080816465453e-01
1.576518324379152514e-01
5.964817073959056970e-02
-8.649247505196087926e-02
-1.827020867688314287e-01
-6.836199651426962121e-02
2.476807817688037316e-01
3.957890305372007145e-01
-6.059245312825961571e-02
-9.666098181055777783e-01
-1.512110895902101237e+00
-1.162205911736208463e+00
-3.491582107439565874e-01
1.337210094087781243e-01
8.565889055707343047e-02
-1.146168885595732906e-01
-1.508503708117491515e-01
-3.464761646591747735e-02
1.081692619179970560e-01
2.256380313972095319e-01
3.169065561945104692e-01
3.763539702388346564e-01
3.971109956277781294e-01
3.710846535189866180e-01
2.769001982582080523e-01
1.141568055783923619e-01
-3.899335317055903360e-02
-6.629718780795981758e-02
4.555204156019361517e-02
1.770651657951341496e-01
2.279462322905031479e-01
2.093753489109130839e-01
1.645086062214582423e-01
1.018097934611125605e-01
2.815012149374302233e-02
-2.841065790203778016e-02
-4.559031269374817785e-02
-1.826785908560728602e-02
5.266618304666819544e-02
1.441143749474795288e-01
1.882764145215476692e-01
1.221439606070898465e-01
-2.091895817883943770e-02
-1.230176007954629919e-01
-1.153490282304468068e-01
-5.067499660826984414e-02
-1.559935028127975958e-02
-2.254516603149112758e-02
-2.044810482688955849e-02
2.350778281074321699e-02
8.264320206851534512e-02
1.068185610650995848e-01
8.520505747758282122e-02
4.857757530794140632e-02
8.207764065279487750e-03
-6.086934052677479834e-02
-1.480393733453318483e-01
-1.540656057257168143e-01
2.100737039088645952e-02
2.770253559247900510e-01
2.594698022497413104e-01
-2.766448552226299928e-01
-9.971244590495546012e-01
-1.215764311683324994e+00
-7.444270713484255619e-01
-1.317288013066565400e-01
8.949598280230572356e-02
-2.710306676223196015e-02
-1.306853425601055552e-01
-5.185368738791433507e-02
1.330769352778236880e-01
2.916966207589295479e-01
3.687960728579448566e-01
3.884816664949054532e-01
3.815357801276298977e-01
3.402296166503466224e-01
2.595497414682756410e-01
1.789378282748877447e-01
1.421996566384599037e-01
1.495712370381528933e-01
1.731813592126361101e-01
1.898490016664759472e-01
1.860959827543028078e-01
1.542398557932974645e-01
1.013977236774423335e-01
5.360485562424269212e-02
3.583126122227438953e-02
4.948680933837425883e-02
7.387843899405377446e-02
8.920002140951567571e-02
9.616379381197390219e-02
9.872238834721278056e-02
6.921345463583238045e-02
-2.707146551840782650e-02
-1.573027225568259524e-01
-2.223846851939614566e-01
-1.726246055505446797e-01
-9.268125520523676220e-02
-1.125533100807893233e-01
-2.259146263636632179e-01
-2.732330500927576122e-01
-1.493431569904525025e-01
5.923096906923612515e-02
1.934643613281616659e-01
1.874348662516288067e-01
8.346254465813181256e-02
-3.544374895954593985e-02
-1.063102434530096563e-01
-1.209845329401303127e-01
-9.209366445291333747e-02
1.907631906867065727e-02
2.445249375739823039e-01
4.080268681666615049e-01
1.454685643710014742e-01
-6.158640622306678081e-01
-1.311781676403581898e+00
-1.277211563383679360e+00
-5.883429332626226582e-01
5.120585307445836565e-02
2.026063103609258287e-01
6.078936827176028429e-02
4.955272771259636166e-04
1.231380466636629173e-01
2.853478954280599389e-01
3.509899071008055205e-01
3.144577324830122311e-01
2.449188641471315986e-01
1.964572379538766511e-01
1.857318018497412238e-01
2.124378655500007984e-01
2.659282825852613552e-01
3.188135895541332476e-01
3.386603096956097847e-01
3.146666212955175346e-01
2.626183410935018503e-01
1.979429006972197314e-01
1.199001337325352884e-01
3.551520777051134226e-02
-1.807696508188104054e-02
-1.434689512992725832e-03
7.509857189106756981e-02
1.514072617517015218e-01
1.817094046941489793e-01
1.694421292628147113e-01
1.247701241657856175e-01
3.342060706712501883e-02
-1.036677258768330945e-01
-2.322646704279732188e-01
-2.755185063434586468e-01
-2.043210405816487940e-01
-6.980774688989410670e-02
4.704153538298026793e-02
1.094093380844720353e-01
1.287719571016972264e-01
1.199323100162278943e-01
8.682550106900985276e-02
3.456236144676183564e-02
-3.046410951392455532e-02
-9.744187731185391388e-02
-1.415084280662970151e-01
-1.431756246571794233e-01
-1.179148044580244498e-01
-8.584318551480524251e-02
-6.798082739443709818e-03
1.708017196518355485e-01
3.218785933647183017e-01
1.216675124559452315e-01
-5.560796581906811697e-01
-1.265375413807830363e+00
-1.359362613407231191e+00
-7.761332116550536675e-01
-1.029487094487334525e-01
1.708514742043514834e-01
1.122706261329399074e-01
3.551292319728886759e-02
6.953882804831018616e-02
1.371293326297349513e-01
1.584986152850793861e-01
1.369558552386646311e-01
1.092704555791745302e-01
1.032165972469038240e-01
1.354273444428334416e-01
2.071086136203711403e-01
2.926120490933584173e-01
3.449846383449984843e-01
3.275215848839685417e-01
2.464710413543135803e-01
1.464999075860954347e-01
7.068752892383323161e-02
3.301240069368939489e-02
2.810075399029375587e-02
4.876533476776890447e-02
8.729702429396304919e-02
1.312925841282166772e-01
1.655926633893156086e-01
1.760543296859264084e-01
1.450300917812122337e-01
5.086900245284639577e-02
-1.038294089009764998e-01
-2.632861390118267364e-01
-3.418836843076049625e-01
-2.883422537535068053e-01
-1.323239626172296457e-01
3.372624488564818224e-02
1.316417473070861377e-01
1.525815900007061465e-01
1.310452048986333051e-01
9.126347251054980902e-02
3.833433224004482998e-02
-1.771779348405566612e-02
-5.265942903302223838e-02
-4.307562396978072833e-02
1.333852553374902106e-02
8.488878190366408449e-02
1.165177258173697578e-01
8.690663856040065083e-02
6.675189793577480935e-02
1.481536727053698044e-01
2.391735337716044407e-01
2.840503141479854693e-02
-6.191378291427493963e-01
-1.272046421745575362e+00
-1.293958147080840781e+00
-6.432015659928635998e-01
6.097892167396837260e-02
3.117447749330197193e-01
1.878722416309148435e-01
3.383137391790728282e-02
1.567691493315167411e-02
8.351162893019062339e-02
1.482180372031920990e-01
1.643593682848192294e-01
1.218497621250793084e-01
5.941430612475177842e-02
6.278577461486639644e-02
1.714079619047025604e-01
3.040952253287244611e-01
3.440568811823559447e-01
2.745822398320298952e-01
1.737969652963732015e-01
1.045698250259763373e-01
6.745717694625238958e-02
4.604830461587751389e-02
4.557402138778369333e-02
7.692547672809216253e-02
1.266216985109865911e-01
1.575059563326537126e-01
1.388447254962280608e-01
7.160455784114300171e-02
-1.843587578578483738e-02
-1.108602103674256600e-01
-2.022670209636655558e-01
-2.764740288971362370e-01
-2.826390742980745552e-01
-1.821631614585755010e-01
-1.727434135593645947e-02
1.060234508288182137e-01
1.160963832245285043e-01
3.561285717367642517e-02
-5.738536908971207662e-02
-1.034504753623951973e-01
-9.244671193266204567e-02
-4.227971284881104630e-02
3.309841943635056377e-02
1.255222793065412235e-01
2.089409553397683639e-01
2.358542876888618245e-01
1.820991218742926965e-01
1.083683109104392750e-01
1.389975648452805024e-01
2.790410737306422417e-01
2.468767530214705519e-01
-2.747809882128485204e-01
-1.064743147575560878e+00
-1.379821037258914140e+00
-8.624589474026908009e-01
-5.788690522916051240e-02
3.076690941053862316e-01
1.612484344887691046e-01
-7.783498830605062313e-02
-1.192324690894951827e-01
-6.454926352350631030e-03
9.629405743153170161e-02
1.193071226256349482e-01
1.147837218865822295e-01
1.598330482612122516e-01
2.652405462835594752e-01
3.706693319932400921e-01
4.055617708653047049e-01
3.443670526319586034e-01
2.220404320874729831e-01
1.073342112742537713e-01
5.035550974430670623e-02
5.269266093098728954e-02
8.472804527166206967e-02
1.200608556259956938e-01
1.509910493922517472e-01
1.737168485630155024e-01
1.689835945904725745e-01
1.197619427022362792e-01
4.808978781568695043e-02
4.015435853646151521e-03
2.744701839121659742e-03
-3.880486952958207836e-03
-6.304625695399566909e-02
-1.411399386616917218e-01
-1.534541987211162639e-01
-7.583261028928095504e-02
1.992787216899611150e-02
5.382583939267494150e-02
2.138993817069725564e-02
-2.442015381921991066e-02
-4.167896495070683854e-02
-2.938117726923132611e-02
-6.660835453092081582e-03
2.131521347278540063e-02
7.294491162715104060e-02
1.509598385305015167e-01
1.974576643083065242e-01
1.358303691238667843e-01
-1.389114191060400634e-02
-9.673101700334711672e-02
2.238705976679609966e-02
2.096073923708217379e-01
7.756410908412195160e-02
-5.262075735961598832e-01
-1.123495292188088301e+00
-1.078230273118721660e+00
-4.437173159922619403e-01
1.042058968712052669e-01
1.542614469470000582e-01
-6.587113169372864341e-02
-1.746335561927541691e-01
-9.349177009183852471e-02
3.513918791757284638e-02
1.225766670659760582e-01
1.985563828211993342e-01
2.922263021812203654e-01
3.634789155469860811e-01
3.635190776094474607e-01
2.999762851177839584e-01
2.130502118842972914e-01
1.262318106937159179e-01
5.012427462839640774e-02
9.076449763973155893e-03
2.870638590808372026e-02
1.001963028903996578e-01
1.828440909214955890e-01
2.413875758057975884e-01
2.563459429162457948e-01
2.091270904725796298e-01
1.007345663658589102e-01
-1.755823652515295374e-02
-7.672084906894621747e-02
-6.087888347399235400e-02
-2.206698443021022638e-02
-1.874000203573032708e-02
-5.481533364115680207e-02
-9.520728640724306080e-02
-1.220471091805703373e-01
-1.369239970455566890e-01
-1.312565468780779454e-01
-1.032792541241442652e-01
-7.734650625372667399e-02
-6.992139147723383519e-02
-6.362760342384898848e-02
-2.947313470510412245e-02
4.149061529178357105e-02
1.233088483882277403e-01
1.702276661581611783e-01
1.560941961562225255e-01
8.748287368570281664e-02
-1.269081493453353381e-02
-9.087931030107859742e-02
-5.025797525992872078e-02
1.385950467825541599e-01
2.643657232026390691e-01
-1.926756897506830962e-02
-7.065697810015945102e-01
-1.224455924230862358e+00
-1.048959380396565333e+00
-3.937907445790157501e-01
8.300811535160224075e-02
9.268002471590100488e-02
-1.025418020482079251e-01
-1.648247797252623270e-01
-3.601765516584341797e-02
1.321466917380876294e-01
2.023205779733504572e-01
1.706029757081824472e-01
1.304062265274097965e-01
1.499700806992970981e-01
1.996817492942535022e-01
2.091793598984526548e-01
1.692990098176616609e-01
1.489054326004160544e-01
2.113214243372360523e-01
3.283730003013502485e-01
4.004371620034124502e-01
3.663603613964525607e-01
2.584021755931066311e-01
1.442682777587130927e-01
6.489669003188400231e-02
3.022271616615188061e-02
2.617110892395878297e-02
2.952313063515110692e-02
3.983538898401208644e-02
7.040147231780612136e-02
1.013952348379086460e-01
8.487730473389838715e-02
5.135028961851750839e-03
-9.313140991904080013e-02
-1.433279218843374336e-01
-1.203610560013728958e-01
-6.295421967274790476e-02
-2.758434919806718177e-02
-2.955362100229966607e-02
-3.197790311406323999e-02
1.459358431564296982e-02
1.082829376899749063e-01
1.783147525859844207e-01
1.624084855766321778e-01
8.272643327262338420e-02
9.534101526269638666e-03
-2.871193507312379267e-02
-5.876977535314215073e-02
-7.923685281717680884e-02
-3.067250029339655369e-03
2.216550001850042806e-01
3.858402710388236789e-01
9.309128736259551784e-02
-6.999322658081410520e-01
-1.377069507512146407e+00
-1.287586115701861322e+00
-5.704194723022728564e-01
5.403240764590205858e-02
1.816019835898471380e-01
2.125803515693372447e-02
-6.590815869872833355e-02
3.152318304819534678e-02
1.968336068746263934e-01
2.888451673298741418e-01
2.715505727246727563e-01
1.965671730547908225e-01
1.203168310171777444e-01
7.547822112858043608e-02
8.549552908464155832e-02
1.479978453515970738e-01
2.190982978921113822e-01
2.513582031252898918e-01
2.356110924800411677e-01
1.960117919767987438e-01
1.586406074083849260e-01
1.253975066333086197e-01
7.007799925606300606e-02
-3.284914937440461258e-02
-1.544110090779992062e-01
-2.005665138733737918e-01
-1.062304978577563036e-01
7.030153883290507499e-02
1.930697817816679762e-01
1.706027854777833752e-01
1.662871078370934882e-02
-1.695995508434214039e-01
-2.721029193065793716e-01
-2.438971649284472076e-01
-1.375204579324533216e-01
-3.914961577527849290e-02
2.065557714706495532e-02
7.640151943621857622e-02
1.585557901427975813e-01
2.385330129819271949e-01
2.526244998291838351e-01
1.776055417172242856e-01
6.737955897254464810e-02
-2.054021838527471042e-03
-1.051093752017924834e-02
1.796478452423470873e-03
-4.702036339385119550e-03
-2.960238489268388409e-03
1.001832273157114289e-01
3.133448314648565880e-01
3.777183917271906277e-01
-6.623716288925352025e-02
-9.353138006749251998e-01
-1.543795606765646866e+00
-1.327175784719947238e+00
-5.492369050269384489e-01
6.352841302137357538e-02
1.893279558523847383e-01
7.864998339477460854e-02
5.104164594246289599e-02
1.502485777856397975e-01
2.437470873791154624e-01
2.449666954511052486e-01
1.825927107319239573e-01
1.295911816248406789e-01
1.235778684123945703e-01
1.558915836359626994e-01
2.096984560935820086e-01
2.771615602640185028e-01
3.351855931109949949e-01
3.410156623994895497e-01
2.743190139260119897e-01
1.629011560319489349e-01
5.786007371624700413e-02
-2.022845455718872039e-03
-7.409980299553897351e-03
2.166469542319223590e-02
5.457397884842873914e-02
7.823453880062769539e-02
1.027110490936195275e-01
1.312294131074250858e-01
1.335039184731659223e-01
6.647649089956758628e-02
-7.409775613130990812e-02
-2.274019655622046554e-01
-2.999189702612386488e-01
-2.394948210370125563e-01
-8.139219221752799771e-02
9.011312633675461203e-02
2.145428592817393287e-01
2.740245625575323807e-01
2.682072491669344472e-01
2.062827666108533464e-01
1.142588782247134505e-01
2.689407067749082988e-02
-2.764334503021459791e-02
-3.508001839980907921e-02
-5.681771723158746817e-03
1.986526285364446920e-02
1.731258659434087993e-02
4.833029108224917714e-02
1.876901790331927666e-01
2.933841628819600644e-01
1.093803272908994498e-02
-7.261459765360961383e-01
-1.345215811778748494e+00
-1.214573804322564676e+00
-4.852200358581399975e-01
1.104519924820961396e-01
1.919741852037595564e-01
2.226585484798343506e-02
-2.667039818698708348e-02
9.004560690214109819e-02
1.939370304091544150e-01
1.757572238220055649e-01
8.743932400811714467e-02
3.333779997419945851e-02
6.063851025156405394e-02
1.426735130848195698e-01
2.214173462436443418e-01
2.589287566106064920e-01
2.555406583596405712e-01
2.247161045281680924e-01
1.690744389725007679e-01
9.284384712950190244e-02
2.226998475286330603e-02
-7.139124082051886283e-03
1.787465992349509397e-02
7.789708132650750849e-02
1.346965158742447211e-01
1.529782949995902308e-01
1.258532222720608051e-01
8.046557770515598562e-02
3.642797755807879873e-02
-2.875458746721423070e-02
-1.372244369931762409e-01
-2.512957197638689411e-01
-2.948175846216569140e-01
-2.273136011310050164e-01
-8.123989589952057555e-02
6.561983203241797402e-02
1.458460669802900955e-01
1.382381909298434353e-01
7.031617193845748903e-02
-3.330524948352474313e-03
-4.352832378711517930e-02
-5.571472753881439449e-02
-5.956081621245241930e-02
-4.478423708556886901e-02
5.264557298718255431e-03
6.250339245773482710e-02
7.977920928118928390e-02
7.935553457227539909e-02
1.516974707977041259e-01
2.739752234309302259e-01
1.757308130576522576e-01
-3.743163624853374505e-01
-1.076818464572964595e+00
-1.257227932932490466e+00
-7.146717978808861949e-01
-1.698319022569894088e-02
2.548793470672205963e-01
1.330589257312149443e-01
-2.330841001592459660e-02
-4.544453836430698002e-02
-6.930303741026580880e-03
1.023445475635628016e-02
2.419321015013089354e-02
7.853865145461177977e-02
1.602114317540605237e-01
2.166998692462430154e-01
2.227280248707979859e-01
1.976506338914018612e-01
1.667600234026439254e-01
1.374020016709329439e-01
1.088985219419961736e-01
8.084587030705556177e-02
5.190198404751012601e-02
2.518283614092416134e-02
1.839825270114426800e-02
5.540700685794159447e-02
1.354504162276419510e-01
2.220172417068485282e-01
2.727847075492976225e-01
2.637843252975556330e-01
1.860219631552527675e-01
5.295594876852786903e-02
-9.156307567348237475e-02
-1.974755055576115081e-01
-2.284116340965772485e-01
-1.645052719299085753e-01
-2.529291190530375336e-02
1.177362678869920826e-01
1.886982453194036013e-01
1.675937967911223792e-01
9.305783689677336878e-02
1.972564294545382790e-02
-1.836708567023701000e-02
-1.515070681868046186e-02
2.080190918241123579e-02
7.677084497032628241e-02
1.328645618921443228e-01
1.574483302285104303e-01
1.214130204161895654e-01
4.533026887381010755e-02
2.914668709992262671e-02
1.433436275354120770e-01
2.194479303082121358e-01
-9.436371053761505312e-02
-8.278361385414986229e-01
-1.387864412396289771e+00
-1.166125020548553826e+00
-3.524808407518523756e-01
2.927468821884726680e-01
3.687476897469194048e-01
1.284124975092965082e-01
-3.477920682324964902e-02
-1.278179043407083257e-02
8.906419047463250138e-02
1.808313791247926627e-01
2.510920336155498811e-01
3.067484759871411670e-01
3.392688842002214988e-01
3.385288423744182706e-01
3.048202146763620002e-01
2.478888423950022790e-01
1.827363925301736247e-01
1.237903216404643847e-01
8.357546582787554745e-02
7.329432013738533536e-02
9.502814152669993020e-02
1.370056752406632328e-01
1.818675473650522845e-01
2.108687171901948987e-01
2.013605311841742407e-01
1.419123100508468127e-01
5.852725996491735250e-02
2.585842621172901399e-03
-8.247196655896562797e-03
-2.031958305651651239e-02
-8.475664511120417632e-02
-1.737570331186812922e-01
-1.960016463893902994e-01
-1.094395168341591035e-01
1.683800983163158405e-02
7.730063372112196129e-02
4.053563859476486120e-02
-3.882588296750633799e-02
-9.473338974574264937e-02
-1.048655460579131504e-01
-8.329036626019913070e-02
-4.732535705223591543e-02
1.809183273670951150e-03
6.883374645561309013e-02
1.341444532127300526e-01
1.437850786654930879e-01
6.021877331252282334e-02
-5.528825939679598428e-02
-5.284864099798483594e-02
1.153582403981070759e-01
1.965927884760008404e-01
-1.825604284143987066e-01
-9.573667596864385843e-01
-1.456655937831293768e+00
-1.135541104562664882e+00
-3.026487696852631082e-01
2.649287363982575361e-01
2.527402217119670280e-01
-1.151816599806609887e-02
-1.313014106720961915e-01
-3.584639742203776791e-02
1.317393441950185651e-01
2.554631957776433149e-01
3.221585733304314081e-01
3.585901956816902048e-01
3.642027464855718821e-01
3.175697351696452064e-01
2.233275852887035007e-01
1.200152375575496144e-01
4.445865551191735543e-02
1.167788452814136173e-02
2.233359086034375843e-02
6.659647148505341840e-02
1.231782663019063417e-01
1.640765835531739492e-01
1.625781817723658818e-01
1.093307236459413606e-01
2.414729545143849687e-02
-5.988898121890597059e-02
-1.156900065923850002e-01
-1.174690108617866546e-01
-5.225014380957171412e-02
3.221303835559888307e-02
3.908791358290941709e-02
-5.750978716415664632e-02
-1.586472088853295437e-01
-1.719434130140990447e-01
-1.237769345785213609e-01
-8.191230067881782873e-02
-4.877164223688172651e-02
6.445851481557409238e-03
7.044822783490804763e-02
1.054298798010468718e-01
1.126382582085235368e-01
1.196902009930445043e-01
1.279346459027676519e-01
1.187140908040807408e-01
8.775620180923865421e-02
3.554473529343889215e-02
-3.885434682827627190e-02
-8.391949827932468353e-02
5.994431299774404670e-03
2.165420693835951038e-01
2.613038688182599545e-01
-1.690091589598293753e-01
-8.981334510992193820e-01
-1.275161733760482585e+00
-9.270512190798706476e-01
-2.470058179511509522e-01
1.288603281581010562e-01
7.313087175146952557e-02
-6.609897929652658322e-02
-1.763009393371694003e-02
1.678939505576761415e-01
3.192925127773017513e-01
3.663886873241816722e-01
3.433267982676225238e-01
2.962791144492284978e-01
2.413711481761260658e-01
1.710356492246647986e-01
8.041821104535107345e-02
-2.205600056692704619e-04
-1.701889614568856748e-02
4.758276768859952266e-02
1.521812777244366810e-01
2.415522171245882421e-01
2.836168597192658680e-01
2.619603650978406528e-01
1.749290765425657590e-01
5.543490851987716017e-02
-4.118777030922794735e-02
-7.790716743084824536e-02
-4.973942682395170178e-02
1.829662806217922238e-02
6.703488398728696396e-02
3.676277070183374407e-02
-6.737027541211855486e-02
-1.697627318237396044e-01
-2.018538067259825763e-01
-1.654365563353102087e-01
-1.084554482343683263e-01
-6.639193794481529354e-02
-4.802544311570259433e-02
-4.882474277940310192e-02
-4.814985996226222448e-02
-1.774225316628660204e-02
3.922427923021552104e-02
8.415899691227325674e-02
9.485111260562080482e-02
8.435737893286943123e-02
6.489593740600151095e-02
3.840609484943789675e-02
3.496271994781285919e-02
1.293166819502304110e-01
3.428767861790152915e-01
4.640036963124981595e-01
1.240424792916641206e-01
-6.802751386554148905e-01
-1.305508370794649320e+00
-1.141144213846140953e+00
-4.252491226809290703e-01
9.456842978756022089e-02
1.268642422821698312e-01
2.247767042245357727e-04
4.492756918386339726e-02
2.368191470103652996e-01
4.008812732600714468e-01
4.624055453597056831e-01
4.371750580108842432e-01
3.414794925300987383e-01
2.084877101899713092e-01
1.133044490400391402e-01
1.019789635466734068e-01
1.417186247867577020e-01
1.835521750146920927e-01
2.244158481052448140e-01
2.754453595649122843e-01
3.093381330767165927e-01
2.765441976642254440e-01
1.670774176008741063e-01
3.474868912528238096e-02
-4.945508960926892766e-02
-6.554731974142614936e-02
-5.301804231934845180e-02
-4.121412701576551707e-02
-6.905361021347210942e-03
5.360097688464140336e-02
5.980922692186546596e-02
-6.040978821400460469e-02
-2.412661610887628649e-01
-3.286333324062795658e-01
-2.611041736615736797e-01
-1.331581264203865189e-01
-5.759096210386337178e-02
-3.181171997721250755e-02
1.424263908061753486e-02
9.538445590783677097e-02
1.557336804938872776e-01
1.480069571489140701e-01
8.591876331823680712e-02
2.073569740092535627e-02
-1.681101292895373356e-02
-4.478110784597401361e-02
-9.640712690148292574e-02
-1.461219870850160030e-01
-8.186607011240067122e-02
1.646532274504461379e-01
3.955554095373767787e-01
1.987959251146925732e-01
-5.348164794500370745e-01
-1.251160503213105679e+00
-1.271559903016913795e+00
-6.416709592357452419e-01
-3.121017418851924907e-02
1.317841461790444091e-01
1.414790081849636588e-02
-4.859713384090827426e-02
4.215977057676759815e-02
1.789789965188667287e-01
2.520404431504713605e-01
2.414948512658764979e-01
1.849341338683769820e-01
1.237689228415480153e-01
8.571279173752693881e-02
8.956538802651117792e-02
1.429424779600806383e-01
2.301721814763916796e-01
3.118788536476426176e-01
3.478904060405310639e-01
3.217023594792362551e-01
2.425989357059050167e-01
1.356134635474574857e-01
3.824546190512301269e-02
-7.041561170292756459e-03
1.714559577288889483e-02
7.954790032283946821e-02
1.289450582885041663e-01
1.410321954245507270e-01
1.136707715656729706e-01
3.679439601548319810e-02
-9.351975161159289951e-02
-2.360138688043327826e-01
-3.118243141178102529e-01
-2.679873645255472780e-01
-1.274962563169535767e-01
2.993751797025180975e-02
1.315417725362175716e-01
1.581091303345087407e-01
1.382576957717602528e-01
1.051462775584764836e-01
6.749056475824058432e-02
2.122220387490530644e-02
-2.492184197338299587e-02
-4.768401610982615085e-02
-4.045933257981503689e-02
-3.386869666240349686e-02
-4.813526206890653136e-02
-2.165886907659844707e-02
1.384399345318511609e-01
3.528113243743087324e-01
2.758777012581709598e-01
-3.664594735429609340e-01
-1.256034305396630746e+00
-1.617575651725057462e+00
-1.120088047154719657e+00
-3.149718152319727071e-01
8.524408254257193063e-02
8.164558695124890519e-03
-1.368008186714134433e-01
-8.707207219707979728e-02
6.836673794879091770e-02
1.510665869186224863e-01
1.324849169444916597e-01
1.066021633115853129e-01
1.381901826635520414e-01
1.983689469585550313e-01
2.286906715072522245e-01
2.191569768955186348e-01
2.034377493351080535e-01
2.030656831779653060e-01
2.043958599976998802e-01
1.854146116713721315e-01
1.454605135227469426e-01
1.041495824335401943e-01
7.585281757801481950e-02
4.952550147110111600e-02
9.178523054461280167e-03
-2.257254426501915240e-02
-7.118427400760441413e-04
6.853146269666383905e-02
1.258102801256121284e-01
1.363823046202715661e-01
1.019382062518845999e-01
1.596708862186170530e-02
-1.069255524780319128e-01
-1.844637986179082367e-01
-1.357678879626845747e-01
1.373715089907465506e-02
1.532416129553821893e-01
2.026923995694827341e-01
1.733744213474919249e-01
1.257899477861359194e-01
9.714648199609607349e-02
7.651851515615681887e-02
4.371141215911204109e-02
1.341664487624401846e-02
1.844075482314728662e-02
5.481563163615878892e-02
7.668106116167466846e-02
7.144240258085726714e-02
1.179271440291139866e-01
2.815542294890088781e-01
3.967571505250483965e-01
1.060673433107672536e-01
-6.511935337541876478e-01
-1.312888798275289481e+00
-1.237892421149131561e+00
-5.216836348369681131e-01
1.321929454405333659e-01
2.870731521918351015e-01
1.291504357871688102e-01
2.131162551125765497e-02
7.112395891905452794e-02
1.743188480903670456e-01
2.383550621753589283e-01
2.503235578348353974e-01
2.237891460671414812e-01
1.836574604404531408e-01
1.783366048717761609e-01
2.330387204155880132e-01
3.021899997725647768e-01
3.177481742791178343e-01
2.661674686559361014e-01
1.848837107167172200e-01
1.095616453101418974e-01
5.748679966514817774e-02
4.493937996865633722e-02
8.155386296952396585e-02
1.438603509219633925e-01
1.863878131091526169e-01
1.886196414506781938e-01
1.676795533121667736e-01
1.408218966910799452e-01
9.564203182813249549e-02
5.324411817574176142e-03
-1.279121607934144977e-01
-2.485453207264748943e-01
-2.811379729028503638e-01
-1.945976699845199664e-01
-2.725020019754160333e-02
1.464580562100766259e-01
2.616156788335536332e-01
2.826382586109171813e-01
2.103292489117838948e-01
9.377017426554690172e-02
1.045005617336051268e-02
-3.538118645561401029e-04
3.078278163033525139e-02
5.409040147416162292e-02
5.461605133361720210e-02
4.291133553535560197e-02
2.541191822250023560e-02
2.013476809606506990e-02
8.516749383771672621e-02
2.346822147864997266e-01
2.672663507620180456e-01
-1.449444304307180575e-01
-9.581547915893233736e-01
-1.528376191183625776e+00
-1.276070993209618809e+00
-4.452170941112235658e-01
2.041534269504402532e-01
2.982702455849872702e-01
8.174899803324112146e-02
-7.529837738578337714e-02
-6.162797769398453696e-02
3.098642757146849100e-02
1.087045772122263998e-01
1.475341813650651868e-01
1.569495184956141431e-01
1.564540877414270503e-01
1.693728137129743849e-01
1.929432808520979703e-01
1.954987330046638883e-01
1.670246963382357452e-01
1.331142945280786027e-01
1.070430270195015798e-01
7.638111114232012944e-02
4.307330360312892903e-02
3.443940385973575519e-02
6.650655776840527778e-02
1.171620959145195789e-01
1.415249918179900812e-01
1.113236975910155968e-01
3.881206947221704784e-02
-4.055242949871488978e-02
-1.099449801482600964e-01
-1.863436317517501439e-01
-2.786166909623453147e-01
-3.384932646688110225e-01
-2.930224637951414079e-01
-1.412438039065182782e-01
2.000633652181488253e-02
9.120084196799278786e-02
6.221743773105570252e-02
-3.934592342095316261e-03
-4.524303450237981972e-02
-4.482186689955060255e-02
-2.439551912292472688e-02
-3.786980669622191150e-03
2.576352055903165586e-02
7.060641422200995831e-02
9.379720418555458072e-02
4.466576871143942973e-02
-5.872093754707912588e-02
-9.976052606501521758e-02
2.145500201896401171e-02
1.867618934849047396e-01
6.014061515841338107e-02
-5.112238526419483620e-01
-1.118331362317708244e+00
-1.132145659024044404e+00
-4.971380032457473064e-01
1.651621775568822836e-01
3.301357848899380554e-01
9.832440493355287803e-02
-1.233130314349975137e-01
-1.399940587787188717e-01
-3.757262293217687038e-02
5.668308545581345059e-02
1.166178096186746699e-01
1.764854453449154204e-01
2.490982723423390555e-01
2.999327652722275084e-01
2.882017395672331617e-01
2.370598609202811125e-01
2.398203923718439101e-01
3.458786219664728989e-01
4.538538249555802984e-01
4.040860115724674850e-01
1.933369499622190624e-01
5.664184949324847090e-03
9.019522682689349799e-04
1.495758422497790729e-01
2.929152795912945417e-01
3.077318104380677433e-01
2.046649661087766303e-01
8.664561764721617765e-02
2.428123906036277688e-02
-6.020657797507784209e-04
-3.670104199247552212e-02
-9.478910667601642137e-02
-1.384491596704806593e-01
-1.205984148715403825e-01
-4.073050850721326305e-02
3.431350988912156008e-02
3.693796473175690875e-02
-2.123018357361368055e-02
-6.870896142687391017e-02
-5.862512150454213256e-02
-4.869860124238985580e-03
4.862004922601532997e-02
7.231478828701554118e-02
7.221939909059112150e-02
6.671931069674352788e-02
4.168988477606567350e-02
-3.457506372173573678e-02
-1.221656312110403902e-01
-8.829604363889093088e-02
1.101668384085680574e-01
2.030393028709520375e-01
-2.115698191042034992e-01
-1.047054835996907629e+00
-1.559161738949436993e+00
-1.195037298863297792e+00
-3.336449962034058192e-01
2.451628938136420632e-01
2.892514192400928996e-01
9.847578496166634054e-02
-2.153477289599436267e-02
-2.184378780623561292e-03
8.416298104282254888e-02
1.530609775013737628e-01
1.811462829824310450e-01
2.026570120913446793e-01
2.358568004967719345e-01
2.470078584162066493e-01
2.069119784145700969e-01
1.408244857883196866e-01
9.723343664904768313e-02
9.908268195529615352e-02
1.408246276966607646e-01
2.034504580252738948e-01
2.564095879707743442e-01
2.677111645217488123e-01
2.284152231642582742e-01
1.575977871961587173e-01
7.939268924492116908e-02
5.608809369684328479e-03
-5.065247817468940261e-02
-5.880866953166099392e-02
-5.244929107580696692e-03
5.806979865811192493e-02
5.359497658484630583e-02
-2.163417894364257424e-02
-8.704276455135387391e-02
-8.091406676009874066e-02
-2.381443163630756962e-02
2.827432931769435775e-02
4.862652298447297378e-02
4.782410015083429083e-02
5.125102117912215538e-02
7.935702386780600637e-02
1.307250155286899251e-01
1.776290760412624625e-01
1.906609424381464912e-01
1.659338623209731800e-01
1.133979401195052555e-01
3.352238495751060088e-02
-5.596799018255011610e-02
-7.247050011884638432e-02
7.610083097238010130e-02
3.023517451896962083e-01
2.659062494031114721e-01
-2.838329599458007668e-01
-1.039118185618246759e+00
-1.321524697901650613e+00
-8.877109712509310135e-01
-2.261279537579022614e-01
8.673850810059674510e-02
3.578899968988649705e-03
-1.379489091548377067e-01
-9.877848046693947504e-02
8.560149615449658134e-02
2.738742325410266631e-01
3.883051588073574423e-01
4.193816737267082040e-01
3.818140106037535841e-01
3.088949675417798635e-01
2.258869844920133596e-01
1.178137528830982689e-01
-7.014324168982077196e-03
-5.302542708970488933e-02
5.230995416432512868e-02
2.277185225423976611e-01
3.322111597208097233e-01
3.287780705967737749e-01
2.622940456620701521e-01
1.573669880404935106e-01
2.731050974524990016e-02
-7.621343844518850552e-02
-9.862795650146309601e-02
-4.266176575560284151e-02
4.295078777612656995e-02
1.074963793170559262e-01
1.126228710395094784e-01
4.060114439355698435e-02
-8.037475061839713386e-02
-1.787823258181601427e-01
-1.984502123042374833e-01
-1.501218971796680346e-01
-8.711440977223852689e-02
-4.194054042938385324e-02
-7.750640099565953185e-03
3.063031102706489928e-02
7.194760413215306460e-02
1.006802866016259929e-01
1.001882000913052601e-01
6.591677755708505448e-02
1.085975544681190216e-02
-4.547148324690578058e-02
-9.646938217715661512e-02
-1.385082147253470231e-01
-1.214700197331471110e-01
3.589725496506414315e-02
2.755155552497048355e-01
2.823891733784352209e-01
-2.309570187032011224e-01
-1.031008068333659988e+00
-1.433745850228090202e+00
-1.079607890148484906e+00
-3.784786112919622525e-01
3.994683374228967521e-02
4.527378488897002007e-02
-4.586520588023296902e-02
1.416871298152655792e-02
1.849255226797318630e-01
3.101252615993793094e-01
3.211037539574654320e-01
2.662298682123031002e-01
2.191352623603131933e-01
2.061504923534264178e-01
2.130312396634030103e-01
2.216534542504811911e-01
2.335046050212372937e-01
2.698238470975271031e-01
3.341272510844302546e-01
3.748908248298966073e-01
3.235963894255328155e-01
1.849945302734739561e-01
5.249112699617754230e-02
6.617649664222664471e-03
3.186997002444026672e-02
6.407142545300052727e-02
8.528562086292321154e-02
1.308631313889982439e-01
2.104745437405955433e-01
2.577926968019065290e-01
1.848289393406562509e-01
-1.557361337599093287e-02
-2.375259130468546642e-01
-3.430928713431380950e-01
-2.822963471624441723e-01
-1.266302983893521084e-01
2.069622666016080262e-02
1.170709309772303558e-01
1.713708578441183183e-01
1.912524536742642167e-01
1.679536816672031196e-01
9.645628519081256291e-02
3.819071676279781578e-03
-5.391075084216797458e-02
-4.486266484877741295e-02
1.185989475107375457e-03
2.806877138037123728e-02
1.483162973512853339e-02
5.236904007878854378e-03
8.766583546158955575e-02
2.811805974574579370e-01
3.702326436909955110e-01
-4.661625200240243627e-03
-8.475044625951336785e-01
-1.531967102566005545e+00
-1.418932880427073773e+00
-6.590888232482674525e-01
2.607380331318255584e-02
2.301945469310939796e-01
1.381022536771186193e-01
6.311295616526479968e-02
8.282150602736522427e-02
1.144380625419961356e-01
1.052889837794882544e-01
7.614674273372183666e-02
6.357323842039931672e-02
7.992702472011381509e-02
1.215876995146056849e-01
1.833751461505264690e-01
2.476051783986020771e-01
2.762037294697720635e-01
2.366803188100746747e-01
1.383773841765434109e-01
3.531209029692970736e-02
-1.500135438398226238e-02
6.521475263703978460e-05
4.089427600379940547e-02
5.637963105726619129e-02
3.730630582811642060e-02
3.539230637927088391e-02
1.086522141860437468e-01
2.230141876633155995e-01
2.519684407905157242e-01
1.265921985194299326e-01
-7.556315158950623057e-02
-2.411552175476781301e-01
-3.266424741963120937e-01
-3.172038143042688607e-01
-2.003129718375089297e-01
-2.460868317311492789e-02
1.063251379656073164e-01
1.328112131266839246e-01
8.183919783431954642e-02
9.671931322160954095e-03
-5.293138254424607086e-02
-9.620989390746127745e-02
-1.082646341900693060e-01
-7.495496186339721534e-02
-2.048686042326490486e-03
6.713751583577932947e-02
8.167827105463980331e-02
6.357064593742065006e-02
1.245146369936544484e-01
2.909152667485906396e-01
2.907870196091849047e-01
-2.467661769811992090e-01
-1.165279205216129155e+00
-1.660956398105271514e+00
-1.202141731369226640e+00
-2.613427228602591690e-01
3.102906675970076300e-01
2.901440526154434041e-01
7.295963770778278457e-02
-8.471805289135235506e-03
2.881868076544664981e-02
5.576711307371162024e-02
6.184975169565946895e-02
1.101146500879381790e-01
2.027542578372127924e-01
2.766202983075168875e-01
2.936936065504247573e-01
2.808444032979595106e-01
2.812712828083955285e-01
2.916779770365487412e-01
2.667882030488090694e-01
1.871395913446389503e-01
9.411588750056484876e-02
4.292420043337030061e-02
5.093696445949454782e-02
1.040529217031103404e-01
1.741277039390473069e-01
2.175149351971989720e-01
2.008329138855096396e-01
1.427117197282543604e-01
9.122335967759667708e-02
5.631934046001267624e-02
5.657163521122719405e-03
-7.143333495364581620e-02
-1.318056516294925373e-01
-1.191876769118042911e-01
-2.692389519206288620e-02
8.402852023155457650e-02
1.371155255485436986e-01
1.126655632235028931e-01
6.083457472256082604e-02
4.184700310188188555e-02
6.277664434698762563e-02
8.486111914274534207e-02
8.713581348824518680e-02
9.368710797128293466e-02
1.296789944625421631e-01
1.735565584536673811e-01
1.676664499877820458e-01
8.646290387775508457e-02
4.876557948142761466e-03
5.619256970247627631e-02
2.277581836964984174e-01
2.084755876220982240e-01
-3.333664636241618351e-01
-1.172040671599071882e+00
-1.535651132794753737e+00
-1.014012970453193940e+00
-1.324428348912415898e-01
3.224422753815121556e-01
2.013506307241060000e-01
-7.785265746136911524e-02
-1.646567694816578609e-01
-5.164312221613430454e-02
1.076913959858524783e-01
2.224986563752729685e-01
3.022416085301639077e-01
3.698776971326823704e-01
3.960415049548707267e-01
3.324840562846032022e-01
1.969013927759459270e-01
8.410063346339405332e-02
6.518447818488125323e-02
1.098296137827144831e-01
1.456346105695184578e-01
1.552635860266075030e-01
1.708452851909681991e-01
2.056347923860318005e-01
2.358845905640283291e-01
2.359026162085752776e-01
2.022402422183466053e-01
1.521665366580919332e-01
1.143963693725011249e-01
1.068367306511576742e-01
1.076697557900140462e-01
6.651236733197934958e-02
-3.256199995100140382e-02
-1.312987609860955807e-01
-1.492257898080461553e-01
-7.430315963636889565e-02
2.363108397721718976e-02
6.940316275503305432e-02
4.898908422461652895e-02
2.909064920518544470e-03
-2.186780505761980881e-02
-7.147232980868833963e-03
3.760750060824005758e-02
9.753652086843368763e-02
1.582962100784050252e-01
1.897572474382444585e-01
1.471238714492367206e-01
6.952373445563229948e-03
-1.887750117540187844e-01
-3.149643922341895386e-01
-2.263674556868648657e-01
5.783265675785512205e-02
2.076754044337790484e-01
-1.733570111466316566e-01
-9.699968621232651911e-01
-1.457171874165897218e+00
-1.112583690682330539e+00
-3.029201592912990071e-01
2.038652422550083498e-01
1.635296993049610847e-01
-5.919212163757799766e-02
-1.014604553590019165e-01
4.551649124598956125e-02
2.049953768584958924e-01
2.737133711988501972e-01
2.682466600631404630e-01
2.384564103894712406e-01
2.111741115906085597e-01
1.909291193035337897e-01
1.698468156194456180e-01
1.389638334012709142e-01
1.080037857047371624e-01
1.024876576134588768e-01
1.332177925346941239e-01
1.853774828847118417e-01
2.347801994007762960e-01
2.527507238898790143e-01
2.084420114842855110e-01
1.018281207360615392e-01
-1.337380881107038712e-02
-7.219430862005724037e-02
-5.911668689877755400e-02
-8.889367247967912278e-03
3.723222658220430581e-02
5.394798146104978070e-02
2.465653921688558403e-02
-5.200385731367183212e-02
-1.395964241300941266e-01
-1.784226822734356899e-01
-1.441743456537845913e-01
-7.579935768868137358e-02
-2.816672532378623056e-02
-1.080461273554018942e-02
1.030968376595114457e-02
5.996802467749234866e-02
1.193930729192388268e-01
1.451043957355983849e-01
1.143927239664311868e-01
4.755035353959689154e-02
-1.751030601154598271e-02
-6.851604409560198283e-02
-1.195704190832229813e-01
-1.518646866364891657e-01
-7.579318411288170354e-02
1.610548095778263633e-01
3.698513660200130060e-01
1.672619436035626406e-01
-5.395801191638168737e-01
-1.215651780426034723e+00
-1.217969509752383495e+00
-6.124545258427811500e-01
-6.035271921466305034e-02
5.228203636935613297e-02
-5.915856246117433964e-02
-6.462598985883150071e-02
7.597722694466307880e-02
2.213781167994198218e-01
2.855859662159261347e-01
2.809544192253358164e-01
2.440407972402866832e-01
1.960459605490417201e-01
1.528120987736190095e-01
1.289501609347923350e-01
1.247016742623281577e-01
1.272530581588088572e-01
1.296796641424491081e-01
1.372122149001167024e-01
1.508165519045456815e-01
1.558156387474510796e-01
1.381306801202222545e-01
1.036367569924951521e-01
7.034169768758130603e-02
5.036905874676255584e-02
4.777904422254700134e-02
6.726788366576560985e-02
1.127636471226576009e-01
1.635731939878235508e-01
1.582334463553767834e-01
3.864118245473509294e-02
-1.679350871341315776e-01
-3.353946289301352190e-01
-3.452752682600592760e-01
-2.087163438594675791e-01
-5.044595227661785586e-02
3.350861341266220955e-02
6.204507156540411961e-02
9.981252267603041295e-02
1.493526824465974401e-01
1.558620782561595530e-01
9.819130221420566129e-02
2.305924434167640202e-02
-1.331802586907229746e-02
-5.097895578668310175e-03
1.447874271414190638e-03
-3.489539992681262720e-02
-6.823011411659851699e-02
2.911305457792992546e-02
2.807188986814980747e-01
4.041872720947895514e-01
-7.040887079672956614e-03
-8.890175405316356194e-01
-1.510928158962906220e+00
-1.265708716430794301e+00
-4.611318336520926486e-01
1.126254175583151912e-01
1.674828170821063833e-01
4.385744336627803858e-02
7.544126831075388673e-02
2.300880541587173589e-01
3.224986684643774137e-01
3.038563816343988755e-01
2.599403914461859144e-01
2.369226281904033282e-01
1.854556727079682832e-01
8.610977146268598836e-02
2.966333557863765416e-02
9.715725717595567745e-02
2.323479848797362080e-01
3.121956448131655293e-01
2.872249516338388209e-01
1.997284398032350416e-01
1.142719883896378685e-01
7.224941316364717758e-02
8.304725082309541428e-02
1.210534359305188018e-01
1.423264450812969373e-01
1.303557805148829185e-01
1.159345585962860692e-01
1.312805704290716247e-01
1.526408216632564874e-01
1.117546629114338080e-01
-2.544092813615263238e-02
-2.017382511042099535e-01
-3.069536383605425134e-01
-2.760680315132706397e-01
-1.392754690137876783e-01
2.130747398943519388e-02
1.401924932258485357e-01
1.921945442019071804e-01
1.840204581826631602e-01
1.410995339930022630e-01
8.666078457505756172e-02
2.952796519198088235e-02
-1.938694491877717210e-02
-3.307847275922629060e-02
3.247583736411333022e-03
5.206257458158074225e-02
5.452640977976044856e-02
3.429782508539440389e-02
1.135316758965504019e-01
3.087550295987891991e-01
3.231779910333055228e-01
-2.105048717778986445e-01
-1.114709367495133829e+00
-1.605633597667944112e+00
-1.193191455149045010e+00
-3.312265889594694368e-01
2.021632316929966589e-01
2.186787096074317704e-01
7.159589140676829444e-02
4.067870297948318614e-02
1.057163303429916323e-01
1.536240841295715143e-01
1.508386450541776003e-01
1.286722347730744342e-01
1.239984416026830988e-01
1.563307605968083935e-01
2.190901887991266450e-01
2.802827720524727617e-01
3.010182562758851321e-01
2.607146632471408210e-01
1.753926227246247749e-01
9.018430396926899184e-02
4.310214102603902864e-02
3.775644612604377170e-02
5.359927676013984121e-02
7.491595441243452391e-02
1.016046526789722432e-01
1.340152270097933473e-01
1.615157214735133406e-01
1.721322649172575547e-01
1.626960018390496698e-01
1.298541168711788152e-01
5.944096523488215378e-02
-5.302526379676821694e-02
-1.670219458295917336e-01
-2.103469750872637711e-01
-1.508754741374775388e-01
-4.066108851119958761e-02
3.772645250191242888e-02
5.838495542553868295e-02
5.560299628753136852e-02
5.652749101850695901e-02
5.195111936256664037e-02
2.775540748472202224e-02
-6.451638830193643856e-03
-1.962066475514234395e-02
1.932225661110955478e-02
1.044540925113990187e-01
1.697206586869808576e-01
1.450708401165121675e-01
6.802591829972486070e-02
8.071762731058160223e-02
2.156708762733430540e-01
2.052793043034335241e-01
-2.844179503439789314e-01
-1.091188864607589348e+00
-1.495496544344238954e+00
-1.039207964296216202e+00
-1.541423678540836673e-01
3.799807623712074256e-01
3.321294009048743057e-01
5.241193154252582476e-02
-1.116193662353945071e-01
-1.083211588678414800e-01
-3.665191543841508914e-02
4.086219848649678965e-02
1.245109787056444678e-01
2.178443809133661646e-01
2.980392691083008083e-01
3.389302635845549694e-01
3.324946433521613898e-01
2.839147796234176568e-01
2.049924088937865596e-01
1.153954223716485566e-01
4.410081101620079436e-02
2.195797039778608559e-02
5.311244002339564341e-02
9.646411859093559360e-02
1.068828002724181575e-01
8.640602305071576339e-02
6.249543410421630474e-02
4.108600869132118805e-02
1.393468306501358112e-02
-1.695138362668852094e-02
-4.778298565916122564e-02
-8.588281524402316403e-02
-1.379392295570747717e-01
-1.914701214565624754e-01
-2.164684694154005717e-01
-1.875448269014358960e-01
-1.045670022932571608e-01
4.046825601976200212e-03
9.131137193367686034e-02
1.125915036390657403e-01
6.279939575027257415e-02
-4.551299361534151544e-03
-2.257950056102915604e-02
2.417887130694616402e-02
9.774097788519831020e-02
1.540147867335366350e-01
1.689943931348488193e-01
1.283285265819922305e-01
2.737894823866678790e-02
-8.492926757471373767e-02
-8.604549137003050796e-02
9.215090073054864328e-02
2.577574490900046977e-01
3.792143219326234854e-02
-6.261838859186515949e-01
-1.197116087233026649e+00
-1.089381014894852173e+00
-4.192020891334604649e-01
1.537766653917701232e-01
2.461303449839597479e-01
5.511212148978352626e-02
-7.299191583356673396e-02
-3.669425029040331715e-02
7.148385756872184527e-02
1.694945243468613527e-01
2.431175698824050990e-01
2.936704190634553679e-01
3.129503623858015948e-01
2.975259493165315905e-01
2.525979318937180973e-01
1.865315899804462219e-01
1.171272617754026135e-01
7.523375024865099070e-02
8.819931195088831499e-02
1.532988327115011595e-01
2.263249009236382447e-01
2.503226897576023013e-01
2.101179542714095849e-01
1.438387394722352441e-01
8.744585771120219619e-02
3.651312335505241952e-02
-1.728659425658400986e-02
-4.576708934359273451e-02
-1.366939720779579079e-02
5.949531472715757080e-02
9.307507986194528404e-02
2.294886254408060045e-02
-1.134354235446347892e-01
-1.974405426505552452e-01
-1.557551998614961075e-01
-4.231601568608560349e-02
3.403130747407835666e-02
3.392633360654975089e-02
7.665569420619664648e-03
1.805324717856776270e-02
7.298493063318103879e-02
1.276349686890526636e-01
1.364833566766330830e-01
9.453009777236486000e-02
3.000734914254167898e-02
-3.311865516763441708e-02
-9.584414115482804697e-02
-1.575186731603283041e-01
-1.640421287576535603e-01
-2.903744563930326511e-02
1.994275917538103349e-01
2.214788849902677714e-01
-2.360381286491847475e-01
-9.364499632423894937e-01
-1.234305695108252499e+00
-8.531832740463874964e-01
-2.427431319126446552e-01
4.416280570563974744e-02
-1.064071534128680982e-02
-7.533369240528092758e-02
1.806772578374957194e-02
1.670130620943698352e-01
2.399358474320932300e-01
2.337866045454012331e-01
2.136232897871661041e-01
2.075087699350400272e-01
1.981933351723212666e-01
1.649651830168478717e-01
1.009131608361568261e-01
3.409587725828419624e-02
3.588175812751612931e-02
1.380679081129317087e-01
2.620131774272816960e-01
3.077750177852568436e-01
2.704880432372838150e-01
2.058293817223888489e-01
1.341876825641610538e-01
3.848630043796051614e-02
-6.511956151802919535e-02
-1.077450828070412037e-01
-4.155053891793723114e-02
8.993586012973228683e-02
1.759489851384333226e-01
1.288454239632397802e-01
-4.055969117649524391e-02
-2.235352710192961556e-01
-2.997761081245317594e-01
-2.364457239043449843e-01
-1.012899619163284970e-01
1.451160734019377868e-02
7.190413302916526250e-02
9.019745427141261096e-02
1.026295011683431846e-01
1.192679187503158378e-01
1.308300988453443003e-01
1.321086457338813414e-01
1.230427574438920924e-01
9.422419185331891434e-02
3.504891938367279275e-02
-3.771185825115243306e-02
-6.590272427140674016e-02
2.280875535089002537e-02
2.337283219348583740e-01
4.025478787100326139e-01
2.284948745179991025e-01
-3.973782187643873920e-01
-1.071114444421209511e+00
-1.188821564955652166e+00
-6.812569873335150294e-01
-9.816394823766980138e-02
1.089635255194076890e-01
2.744862182212298718e-02
-3.247787891351076872e-02
4.830395154063882313e-02
1.864522076294445330e-01
2.784783674093389561e-01
2.860018865398176180e-01
2.205951528585007593e-01
1.189805667164223341e-01
3.527060781669672657e-02
2.907290115252892868e-02
1.288433174104709755e-01
2.902772452175114704e-01
4.053317291556229884e-01
3.853916386816711448e-01
2.432331448563858078e-01
7.606536511385222910e-02
-2.569538206114516804e-02
-3.943993582740393244e-02
7.341293205722475984e-04
5.214647082438526177e-02
9.824459254232999206e-02
1.429586395107147467e-01
1.817926668088118147e-01
1.924336348472214797e-01
1.525880779694556710e-01
5.287559722530133649e-02
-9.779529978545438429e-02
-2.531742293752413109e-01
-3.304415511498313140e-01
-2.743275731707585097e-01
-1.224476734135127587e-01
2.621468781195481282e-02
1.050815413322016140e-01
1.163573879110197662e-01
8.977967913957186907e-02
4.378731561624749080e-02
-1.109695080702238074e-02
-5.914957884450084552e-02
-8.374215558242929791e-02
-7.778714010797052603e-02
-5.123297854884875657e-02
-3.246642974989262520e-02
-3.229275304552534087e-02
9.987700277304683086e-03
1.596330394371607009e-01
2.831868927215863696e-01
4.952376373596704962e-02
-6.313626945983218386e-01
-1.277790903059029315e+00
-1.300297927749431315e+00
-7.311847981373906791e-01
-1.274340793164434327e-01
1.364125066408859166e-01
1.344029248614948824e-01
8.967206427090673726e-02
1.054425499758753770e-01
1.510831890939154931e-01
1.565580372738061832e-01
9.620703280262689339e-02
1.672893684150671828e-02
-8.433678202448072203e-03
4.353275725094998827e-02
1.295115529879041771e-01
1.995403586801474394e-01
2.335071489367320507e-01
2.273896734367835959e-01
1.883826058427460759e-01
1.368843539360514172e-01
8.926873438085350387e-02
5.542419714411601916e-02
5.604390947566880582e-02
1.074532053720403391e-01
1.823538020748347588e-01
2.200009955354131630e-01
1.911008352789760056e-01
1.296621906367599886e-01
8.248035813406014161e-02
4.394289469328488407e-02
-3.260553426652477993e-02
-1.592364574524171572e-01
-2.730132498849262013e-01
-2.884953942472162081e-01
-1.868532702898175746e-01
-3.680280297423618036e-02
7.560604075382298950e-02
1.164240941135404189e-01
9.934197209739019374e-02
4.971505209621995131e-02
-6.816519506531307400e-03
-4.757301503178041485e-02
-6.165534507900994471e-02
