-1.709576557249018192e-01
4.049774210093256555e-01
7.014603609986926891e-01
6.848784569358203900e-01
5.490720916278651886e-01
4.764762398454058245e-01
4.767180295941284562e-01
4.606494805999729603e-01
3.852873917381596791e-01
2.825085919421075342e-01
1.998264292481271021e-01
1.564859389990089500e-01
1.407664396353443537e-01
1.261927331553021614e-01
9.618707492198912135e-02
7.087920114062505605e-02
9.759675557797477252e-02
1.818862906233966181e-01
2.391517781040929935e-01
1.708278817924819559e-01
2.655705714482925472e-03
-1.137362440745623982e-01
-7.414976811355147857e-02
5.921898908774131387e-02
1.495176416760115590e-01
1.410642721415871215e-01
8.981086981185865126e-02
7.327092825152151101e-02
1.017410210327213405e-01
1.285107755999538304e-01
1.342386588573942219e-01
1.594407273445778428e-01
2.354828255257480629e-01
3.186329324866337687e-01
3.287489398063528356e-01
2.433593810190903817e-01
1.235011181478336273e-01
4.659826004900585045e-02
3.612245874855674749e-02
5.748763766451293888e-02
6.254981277962408381e-02
3.076283425545494124e-02
-2.453379578998149749e-02
-7.947100293286346595e-02
-1.171534925282404216e-01
-1.201601309536660112e-01
-7.568358054939272606e-02
-2.048884595762045721e-02
-4.278350928462990727e-02
-1.634844745168055336e-01
-2.527004941604098498e-01
-1.757268613743786234e-01
6.757216756518934220e-03
7.950724679712907472e-02
-9.344898530167448925e-02
-3.447099717766968774e-01
-1.955011663417106638e-01
6.632364883708452563e-01
1.724766189591431909e+00
1.956847921293339843e+00
1.063858387679148310e+00
-6.037628150456117448e-02
-4.603392679852592040e-01
-1.339956427569029829e-01
3.159627025582230075e-01
4.903410823304364952e-01
3.998247193039647929e-01
2.144059168638197399e-01
6.097608187736842239e-02
-1.680433598335746501e-02
-4.005632100203253970e-02
-5.957041654797704672e-02
-1.067751267617167016e-01
-1.683222896095354360e-01
-2.077399628000800857e-01
-2.065062788377510228e-01
-1.809553098096000623e-01
-1.577799753330866583e-01
-1.419635270086477552e-01
-1.228111685696206823e-01
-1.016005448450520987e-01
-9.425120086928739926e-02
-1.122807905716707300e-01
-1.500281215937199764e-01
-1.867379212036010816e-01
-2.047452592470884736e-01
-2.077952239167719373e-01
-2.108020411637858416e-01
-2.133387503007974639e-01
-2.000460046408722714e-01
-1.667298546708075313e-01
-1.253128598906758095e-01
-7.740264511398778358e-02
-7.655423321765544506e-03
7.623318032894778329e-02
1.198622771460837316e-01
7.707076373018886817e-02
-2.323567447832965149e-02
-1.037131696731029978e-01
-1.214718285772630885e-01
-9.917873803412008415e-02
-9.544294567684762087e-02
-1.595288846105123171e-01
-2.814630599335234962e-01
-3.785313587599286600e-01
-3.732847951855177704e-01
-2.826835865837383222e-01
-1.875687370868286408e-01
-1.343559143179318682e-01
-1.131424772333052692e-01
-1.062916910830472156e-01
-1.035562891550324965e-01
-8.112604863805536470e-02
-2.852463645274160367e-02
-1.779138408273091276e-02
-1.704751949046703907e-01
-4.327834771717639639e-01
-4.076417360088999131e-01
2.911476437639790582e-01
1.331765926199181216e+00
1.727661112075796535e+00
1.023733334628184943e+00
-2.872670188942516578e-02
-4.374364170559751352e-01
-1.078039884663319070e-01
3.667990116748975904e-01
5.494040678630323082e-01
4.391340763805914316e-01
2.263224386959827861e-01
7.223432529988360606e-02
5.434623226692230497e-02
1.456785748112556234e-01
2.174533003824504207e-01
1.520857600407240218e-01
-2.464858335222015751e-02
-1.852370098742814331e-01
-2.583584189576687562e-01
-2.718726802737685411e-01
-2.599693367511154984e-01
-2.148224982478645073e-01
-1.384677222283516862e-01
-7.211185825503804714e-02
-5.221251317669503567e-02
-7.705932793199823938e-02
-1.203075282646167421e-01
-1.527148361415864297e-01
-1.579849208678696659e-01
-1.421265367537952740e-01
-1.228082859207972055e-01
-1.088159009571944003e-01
-9.834713522831851906e-02
-9.215870362830438922e-02
-8.874191044621704272e-02
-6.601892564038540356e-02
3.067246576871417857e-03
1.019335587523688968e-01
1.631705557467690582e-01
1.347461396781828025e-01
4.050960957664448414e-02
-4.814538127226740405e-02
-9.256847097031638272e-02
-1.116554113305758961e-01
-1.316543242824249893e-01
-1.502665020831726317e-01
-1.610086672472218761e-01
-1.792543719819027215e-01
-2.213580113458363807e-01
-2.698024387430775217e-01
-2.784755147177326862e-01
-2.212894878545784982e-01
-1.304101929138249405e-01
-7.283985849574618754e-02
-8.430329521235686852e-02
-1.306910584471448200e-01
-1.473644967093931113e-01
-1.403000466459994044e-01
-2.171807591567591622e-01
-3.985784418257039552e-01
-3.863597235834940746e-01
2.059463922014267978e-01
1.175628537028992504e+00
1.634601651143313905e+00
1.044662289435289937e+00
1.260624352883202293e-02
-4.677226909596992610e-01
-2.029878852447730142e-01
2.426566077107585873e-01
4.063320982759652811e-01
3.036535711058150899e-01
1.548812195556740490e-01
7.899192316187354790e-02
6.456279155858088425e-02
6.867182133557320212e-02
6.145539529888600222e-02
1.938923292657250899e-02
-6.473253239263559999e-02
-1.606267960237709458e-01
-2.163110075562020562e-01
-2.095077046441293500e-01
-1.729401515656834587e-01
-1.558251282970469220e-01
-1.670459841507788423e-01
-1.728249931987326238e-01
-1.503669079984881751e-01
-1.202554069614690663e-01
-1.156311995539579390e-01
-1.430920183601565587e-01
-1.832172479160665002e-01
-2.080397660050740394e-01
-1.960585855859439675e-01
-1.478245036049095074e-01
-8.876362825917759325e-02
-5.073790749920624454e-02
-4.521511905567592027e-02
-4.703624018350609920e-02
-1.292459379093402645e-02
6.447377334091294876e-02
1.282935429030943042e-01
1.114275153423379960e-01
1.513461722835487272e-02
-9.259505315246413515e-02
-1.500947715053614906e-01
-1.516594450698418584e-01
-1.323811829660165029e-01
-1.230295261245643174e-01
-1.262702721579281040e-01
-1.328357439923577021e-01
-1.449247086473399171e-01
-1.684075580127432914e-01
-1.915497298166728146e-01
-1.930916673675957262e-01
-1.727622359981077771e-01
-1.556490960336606721e-01
-1.540877871627997220e-01
-1.364517248400207994e-01
-6.421853064359961394e-02
1.683097745650891097e-02
-4.222261023026400301e-02
-3.031933197917142664e-01
-4.706127869814877296e-01
-3.393600078953011578e-02
1.001925977606159979e+00
1.739997741796718733e+00
1.334569338370114044e+00
1.813417034402889372e-01
-5.281457855296211035e-01
-2.970511015244651776e-01
3.117995155806517760e-01
6.193161567256476596e-01
5.143080092067530140e-01
2.616916928151135635e-01
8.229634661095840131e-02
1.958692639427130414e-02
2.197424690256843255e-02
3.554951173635155504e-02
3.851767282039643414e-02
2.662643359702859813e-02
-8.167184977093306514e-03
-6.764560542161278389e-02
-1.318847887701517785e-01
-1.715681020106813448e-01
-1.688888780726827687e-01
-1.288409567001516653e-01
-7.831876340679724824e-02
-4.622184913937058687e-02
-4.540504983741482786e-02
-7.767362863302554321e-02
-1.326328759578796757e-01
-1.735111099533297452e-01
-1.612482558322597403e-01
-1.048511063526213205e-01
-5.339670238525116852e-02
-3.729660865994820912e-02
-4.955961251927350902e-02
-7.131421778644440879e-02
-7.897094505763047056e-02
-4.037812252336526325e-02
5.030895408222877535e-02
1.326705156342637970e-01
1.250721923128895741e-01
2.421930610422366043e-02
-8.896847444625320678e-02
-1.524956569251578187e-01
-1.768120662919047126e-01
-1.885479152799753033e-01
-1.826827416746965860e-01
-1.540625932064704773e-01
-1.323504765657027848e-01
-1.518135213086925783e-01
-2.033260413103090414e-01
-2.417650985541958120e-01
-2.359894790925001207e-01
-1.934964536542961577e-01
-1.376945002883064040e-01
-8.422452623299375718e-02
-5.216557257367085421e-02
-7.586020389348591131e-02
-1.842524521430279338e-01
-3.799169248448504566e-01
-5.872942162197267724e-01
-5.283157083028425793e-01
1.539854140271989524e-01
1.280725663258383218e+00
1.895819493904561392e+00
1.291923335657056526e+00
6.579063310575108958e-02
-5.713357523822325534e-01
-2.737014077806946277e-01
3.079264778671964020e-01
5.538369073957889466e-01
4.354613841949748765e-01
2.245718436026704345e-01
9.164064013284675680e-02
3.704350835235397515e-02
1.185367248034718823e-02
-7.176268934343130179e-03
-2.533772742683561285e-02
-4.907808499084587855e-02
-8.377757076471767372e-02
-1.273907155374247591e-01
-1.726090901660449206e-01
-2.037409419709524105e-01
-1.870639954327457666e-01
-9.312979563284304318e-02
4.195811846830682645e-02
1.121691702361400506e-01
5.421805242598335545e-02
-6.969711393493778495e-02
-1.557231748667365356e-01
-1.763875106128058867e-01
-1.711710519874888314e-01
-1.691410412833417587e-01
-1.610734241986190307e-01
-1.309959209830549309e-01
-8.938088374743652365e-02
-5.990673642487490819e-02
-3.714676363784256974e-02
1.801702563105693489e-02
1.238110107052165648e-01
2.259322809507795238e-01
2.286428419096325215e-01
1.009474920421635225e-01
-7.053224631443845427e-02
-1.681318124444787510e-01
-1.595401531269973194e-01
-1.013229847768497560e-01
-6.521820060795167906e-02
-9.117665298929091000e-02
-1.705637369577146234e-01
-2.467461219968977715e-01
-2.666133672805743315e-01
-2.378762524211249785e-01
-2.041876341452237009e-01
-1.803017779157487233e-01
-1.487493786487739389e-01
-1.033859023634668833e-01
-5.421559106528585359e-02
3.291428179859345621e-03
6.505475903751820055e-02
4.795229564493451446e-02
-1.554178597634739978e-01
-4.229082051554158839e-01
-2.954382401105018485e-01
5.391205243219373555e-01
1.579097050204717245e+00
1.814161659165813845e+00
9.638159513935298239e-01
-1.042876481002813771e-01
-4.693925493064145527e-01
-1.351833617362165896e-01
2.974039699123621761e-01
4.246483705453680813e-01
2.771673933916828370e-01
7.332847972078197774e-02
-3.622520524464023506e-02
-4.120906563664358119e-02
-1.137568530344583440e-02
-8.413910367079769498e-03
-4.657362082976293505e-02
-1.096222710522885835e-01
-1.790957174153954834e-01
-2.415985726401408129e-01
-2.796183032343778074e-01
-2.707388240605690943e-01
-2.126431359839932034e-01
-1.432816739554221286e-01
-1.108748490141791138e-01
-1.230473203339521454e-01
-1.463967828355848821e-01
-1.518899881757284076e-01
-1.405638040665708466e-01
-1.310829278449710256e-01
-1.369698432042620873e-01
-1.494725436513171246e-01
-1.432206870310002989e-01
-1.125810874311301696e-01
-8.678496391541808130e-02
-8.364508581166291146e-02
-6.883854656211925438e-02
6.067042230158191038e-03
1.301429840945746985e-01
2.163431541882508136e-01
1.765612080216580337e-01
2.437553305922904312e-02
-1.252182632847866350e-01
-1.795741499572435229e-01
-1.543824057772680558e-01
-1.201820772209216404e-01
-1.130121287078187930e-01
-1.232323891893020995e-01
-1.378934715115472387e-01
-1.623448892888261497e-01
-2.011742122801943033e-01
-2.357334945018241257e-01
-2.370894819278957788e-01
-2.014281397372379989e-01
-1.572797138627201052e-01
-1.273365598330636617e-01
-9.625134892612016713e-02
-4.785911688578434187e-02
-4.428486936077798142e-02
-2.025770021176915570e-01
-4.768165980190786080e-01
-4.824140212962034768e-01
1.763636623681326676e-01
1.211446637300602314e+00
1.667629427462650638e+00
1.053504426084553414e+00
5.605283440431235720e-02
-3.434249749937359208e-01
-2.136787850987029863e-02
4.354360871424093338e-01
5.818909589471061850e-01
4.350248903724169836e-01
2.145616247088324990e-01
7.293787137918197883e-02
3.984756297929226837e-02
7.286696611729316653e-02
1.063677079122897495e-01
8.844070809162982161e-02
9.028394886680685821e-03
-9.807960938405071993e-02
-1.807582860224665466e-01
-2.073491067515244590e-01
-1.921883079960050589e-01
-1.722303425631993290e-01
-1.554544118513834505e-01
-1.199835020807816788e-01
-6.791396559372347985e-02
-3.904641304411535924e-02
-5.931828991371753540e-02
-1.107244611340933715e-01
-1.581061177814171714e-01
-1.767635397450806611e-01
-1.581435711233634411e-01
-1.145728015302988345e-01
-7.295720982245003372e-02
-4.916014319385515752e-02
-3.395692087132261283e-02
-3.295952741551000289e-03
6.340786610917542587e-02
1.565696761195416176e-01
2.167965847865873652e-01
1.755126340770787607e-01
3.903277463323333307e-02
-9.855307549801878286e-02
-1.492495992465271426e-01
-1.129648271055677389e-01
-5.419299368847980275e-02
-2.947635576838276983e-02
-5.051432954306694229e-02
-8.865910172273656908e-02
-1.073252627099175599e-01
-1.025421104953403301e-01
-9.676406291586596431e-02
-9.682153151045620743e-02
-9.313538926832519438e-02
-8.922046737190378329e-02
-9.175847127643337042e-02
-7.879365358327945768e-02
-2.641276822897779125e-02
1.069326128339414400e-02
-9.397831359070800417e-02
-3.428576459779698604e-01
-4.217811461591806088e-01
6.938058754747666868e-02
9.778105165489453521e-01
1.467738688187432583e+00
9.780125626312122789e-01
3.515856120914709337e-02
-4.110156933512387756e-01
-1.412528931426899614e-01
3.226430942113264755e-01
5.179515145985688074e-01
4.228736545004823655e-01
2.371670367615855701e-01
1.037967153525196917e-01
4.381631133033975223e-02
1.794879264993624879e-02
-9.077997335207145871e-03
-4.566230148764578722e-02
-8.489673617413823203e-02
-1.184916613333946156e-01
-1.395733760127897127e-01
-1.473954591351451793e-01
-1.504384265467075266e-01
-1.565258442816635509e-01
-1.629580321235515328e-01
-1.636256707611850880e-01
-1.625453995677089425e-01
-1.690903156271672259e-01
-1.823696825201782390e-01
-1.938628280732339060e-01
-1.998431731598334926e-01
-2.016986088208003458e-01
-2.019855767692553816e-01
-2.014279802793179086e-01
-1.942902234652881532e-01
-1.725508325824898215e-01
-1.369938889764808210e-01
-9.083956182834791726e-02
-1.985301742073384418e-02
8.934372995290076891e-02
1.918717540152483081e-01
1.924070875723841167e-01
5.828928909337773023e-02
-1.127001560491926874e-01
-1.907079993058213851e-01
-1.547385098081051069e-01
-1.034817654325428243e-01
-1.454463983679683270e-01
-2.821658273615563206e-01
-3.983971484203680524e-01
-3.932949643630793690e-01
-2.972138629548021771e-01
-2.163259189076830458e-01
-2.018889378838258086e-01
-2.206073579182389610e-01
-2.238645428114052482e-01
-1.991315502830655337e-01
-1.505068185004152237e-01
-7.563776230464690220e-02
-1.143783940121156743e-02
-7.314475727275346340e-02
-3.277356664557161126e-01
-5.524147899347188195e-01
-2.798285811536118106e-01
6.102544238894678230e-01
1.412567139236657221e+00
1.242002346791727829e+00
2.364661713133708598e-01
-5.231345628800787573e-01
-3.919717431276504849e-01
2.049686830675521432e-01
5.654869589960260789e-01
5.127957145397545879e-01
3.039533336593468471e-01
1.685248235373094094e-01
1.261774913076438853e-01
1.010685188006986007e-01
5.639933753502089642e-02
9.732245061605219669e-03
-1.649207961152957327e-02
-2.442115995372787576e-02
-3.435053431425842685e-02
-6.256077825705844142e-02
-1.035544015346695629e-01
-1.353472689136341611e-01
-1.414357048416869933e-01
-1.204318913365858557e-01
-8.176206180794731715e-02
-4.446197446621692750e-02
-3.117537498102313301e-02
-5.047837857820125507e-02
-8.978115539880479612e-02
-1.312289462993735667e-01
-1.650574474831387473e-01
-1.821636893114884637e-01
-1.731173471019799570e-01
-1.452273775362390440e-01
-1.150756223389120259e-01
-7.123736324849136436e-02
2.503250964715557358e-02
1.738973364380748676e-01
2.875359742778542671e-01
2.553949543126550203e-01
7.715546371292014705e-02
-1.179309806312328901e-01
-2.102951271028786207e-01
-1.914917869387714466e-01
-1.078328229873402322e-01
5.861701586604489353e-03
8.986866977651333799e-02
6.187689553110327367e-02
-6.911426988732360943e-02
-1.834342994412965222e-01
-1.999524925545290432e-01
-1.556775199212056815e-01
-1.208272692332399284e-01
-1.167403917955074644e-01
-1.157821934551353654e-01
-7.191467603750421878e-02
2.993419029611553428e-02
1.132680094710115659e-01
3.373455116751316457e-02
-2.185131021691052722e-01
-3.024948467707507249e-01
2.454993422849647000e-01
1.289932777732224256e+00
1.879122416884173585e+00
1.297825583114897041e+00
1.051103215227047194e-01
-5.223991295313892280e-01
-2.238450275584904781e-01
3.792736266855130101e-01
6.538299163896684751e-01
5.334755858568238640e-01
2.801021337476017337e-01
8.823146314679454483e-02
-1.445937693880151170e-02
-6.273201963946944959e-02
-7.550133571597661408e-02
-6.541970183298871644e-02
-6.265565964249938946e-02
-9.682155055511827701e-02
-1.600840421573481720e-01
-2.116509679143215028e-01
-2.298320592850984223e-01
-2.358951156818951955e-01
-2.509975808110792572e-01
-2.610074578621000008e-01
-2.444175029945803712e-01
-2.055582053147262389e-01
-1.646828830489847628e-01
-1.385986933655606879e-01
-1.369983866241528958e-01
-1.576898657815423432e-01
-1.799928099784663948e-01
-1.785010437288459262e-01
-1.527368849660092065e-01
-1.300443542222629867e-01
-1.252122769350038634e-01
-1.096710818298977097e-01
-4.227685285473234411e-02
7.065057774603995810e-02
1.633189092467881298e-01
1.653668174062505325e-01
6.576194262236384480e-02
-7.655850351853758784e-02
-1.824596130517573411e-01
-2.132404752141277560e-01
-1.863162752441074876e-01
-1.439695455208457875e-01
-1.173373372276724363e-01
-1.137572785873535164e-01
-1.243584256865475635e-01
-1.382161685162363873e-01
-1.518486828646630760e-01
-1.666539260880743889e-01
-1.776937270126907331e-01
-1.742925815104850729e-01
-1.562046532727222881e-01
-1.287407966746790255e-01
-7.797898962952316826e-02
-1.281249820874516294e-03
1.353639697047113490e-02
-1.636005693200263122e-01
-4.421641655992235020e-01
-3.652109978334114881e-01
4.363864498358275279e-01
1.521353877701674184e+00
1.853260336933093777e+00
1.067900433050201325e+00
3.324312405356633082e-03
-3.817635363520571201e-01
-6.125527070439812372e-02
3.616714352447458203e-01
4.816132241140271830e-01
3.369167122079127497e-01
1.399610597284405011e-01
1.652876667481134598e-02
-3.156512457245642250e-02
-3.951803780749142680e-02
-2.734069682743800814e-02
-1.622327675276190664e-02
-3.885800468144837150e-02
-1.082859224582438107e-01
-1.941995976836074500e-01
-2.477897728039654690e-01
-2.475517702656219177e-01
-2.135141205053343871e-01
-1.788393803571793061e-01
-1.569158454445912232e-01
-1.400894937084235514e-01
-1.210691284337824802e-01
-1.049920853603808074e-01
-1.040899015741083011e-01
-1.289600555108495195e-01
-1.785920960190234275e-01
-2.280370874212651056e-01
-2.401159631082838419e-01
-2.069313930310334171e-01
-1.591559320582219828e-01
-1.164095133388094311e-01
-5.808428845351351621e-02
3.647591478057472802e-02
1.421127765756116379e-01
1.975449083760447144e-01
1.586119573575126840e-01
4.333859476843783531e-02
-8.212673648692363215e-02
-1.621901376592059796e-01
-1.846542403869159688e-01
-1.692341180679979296e-01
-1.450116986889076198e-01
-1.300620564121837686e-01
-1.234524079507249433e-01
-1.219387033065684051e-01
-1.330301672955544745e-01
-1.571992901228810580e-01
-1.735863345368294508e-01
-1.638095166061527275e-01
-1.380557319801567484e-01
-1.138886390902610485e-01
-7.783380957833320457e-02
-1.188359396250246100e-02
2.613993230584484018e-02
-8.363678932516249720e-02
-3.248922701198712071e-01
-3.707219096108415601e-01
1.561637134324407594e-01
1.052499417393282455e+00
1.468975450298954710e+00
9.026506759722502382e-01
-4.831021092313109166e-02
-4.204345541570499445e-01
-4.504272932140790386e-02
4.805143187593460263e-01
6.482611740340724626e-01
4.568510117740234855e-01
1.675895775549762212e-01
-2.784028814671977645e-02
-9.894122333952666548e-02
-1.081120163758563235e-01
-1.183650705796743807e-01
-1.349400129069324161e-01
-1.227620311549523779e-01
-7.971821023916103588e-02
-5.636242749916373085e-02
-8.987638345301653120e-02
-1.601375941673110481e-01
-2.173508654017222985e-01
-2.085268639208162356e-01
-9.684595712555599256e-02
7.324287506154425476e-02
1.656805846065380616e-01
9.850220427907198373e-02
-4.678400461263292759e-02
-1.371079841151168766e-01
-1.424258687853354743e-01
-1.224287966568052693e-01
-1.226194222493389580e-01
-1.359395445760533949e-01
-1.400528545456081464e-01
-1.269867309972597946e-01
-9.266096457633955785e-02
-2.519822314670421351e-02
8.262437581249237883e-02
2.143222998462783746e-01
3.233160862250556988e-01
3.399341326660247908e-01
2.152597800933639949e-01
5.261907723924305613e-05
-1.664447796390960965e-01
-2.014424473492236189e-01
-1.558977391372388110e-01
-1.195999451704959221e-01
-1.223112494233815628e-01
-1.444942804241742262e-01
-1.628980744247696399e-01
-1.655932328916081830e-01
-1.551242819596633238e-01
-1.512632163130361584e-01
-1.703853576995880414e-01
-1.948916345500070757e-01
-1.852683120173897191e-01
-1.362130370799529699e-01
-1.133196676938033470e-01
-2.140531258786834146e-01
-4.442147266991057220e-01
-5.778966550034021488e-01
-2.247113318925987868e-01
6.919920412221667316e-01
1.510723638146586056e+00
1.379676918175386291e+00
3.879646948052204447e-01
-4.299061188846400317e-01
-3.696841000401629440e-01
2.489403527571257269e-01
7.183239965730633392e-01
7.258072111472122501e-01
4.285703083386293022e-01
1.141421422343479319e-01
-6.192623984041738250e-02
-9.959427913184294712e-02
-5.594161441415672342e-02
5.041565924158178391e-03
2.109613803752084446e-02
-2.895695363416768420e-02
-1.107649862269868141e-01
-1.857910713492053889e-01
-2.401470205564742999e-01
-2.596148346470530943e-01
-2.305169765251557368e-01
-1.721915054165491510e-01
-1.273084263419437812e-01
-1.130335238333994158e-01
-1.051224626600823359e-01
-7.906965318381554975e-02
-5.597163594476541743e-02
-8.451033957605290359e-02
-1.688123254753804703e-01
-2.461104813927328938e-01
-2.579690692876604463e-01
-2.119607986166362201e-01
-1.521619225927055286e-01
-9.727398463176628596e-02
-2.866638046275417351e-02
6.876706115502867478e-02
1.626182985550336524e-01
1.798045427893339154e-01
7.751022501559212685e-02
-9.169099999870622408e-02
-2.175657413279357133e-01
-2.447236603604785454e-01
-2.153965411356211779e-01
-1.981085131222110329e-01
-2.129226610231036709e-01
-2.362495444155988944e-01
-2.476845383246084609e-01
-2.475960606650478846e-01
-2.382099681009579029e-01
-2.157510827897817784e-01
-1.899611365623821713e-01
-1.891404294554840382e-01
-2.184533345199786425e-01
-2.164648001157325197e-01
-1.047566298325549872e-01
7.219037338052750052e-02
1.064806107240284100e-01
-1.372172894837387080e-01
-3.909679000159565487e-01
-9.383439286306594074e-02
8.725525774251352562e-01
1.702389650117268838e+00
1.459604842549299342e+00
3.442518005216820276e-01
-4.850799127500355912e-01
-3.707617409802890784e-01
2.361130113226903582e-01
6.075973597735710996e-01
5.407255131142713056e-01
2.738663780804903580e-01
5.626657075126129115e-02
-3.999522303940368506e-02
-5.999453546675440063e-02
-5.819374029522911274e-02
-5.010443051480134580e-02
-3.159280006276798947e-02
-1.561478513070298745e-02
-3.053825813829364605e-02
-8.220923454036149769e-02
-1.382318251859422642e-01
-1.640752119003895948e-01
-1.599339085761173340e-01
-1.465243377669335212e-01
-1.292616087168551864e-01
-9.811680316089747833e-02
-5.730132213055341012e-02
-3.152501557693457995e-02
-3.841677541814961239e-02
-6.990027627644256059e-02
-1.034786126228213476e-01
-1.236333401309210878e-01
-1.306118039812383114e-01
-1.305198057364097552e-01
-1.193924572726576261e-01
-7.911086794608772343e-02
7.862100122659178292e-03
1.335399535918304903e-01
2.508623965157485980e-01
2.903392006209757903e-01
2.118460499637830341e-01
5.662793640121268485e-02
-7.851714507874543725e-02
-1.368147034926456285e-01
-1.345860865961126529e-01
-9.843059183751599883e-02
-3.339218493375708391e-02
2.997421132019886109e-02
2.168227147669038804e-02
-8.346749024176018661e-02
-2.060144752439292126e-01
-2.445291737691598355e-01
-1.907051550963970166e-01
-1.177525422535661836e-01
-8.538334343690030803e-02
-8.858544389174356770e-02
-7.787970908531482994e-02
-1.936044613007844445e-02
3.197946412622516832e-02
-6.123929383057075820e-02
-3.015995493629831103e-01
-3.170677486490793284e-01
3.459387473910315314e-01
1.436844285527745457e+00
1.922299602646018402e+00
1.199286987264029269e+00
-2.063086621293913625e-02
-5.988665519114358959e-01
-2.989233085996662598e-01
2.601686596349724878e-01
5.256981622870282589e-01
4.410692461465749448e-01
2.226114344549426360e-01
5.144032700425688054e-02
-3.008004127507280662e-02
-5.859527590092112465e-02
-6.221379644869147463e-02
-4.676910115910178078e-02
-3.244216024807926313e-02
-5.007293679250734292e-02
-9.964947596504178384e-02
-1.481819359900418409e-01
-1.727983884364937273e-01
-1.834295071203378702e-01
-1.966290663608660783e-01
-2.031362237092059209e-01
-1.803399860473753613e-01
-1.325374480184624004e-01
-9.396390575402667478e-02
-8.852848159445478315e-02
-1.071846689950410880e-01
-1.254443120010291512e-01
-1.280470231979699836e-01
-1.185084400280697059e-01
-1.107751774435162678e-01
-1.105205565835904735e-01
-1.070501333074638933e-01
-7.995175935954984547e-02
-8.559385572715133214e-03
1.058488209495568599e-01
2.082384881423204603e-01
2.108167140426700226e-01
8.940412928393808023e-02
-6.731549588341505241e-02
-1.529821217247410714e-01
-1.546305608747965410e-01
-1.299874203113411397e-01
-1.236338570163563466e-01
-1.426385699129410767e-01
-1.758224180905219036e-01
-2.059312851411279899e-01
-2.156458540848033012e-01
-2.029644060438329789e-01
-1.938999658097324552e-01
-2.174801706871176687e-01
-2.589387560161084956e-01
-2.655318165745324532e-01
-2.080534940739787730e-01
-1.190227719444100357e-01
-8.248282977225321333e-02
-1.891057291045028788e-01
-4.302799097157437025e-01
-5.726689505620503606e-01
-2.463390669540444500e-01
5.904490918064922989e-01
1.309532227444162089e+00
1.180742300709304304e+00
3.415239234492642995e-01
-3.224913947201245024e-01
-2.900960331149696203e-01
1.329319761020913426e-01
4.191590310298073385e-01
3.967164099480624539e-01
2.098981156576635310e-01
3.640725312876933600e-02
-5.411138674712037688e-02
-7.976194535874002456e-02
-7.991713802666099153e-02
-7.717372330476711395e-02
-7.489829323406199668e-02
-7.008273032110808043e-02
-6.932003105594237991e-02
-8.936020701478737671e-02
-1.339819477151882599e-01
-1.827517483674146181e-01
-2.130976901911465216e-01
-2.205814473037497059e-01
-2.125820270560668801e-01
-1.957631339456754604e-01
-1.729086211359431857e-01
-1.450822924609332099e-01
-1.185769161017553308e-01
-1.069255409293866782e-01
-1.171697199791333494e-01
-1.409639137209557913e-01
-1.653955204495185238e-01
-1.825366518695284712e-01
-1.854974565463745062e-01
-1.600728918785901955e-01
-8.506835300540345479e-02
4.271156422457924456e-02
1.751282077260188919e-01
2.270279351522934974e-01
1.508003839887930575e-01
-6.320052526949729993e-03
-1.389064067883095110e-01
-1.760987412884288672e-01
-1.288028597237448891e-01
-6.204821111820074675e-02
-3.314113744333951894e-02
-4.308962957497343427e-02
-4.877732342537401122e-02
-2.827094825640825981e-02
-1.074525154851289563e-02
-3.010908380275264390e-02
-7.726625637815483227e-02
-1.151758332596446582e-01
-1.185157007236004867e-01
-7.998099543846412529e-02
1.430634888476576671e-03
9.772695310943894931e-02
1.127146358534319021e-01
-5.735165604259509498e-02
-3.156914240505048208e-01
-2.652071088997999815e-01
4.014087728564448843e-01
1.291230922672977899e+00
1.511540901089144961e+00
7.885983799100972913e-01
-9.349490105154137365e-02
-3.053998755310629587e-01
9.214413119432145194e-02
4.936691669465568810e-01
5.510752220637865628e-01
3.693583981332708710e-01
1.832679769227923972e-01
8.851436152425189163e-02
4.874365550148479498e-02
1.604318771274151900e-02
-1.591958437521214312e-02
-3.450799750605928334e-02
-3.975060800684074303e-02
-4.826146350243656902e-02
-6.996777664948594655e-02
-9.446256561370811045e-02
-1.123630566485944171e-01
-1.300082831889241841e-01
-1.458158689807326214e-01
-1.376978161106250098e-01
-9.461233628487285274e-02
-4.169235257361329078e-02
-1.849331307960570825e-02
-4.100493337314954634e-02
-9.054523319530936865e-02
-1.343027986543935681e-01
-1.519989846584885729e-01
-1.442729110668665715e-01
-1.251802621799925075e-01
-1.093061541496414268e-01
-9.184792106424034819e-02
-4.307230113724980214e-02
5.663287142953182807e-02
1.779077940596353880e-01
2.484262757449508530e-01
2.011235555854669343e-01
4.173152867578479308e-02
-1.291090396043761135e-01
-2.057946646568734883e-01
-1.873001311487779152e-01
-1.517783637026109689e-01
-1.468127938638888463e-01
-1.587953511936953110e-01
-1.655829298014741824e-01
-1.666308371671634259e-01
-1.673729750992507537e-01
-1.644633562594713383e-01
-1.546623223091267429e-01
-1.493814649320727161e-01
-1.608030464986210939e-01
-1.688791839256083005e-01
-1.282654943794517000e-01
-3.102962760090209604e-02
3.338686834426832922e-02
-8.479024370946675049e-02
-3.875478849421766236e-01
-5.060950558696271084e-01
6.065855647222274938e-02
1.170406500795790894e+00
1.802104181735151522e+00
1.200375835778799694e+00
-2.007417367726671564e-02
-6.202973331948250513e-01
-2.665401766868745748e-01
3.543936835316473521e-01
5.965184278310262656e-01
4.294821484484508400e-01
1.476074076416453718e-01
-4.695834364717206555e-02
-1.355970945837239316e-01
-1.631841469147521373e-01
-1.505390471237039451e-01
-1.119047950473132796e-01
-8.200493453991261616e-02
-8.613569077600860546e-02
-1.107231876294747508e-01
-1.273579962344664473e-01
-1.305583504849761600e-01
-1.398701619982209987e-01
-1.724651309839955182e-01
-2.142046148977865827e-01
-2.209417707233821415e-01
-1.663684510305728226e-01
-8.187498014737998320e-02
-2.593536116995108845e-02
-2.456828216589284145e-02
-5.984668975418040715e-02
-1.033889256673068274e-01
-1.411351514652147976e-01
-1.671400009846758516e-01
-1.737897491338575851e-01
-1.571782444450831595e-01
-1.117294899903325256e-01
-1.817287667913858318e-02
1.222593228218574746e-01
2.346548147847216381e-01
2.102112154886217610e-01
3.418007584582297143e-02
-1.703318610464270577e-01
-2.662850304795311152e-01
-2.364609847384107899e-01
-1.677794682698820483e-01
-1.427054899250749520e-01
-1.703152929932382209e-01
-1.962728416843311785e-01
-1.650633393103031199e-01
-8.684356339035469163e-02
-3.907218377244470880e-02
-7.951057890211207790e-02
-1.727667682951489203e-01
-2.340493301821960914e-01
-2.197327432207186459e-01
-1.425564426665393569e-01
-3.936567920350022426e-02
2.018199969947107736e-02
-7.095462447472050682e-02
-3.154667477949190668e-01
-3.987869757307337393e-01
1.404268062681279516e-01
1.206214374493690400e+00
1.862108264402874136e+00
1.341581680597497606e+00
1.529115124164844020e-01
-5.110447096203061257e-01
-2.437306187465547169e-01
3.544974712592715571e-01
6.456389110521683072e-01
5.406970489143194669e-01
2.811704145048593007e-01
7.502219881965682680e-02
-2.089011580851376365e-02
-4.592077927294423156e-02
-5.343426997604093509e-02
-6.844462678548404733e-02
-8.911241652786117129e-02
-1.052406764349017865e-01
-1.115308841324688105e-01
-1.118935226386056775e-01
-1.174212105742195728e-01
-1.383039132828729201e-01
-1.721933737089932359e-01
-1.985893001000140490e-01
-1.928008603154710288e-01
-1.531267714241515976e-01
-1.069101700527145538e-01
-8.333974371018862404e-02
-8.841959320379877418e-02
-1.088306111233208751e-01
-1.282627437453293939e-01
-1.373051022649745823e-01
-1.384805234278366770e-01
-1.428692979685571851e-01
-1.519587032311079111e-01
-1.422931361245148296e-01
-7.947961016511174981e-02
4.256507946755390404e-02
1.735144971729081498e-01
2.246445096029202615e-01
1.378336798966226517e-01
-4.714084687064914320e-02
-2.130652129193895683e-01
-2.725052925716439089e-01
-2.397172393512586597e-01
-1.871084431331478670e-01
-1.608382361334848298e-01
-1.603826694735738523e-01
-1.692999845344861365e-01
-1.739893403173436437e-01
-1.690169879911609940e-01
-1.630683991579543468e-01
-1.708961293035100304e-01
-1.947284234807540593e-01
-2.157074228823667728e-01
-1.993228435753092165e-01
-1.169642953670786412e-01
8.326045146674947162e-03
6.143665598482731666e-02
-9.735761738496850892e-02
-3.950533563501528178e-01
-3.894098011924493896e-01
3.385685722546995513e-01
1.439775430085459273e+00
1.871738103239249718e+00
1.138512148173601135e+00
6.709049477225781377e-03
-4.693628142235304335e-01
-1.450439306110309079e-01
3.701314568159887464e-01
5.779464606689463935e-01
4.486675511889174350e-01
2.009899592670875701e-01
1.769786137123150610e-02
-5.472317363144406366e-02
-6.201684144035474189e-02
-6.006241781590850731e-02
-6.924818653174052985e-02
-8.209254344774648271e-02
-9.336738546779367598e-02
-1.149855036580249568e-01
-1.599161767345562146e-01
-2.166206772719723450e-01
-2.531961005042479007e-01
-2.487506733242327850e-01
-2.101295837446072456e-01
-1.598331092675271126e-01
-1.186254917633671330e-01
-9.511537430461534937e-02
-8.068533427325488838e-02
-6.174575998731572646e-02
-4.285391720942451771e-02
-4.413817549588182343e-02
-7.384114849733516839e-02
-1.153962760393075354e-01
-1.401939693731695524e-01
-1.254379545296322451e-01
-6.104752018080378956e-02
4.524035669858670478e-02
1.517224039987567497e-01
1.844819841236669256e-01
9.250922394600671894e-02
-8.351594479640950253e-02
-2.258524955940678924e-01
-2.542278034660129249e-01
-2.010933875008481253e-01
-1.468164961339029073e-01
-1.253662309645138251e-01
-1.224105757538579836e-01
-1.208536152474676412e-01
-1.199598743184821792e-01
-1.280049561388342805e-01
-1.467120170550632874e-01
-1.646462287759408449e-01
-1.739301054339774388e-01
-1.822957486013712103e-01
-1.876969283479446582e-01
-1.572094199348471888e-01
-7.012993030459747923e-02
7.774380804729601538e-03
-6.246258072220486207e-02
-3.075615027372669008e-01
-4.343249954074190344e-01
-1.369646013540788687e-02
8.795744354072904114e-01
1.448351150989716229e+00
1.063904313035048066e+00
1.593017142787095108e-01
-3.127189093175367085e-01
-6.489175332135360685e-02
3.949460917856612574e-01
5.591696336896679886e-01
3.976209530710360651e-01
1.650753066025917315e-01
4.574174932342270350e-02
3.701951231499685940e-02
5.145852033446027957e-02
3.101808777351104662e-02
-2.305426043444068832e-02
-7.365321544597702719e-02
-9.061036954200782367e-02
-8.268256758698301623e-02
-8.477197055122306923e-02
-1.166750013631610294e-01
-1.657652707823703830e-01
-2.060592726137440156e-01
-2.173130412407298373e-01
-1.885771070566394925e-01
-1.255437867110056338e-01
-5.643670638833215430e-02
-1.597362193523493151e-02
-1.902074546507692698e-02
-4.807609954094928251e-02
-7.023961724224127290e-02
-7.600450358850564803e-02
-8.530625209771078299e-02
-9.706861316120593552e-02
-6.688306046546178829e-02
2.975854301925481143e-02
1.508072814522029015e-01
2.419860510105411033e-01
2.867512777934875801e-01
2.717940820572402050e-01
1.767702988956229848e-01
3.265820489580477382e-02
-7.884909211253958439e-02
-1.142257483292175024e-01
-1.116698542375063608e-01
-1.292601218721472212e-01
-1.668837328963289901e-01
-1.729925685236419763e-01
-1.268788983694090489e-01
-7.847035716962737217e-02
-8.187572918302582492e-02
-1.231009697450374113e-01
-1.481723511398538584e-01
-1.393919924852606018e-01
-1.245045871639506307e-01
-1.139650475416523062e-01
-7.440464615965215744e-02
-3.361564668862450714e-03
-2.166297175869323632e-03
-1.710118489487390536e-01
-3.633278150687457853e-01
-1.756264810711697377e-01
5.537359063783265922e-01
1.281229029279819853e+00
1.241144652482716104e+00
4.600800111899858158e-01
-2.301900080699618711e-01
-2.537303532913517401e-01
1.579852026677758814e-01
4.817110330590764211e-01
4.995694003385541260e-01
3.266690860376073591e-01
1.442595165720625683e-01
3.186795541923647529e-02
-2.259587431066620994e-02
-5.002555936385817692e-02
-6.592488921563464943e-02
-7.579119684119714484e-02
-8.439062430313770680e-02
-9.880833981487652240e-02
-1.288924798737817734e-01
-1.817392527913488098e-01
-2.453093611274030361e-01
-2.830929943004463767e-01
-2.667532738547470084e-01
-2.109618683329987365e-01
-1.535616869975484633e-01
-1.102383583307414150e-01
-7.867831671335374921e-02
-8.350457850668649429e-02
-1.680273803854543391e-01
-3.047937098834094805e-01
-3.720255459117048358e-01
-2.978853183094057333e-01
-1.661298399181621310e-01
-9.748733770199308202e-02
-9.873964499038437315e-02
-8.666444798228645219e-02
1.324983748338314123e-03
1.434408348333512662e-01
2.385816300323261030e-01
1.870697321949102987e-01
1.973720400444176071e-03
-1.847467710046109268e-01
-2.510507738388364496e-01
-1.971896342491800680e-01
-1.260064157067546931e-01
-1.283083480026418477e-01
-1.923190316557380208e-01
-2.369387545128876504e-01
-2.223169183332652787e-01
-1.819215205039453609e-01
-1.545856743893864182e-01
-1.447165356853465923e-01
-1.468604698913257844e-01
-1.588028859136956239e-01
-1.638370242523503606e-01
-1.297705581652807694e-01
-5.047407296433600865e-02
7.921905633467472840e-03
-5.313812644685699665e-02
-1.904653664244952416e-01
-7.664916654212086677e-02
6.119399153773035227e-01
1.526544561754856977e+00
1.688985178992556069e+00
7.368059132729375404e-01
-3.867291577793916524e-01
-6.102451443610419357e-01
-1.731876897559896100e-02
5.687773667315210169e-01
6.814722094352853032e-01
4.517901440900505827e-01
1.741543214197531220e-01
4.900352567365796885e-05
-6.632692236124812513e-02
-7.566069243836195946e-02
-7.012468079899276951e-02
-6.597830039354388165e-02
-6.113927115383591820e-02
-4.965411106827824494e-02
-3.971715764436824225e-02
-5.595355975415826355e-02
-1.122959563940038735e-01
-1.868204757902818813e-01
-2.343411362753213267e-01
-2.302940302300802433e-01
-1.981473356770745708e-01
-1.788878532521502862e-01
-1.798664969461941099e-01
-1.769659477260391856e-01
-1.592544508179994378e-01
-1.448315432761644872e-01
-1.516946321342511339e-01
-1.717645936580639021e-01
-1.842147070833261013e-01
-1.811320581890127623e-01
-1.585357892194023677e-01
-9.366216693090163858e-02
2.938321951016717101e-02
1.612151658288264178e-01
1.959904635919915705e-01
8.131137903307333881e-02
-1.019055194412375603e-01
-2.216605011340070375e-01
-2.410322314388500531e-01
-2.259788086628649051e-01
-2.270987875037115411e-01
-2.219791661541569983e-01
-1.763957671890137857e-01
-1.071674138913522589e-01
-6.206202221718760265e-02
-6.238526484066413830e-02
-8.806188757141301948e-02
-1.118035207628440553e-01
-1.279997721647557485e-01
-1.446160406920052877e-01
-1.543172146753396812e-01
-1.251050713720656404e-01
-5.245450566462823982e-02
-3.185932230449502883e-02
-1.857982009716312721e-01
-3.949304182438147515e-01
-1.945494206322651298e-01
7.193666187027443204e-01
1.797693479963688556e+00
1.974892906684755367e+00
1.007900373618474843e+00
-1.033554670560362654e-01
-3.798880762930671451e-01
7.145736387780945997e-02
5.322575723697374750e-01
6.115627327028536619e-01
4.240878783201454949e-01
2.124362469221958427e-01
7.746685664985430986e-02
-4.175670192501699726e-03
-6.310747218688241011e-02
-9.625461071890627218e-02
-1.044250477103840502e-01
-1.107970975760474847e-01
-1.306417832813500379e-01
-1.561159931652467137e-01
-1.788234930701313175e-01
-1.999631825078335701e-01
-2.163196017116250369e-01
-2.195584233434669796e-01
-2.077581798545059255e-01
-1.843487014847902117e-01
-1.508096267486170039e-01
-1.077076243660742005e-01
-6.722331275593734778e-02
-6.070609005665512925e-02
-1.103919141320379299e-01
-1.905873078514785657e-01
-2.456161923168304062e-01
-2.500965466544914917e-01
-2.275858323275832817e-01
-2.049921072487155826e-01
-1.669338182161298756e-01
-7.390818194061227198e-02
7.059973297222990607e-02
1.875850778060341173e-01
1.807821338066082917e-01
3.668859944141256157e-02
-1.484527878437680581e-01
-2.559987774803061944e-01
-2.485779072511695720e-01
-1.808243607973782641e-01
-1.287387763232435423e-01
-1.225614709873475427e-01
-1.389026814965395595e-01
-1.419885881079487044e-01
-1.204670843024565202e-01
-8.951394003430943047e-02
-7.274152453082421976e-02
-8.283438473134144275e-02
-1.121789219762978213e-01
-1.344871301462252922e-01
-1.119225908781371626e-01
-2.568301077669626203e-02
6.439691552354159798e-02
2.091925472625048854e-02
-1.928528641231799512e-01
-2.920840430419818223e-01
1.472372871635687086e-01
1.033064622331755666e+00
1.545454608412894837e+00
1.058623581601471519e+00
4.075418738608607705e-02
-5.157731169929344883e-01
-2.945896576553058144e-01
2.195494062300598070e-01
5.149169539821867314e-01
4.950663115102158507e-01
3.172439354093593011e-01
1.292991600316985012e-01
-1.092356225886706098e-02
-9.654115791664034940e-02
-1.327020119916817453e-01
-1.343515287892942944e-01
-1.266152175651567013e-01
-1.245070795498341848e-01
-1.206201549322497429e-01
-1.065455092781469187e-01
-1.031456997306931522e-01
-1.477669427706469474e-01
-2.327689968947821431e-01
-2.849115141252920869e-01
-2.467815770742607107e-01
-1.500358075287817061e-01
-6.780238532050029965e-02
-3.158424157666841342e-02
-2.965892476840600520e-02
-4.847197672906573135e-02
-7.777699655710139381e-02
-9.670265372158105832e-02
-9.210237241710853007e-02
-8.694775191435190342e-02
-1.127740298606157848e-01
-1.426824354772999182e-01
-9.493100969235292175e-02
6.184991129546962146e-02
2.333648429178693251e-01
2.727636925690425374e-01
1.350190081045720414e-01
-6.995108548484772759e-02
-1.974949171511664325e-01
-2.127782994417139195e-01
-1.844136899367650184e-01
-1.712795245591176851e-01
-1.692718005082785304e-01
-1.543896985502444252e-01
-1.288002299130841521e-01
-1.138583371807842665e-01
-1.226903697763134377e-01
-1.540207628634479575e-01
-1.944578182921832266e-01
-2.119477904239281674e-01
-1.727634633709825007e-01
-8.381105836787133834e-02
8.954287288573592116e-03
6.036034734538898300e-02
1.487192784970568608e-02
-1.769206123409428066e-01
-3.713362203854165267e-01
-1.614876642348669344e-01
6.420375537034932467e-01
1.467266274350965904e+00
1.451221296097300550e+00
5.768795037604587117e-01
-2.375791972547206810e-01
-3.031350713192844104e-01
1.551125214075104453e-01
5.362932733354865977e-01
5.714244442597675722e-01
3.857723794467517453e-01
1.862612555294596572e-01
5.678331155485704523e-02
-2.502333024008086479e-02
-8.527834329838177019e-02
-1.109638054481088265e-01
-9.278187309452824716e-02
-6.396166985292468798e-02
-6.737553689101928589e-02
-1.043118666904291197e-01
-1.417234638859788953e-01
-1.582547172734864172e-01
-1.620726550939948774e-01
-1.688185722828682844e-01
-1.797805448982514875e-01
-1.841078326311976765e-01
-1.712991462088463146e-01
-1.375480557261889170e-01
-8.969429725579551593e-02
-4.964435170743263653e-02
-4.529010122556362955e-02
-8.599204199242078961e-02
-1.494840225012154244e-01
-1.996893259542605603e-01
-2.148788850769186853e-01
-1.895464105535747956e-01
-1.151619971291031330e-01
1.310014671527309944e-02
1.568022547200071115e-01
2.306241424219823699e-01
1.759235041845625125e-01
2.632561158709808766e-02
-1.306435181372607723e-01
-2.347189341170505261e-01
-2.688186435083902426e-01
-2.344807556543528071e-01
-1.518146321044630265e-01
-6.511950065128395415e-02
-2.060762869104534184e-02
-3.204073134387254440e-02
-7.076416441943567115e-02
-9.689834718027724725e-02
-9.938171157666411681e-02
-9.565370860268578024e-02
-9.651623790738944608e-02
-8.442273128888398703e-02
-3.157065499424396154e-02
4.979699019442716118e-02
6.613524048142513379e-02
-9.283622470258907911e-02
-3.354288520416055519e-01
-2.488339344747307891e-01
4.974007743917013835e-01
1.482439434309846371e+00
1.718158543636303603e+00
8.710806644357914630e-01
-1.908331271157129305e-01
-4.869542435854935514e-01
-2.982128238738442072e-02
4.997409247362790130e-01
6.576555032871018724e-01
4.931051161982986097e-01
2.407838236029075374e-01
5.111422163885540049e-02
-4.888905509707835995e-02
-8.866642971384749994e-02
-9.766764956083287541e-02
-8.689706542624908714e-02
-6.098929106452669058e-02
-4.023790997477366682e-02
-5.373852699584356907e-02
-1.028329767605469652e-01
-1.553212220518951081e-01
-1.867935024563383561e-01
-2.018452403793016547e-01
-2.092117931811134368e-01
-2.078097687924381487e-01
-2.008157548939604187e-01
-1.925826447916257900e-01
-1.749418967099553024e-01
-1.439227860011459970e-01
-1.185888895042368774e-01
-1.209627764683579160e-01
-1.504661852427304214e-01
-1.881002364347612033e-01
-2.086286303653577257e-01
-1.841987620885888743e-01
-9.221969259674531183e-02
6.221249662780372475e-02
2.151139330264543736e-01
2.539105661879723641e-01
1.171303511641861028e-01
-1.111954555692383773e-01
-2.689297641635642333e-01
-2.865329112117457333e-01
-2.377580107200860104e-01
-2.238274903038092456e-01
-2.609505549841316663e-01
-2.919818633922883766e-01
-2.736101221468661415e-01
-2.239539909384653249e-01
-1.895854427241949747e-01
-1.921037772730437021e-01
-2.149104116494898464e-01
-2.306054451302300967e-01
-2.345178519359465141e-01
-2.347542985653392200e-01
-2.076451211811989606e-01
-1.280495079314308005e-01
-8.180359363033681830e-02
-2.311473318995531101e-01
-5.082323006435514046e-01
-4.291533696493363692e-01
4.094412867219036078e-01
1.521302285988221925e+00
1.763366583369850860e+00
7.676864180859084286e-01
-4.399259931997994699e-01
-7.053224471111982918e-01
-4.325923716261929897e-02
6.932782313971974641e-01
8.918176253677781995e-01
6.067583326435411761e-01
2.312328253125592870e-01
2.830921336605922434e-02
-2.124902880597836358e-02
-4.807356586627218459e-02
-1.070354531725674352e-01
-1.681702558016285876e-01
-2.019247457954151115e-01
-2.147933750182869916e-01
-2.211944784857208801e-01
-2.238872436637840690e-01
-2.255937026238299392e-01
-2.336297191470239898e-01
-2.474962116731444506e-01
-2.561178152846445566e-01
-2.486895644907997360e-01
-2.216014717446951887e-01
-1.801452356423762502e-01
-1.386030628195616954e-01
-1.115509303631219418e-01
-1.020691641305209590e-01
-1.032615025486870314e-01
-1.101914599472298556e-01
-1.255829533174958601e-01
-1.487564282290468887e-01
-1.539758598407717782e-01
-9.290765771876741130e-02
5.250971723771265948e-02
2.161028556189761585e-01
2.804177407632189589e-01
1.895424708571198102e-01
1.174033482867491845e-02
-1.326999393797328453e-01
-1.848616386539549405e-01
-1.676657031618229432e-01
-1.279407309849915630e-01
-9.258577861100611428e-02
-6.294887933916958056e-02
-3.056839781154050209e-02
-1.310719567160926417e-03
3.124929759773310486e-03
-2.531903457371049992e-02
-6.517034207476828100e-02
-8.895456025969827873e-02
-9.311065772293126985e-02
-9.104162568091933583e-02
-7.670892198863310529e-02
-2.968468677196746397e-02
6.381359511342023054e-03
-8.928389843514272783e-02
-2.967168458140472254e-01
-2.312023895982695532e-01
5.196376111954054133e-01
1.612885319170624721e+00
1.980273206007735265e+00
1.129307303807817409e+00
-8.380579603958987489e-02
-5.266930648150570660e-01
-1.032515696035894714e-01
4.693383575775399441e-01
6.683505611925358858e-01
5.247978087391764745e-01
2.956911291717831958e-01
1.306783310138330545e-01
2.722505558903525608e-02
-5.399914816035318588e-02
-1.101075559380532420e-01
-1.192064757043316547e-01
-9.186928676948746819e-02
-6.587077267257007707e-02
-6.203913342106889828e-02
-7.237206888429655038e-02
-8.809761224474844943e-02
-1.152411102374256702e-01
-1.544289414266202254e-01
-1.829510515638491097e-01
-1.777424431503676072e-01
-1.491913277058037612e-01
-1.281127281939561935e-01
-1.218147071749435123e-01
-1.084405967027665812e-01
-7.580869351394813049e-02
-4.203572381936983293e-02
-3.512063524940994830e-02
-7.067798597038574271e-02
-1.458766333780069924e-01
-2.295607825356166254e-01
-2.578739062382662262e-01
-1.736068391157147284e-01
8.954142626120605020e-03
1.874543376114286286e-01
2.389099496923711152e-01
1.268701530523728971e-01
-5.697858099981880503e-02
-1.838000417201352821e-01
-2.150990799497455586e-01
-2.084423675668790055e-01
-2.150831864338829114e-01
-2.213560361426438472e-01
-1.907363435169584231e-01
-1.251769862628427099e-01
-6.758088825745836581e-02
-5.280588762061243224e-02
-7.287659384621879288e-02
-1.001602503343738404e-01
-1.293037757445240077e-01
-1.680476489598500822e-01
-1.911491677910418796e-01
-1.489001524754646755e-01
-5.700913050801684895e-02
-4.601645408371061313e-02
-2.117249527488902772e-01
-3.512518860539308729e-01
-2.455307238906711056e-02
8.397696661239933968e-01
1.540541872386785638e+00
1.299071079523472561e+00
3.125325184187041083e-01
-4.446874538875963401e-01
-4.189189732311990322e-01
6.297637488627945423e-02
4.351289577797199382e-01
4.922469820792313988e-01
3.535320150560562480e-01
1.810186050085360876e-01
4.749422646352212396e-02
-4.552067171162675618e-02
-1.154478693881625107e-01
-1.607466449964947142e-01
-1.640809441312343353e-01
-1.319916644967939756e-01
-1.057655565297657280e-01
-1.188864781951589067e-01
-1.621781436757684380e-01
-1.992410802848003371e-01
-2.072287416727632836e-01
-1.973589722477878394e-01
-1.963844110695240897e-01
-2.145824160695391225e-01
-2.339709970664202165e-01
-2.231175764494740810e-01
-1.683646132506526061e-01
-9.387875703741478672e-02
-4.137219004465891858e-02
-3.241279399884330198e-02
-6.186060709444462374e-02
-1.156746960625356369e-01
-1.733247552316274920e-01
-1.969816177209098851e-01
-1.405816893276743418e-01
9.062312486730891153e-03
1.881452979526605507e-01
2.750884668994790783e-01
1.985010167102417566e-01
2.182064038102096010e-02
-1.234037906813450908e-01
-1.773633051193128918e-01
-1.808781499015422178e-01
-1.876329368015643428e-01
-2.033885565008816121e-01
-2.063800507329420497e-01
-1.860754499550054675e-01
-1.541284098283066950e-01
-1.312276597462958549e-01
-1.262441100456385690e-01
-1.304226682127027082e-01
-1.361332903895762225e-01
-1.493292891455624272e-01
-1.644011705894681263e-01
-1.419531417601093970e-01
-6.360969506961421105e-02
-1.780517251049253818e-02
-1.356704882641964482e-01
-3.345774051475959299e-01
-2.139984424280725328e-01
4.985723994357258992e-01
1.345976030673751156e+00
1.445208538823484989e+00
6.236887508420072557e-01
-2.666943875533194230e-01
-4.298071114601803577e-01
1.699320271388433945e-02
4.604314506293464282e-01
5.650971536337292545e-01
4.235360603905500843e-01
2.477308130262105834e-01
1.324143768062819859e-01
5.810772666271758757e-02
-5.637928606752843665e-03
-5.487013443934378454e-02
-7.861736151181056287e-02
-8.043755852232160886e-02
-6.873600844406116406e-02
-5.295857611492744282e-02
-4.632816253498513170e-02
-5.534666622454871565e-02
-7.634888476900550391e-02
-1.082551606518475651e-01
-1.496497295739218358e-01
-1.803090254180725327e-01
-1.706973002250484206e-01
-1.189777883233753553e-01
-6.098148551553785046e-02
-3.390341109469632158e-02
-3.936645089018445814e-02
-5.186345971628563561e-02
-5.818255288186914564e-02
-7.261348350289742459e-02
-1.088336900654953143e-01
-1.463772411357080194e-01
-1.341887696740389768e-01
-3.723085457970561063e-02
1.148201653854535043e-01
2.339821665175255971e-01
2.422418834115429298e-01
1.386748616597888728e-01
-4.695709673250433869e-03
-1.114120167440774134e-01
-1.571968917446722180e-01
-1.682135073675573023e-01
-1.773491927819834113e-01
-1.838219784786645494e-01
-1.636071092189762544e-01
-1.163229419494885147e-01
-7.317924338553612185e-02
-5.659482455317696448e-02
-6.122833169479676568e-02
-7.518654258916566968e-02
-9.647272385511992954e-02
-1.230313993046295573e-01
-1.353265556570928119e-01
-1.134480434146498545e-01
-1.008797038326956913e-01
-2.035142418013295706e-01
-3.964762538870738595e-01
-3.345391593549416620e-01
3.503710334184155228e-01
1.353187113697857935e+00
1.704285282361527321e+00
9.379008975135707527e-01
-1.744439862762245386e-01
-5.854022026269612988e-01
-1.976404269581689688e-01
3.291374507084510181e-01
5.200648631270327060e-01
4.115034101084071305e-01
2.278258344124541313e-01
8.423948692712349140e-02
-2.156205300674499808e-02
-9.994069776932952565e-02
-1.277269646884660326e-01
-9.502494787009005406e-02
-4.408097109403425612e-02
-2.982402452945101534e-02
-6.171089961857035427e-02
-1.129259705372045869e-01
-1.626053855470663279e-01
-1.982879781206892122e-01
-2.010614021009862751e-01
-1.708330340539729320e-01
-1.620795869889063989e-01
-2.390965477780370163e-01
-3.635280426058423719e-01
-3.933014825153884342e-01
-2.611554034806040647e-01
-7.615465056177017633e-02
2.380334840715678246e-02
2.434472168998916969e-02
-1.422680134247317554e-02
-5.560860789629459844e-02
-8.537290182820725382e-02
-7.536868850849751111e-02
-6.129548209244826615e-04
1.148890343046942430e-01
1.915153356966864950e-01
1.607544037209383547e-01
4.737310012240873724e-02
-5.439648497223190104e-02
-9.831810867804362253e-02
-1.208104146434035991e-01
-1.543942315255633080e-01
-1.805416323017276226e-01
-1.766673936415593671e-01
-1.533338747706548544e-01
-1.334326152217719941e-01
-1.214514181771792489e-01
-1.054751671402449631e-01
-8.314418654614605386e-02
-7.370743880031913053e-02
-9.767988138892680361e-02
-1.431353182173541183e-01
-1.612679782155536368e-01
-1.263030390745173148e-01
-1.143433225926415581e-01
-2.582395841269951031e-01
-5.104623019907307269e-01
-4.667034666993591929e-01
2.818597599758621564e-01
1.393705848091308264e+00
1.788079738155996301e+00
9.355885627918920644e-01
-2.994334355062108766e-01
-7.251193715477803892e-01
-2.358243011595346772e-01
3.978333092750858668e-01
6.284891088276709503e-01
5.041470106069224633e-01
2.804404904266258880e-01
9.392266035684224135e-02
-3.420793919376630826e-02
-1.063573466486254643e-01
-1.315695092648889453e-01
-1.343874334024557082e-01
-1.379314654199779722e-01
-1.474774844142626717e-01
-1.547468661802009204e-01
-1.508028711738119143e-01
-1.383147738334604693e-01
-1.347369676645525927e-01
-1.539242096359164091e-01
-1.833357186293907426e-01
-1.965102406947360492e-01
-1.919202749838498923e-01
-1.957465321417302950e-01
-2.135993683068721505e-01
-2.097048345951782466e-01
-1.602378890451545690e-01
-9.602220589193311007e-02
-6.390587162884636685e-02
-7.628880152940957504e-02
-1.177195454218900178e-01
-1.662727091375271748e-01
-1.823015704262835879e-01
-1.062136577438652779e-01
7.637575963545928381e-02
2.642227458145391394e-01
3.075849090745262915e-01
1.778225181645142483e-01
-3.031489098597947573e-04
-1.061095380749069311e-01
-1.309733635275153185e-01
-1.248570978045469571e-01
-1.202547744533852686e-01
-1.206040564830723472e-01
-1.150227509770136713e-01
-9.577803775689042176e-02
-7.107080466864815205e-02
-5.105223141308398022e-02
-2.863128632419614794e-02
-4.101781462352164023e-04
6.205565811206976284e-03
-3.177627972319670147e-02
-7.566349259813383299e-02
-5.896569430818094509e-02
-8.335748696340935029e-03
-6.991291752826092609e-02
-2.908779340831978977e-01
-3.530707059445758467e-01
2.231330108279567237e-01
1.328888183850561067e+00
1.996649288369820363e+00
1.446432920763642382e+00
1.921925754128610830e-01
-5.550540774000234379e-01
-3.519624693826690631e-01
2.305672392050088781e-01
5.472640445154397515e-01
4.943421981360934803e-01
3.122112207454586508e-01
1.834729930974111911e-01
1.099219276501598036e-01
3.257674581373862233e-02
-5.526111680225523348e-02
-1.215131309474334897e-01
-1.526346650190755494e-01
-1.592419661569235423e-01
-1.517739127252416831e-01
-1.369785526929603592e-01
-1.264601340656839878e-01
-1.320121323773159605e-01
-1.551036126760192424e-01
-1.874567126572420084e-01
-2.176611553745030903e-01
-2.343404460392694288e-01
-2.312252560270400270e-01
-2.111599443880848859e-01
-1.776485921167440529e-01
-1.282403936798972577e-01
-6.929781337568659272e-02
-2.924794810498829861e-02
-3.878821537160322824e-02
-9.842430083173422939e-02
-1.734351226468816842e-01
-2.149168592177974069e-01
-1.828052045299667916e-01
-7.007333195783095603e-02
7.136909335147233191e-02
1.464743154179517781e-01
1.013141778413083338e-01
-1.264262035230323544e-02
-9.743084825744358080e-02
-1.205977581014317512e-01
-1.285724034481118827e-01
-1.641070813984502608e-01
-2.138324674711055973e-01
-2.379127781226481608e-01
-2.215733504349939043e-01
-1.841560458394977118e-01
-1.506078830793431134e-01
-1.279761557663600391e-01
-1.075595743722666531e-01
-8.904543756928556819e-02
-9.916483592297764549e-02
-1.541158804948616068e-01
-1.983398493685470110e-01
-1.584504603860902860e-01
-9.593432428058423778e-02
-1.875359304445586850e-01
-4.158580666972901962e-01
-3.642313042684155455e-01
3.614721257412572553e-01
1.392748524698959489e+00
1.731978206441957102e+00
9.691306059302103870e-01
-1.138086666431597505e-01
-5.347100925361418788e-01
-2.004070218287055394e-01
3.040790436275234709e-01
5.267252536724795764e-01
4.493335403754478707e-01
2.608688399077490616e-01
9.670602547652157321e-02
-1.800201515441351291e-02
-9.636808377876746046e-02
-1.423250206121719486e-01
-1.610492455005753665e-01
-1.645656508842278654e-01
-1.552030376672184353e-01
-1.278831426424054118e-01
-9.549540311168447371e-02
-8.777000399272839870e-02
-1.152624045985115725e-01
-1.583207306378126289e-01
-1.967714465556217041e-01
-2.244124358793930518e-01
-2.333359734785469264e-01
-2.098772157311970810e-01
-1.534480248408888470e-01
-9.015893279588318987e-02
-5.773600682164667375e-02
-6.632270693624234270e-02
-8.325495137625160691e-02
-7.750716115012490359e-02
-6.471167109023802377e-02
-7.435133715762379247e-02
-8.273744301754608343e-02
-2.440885340257753847e-02
1.143938918406881139e-01
2.450179956785058788e-01
2.554573260645786048e-01
1.367329232491336644e-01
-1.074019257471381036e-02
-1.016699688296592158e-01
-1.415402441207620210e-01
-1.681442749243199919e-01
-1.853308363895935784e-01
-1.816413971573052344e-01
-1.630095113067214774e-01
-1.379945532633717886e-01
-1.034796297274507282e-01
-6.528208794017686944e-02
-4.721755737092932226e-02
-6.487307223548470503e-02
-1.064185482533005628e-01
-1.404262438515556655e-01
-1.309914282993760171e-01
-6.734349315317630924e-02
-1.436515519575286108e-02
-9.707975886033647084e-02
-3.158405530611174128e-01
-3.530051802926876814e-01
1.909883722450695653e-01
1.138027246014811311e+00
1.615253798028050580e+00
1.058707360832988664e+00
3.587305506624438589e-02
-4.582245350146267882e-01
-1.883253735406481000e-01
3.117845404274552368e-01
5.575874376073846062e-01
5.054514603959434638e-01
3.368373774880518701e-01
1.915175927470541550e-01
1.078741765634873423e-01
6.316537681450788699e-02
5.519593165767361365e-03
-1.117413208585261442e-01
-2.654657184484152666e-01
-3.493427221194742582e-01
-2.918244852933128408e-01
-1.557992310774853895e-01
-5.644422945259557067e-02
-3.727480626684398501e-02
-7.587786159525197749e-02
-1.398395456471281384e-01
-1.940547111210826903e-01
-2.041968390051979998e-01
-1.680925040639761892e-01
-1.210112426409785946e-01
-9.211686231663562818e-02
-7.461191230253816364e-02
-5.089246713095173236e-02
-2.617743474080328620e-02
-2.341964150545580714e-02
-5.550798408410513585e-02
-1.051402415235431209e-01
-1.236802933061175724e-01
-6.065635988787192873e-02
7.907596521738208262e-02
2.095246908771816741e-01
2.309722645063131963e-01
1.342213120727435149e-01
7.529508788324243418e-03
-6.603900983837977801e-02
-8.634938025140767581e-02
-1.081304530878277326e-01
-1.654772975019633552e-01
-2.351500443331253076e-01
-2.640062154719046705e-01
-2.258073947399848458e-01
-1.489957725287437973e-01
-8.768887903407862616e-02
-7.129168657185416813e-02
-9.118372478680202009e-02
-1.272786911784516417e-01
-1.645433811203734775e-01
-1.819286576774973296e-01
-1.534208465516987141e-01
-9.582703235522864460e-02
-1.088618190156514787e-01
-2.636195650541916513e-01
-3.600827442978251636e-01
2.615078847696766795e-02
9.353396573155745575e-01
1.614458299269404540e+00
1.275993549193190635e+00
2.033087381133233118e-01
-5.396066755687937144e-01
-4.231645117833275349e-01
1.283409695370418269e-01
4.936588275655985347e-01
4.892371923074891327e-01
2.976593788252260286e-01
1.328427721387075433e-01
6.124331377390450359e-02
2.823730310551515743e-02
-2.629386280618221244e-02
-9.573211462896032142e-02
-1.344815569021080848e-01
-1.236084428434454652e-01
-8.615293450425913491e-02
-5.632354289809640702e-02
-5.891048019167074296e-02
-1.024375274975914685e-01
-1.688851512878113692e-01
-2.213925356799171518e-01
-2.356809040420878576e-01
-2.173183288508761246e-01
-1.863263302796232534e-01
-1.523729995612250476e-01
-1.063359829937396972e-01
-3.994225928235028977e-02
2.339111030397206248e-02
3.816858744418906435e-02
-1.140563051368315151e-02
-9.406560224862563213e-02
-1.657628938705422716e-01
-1.894047926659861159e-01
-1.339134053336152042e-01
-3.089340159078985543e-03
1.293035559183029481e-01
1.608801754340066503e-01
6.463144415412674926e-02
-7.871098217498125049e-02
-1.727566399154626675e-01
-1.975567856455162086e-01
-1.954280995362383810e-01
-2.029599902784393062e-01
-2.209671316290513221e-01
-2.292166432429902923e-01
-2.092947037264393240e-01
-1.623013537215034219e-01
-1.133720307499654772e-01
-9.143506602994999621e-02
-1.034841120468763948e-01
-1.340027104897899279e-01
-1.632279710911010429e-01
-1.733585534778083748e-01
-1.457686019179372516e-01
-9.549328196733164464e-02
-1.153859356446391149e-01
-2.727582915829953603e-01
-3.604827679229081205e-01
5.949672626844505069e-02
1.021829855048249414e+00
1.724053095500851063e+00
1.333607998467741362e+00
1.760006613372593898e-01
-5.897144281237406416e-01
-4.182972911793082504e-01
1.850929127314985267e-01
5.463558561311535611e-01
5.146709646621451251e-01
3.115706416571556447e-01
1.347274816123631980e-01
2.828555417328152202e-02
-3.336739319570219964e-02
-6.759734457727251122e-02
-8.212014702681197376e-02
-9.436544635778179591e-02
-1.218921244125153597e-01
-1.592459977001968452e-01
-1.808406154191901649e-01
-1.696300577344026506e-01
-1.359380900784485924e-01
-1.088556192906055820e-01
-1.121515081041376122e-01
-1.398094875791204839e-01
-1.568739543206774945e-01
-1.419332375783916855e-01
-1.160717455804180925e-01
-1.054654543994288374e-01
-9.892426900285103408e-02
-6.925327727209419637e-02
-1.632044456236754482e-02
2.717666332456274147e-02
2.382040497495491876e-02
-2.932827514974136601e-02
-8.188006284145210589e-02
-6.435584786420447956e-02
4.578140973718353157e-02
1.890953134783126266e-01
2.608785787453285487e-01
2.044420646773097427e-01
7.047827835008713127e-02
-4.058693275245914972e-02
-8.568398216747466489e-02
-9.716006089484999220e-02
-1.132825970325826020e-01
-1.347945135805410366e-01
-1.471040823433509004e-01
-1.476801626910853593e-01
-1.381460759902890800e-01
-1.127788365180990571e-01
-7.597331197026441219e-02
-6.017626099186416250e-02
-1.006492401069213755e-01
-1.859127502316949843e-01
-2.474634649210122328e-01
-2.108270688481919952e-01
-7.560003257198817661e-02
3.216480980105464182e-02
-5.799369786026280227e-02
-2.906466507033290125e-01
-2.194096126189707119e-01
5.571748600334964774e-01
1.627114415363481337e+00
1.919212367360870530e+00
1.026812522547152717e+00
-1.582431435875569503e-01
-5.790753539384546622e-01
-2.004079362650333374e-01
3.080114697350881947e-01
4.985093392414973734e-01
3.986252461511678447e-01
2.076780343564792741e-01
5.522473839211853447e-02
-3.144491137860903895e-02
-7.949066292462123040e-02
-1.198665735015894129e-01
-1.632373738911742089e-01
-2.048383386248881499e-01
-2.326967839166285412e-01
-2.354444080161644526e-01
-2.163563760043116790e-01
-1.948519543007362631e-01
-1.903577443162955130e-01
-2.089117238809932164e-01
-2.370607261679393563e-01
-2.485737675748457276e-01
-2.340105506696112392e-01
-2.147407476017606232e-01
-2.091171055338413853e-01
-2.037157695111612710e-01
-1.758993180040389070e-01
-1.270172806395464260e-01
-8.288983942031798169e-02
-7.282095161049136067e-02
-1.049183232530523091e-01
-1.477657566698878377e-01
-1.438915984329542097e-01
-6.267692937741575765e-02
5.675530118181035949e-02
1.320326866346497596e-01
1.167300528678445748e-01
4.051523761274394841e-02
-3.920918249275162637e-02
-1.023837878622709252e-01
-1.608746813155079169e-01
-2.135386291873084263e-01
-2.420810318965710695e-01
-2.411234938802938044e-01
-2.227056916905557071e-01
-1.933441510098152238e-01
-1.501738516718440775e-01
-1.000227721591793045e-01
-6.134825301816069359e-02
-4.638938214378102165e-02
-5.687631739888863308e-02
-8.992595526637074677e-02
-1.259924387552661396e-01
-1.264408671949946994e-01
-9.655308753493045681e-02
-1.394102102199731852e-01
-3.170448356155358693e-01
-3.940494189882962073e-01
5.294753084007533528e-02
9.870789578264436148e-01
1.605096544813947812e+00
1.199494225677402159e+00
1.580851514025776727e-01
-4.872099462757731869e-01
-3.185029234668235731e-01
2.064271891034931694e-01
5.194416992556426527e-01
4.915899005332614591e-01
3.385020784011222306e-01
2.860914258276022193e-01
3.448594136315897840e-01
3.475398547199338717e-01
2.009304075892598962e-01
1.170466580318463290e-02
-9.279333072099615887e-02
-1.301701824524384710e-01
-1.620736224917520840e-01
-1.632247374165773091e-01
-9.479534792363383811e-02
-1.169436006653594082e-02
-6.286517105220205959e-04
-6.651263042412187965e-02
-1.411540484171759091e-01
-1.718139439894440235e-01
-1.675649965141158548e-01
-1.646122443145618119e-01
-1.660134623048510338e-01
-1.399025554957262218e-01
-7.436301401407072187e-02
-4.661734921881018415e-03
2.153005632937561586e-02
-1.003258817535553245e-02
-7.047218586900903803e-02
-1.045277857402954758e-01
-5.716913200492203251e-02
8.007617466647110049e-02
2.328679348722054454e-01
2.875050157220335745e-01
1.970511377342346881e-01
2.826509254641687563e-02
-1.103843598627615441e-01
-1.673770900291836894e-01
-1.683340869343793178e-01
-1.678781394619211220e-01
-1.959762992247883473e-01
-2.374373211125824779e-01
-2.564109430083028052e-01
-2.391505544003418859e-01
-2.055753759337730358e-01
-1.806361873225308390e-01
-1.720215677233313811e-01
-1.817345616988867985e-01
-2.120327960425238689e-01
-2.403543639960782630e-01
-2.188967661702390377e-01
-1.427267555986446723e-01
-1.087294388985023397e-01
-2.281473683309745426e-01
-3.993141298918578830e-01
-2.438833333201258224e-01
4.650693993416725180e-01
1.266167699847497996e+00
1.332372362077477002e+00
5.352079626399682821e-01
-3.013945051935980057e-01
-4.367104366728137288e-01
1.205931610885474514e-04
4.227651348076507665e-01
5.118085664446176963e-01
3.538709311840027016e-01
1.646390467646814404e-01
6.124442041116438806e-02
3.307703584622219417e-02
2.270891969689996237e-02
-9.927153745583210814e-03
-7.639929442917194058e-02
-1.554990253614773332e-01
-1.950631018355496737e-01
-1.604060129495930853e-01
-8.206499723366819654e-02
-2.743835521976835737e-02
-3.759605052328886254e-02
-1.056153435989511530e-01
-1.908128299229470137e-01
-2.435561266885944709e-01
-2.401716746918289291e-01
-2.012208662257035929e-01
-1.610536607877557091e-01
-1.270287106511671926e-01
-8.849053981038720873e-02
-4.992984188048889271e-02
-3.094515122177067534e-02
-4.578811989658599507e-02
-9.139160493948676744e-02
-1.368976559899632850e-01
-1.274896464055884360e-01
-2.879316466158898802e-02
1.209991880312256546e-01
2.215260413997187372e-01
1.919317259795887409e-01
4.563287723597705958e-02
-1.164690008876337335e-01
-1.791592348916103694e-01
-9.485607458293103533e-02
5.892967109577191415e-02
1.192302269277373955e-01
8.684696369091015125e-03
-1.626739977936280668e-01
-2.363276944141823876e-01
-1.834719813992152226e-01
-8.777341409510625025e-02
-2.582403536352103485e-02
-1.775162195328367637e-02
-4.984181763505393659e-02
-9.558365531769999479e-02
-1.157731364741001190e-01
-8.553747055433236213e-02
-6.294341507112916068e-02
-1.746691127549840628e-01
-3.975151705363387244e-01
-3.569396314670921777e-01
3.522302944193533847e-01
1.420032930903860624e+00
1.815483186749946576e+00
1.020201786429450586e+00
-1.691548315949890635e-01
-6.353165676409691098e-01
-2.495372590789073364e-01
3.127417466486676068e-01
5.554250010212875566e-01
4.932021151383414459e-01
3.280552027903823054e-01
1.831466995679904286e-01
8.978428565102559988e-02
3.408461857685948088e-02
-1.878743686081607578e-02
-8.912194693011782354e-02
-1.556674483557332622e-01
-1.812858673930377584e-01
-1.638795144862441600e-01
-1.382335714322083242e-01
-1.254276906239088774e-01
-1.142294247943505953e-01
-1.007001452220401688e-01
-1.082591168891017253e-01
-1.520094890206057092e-01
-2.087070849498112446e-01
-2.353168302266911982e-01
-2.065208651210067026e-01
-1.337750797143544279e-01
-5.627439849948762118e-02
-1.435852703701035946e-02
-2.561961410452108859e-02
-7.452361135995458352e-02
-1.220020065680421234e-01
-1.340799028749441735e-01
-1.001147841226040225e-01
-2.550710067465036812e-02
6.800558743478082868e-02
1.284263574331289959e-01
1.030289691083449977e-01
5.778030347259606458e-03
-8.752972211563359028e-02
-1.305554075217119359e-01
-1.473791575385789976e-01
-1.754052274062761207e-01
-2.143443523391458660e-01
-2.394383976460394137e-01
-2.328545032785759861e-01
-1.941633655120849622e-01
-1.380197015979093556e-01
-8.803921787287398437e-02
-6.369573036324910342e-02
-6.782258177477126782e-02
-8.671243129783157144e-02
-1.001823553857597027e-01
-8.794363607630316382e-02
-4.065779077385670709e-02
-7.582449675676443401e-03
-1.105331743515346327e-01
-3.559545810008213906e-01
-3.845810943755905709e-01
2.697128399161595191e-01
1.375702598748465677e+00
1.868884538899976411e+00
1.100096633252529266e+00
-1.784528178536985976e-01
-7.340443805588148241e-01
-3.198695390720674991e-01
3.624204292730516253e-01
6.897562055942642045e-01
5.927054649468033176e-01
3.142405691236581089e-01
7.840073541862321860e-02
-4.421773072006401906e-02
-9.441203534663281105e-02
-1.243757867003976170e-01
-1.550810346451000354e-01
-1.851575034729172065e-01
-2.032257125337506576e-01
-2.024306436638169393e-01
-1.918070736085863981e-01
-1.892601497960158252e-01
-2.048338654467847797e-01
-2.319920156145018619e-01
-2.530220490956959223e-01
-2.539633993129077338e-01
-2.393466215705494227e-01
-2.317461540549867749e-01
-2.434516098260097461e-01
-2.388868919242420896e-01
-1.537764578341031529e-01
5.303699467236735673e-03
1.178934736851832421e-01
8.012684234844119624e-02
-6.281074912799168575e-02
-1.803719211069605699e-01
-1.931235433613904262e-01
-1.032127901037766943e-01
3.581408019700695056e-02
1.379334503428669145e-01
1.315177403587057814e-01
3.054680660250863600e-02
-7.207827383680232014e-02
-1.094279939105420457e-01
-1.058477582680488471e-01
-1.165311064182317224e-01
-1.456423441479831327e-01
-1.588746567369444529e-01
-1.469453005661246203e-01
-1.375083427149954018e-01
-1.476725874452069209e-01
-1.532014558541965332e-01
-1.223740108850811664e-01
-6.891429727658990312e-02
-4.625691776218626705e-02
-7.998967273692579594e-02
-1.211096060494479959e-01
-9.730860659394460765e-02
-2.870957745249546472e-02
-5.486810666532273423e-02
-2.484699574610573780e-01
-3.553982074103715361e-01
8.750176444718517355e-02
1.084320665318921018e+00
1.802971433389754408e+00
1.417306658060046853e+00
2.499952490717773645e-01
-5.657519434555066118e-01
-4.767198843140292852e-01
6.167531564300256230e-02
4.060488711360500380e-01
3.954455385422199210e-01
2.324614443401366026e-01
1.021160798128413205e-01
3.391990159464472465e-02
-1.171321450061978131e-02
-5.952036508177649399e-02
-1.170786687790558306e-01
-1.857887483401594875e-01
-2.501903277726379993e-01
-2.789483768800602448e-01
-2.571806268616184665e-01
-2.130472663097447983e-01
-1.912526983481848408e-01
-2.017108742105005736e-01
-2.176509308808908527e-01
-2.216740718989145542e-01
-2.246195347317083146e-01
-2.354325645827046176e-01
-2.425980734252410620e-01
-2.355084453931902688e-01
-2.170052351228315413e-01
-1.835204173348680412e-01
-1.223308144991004237e-01
-4.691228257300841809e-02
-9.508017486687770498e-03
-5.086665821609866883e-02
-1.382629808099559710e-01
-1.712840442455492718e-01
-7.422988937916712160e-02
1.098355642873275195e-01
2.436994712483037118e-01
2.320073918644809385e-01
1.096683097376868754e-01
-2.027507336675837823e-02
-1.008549905976768718e-01
-1.371633340334373619e-01
-1.260409663703560834e-01
-4.228041977768581122e-02
7.561036647204459615e-02
1.092935443456413552e-01
1.318197510951323558e-02
-1.001684408850912755e-01
-1.153349891884662554e-01
-6.055321902457254379e-02
-3.300988305028686870e-02
-6.535914030434755717e-02
-1.098659998589899961e-01
-1.040491403967220146e-01
-4.019752707601059044e-02
-6.009769790651058388e-03
-1.314349392532771221e-01
-3.811123479524383129e-01
-3.797879622353821927e-01
2.881798458260705353e-01
1.370542964224930271e+00
1.890243249305886719e+00
1.264814965415070214e+00
1.320340335999332926e-01
-4.496220399277702229e-01
-2.287189722832815297e-01
2.540187046805970628e-01
5.000869709050963507e-01
4.547740976743683272e-01
2.993931104420762268e-01
1.726267595108625652e-01
1.004334324199379902e-01
5.304447190837621035e-02
2.841016616792754051e-03
-5.613036166530298993e-02
-1.135786170573211407e-01
-1.501656648304637853e-01
-1.488544728889146795e-01
-1.167189181200271181e-01
-8.499333545707299375e-02
-7.557694563365056906e-02
-8.311223534624921638e-02
-9.628199750308558125e-02
-1.173704255730524670e-01
-1.489123779212047638e-01
-1.728374264650544834e-01
-1.615342936842373012e-01
-1.127327024720234383e-01
-5.981358891332221039e-02
-3.579768794280562688e-02
-3.428363286936799564e-02
-2.513637924761899511e-02
-6.315458991555736312e-03
-7.740456836844399058e-03
-3.004242063941155519e-02
-1.678391391372966238e-02
7.307590779138140036e-02
1.827741283754689972e-01
1.999944379729229615e-01
9.345271041160485570e-02
-4.215882629933296460e-02
-1.047149579220879451e-01
-9.698625559997560430e-02
-8.671017179919419948e-02
-1.075147498560551917e-01
-1.392705186514946181e-01
-1.489578664529438989e-01
-1.275577359438009872e-01
-1.155838860139334623e-01
-1.768038613144884974e-01
-2.943018534805049158e-01
-3.432111536589274037e-01
-2.521372631872059178e-01
-1.158021472249388395e-01
-5.092109405544269218e-02
-3.786270431171206985e-02
-1.126453686200095707e-02
-2.619961355129803507e-02
-1.891526288114219190e-01
-3.781527224233863227e-01
-1.798826451910030821e-01
6.099064061300830675e-01
1.438547797828258812e+00
1.434245480156213448e+00
5.442363182111833453e-01
-3.158358636596032554e-01
-4.180944560517002584e-01
3.250764318518918616e-02
4.218135342142652067e-01
4.771065224194632748e-01
3.368861845556756496e-01
1.998670170715815264e-01
1.139700951171753046e-01
3.131876604455437890e-02
-7.046458014317788510e-02
-1.599712416256284242e-01
-2.007347987988727100e-01
-1.871964698982916397e-01
-1.390885521799345992e-01
-9.052266008040404932e-02
-7.844866556002767777e-02
-1.103036293576836330e-01
-1.491003891376025958e-01
-1.570748219517451305e-01
-1.450264516033460127e-01
-1.548668187662369522e-01
-1.986007505308098053e-01
-2.321459394174361368e-01
-1.960265907360279891e-01
-8.996755858705242359e-02
-5.883727444524948155e-03
-4.910482510895907565e-02
-2.011422354922931810e-01
-3.133592526203676787e-01
-2.843940721520026860e-01
-1.726148354317323941e-01
-7.602819909164608425e-02
-7.563213437592596761e-04
7.780234020946305562e-02
1.195513802959452671e-01
7.392990867554095902e-02
-2.426452069695697253e-02
-9.420611398441136597e-02
-1.201261611240585225e-01
-1.492355024383894557e-01
-1.938298592072204840e-01
-2.127289226055388283e-01
-1.878816900794698097e-01
-1.525135189893173093e-01
-1.374933714785215866e-01
-1.340661911614858814e-01
-1.138124934935791921e-01
-6.824484207201379771e-02
-3.214711792539920454e-02
-5.665654953494184132e-02
-1.389494160455487792e-01
-1.993395418897950244e-01
-1.712452987769600421e-01
-1.233148873937503498e-01
-2.215775593261453680e-01
-4.437956582585144694e-01
-3.652278387927593850e-01
4.282991644235760731e-01
1.532672701074080379e+00
1.846185623523258545e+00
9.434794504331351916e-01
-2.395922450278435700e-01
-6.029158480864535985e-01
-1.534592973006871086e-01
3.599498878505437149e-01
4.906941010383594759e-01
3.511388306264097703e-01
1.927895068915292387e-01
1.022471167701997918e-01
4.234005482839217627e-02
-1.840138118032951312e-02
-7.748884400960892593e-02
-1.315206632299869283e-01
-1.843031082068779802e-01
-2.287294067677431708e-01
-2.447663337120613014e-01
-2.250378171023946217e-01
-1.944439925489070409e-01
-1.885600346276359029e-01
-2.102526190301746700e-01
-2.267690099288989791e-01
-2.169216648900162137e-01
-1.968420306171919654e-01
-1.905268867137767941e-01
-2.000587197323336897e-01
-2.094293403854616542e-01
-2.009119616025250854e-01
-1.705534099480649768e-01
-1.317411811899190932e-01
-9.673763050403322294e-02
-6.343590119480276013e-02
-2.838208880117137900e-02
6.580746366435385672e-03
4.827278899738531720e-02
9.936825627116642468e-02
1.227679024833086413e-01
7.175833982991167148e-02
-2.849751622361069991e-02
-9.349595162389527647e-02
-8.834569473456263533e-02
-6.128482822065484115e-02
-6.450227105432161656e-02
-9.927669965584277889e-02
-1.401931860747887004e-01
-1.668654897087292199e-01
-1.634863104143910728e-01
-1.188367230749967501e-01
-4.568700807131762659e-02
1.490361832869133846e-02
2.867073452759534569e-02
2.625270927773440399e-03
-2.422305775245136086e-02
-1.519237551477303078e-02
2.834537130426037499e-02
2.984876325372805977e-02
-1.259259400842093202e-01
-3.850163701956629270e-01
-3.442642750590440559e-01
4.110240567692841629e-01
1.550006537615874036e+00
1.995151676648989625e+00
1.186032096895522470e+00
-7.898617417011527531e-02
-6.291731354146178345e-01
-2.818645816090247225e-01
2.776109370480750460e-01
4.973974375260313829e-01
3.788120031176191449e-01
1.766891392438085240e-01
5.436287631787097702e-02
1.728376182853325754e-02
5.469021533644570499e-03
-2.830095755378280245e-02
-9.538780428877399742e-02
-1.716174595014049176e-01
-2.163984896857459594e-01
-2.122520681194745296e-01
-1.815864922069422849e-01
-1.583171577452912870e-01
-1.541139815758955089e-01
-1.519766990692724695e-01
-1.244591392321165862e-01
-6.150464889278685343e-02
1.122753670040527348e-02
4.200594460449044026e-02
-1.506950108955415826e-04
-8.084091272739804546e-02
-1.281866709904529167e-01
-1.107123173232375662e-01
-6.130035912617129434e-02
-2.817086036647150488e-02
-2.863441131409560914e-02
-4.745417904757734395e-02
-6.019501133078696692e-02
-5.253624822176276160e-02
-2.344940034767625803e-02
1.520169517686500299e-02
3.522060409229622185e-02
1.333213697827123970e-02
-3.146840026215386166e-02
-5.645238795952371019e-02
-5.872672868711695249e-02
-7.631272521196200143e-02
-1.248528269693978260e-01
-1.804442341149636309e-01
-2.197171853980824374e-01
-2.333699037746457261e-01
-2.124834148101860387e-01
-1.585521981353584797e-01
-9.532114497881639947e-02
-4.535640631068602741e-02
-7.591999038165394773e-03
1.509889960235155995e-02
-2.107979694842445489e-02
-1.541158362033847040e-01
-3.241534226411970088e-01
-4.269651498630915865e-01
-4.791448230403811959e-01
-5.191236177927917028e-01
-2.931188529741284854e-01
5.335082643032122984e-01
