-7.397025993800187757e-04
6.170968982718148810e-02
1.107211917903996312e-01
1.122583596675770373e-01
9.261479727930366224e-02
8.437447047540690137e-02
8.792479804367885066e-02
8.577714454396101473e-02
6.554945341200316133e-02
1.775286132743683978e-02
-6.846881775101569534e-02
-1.822552140263667964e-01
-2.568524128497169379e-01
-1.965165679293806034e-01
1.154790607355515863e-03
1.860503067061376192e-01
2.134125567283347846e-01
1.160776878241145116e-01
3.219870667003893461e-02
3.139003600329177968e-02
8.537161822794311905e-02
1.433409242375566217e-01
1.739691567675516470e-01
1.651099090405388492e-01
1.261199977716822018e-01
8.669981161347371790e-02
7.046419910658219266e-02
7.099651250681610071e-02
6.994325829224613822e-02
6.953454163823359624e-02
8.527848936636046873e-02
1.167279115864459371e-01
1.468221597716946325e-01
1.609849335179732721e-01
1.514167485124843782e-01
1.086763661789373892e-01
3.119501772557171926e-02
-3.078183042131034386e-02
3.659485075502373619e-02
2.693318929591410060e-01
4.116520029483733967e-01
3.459995268131099005e-02
-8.537572663139625373e-01
-1.474837053358041716e+00
-1.063103066652056450e+00
5.539376329193318460e-02
7.586924769996193918e-01
5.065169403659154357e-01
-1.564444443860473488e-01
-4.731390559501881810e-01
-3.084651816862342688e-01
-1.853625421061388945e-02
1.102731229742161811e-01
8.321283544867713600e-02
3.382353054119258129e-02
3.240041940723611957e-02
5.339143289748330551e-02
5.096038274419313618e-02
2.690459215832499695e-02
2.259034795743907961e-02
6.319944899796874072e-02
1.248910799980906677e-01
1.463125308814609560e-01
7.599262345191265533e-02
-6.546746002636533168e-02
-1.852896134963445407e-01
-2.107263583851707589e-01
-1.545114621525036924e-01
-7.326997734363002723e-02
-4.551791828463244531e-03
4.510110713082227801e-02
8.399832083676025962e-02
1.174868926827127014e-01
1.409056595630253095e-01
1.467953139846467359e-01
1.325731707907177592e-01
1.022266698402277130e-01
6.362137633575144779e-02
2.775399919458696255e-02
1.466763434118129213e-02
4.151257079697014823e-02
9.082443700208178705e-02
1.195968673149188921e-01
1.151345569446971251e-01
1.061911654116529657e-01
1.081561412583028764e-01
1.024026895955947591e-01
8.108794712098052471e-02
6.197105847821610808e-02
4.169226475817473798e-02
-8.403588942693187430e-03
-4.961333667546334592e-02
5.929568036733539466e-02
3.470325561865583719e-01
4.646428364281227630e-01
-6.199275480087781953e-02
-1.073030877531641281e+00
-1.611332555427405167e+00
-1.005743293729000287e+00
1.588044131447849949e-01
7.289199347671456719e-01
3.837612550317450744e-01
-2.143844556656955280e-01
-4.237063990475682385e-01
-2.349106191093068285e-01
1.689583843342255809e-02
1.200325802110328716e-01
8.615539368490097993e-02
6.905972605846400630e-03
-5.234868789253711852e-02
-6.399290520684235151e-02
-2.479213682735822988e-02
4.891387912809439659e-02
1.283642374199100433e-01
1.859283551137575485e-01
2.008269463285629608e-01
1.563657942260484601e-01
5.179829778368402055e-02
-7.731440310814582939e-02
-1.690765669015274475e-01
-1.723252518104646525e-01
-7.799125050910660217e-02
6.501401812316459639e-02
1.720717164716334124e-01
1.926273620304103928e-01
1.518759439188617499e-01
1.089468840104768355e-01
9.477394272924785645e-02
9.925439392736402910e-02
9.926556801618668935e-02
8.684950154235775155e-02
6.955829921445028097e-02
5.456124760377304567e-02
4.633750767161843448e-02
5.296454863228349658e-02
7.932284705101008693e-02
1.126325756916076448e-01
1.235556202875567333e-01
9.240488832185755896e-02
3.772217772594108065e-02
7.753029460358094350e-03
3.057055335642275967e-02
7.531239708469496252e-02
8.153118872294565223e-02
5.061192387409548660e-02
9.711061573616966425e-02
3.158828120013048024e-01
5.154538045447181194e-01
2.360617080638467424e-01
-6.572237645577051479e-01
-1.467460439519392423e+00
-1.276173362062435812e+00
-1.664215145794361306e-01
7.511079541345669908e-01
6.999627524304207205e-01
4.490495188688338468e-02
-4.124948627175913929e-01
-3.911669763466028571e-01
-1.623945642059360095e-01
-1.916948276835635928e-02
-3.980652725983318055e-03
-2.317609867314493477e-02
-1.198286569225950199e-02
3.000817576179997184e-02
7.684234706314745089e-02
1.102952238865939766e-01
1.312015975693798797e-01
1.487993043264380921e-01
1.573826643735329600e-01
1.308770929053827969e-01
5.335611501991809058e-02
-5.213214928311343116e-02
-1.403353103227207022e-01
-1.787738802452694398e-01
-1.539642300095694083e-01
-7.017886605316181470e-02
3.678444971937291919e-02
1.128500852839187524e-01
1.319721030836346343e-01
1.117296082234397053e-01
8.187528357879401975e-02
5.721867318630787652e-02
4.224068020004421997e-02
4.544184004278523092e-02
7.539100661463135622e-02
1.219166633096812891e-01
1.555122953933624486e-01
1.564552904060749206e-01
1.348633957683245121e-01
1.117837025921535055e-01
9.336550444786512193e-02
7.562703627156079633e-02
6.290776090783688212e-02
7.281139157461784250e-02
1.227873798778235104e-01
1.939934577744519550e-01
2.048057762481934330e-01
8.106854282797583411e-02
-9.291424877531870297e-02
-7.989899013361674573e-02
1.952080864522146297e-01
3.630435617739488641e-01
-8.538851301453923015e-02
-1.030740531879343447e+00
-1.551741404277873659e+00
-9.575328196502679301e-01
2.178466288432586440e-01
8.138509791086016021e-01
4.575852730861295070e-01
-1.935139792170855744e-01
-4.543237606939163897e-01
-2.955945078276222548e-01
-6.498372582721131940e-02
2.641526525406203210e-02
1.652268851627659157e-02
1.702102868515334433e-02
7.154819050579526440e-02
1.392909617912972131e-01
1.537669850956547291e-01
9.601236129023660304e-02
1.605825990005551110e-02
-2.076314769047259146e-02
-1.060368128107416720e-03
2.877809084006856949e-02
1.794792470110426891e-02
-3.478286675859644517e-02
-9.009142804782348246e-02
-1.099977172256296903e-01
-7.092490315684990554e-02
2.289253038780124025e-02
1.130515940004525044e-01
1.323719632421320458e-01
9.433614433460224546e-02
7.632095023609797302e-02
1.137543649083960079e-01
1.675288823621763623e-01
1.896552509464333458e-01
1.739155470843524176e-01
1.418201206011460436e-01
1.133626293808920604e-01
9.885094046290200664e-02
9.792936544622367345e-02
1.006383005968218697e-01
1.022758381916224757e-01
1.159704919797340805e-01
1.549912382028085789e-01
2.052467760341276926e-01
2.376158612085947919e-01
2.436936503632800843e-01
2.288268810046802659e-01
1.802464132509529748e-01
9.620829067544187096e-02
5.625705468064916281e-02
1.778986329290131174e-01
3.970844162750114537e-01
3.481012979310346700e-01
-2.632059888566635197e-01
-1.072477626324724431e+00
-1.255745977916588929e+00
-5.858211435350777485e-01
1.761556210852628923e-01
2.674534345024376369e-01
-1.793325303628240663e-01
-5.202875224921889030e-01
-4.465924560072702665e-01
-1.529554517628327059e-01
6.731175882895118479e-02
1.143769934819705569e-01
4.899374427451818476e-02
-3.500261161462507598e-02
-7.921292678598071402e-02
-8.199932140959707849e-02
-7.487248529925177865e-02
-7.070079781324968560e-02
-5.230260046247599964e-02
-9.959555321782654486e-03
3.528722629952675549e-02
5.202211282301241746e-02
3.047666966287511381e-02
-1.582910297372605926e-02
-6.915312699910204641e-02
-1.035162851129039219e-01
-8.051107262271889331e-02
6.434285880581933417e-03
1.015942088613740607e-01
1.425588859310022161e-01
1.257999849561581562e-01
9.258994088760549857e-02
7.705399167882162614e-02
8.247164417667646186e-02
8.909623152798304413e-02
7.830640572123295784e-02
5.313076102337700030e-02
3.302931551811946059e-02
3.352808067632705863e-02
5.761916899977543444e-02
9.759075091592733786e-02
1.360609425085478330e-01
1.544287454439923490e-01
1.479560797863931632e-01
1.283493671158147942e-01
1.104150577049520937e-01
9.340126980785960764e-02
5.290629238997202749e-02
-2.796675739463373028e-02
-9.396716055262001321e-02
-1.278951219321024235e-02
2.630459250332863319e-01
4.685143994813117385e-01
1.335580851774371969e-01
-7.940389271546566263e-01
-1.541374986756257393e+00
-1.233788874926602386e+00
-7.072427337166778405e-02
8.005963321985140047e-01
6.790890752951009857e-01
4.366077245441260524e-03
-4.061944716057846461e-01
-2.777733489614488960e-01
8.415781933907426349e-02
3.000336635771225779e-01
2.654304371706533439e-01
1.163779228595460402e-01
3.778098687055770483e-03
-3.721204919428995617e-02
-3.888554553559697008e-02
-1.438058712097167388e-02
4.852805452399957392e-02
1.397489171688992560e-01
2.088791322181621501e-01
2.076144888782670006e-01
1.338954391947111688e-01
1.916450855916709134e-02
-1.035633685089435568e-01
-1.953953713221366351e-01
-2.066294291081436085e-01
-1.191954292601971749e-01
1.932819697185728450e-02
1.362226655101582140e-01
1.930883189044218795e-01
1.913671702143886211e-01
1.517312222035264169e-01
1.039384381179100925e-01
7.304015465464455681e-02
6.249295336108590115e-02
5.696139214311076587e-02
4.721440438808023610e-02
4.820899338293399561e-02
7.822899630553961647e-02
1.224729657285313078e-01
1.430522354373583160e-01
1.274951347399877755e-01
9.962665046458306362e-02
7.993725622310390855e-02
6.544302614512657879e-02
5.357576884576270571e-02
5.042107411728136146e-02
4.175458942656086470e-02
2.699454375628467136e-03
-1.973729431210725221e-02
1.062558403530838580e-01
3.834369983551504935e-01
4.561610590137484267e-01
-1.123367772605579906e-01
-1.113440387972263856e+00
-1.590371800797058643e+00
-9.287397835935256030e-01
2.335062560035207069e-01
7.456855878821062600e-01
3.403010147858685497e-01
-2.611821741055305734e-01
-4.050182026171594840e-01
-1.430885216315669617e-01
1.007332893602461421e-01
1.044404161903098593e-01
-1.632118170188722253e-02
-7.289120428717807409e-02
-3.071910223230589487e-02
3.234710724115949509e-02
6.635720828247773651e-02
8.300256225512901709e-02
1.087123109601239590e-01
1.498650408211965601e-01
1.788982760906767666e-01
1.401577660563537997e-01
-1.677227850364186937e-03
-2.047595722113802474e-01
-3.631039698269926674e-01
-3.889217226567729946e-01
-2.750279860347095706e-01
-8.660292592278898138e-02
8.745111010573382304e-02
1.827113993757403798e-01
1.861387755193358584e-01
1.327113942226476051e-01
7.507757209731921733e-02
4.457320302986531035e-02
3.642848918437707056e-02
3.207609697852831926e-02
2.780264593309004703e-02
3.537506574207143623e-02
5.970890246884050928e-02
9.017411757531515470e-02
1.183785464573117729e-01
1.457931127978979446e-01
1.642324729676395978e-01
1.527426423291756152e-01
1.108110991627172942e-01
7.244323147413345154e-02
6.907200845782078547e-02
9.432792945178980482e-02
1.100067104729591932e-01
8.639384038320443993e-02
6.995179122872109689e-02
1.784861074206648968e-01
3.921022408310049223e-01
3.630296786943706944e-01
-2.574046492908741435e-01
-1.142288043292482236e+00
-1.362362212136943418e+00
-5.284403834873229178e-01
5.539125039568622011e-01
8.497474811181163767e-01
3.181562707961311798e-01
-2.811923385328634062e-01
-4.297067692962758811e-01
-2.465994379044236795e-01
-6.621543458734871490e-02
-1.928504380706812585e-02
-2.614408351580350606e-02
2.530224040115377007e-02
1.618631746264470317e-01
2.938793400484313034e-01
2.861094513486974189e-01
1.214266011016951474e-01
-5.065435115487464113e-02
-9.553885338217719958e-02
-4.687277716546497941e-02
-2.298496760575203385e-02
-7.113098087382363488e-02
-1.442578845723330727e-01
-1.804889514673267137e-01
-1.546700538880727005e-01
-7.131233880884683962e-02
3.911603534315610808e-02
1.192774381545932544e-01
1.279747392775403281e-01
8.458166283392629103e-02
4.316282361873219342e-02
3.520084252806584407e-02
5.748113706964343150e-02
9.783212502567172064e-02
1.460406689104848388e-01
1.816137258392147291e-01
1.769764102893192637e-01
1.295085922602093875e-01
7.544793992079509848e-02
5.181328752972218232e-02
5.432487152772125932e-02
5.324298567214991867e-02
4.225180260709916064e-02
4.617772738467281618e-02
8.008848756692002469e-02
1.226135871293486529e-01
1.328597043254699239e-01
8.526306618632188694e-02
1.139008515551630935e-02
2.660433150743039127e-02
2.333243207051082790e-01
4.766579199963155156e-01
3.017739270091411297e-01
-5.082316937591523365e-01
-1.342132049511383762e+00
-1.243910065428413869e+00
-1.823756362399309439e-01
7.576958906986640541e-01
7.157149381271767918e-01
4.569072788759925841e-03
-5.191331771218768987e-01
-4.988193429756234143e-01
-2.093441808422794592e-01
-6.866029888145525062e-03
3.164985771295446282e-02
2.727905751829676900e-02
7.919243590541777400e-02
1.632221712416173365e-01
1.877471340936967548e-01
1.210834457667601671e-01
3.890629239737908307e-02
2.998889569723373061e-02
9.142467463070712286e-02
1.414200293961414279e-01
1.114389337432442895e-01
1.065965561391323847e-02
-9.221737900808439636e-02
-1.359210372110788156e-01
-1.079649920303751287e-01
-4.022274375598370449e-02
1.762023197600569649e-02
3.551946575386853017e-02
2.989643028336524261e-02
4.453010963658917548e-02
9.580958920372888155e-02
1.479891716471726792e-01
1.552742823375015679e-01
1.148295846816388549e-01
6.069887641733514444e-02
2.198153295313234196e-02
8.617849479742180352e-03
2.175055089577663386e-02
5.482607884339230769e-02
9.224138184805553975e-02
1.180531608628881263e-01
1.232980847876267855e-01
1.115350834620238429e-01
1.035574618149817244e-01
1.162784490059965009e-01
1.256331091615384143e-01
8.027905173981256248e-02
-2.561445305480389983e-02
-9.981376407593552103e-02
3.293325088139457263e-04
2.736643340650421474e-01
3.810485399307743104e-01
-1.237122407807855207e-01
-1.102235961584187018e+00
-1.638260557081353763e+00
-1.044698447507539374e+00
1.355003027188120268e-01
7.361810718639737461e-01
3.927588415413890699e-01
-2.373323482225611625e-01
-4.891765927995696539e-01
-3.363550221114430805e-01
-9.193750462340448404e-02
5.129505696683688692e-02
8.663288794494254652e-02
6.474103417831827967e-02
3.117832434723793664e-02
1.545748286526059563e-02
1.945239441084572335e-02
2.961573274012286802e-02
4.969447082618280026e-02
9.841453739471331397e-02
1.620080358592834446e-01
1.793084412850584619e-01
1.089466842755624498e-01
-1.223612826884756463e-02
-1.137202940680823310e-01
-1.577839190205309328e-01
-1.335175122306259399e-01
-4.644221544820730657e-02
6.197575344282565957e-02
1.469211149791038729e-01
2.098397944538289428e-01
2.591269600473282142e-01
2.576328132655414382e-01
1.756830136027349720e-01
5.916822334456899035e-02
-1.402148762784626718e-02
-1.576668277598305620e-02
2.778517589315990938e-02
7.875056184015774563e-02
1.119559689832611143e-01
1.226595013827565944e-01
1.221724023025204386e-01
1.168458863194794251e-01
9.988232741573158102e-02
7.454358878242092756e-02
6.680629674461181777e-02
9.179470837593867172e-02
1.159858137865921179e-01
8.425848935867108480e-02
7.473864014849073562e-03
6.644371056838024349e-03
1.956764690366594450e-01
4.404324624776279062e-01
3.159834171455832008e-01
-4.203429625280827864e-01
-1.259504563864592752e+00
-1.285610735521041104e+00
-3.428211086272275887e-01
6.238698635211532562e-01
7.219186842362302903e-01
1.266996794759184253e-01
-3.685783725109724740e-01
-3.696189001167626831e-01
-1.051330494228875923e-01
7.623176724826970230e-02
8.442629130205461796e-02
2.187419394067529124e-02
-2.752038676269204232e-02
-6.310554852243530077e-02
-9.132340758573430362e-02
-7.554466735324036342e-02
5.452134910548328550e-03
1.011477754092821452e-01
1.411227106754144034e-01
1.085237085108968630e-01
3.167295255337290727e-02
-5.911743700571157195e-02
-1.455601887020359086e-01
-2.134557218896687147e-01
-2.332451552256347427e-01
-1.603120980340383417e-01
3.787776573433087116e-03
1.682607344670172533e-01
2.324060443607486870e-01
1.932347568799749615e-01
1.281999258547301401e-01
9.581798454030292234e-02
9.098311215524011730e-02
8.253749748005999309e-02
6.701297109322801315e-02
7.469622415873659882e-02
1.222920632501894173e-01
1.784562107471881209e-01
1.962455102309936250e-01
1.663402043402305575e-01
1.180563933037509505e-01
7.999180561915125720e-02
5.915005550838727671e-02
5.721220912556912452e-02
8.995929423626682075e-02
1.629298549080883118e-01
2.256566043888749984e-01
2.019863227578474196e-01
1.072565030281310838e-01
9.519031854391060699e-02
2.832268457919899229e-01
4.698821664996580272e-01
1.823668226204276932e-01
-7.013774283757359118e-01
-1.462734244087264157e+00
-1.203104483452945406e+00
-6.930147529780153470e-02
7.977846866569173745e-01
6.709369740304794716e-01
-1.777583902491640389e-02
-4.491905399003441879e-01
-3.691520018532697955e-01
-9.585870412200589441e-02
3.794925082425540386e-02
4.510316594186065259e-03
-4.181537858993778639e-02
-9.696834452657518769e-03
6.768136842044249202e-02
1.241565229735083348e-01
1.285391233886669371e-01
9.116601029869164652e-02
4.649475924647566982e-02
1.891217049196544306e-02
-2.213079801223951509e-03
-4.417566044092038208e-02
-1.072645799453079835e-01
-1.537842413567528099e-01
-1.486489753633877253e-01
-9.184055274273641989e-02
-6.246202563279911607e-03
7.580492224488880049e-02
1.163774390535205622e-01
9.822427393013616337e-02
4.494895297896268210e-02
-1.885108875434065440e-03
-1.405796874473478654e-02
1.411418095723211870e-02
6.510018808634238097e-02
1.071345276304444399e-01
1.205466826241661793e-01
1.123434140434760031e-01
9.637860344023191361e-02
7.324913446274904094e-02
4.448814137077952702e-02
2.960196272282524660e-02
4.606615228277456675e-02
8.323108590061172041e-02
1.186842435012051833e-01
1.497118281135996765e-01
1.795628549965202492e-01
1.793175537263307917e-01
1.087740164867216919e-01
8.359804125210616374e-03
3.243240335685037418e-02
2.619954761543548116e-01
4.201100322891796468e-01
9.102874271375686194e-03
-9.629188708724617518e-01
-1.620950994259851896e+00
-1.144529977222987549e+00
6.876364772995965935e-02
8.063404287399037473e-01
5.304416513637068009e-01
-1.626707021290190736e-01
-4.966171768607674508e-01
-3.408423244574194100e-01
-4.522449295789927187e-02
1.120559492689565395e-01
1.223502591004426154e-01
7.471531168428437175e-02
2.192925563092463365e-04
-8.397165540978952791e-02
-1.131146032961993647e-01
-5.384904359322566919e-02
3.748255053224110178e-02
1.017532308319754053e-01
1.378968323220188252e-01
1.414171448603351311e-01
7.453984503293742403e-02
-5.922053253250845334e-02
-1.773735207766455046e-01
-2.004428166049226911e-01
-1.295701277901817605e-01
-2.266000820885514383e-02
6.199127501810485635e-02
9.758695361562075288e-02
1.025851089595506138e-01
1.141302332971922961e-01
1.331814622802872383e-01
1.222610698002730145e-01
7.220871354228181049e-02
3.645587101921942547e-02
6.361742482189552961e-02
1.179575601471884311e-01
1.136728490165610783e-01
2.847662473535820388e-02
-5.907427702489772420e-02
-6.269015487061985192e-02
1.583404704821544245e-02
1.070061095449866689e-01
1.587091253978809291e-01
1.740556461687506329e-01
1.796848197859520768e-01
1.776864420566741376e-01
1.375502824284709491e-01
4.539315628805848379e-02
-2.731917430921839557e-02
6.651227305875379026e-02
3.610570315264252650e-01
5.416258449273183562e-01
1.202015148004793171e-01
-8.574480982780702254e-01
-1.500674770138719305e+00
-1.018774046797642274e+00
1.493232496721152713e-01
7.997754902876761385e-01
4.578326964067320759e-01
-2.364270118834669310e-01
-5.276041333498078245e-01
-3.276573986632762003e-01
-2.451989887457067807e-03
1.669356179028997633e-01
1.658700850810846117e-01
1.034283777817563560e-01
5.994441090117004489e-02
5.593246556702438643e-02
7.705003180823730147e-02
9.570346687843830913e-02
1.021159205006305082e-01
1.217532415925319383e-01
1.686288617294024184e-01
1.935589723992924838e-01
1.299183128246937380e-01
-1.514734538800255152e-02
-1.610756342139910147e-01
-2.355900646081653671e-01
-2.180801568472070795e-01
-1.258752613282979049e-01
-2.719249396322408890e-03
9.541087148304441823e-02
1.360264145258894830e-01
1.292532330684006969e-01
1.069155271476737862e-01
8.839081915289544178e-02
7.051236815128730795e-02
5.076125492888651503e-02
4.332506027502260049e-02
5.563513071371357227e-02
6.982137918316862202e-02
7.190400153039434861e-02
7.909126545637393257e-02
1.120556762887298802e-01
1.523738876896155170e-01
1.545400340135391348e-01
1.072083411719159662e-01
5.771130636281626008e-02
5.287733823426016277e-02
7.665134952799067258e-02
7.368654396916667071e-02
2.723109165633455508e-02
9.574612461347472084e-03
1.414728038422815581e-01
4.137933258409421944e-01
5.079641757358197562e-01
7.989076094104104186e-03
-9.559709991687641573e-01
-1.515302074236739127e+00
-1.001518157762190331e+00
9.556486999097085766e-02
6.788583935286810478e-01
3.859612659093085707e-01
-1.822475370956632423e-01
-3.985263316988846283e-01
-2.360799168062522602e-01
-1.477640289004966689e-02
6.352114966916483363e-02
2.702394022716821803e-02
-1.695280833545839694e-02
-1.404756475243711458e-02
2.097174613977057303e-02
5.395803754943306191e-02
7.352345458451532700e-02
8.790235396439316506e-02
9.871898414280683154e-02
9.195426603034197177e-02
4.821804434924768096e-02
-4.301876317314502762e-02
-1.639944345216889088e-01
-2.585701640555103098e-01
-2.648079427234433791e-01
-1.723082043949291930e-01
-3.690497565037627326e-02
6.998479095405563122e-02
1.210183364113577437e-01
1.374865609653328491e-01
1.435130136694070802e-01
1.343651723718924385e-01
9.807014217819789992e-02
5.055023468388389341e-02
2.759029750505840456e-02
4.440945509973092536e-02
7.695125465790744745e-02
8.637735559304555999e-02
6.023396477805501720e-02
3.212196228355939515e-02
5.333601524743482314e-02
1.269571836007382382e-01
1.846175309117547014e-01
1.641827459699132241e-01
9.323802688832005803e-02
5.307745093337448011e-02
7.379765543675825823e-02
1.046854723843697599e-01
9.261359886987628742e-02
7.644312104402797847e-02
1.745713611068528681e-01
3.914182831503156823e-01
4.156629085665413115e-01
-1.363804179080839729e-01
-1.045647245988296614e+00
-1.403262432761593903e+00
-6.774485437114389219e-01
4.502415542765703105e-01
8.758591227495583498e-01
4.030222573990345225e-01
-2.407743006144664744e-01
-4.436131696558868187e-01
-2.653914229745911180e-01
-7.133739304840780449e-02
-2.579100868172395228e-02
-4.207995407952677680e-02
-1.577242087436270951e-02
5.012296454941052998e-02
1.026178103159847421e-01
1.180051372738584320e-01
1.080901359375485288e-01
9.118721532763801596e-02
7.713257505051597518e-02
6.217264344664670539e-02
3.012398958297575480e-02
-2.590797834479813613e-02
-8.583136435532100206e-02
-1.206665342346085606e-01
-1.158785001328885844e-01
-7.076331215890872828e-02
-1.349360582558753810e-04
6.108112628090446583e-02
8.348819147311219158e-02
7.329834258068715358e-02
5.897090754486399022e-02
6.001432046234184831e-02
8.164891335951904305e-02
1.187029072310861050e-01
1.505670301257298893e-01
1.513957224746261543e-01
1.161685027979388468e-01
6.451760053975194587e-02
1.767315275375461875e-02
-1.417690015904198714e-02
-2.307815204393843384e-02
-1.781847238026471394e-03
4.310439966458567973e-02
9.041762602058002474e-02
1.227161510365640112e-01
1.400671974553353294e-01
1.502481742307987811e-01
1.426429779999450476e-01
1.022666198328300718e-01
8.566661284849383384e-02
2.004729651370225352e-01
3.669263970676150399e-01
2.007660304402869578e-01
-5.273200138059973563e-01
-1.299570584967845610e+00
-1.229711191836522888e+00
-2.455832642300253832e-01
6.601828046138169537e-01
6.540725539441047953e-01
2.667776549289679888e-04
-4.930080650466472925e-01
-4.729490806714894413e-01
-1.932208164238233272e-01
7.224350468195115532e-03
5.319654306980090008e-02
4.337811820880377311e-02
4.715278835255286988e-02
5.797816704195815629e-02
5.611100056257092156e-02
4.443461039021802395e-02
3.517421546428775581e-02
3.590389231017773047e-02
4.972906894948426332e-02
6.978621899409523377e-02
7.136679298685974504e-02
2.686161335396402422e-02
-6.445466395391255543e-02
-1.646681455520251636e-01
-2.145688542032966883e-01
-1.763835204401799361e-01
-7.541056381181794610e-02
1.722165882737803147e-02
5.911738638064067269e-02
7.461764938536731562e-02
1.069123875531081541e-01
1.553824593999642845e-01
1.807718289829529368e-01
1.630384497929691090e-01
1.285801699697392553e-01
1.113021536587943949e-01
1.096199563730126253e-01
1.011111287413135745e-01
8.317176756476377109e-02
7.732816232079109398e-02
9.895110176210421271e-02
1.368395734423037413e-01
1.650299448354580201e-01
1.722062299499023674e-01
1.702124777460235772e-01
1.643106222339700551e-01
1.309718623748821198e-01
5.348566652828534718e-02
-1.080091120830050343e-02
6.966404149516157440e-02
3.320347267478744313e-01
4.873136359868868173e-01
6.848293960149426374e-02
-8.870108559851586083e-01
-1.520172878012252760e+00
-1.067477473657543641e+00
4.311894897550930250e-02
6.605800755360425880e-01
3.547823163949183067e-01
-2.472836294387219525e-01
-4.485852997688439259e-01
-2.140718063673543448e-01
7.697871333284314610e-02
1.714972031480520853e-01
1.041374315635782422e-01
2.478269297590878981e-02
1.353897888846413052e-02
4.169869920070583963e-02
4.971513937966559604e-02
2.930976487817198162e-02
2.511892805945415211e-02
7.619441498024816239e-02
1.680137303884903788e-01
2.322288038204972926e-01
1.964993802755804486e-01
5.466423660778489679e-02
-1.128369104056987510e-01
-2.045327502171487843e-01
-1.809016046069821804e-01
-7.821726154176364409e-02
3.792464287298641379e-02
1.187746184048301817e-01
1.515504162868961391e-01
1.515113033539722265e-01
1.362216070186466066e-01
1.096747668069171788e-01
7.108135841952795131e-02
2.829402066356626749e-02
-2.334281507028248496e-03
-6.200710512743074464e-03
1.804118571257994769e-02
5.623914985278388040e-02
9.279487261817920274e-02
1.235240086571832430e-01
1.463693494886368907e-01
1.504842201919127376e-01
1.308654197646552386e-01
1.046458323354634984e-01
9.476847057599933899e-02
9.770338707347651919e-02
7.966474168847273440e-02
2.493670968129357846e-02
5.733152537419555078e-03
1.526125625854967416e-01
4.287881843539678717e-01
4.464034575394146276e-01
-1.912022052875711753e-01
-1.178170242651869204e+00
-1.538089083155896430e+00
-7.852564402028739954e-01
3.345367031993978779e-01
7.500064975175811943e-01
3.243837564535703155e-01
-2.422367368369786611e-01
-4.050827805513587121e-01
-2.258159534585006956e-01
-2.403376487592259053e-02
4.437174066755585761e-02
2.762155767102445619e-02
-2.008350446806701772e-03
-3.929726967430896556e-02
-8.247859838900298279e-02
-8.064546965908367393e-02
6.320675816530343764e-05
1.143564931674644347e-01
1.911882572868379981e-01
1.986231072067971282e-01
1.350019799251922781e-01
1.948271804806989832e-02
-9.624552758442928013e-02
-1.550127640998719969e-01
-1.340848852938864577e-01
-4.748157451690375452e-02
5.536443809170271679e-02
9.822116114975469603e-02
6.360684810361065533e-02
8.052353224427311051e-02
2.918305517006389849e-01
5.268057684170260879e-01
2.841576901693222412e-01
-6.190314197872621715e-01
-1.466725691140795540e+00
-1.279601595555408977e+00
-1.237242473260172226e-01
8.511626780661452063e-01
8.281833182512319258e-01
1.594500924125275554e-01
-3.364149743255604452e-01
-3.419234089329217796e-01
-1.128157946323678495e-01
3.335926740813476010e-02
3.730210514656892573e-02
1.724901840164342129e-02
6.013974449190017529e-02
1.440859968392299295e-01
2.011792784370815823e-01
1.947772158806192755e-01
1.421965838443820240e-01
8.906490071292674782e-02
6.270956757491281952e-02
4.613526806712908712e-02
2.835381399426594329e-03
-7.198624297979418218e-02
-1.354451903219040243e-01
-1.370493897918135806e-01
-6.621185581263465403e-02
3.996723531898712517e-02
1.257953379200262567e-01
1.543915960714263569e-01
1.250733392548235290e-01
6.592373041741070305e-02
2.014446741667999530e-02
2.313597666480846082e-02
6.674508883777513502e-02
1.037759314799319155e-01
1.095296165935578797e-01
1.061142804038480436e-01
1.087640636196297583e-01
9.399005770867036036e-02
4.674364354245655329e-02
3.204424396627583629e-03
1.261309038806683949e-02
7.213363453392435121e-02
1.307785399958508177e-01
1.541533877638771310e-01
1.579229750729544413e-01
1.662101360950915818e-01
1.604481829298661788e-01
1.110224574011416526e-01
6.717063158386986366e-02
1.506919976350706292e-01
3.555315794366670779e-01
3.653603772402061467e-01
-1.740973637625021220e-01
-1.021402739658082925e+00
-1.320470091966922777e+00
-6.232249704394117185e-01
3.901223501151380724e-01
7.126370883565308345e-01
2.306072637553378823e-01
-3.417288589322131642e-01
-4.640889695546141502e-01
-2.385526928021993731e-01
-2.242753595289224966e-02
3.470623260312511588e-02
2.203179744256266587e-02
4.745487788680084751e-02
1.091046479552960774e-01
1.454977984274703207e-01
1.279079636214910942e-01
7.612461253327373889e-02
2.494424074297133670e-02
2.676359299838990125e-03
1.524544559022252693e-02
3.496420360481211631e-02
2.360251900075744161e-02
-2.999114590918368350e-02
-1.026243934287017628e-01
-1.508278913479463024e-01
-1.306635616414994205e-01
-4.046840246635390742e-02
5.575803186244255444e-02
9.220085469366171016e-02
7.861655993317881452e-02
7.404337251587847502e-02
1.066591635124430337e-01
1.525546784546040757e-01
1.746252619552187135e-01
1.612867675992141203e-01
1.299730652983950574e-01
9.999482955676783358e-02
7.377582249673331205e-02
5.078068031390538944e-02
4.335018900013470206e-02
6.448795001219197187e-02
1.081627001446840153e-01
1.494565915553744129e-01
1.651940003061888040e-01
1.576481744130602269e-01
1.493742154570000535e-01
1.420323985385979759e-01
9.778455611362471545e-02
3.771891656090482596e-03
-4.065607131580160211e-02
1.066883633269015558e-01
3.569296583237622222e-01
2.702412101956433443e-01
-4.684668904898280362e-01
-1.381279076101330938e+00
-1.483835415686641124e+00
-5.262480445451084288e-01
5.502730926356340646e-01
7.574734496848891663e-01
1.818660923690311182e-01
-3.753751677677252263e-01
-4.349477377684077828e-01
-1.558234624939480173e-01
9.976967853427977373e-02
1.667295326358925467e-01
9.724963632439165284e-02
2.966737499892076191e-03
-4.807387416114578677e-02
-4.031402663429123345e-02
9.624844980740012226e-03
6.790953105380820309e-02
1.099579937857371043e-01
1.415852268241633016e-01
1.684653089336578813e-01
1.453778143646920484e-01
5.781969405736128373e-03
-2.280475570890918846e-01
-4.177280363737682078e-01
-4.433458366682619389e-01
-3.197013802219544898e-01
-1.447842757763464494e-01
5.972100843543649146e-03
1.039995905727688769e-01
1.431208178218723870e-01
1.331805005488774230e-01
1.014718860508104226e-01
7.327426649520031587e-02
5.400613341864101552e-02
4.190989649047342780e-02
4.339380001097647988e-02
6.286408637421168899e-02
9.203714534319400176e-02
1.172469750684087819e-01
1.303316640518894232e-01
1.343537536169124580e-01
1.389860680560659478e-01
1.458024608915004516e-01
1.460081822074020264e-01
1.359367427907701431e-01
1.199988176199015544e-01
9.545719238744207469e-02
5.446756176361373242e-02
2.190450744920018414e-02
8.801554803615349587e-02
3.231536599960557754e-01
5.485997762950061141e-01
3.117216062785462261e-01
-5.633963478020419524e-01
-1.418299199932604893e+00
-1.302507484993016940e+00
-2.275035065773041709e-01
7.205331823546825554e-01
7.230285789343142699e-01
9.424080004466771354e-02
-3.714257962866443497e-01
-3.621705612538024255e-01
-1.255500800148840468e-01
3.499936786047880277e-02
5.382799178403323281e-02
1.854926090144894818e-02
4.998672865264085219e-03
2.844322296469376996e-02
7.248533586802757833e-02
1.179372379301039525e-01
1.559571509269433165e-01
1.854640317628511725e-01
1.972113055837005913e-01
1.667254939728058660e-01
7.691855486803365893e-02
-4.995940701907345544e-02
-1.606523572780403086e-01
-2.136440550501824409e-01
-1.981278395692532002e-01
-1.257591065294410282e-01
-2.557021713804991450e-02
6.511218172598956522e-02
1.159364877988633830e-01
1.152824807758539016e-01
7.995914276460913683e-02
4.591508334589378820e-02
3.852694932533707456e-02
5.995365781847329656e-02
9.891949409277392413e-02
1.376189757991688745e-01
1.580680601213626246e-01
1.548387878682539465e-01
1.385298214186033439e-01
1.204983197938062217e-01
9.619129822081670667e-02
5.374109236459265887e-02
-4.689907060723749049e-04
-3.728844933310212356e-02
-2.614205695960836184e-02
3.644404507891462613e-02
9.963219718070122355e-02
8.368803395137323908e-02
2.232510831188386398e-03
2.717081894193260766e-02
2.635966557402755761e-01
4.200521717366454411e-01
-9.653868150034198084e-03
-9.712720456482977216e-01
-1.556788449541915309e+00
-1.009733023071481828e+00
1.797123970601643417e-01
8.140328299506078835e-01
4.650011075386122350e-01
-2.091495647904255129e-01
-4.818609257682163749e-01
-3.079264902687491867e-01
-6.059635959869524857e-02
2.873038576046475778e-02
5.381272908577358627e-03
-1.350142447557000150e-02
1.140171000087858086e-02
5.726111129530435384e-02
9.472746951222843492e-02
1.071223517021597516e-01
9.520960337799706796e-02
7.644672894654325201e-02
6.018528544741343078e-02
2.789367354370728483e-02
-3.804074852739487700e-02
-1.137409326273491894e-01
-1.499415482002232070e-01
-1.226853227594114915e-01
-4.554511517116469066e-02
5.090665588801034785e-02
1.276204163915140022e-01
1.507550453554688530e-01
1.243160041634273905e-01
9.230609845914493350e-02
9.041505913321060128e-02
1.083298852563508718e-01
1.126889131218130335e-01
9.457035980893904736e-02
7.824504111888866409e-02
8.752786480175983597e-02
1.166551270357935044e-01
1.376009143497158860e-01
1.282378325903469063e-01
8.832661257569586477e-02
3.583101658539683543e-02
-2.915514322765579147e-03
-1.140517774295115618e-03
5.705870572363850451e-02
1.561050567942715017e-01
2.381995938013231895e-01
2.371009201394108923e-01
1.516741987243195311e-01
9.244435517653772083e-02
2.025352847405536838e-01
4.287026486997558838e-01
3.897841925774760963e-01
-2.563292744596751827e-01
-1.159294644410403530e+00
-1.381678155989294776e+00
-5.415760698394336270e-01
5.442668952515001823e-01
8.281609061749063416e-01
2.635083903186766219e-01
-3.715406102865066451e-01
-5.259753920616127010e-01
-3.087261836450367336e-01
-7.154727769420585193e-02
3.823488191116086732e-02
8.435213267335558984e-02
1.335392407781360591e-01
1.658081946723027333e-01
1.413389031207682722e-01
7.190793461557107302e-02
9.568035927800431009e-03
-2.522912747445807922e-03
3.937142490211465590e-02
9.492178735383322019e-02
1.064271801288627084e-01
5.028201341529513202e-02
-4.149032943544582464e-02
-1.177972605142836304e-01
-1.461379881954029403e-01
-1.150418632957872500e-01
-3.870613704808855554e-02
3.681009513346125001e-02
6.672992037937147680e-02
5.390003469509713208e-02
4.436551162934711245e-02
7.114170977349713876e-02
1.149491216215914324e-01
1.323033203720126172e-01
1.113964271204781614e-01
8.000167319883827455e-02
6.162224377829404742e-02
4.942549724542109890e-02
3.111744154309190394e-02
1.580615024829268647e-02
2.434619562241006202e-02
6.682816446454135917e-02
1.311112328574204344e-01
1.852278752475712553e-01
2.003056139637468258e-01
1.746976046066641974e-01
1.187278527001670025e-01
3.059483734550903777e-02
-5.930740702385767227e-02
-3.146798564959131517e-02
2.054255364479996293e-01
4.407008547764123541e-01
1.782226312010996017e-01
-7.323031070141425847e-01
-1.555864643792896462e+00
-1.329982794744937191e+00
-1.590322276372095334e-01
7.823196969644679033e-01
6.941754586784649739e-01
-1.698542960861861018e-02
-4.898194438550625973e-01
-4.182808862537739092e-01
-1.023020776294311512e-01
1.072129379427564366e-01
1.337008756473934135e-01
8.817953600364313027e-02
6.736636304465679070e-02
7.100575135584925868e-02
5.790944223390052242e-02
2.589244257934077836e-02
1.312121399719663739e-02
4.597679451011723456e-02
1.113335549122922014e-01
1.641428431158311885e-01
1.541860100207174122e-01
6.890468013697957639e-02
-4.724695826231369022e-02
-1.301656821991969970e-01
-1.454764585994542669e-01
-1.009214944310957429e-01
-2.995896604952811779e-02
3.509887554688134043e-02
8.381609066339844316e-02
1.223504733608599682e-01
1.529952814909876224e-01
1.665223730116832113e-01
1.515009631766258691e-01
1.087077706228284646e-01
5.739407556508660524e-02
2.122796086426269324e-02
8.191899781149708168e-03
1.542106962313944708e-02
4.185505638191437672e-02
7.015519947385470689e-02
5.900077891909189659e-02
1.297309841033836286e-06
-4.632518282348473126e-02
-2.776170439109854060e-02
2.641746398507045790e-02
5.455982920472667030e-02
3.060434571046662805e-02
-2.629015554986461473e-02
-3.498775558845945016e-02
1.209483782846671740e-01
3.996846083315230835e-01
4.360440768211768514e-01
-1.433678677881091990e-01
-1.055387617903094544e+00
-1.377829654149408389e+00
-6.441550308339029085e-01
4.227308214397935138e-01
7.673267400998751153e-01
2.675379899842537101e-01
-3.366976621743006381e-01
-4.773272377597578831e-01
-2.444695443126655987e-01
-2.305232114371690011e-03
7.046337546408770747e-02
2.754161493035559016e-02
-2.224735537038580180e-02
-2.784215845050672100e-02
2.826188630778918992e-03
3.857816333502021161e-02
6.026792320630949135e-02
7.953483726298650469e-02
1.175265024795855845e-01
1.662352337953739712e-01
1.805452188989280504e-01
1.038939161362630176e-01
-8.457583961178515020e-02
-3.151472715236810496e-01
-4.407368375201762278e-01
-3.627873994442848415e-01
-1.365474226768599308e-01
8.643001331543954946e-02
1.992459570251138012e-01
2.012433657097166817e-01
1.519356654534026463e-01
9.959127276856878652e-02
5.829504978476089672e-02
3.151103445606241726e-02
2.832038042628252927e-02
5.140465560153674451e-02
8.856316934332904289e-02
1.254987023453053296e-01
1.553528493907292696e-01
1.708462528089987886e-01
1.605643991097459311e-01
1.205896183600942556e-01
6.124112300200386383e-02
1.157271189071189775e-03
-3.342662010103145120e-02
-1.374555153266756279e-02
5.480240714259350387e-02
1.108203231458367855e-01
1.111164441291988408e-01
1.340619287177497732e-01
3.019312611236278920e-01
4.993353534732647980e-01
2.985823677453230407e-01
-5.173077511335584244e-01
-1.363099024055967057e+00
-1.300498636149264531e+00
-2.725231216177421700e-01
6.865388487602978040e-01
7.333086285584018427e-01
1.345610852804612623e-01
-3.267359638269174971e-01
-3.272488528624348247e-01
-1.101061936827338883e-01
2.206518684468376443e-02
1.320624782982736736e-02
-3.460757028985637224e-02
-3.761819698365174991e-02
1.550109709411766866e-02
9.622900872855527643e-02
1.687118201616509550e-01
2.073531047773860825e-01
2.085216831159353024e-01
1.830092319797322342e-01
1.344848818048465788e-01
5.632278060269181597e-02
-4.883644003817155105e-02
-1.546416096271069629e-01
-2.168485340804205408e-01
-1.962954254935697640e-01
-9.034118886286876537e-02
5.339602763786626544e-02
1.658559194900897649e-01
2.041614446537850236e-01
1.713449883140943097e-01
1.032738511374294843e-01
4.512903050927499771e-02
2.724391585638583774e-02
5.046763899958579824e-02
9.208850493312160934e-02
1.239745430935913356e-01
1.303535499582096635e-01
1.168251881689818666e-01
9.802595464051225282e-02
7.662463035815779422e-02
4.916752179665193762e-02
2.831762413137411255e-02
3.444447853822956568e-02
6.510078226237477061e-02
9.734740280079612340e-02
1.174048785706594683e-01
1.194386028781207754e-01
9.362835049371673324e-02
7.368339408036636562e-02
1.677413419885701862e-01
3.999865868288630111e-01
4.755315235131419294e-01
-4.230010179975278450e-02
-1.044054295882008931e+00
-1.628636177641099803e+00
-1.070044263432808229e+00
1.394584651504539863e-01
8.150019840413805783e-01
5.118433875488253015e-01
-1.498745011013659367e-01
-4.536967639203595137e-01
-3.172680087732718812e-01
-7.048499027281475426e-02
5.591542784977409503e-02
7.470308593993807422e-02
8.108363774169508043e-02
1.119575275721428897e-01
1.394485422239240824e-01
1.302761302967967993e-01
9.308572726762708027e-02
7.093899581354363992e-02
8.552420422748419071e-02
9.994284448763693374e-02
5.914688865251935268e-02
-3.142212869791952135e-02
-1.008159892957445347e-01
-1.012073076365666013e-01
-5.694485016552158080e-02
-5.288268219256023542e-03
5.028368048279874269e-02
1.060531666810658052e-01
1.392610534334466355e-01
1.355142098500027592e-01
9.082620312199897461e-02
2.987343471728685571e-03
-9.096836627228643835e-02
-1.056276668744002556e-01
-5.720677065996349411e-03
1.222219463497904585e-01
1.675122341791076552e-01
1.279178883301625436e-01
8.589698356609468122e-02
8.609791242457157101e-02
9.823653788587836944e-02
9.481823757508736628e-02
9.824433946203461887e-02
1.276347728628473288e-01
1.602757609069515587e-01
1.749508715419758054e-01
1.749598458908711018e-01
1.456456219768451910e-01
6.460162109543558795e-02
-2.663459761306160439e-03
8.688801480380733966e-02
3.114813632536288512e-01
3.003394771177399503e-01
-3.117223207960052034e-01
-1.202058794196745328e+00
-1.438812494126843200e+00
-6.232196266161773579e-01
4.456547332967849551e-01
7.243312243938264672e-01
1.683547048536720159e-01
-4.344014055943536956e-01
-5.291035499656164820e-01
-2.406549145837451054e-01
4.676584845622887288e-02
1.501090491058584553e-01
1.187437108720555690e-01
5.505622542013276222e-02
1.042341915286782751e-02
-1.158474925477466326e-02
-1.925041319208250362e-02
-1.180730499348044658e-02
1.651422216167848164e-02
5.905709206158407665e-02
8.545182984365613799e-02
5.724830421394276614e-02
-3.386721779719915199e-02
-1.467735221010096902e-01
-2.188148188099200420e-01
-2.143461320606714071e-01
-1.486438202877511106e-01
-6.933483302223036882e-02
-1.180566274927479994e-02
2.601868534070564398e-02
6.146074921259059298e-02
9.363733869511818575e-02
1.049490417376982843e-01
8.715361253135009423e-02
5.615568957804906863e-02
4.057853618450014271e-02
5.159351432519709846e-02
6.659133031147693171e-02
5.899890224777305098e-02
4.101914584366199434e-02
5.262009952089359566e-02
1.057866521355658729e-01
1.606063408873099063e-01
1.708665483717660694e-01
1.448527811981726865e-01
1.330724421167627791e-01
1.494809407130360812e-01
1.425353926893033474e-01
7.086294229691018909e-02
-5.831446013083284134e-03
5.943573748282884178e-02
3.235399666498293691e-01
5.254939098745358139e-01
1.939292902550534270e-01
-7.237225525666760584e-01
-1.455579721470193766e+00
-1.152940496749887744e+00
-5.141882085082727372e-02
7.219569153542844120e-01
5.432035318514235600e-01
-1.069248683803233069e-01
-4.630825937350611099e-01
-3.379762904804541890e-01
-5.107628960562184128e-02
9.904072319081448639e-02
8.034134135848933211e-02
1.495710266802159454e-02
-2.495442394018417345e-03
2.657170567630788571e-02
5.711263048780563373e-02
7.379671642374407980e-02
9.334542341570323254e-02
1.239809024162166207e-01
1.517231942856585858e-01
1.520954121592457964e-01
1.055691483943920622e-01
1.475329416419928624e-02
-9.100144220623769542e-02
-1.670830208453062959e-01
-1.699399027401783391e-01
-8.315911373115336680e-02
5.841715462432428563e-02
1.812752229910285229e-01
2.255356412755917805e-01
1.943557274780907951e-01
1.448627602716611729e-01
1.190689177412875416e-01
9.937174495937226015e-02
5.030643034970182226e-02
-1.541640313172388740e-02
-4.103382975514009018e-02
5.772168211524756308e-03
8.797617418248762644e-02
1.364778259964571083e-01
1.287614169997628455e-01
1.111661258482944947e-01
1.326299763200408377e-01
1.742311464551737354e-01
1.724568102628282751e-01
1.108867491401029498e-01
4.549768306776032223e-02
1.904278431043529216e-02
1.467801420958728641e-02
4.833077614654977816e-02
2.120357416715151488e-01
4.678067803745761255e-01
4.481903038955597496e-01
-2.124276632629615580e-01
-1.182783617733276005e+00
-1.490054467042646769e+00
-6.870617371241027893e-01
4.354957687060756477e-01
8.001772321274489563e-01
3.158821690120721115e-01
-2.641679337646918868e-01
-3.919048710864012075e-01
-1.729927041169642132e-01
3.764880328954380018e-02
8.621339278946389684e-02
4.285498479533163263e-02
6.348120068126170135e-03
2.321757258836598670e-04
6.501406429113402302e-03
2.039277744485607641e-02
4.500171685654331261e-02
6.548879052171768800e-02
6.785731372766468095e-02
6.116110355976525637e-02
4.677619412825787665e-02
-2.787592211122615245e-03
-9.966614327331749235e-02
-2.010214471614409359e-01
-2.375493898707738971e-01
-1.732063895907639539e-01
-3.584629490320494216e-02
1.040963577291709324e-01
1.837709105328976245e-01
1.799424507207656732e-01
1.118181144526720211e-01
3.234767263200448439e-02
-3.041726047118886722e-03
1.463380830764558597e-02
4.336170418408719085e-02
5.027649060682080201e-02
6.265938366358189682e-02
1.351547390599311393e-01
2.566617107670510212e-01
3.255110027865686928e-01
2.617755893887777074e-01
1.072612167175558129e-01
-3.362575300772367021e-02
-9.832313041320886460e-02
-7.566039333007912315e-02
1.322548658419910386e-02
1.005603118158139297e-01
1.047185464873426619e-01
4.033502062164388835e-02
5.913143360948327348e-02
2.590325876636570546e-01
3.979762737711924347e-01
6.125519787708935682e-03
-9.296621958647934836e-01
-1.585249378804392428e+00
-1.146149281441942724e+00
3.922430062237100556e-02
7.908338079314185531e-01
5.506870916458080911e-01
-1.175984121878397431e-01
-4.526334872432259959e-01
-3.356415483297840452e-01
-1.170300581620446340e-01
-3.258630140554673316e-02
-2.894320019637478675e-02
6.649702106236679566e-03
7.583839018992447056e-02
1.228401012148188781e-01
1.264578825875270485e-01
1.051805874676610547e-01
8.466208436214486821e-02
7.906154790387606712e-02
8.148496787792376683e-02
6.532001156428594857e-02
1.215267027492374780e-02
-5.786390046058359493e-02
-1.020629256508070459e-01
-9.999287645978530148e-02
-6.191464286466625416e-02
-4.095463136202489099e-03
5.827673804512314287e-02
1.021658472363222853e-01
1.051637476682408395e-01
6.930520185868886684e-02
2.805227758683416853e-02
1.762038175073619983e-02
4.093877626605417486e-02
7.175038572371800205e-02
9.028388181190304118e-02
9.782161583535593785e-02
1.038740164023829599e-01
1.161772260513446453e-01
1.327275007365961712e-01
1.362655983016965999e-01
1.121494784186273797e-01
7.324720741899717891e-02
5.387905374794188518e-02
7.507112866875129131e-02
1.171391956043225241e-01
1.303071934699256695e-01
7.972862955603046697e-02
-9.243100838540050518e-03
-3.415662093413405348e-02
1.253542511714448304e-01
4.127507165510478915e-01
4.465653760503642267e-01
-1.472083506623156623e-01
-1.060958366070182013e+00
-1.354176691977531766e+00
-5.882585680602938627e-01
4.748260856402753416e-01
7.972792315492110982e-01
3.044103338793642810e-01
-2.691707683332433265e-01
-4.066970604794248878e-01
-2.173710849061426531e-01
-2.644404148558705120e-02
3.533713619889580076e-02
2.516957088889006794e-02
1.021510757852083298e-02
5.280474440808143738e-03
1.252566301562770684e-02
3.166892386468076609e-02
4.184408063552697704e-02
2.766805945265340266e-02
1.461419084124278636e-02
3.937324707022531178e-02
8.877455539338668933e-02
9.898862473150707442e-02
3.037736634604960156e-02
-7.425028399560125447e-02
-1.286458419382235929e-01
-9.280677515213624218e-02
-8.246668941671473838e-03
5.208766080988627006e-02
5.666174368865509875e-02
3.395440716605127585e-02
3.168958703590702558e-02
7.035251239475223684e-02
1.279280889030757207e-01
1.621228622094421645e-01
1.526218560697598647e-01
1.186437822301369821e-01
8.929360836681941860e-02
6.786721562083233850e-02
4.176068502340362504e-02
2.083495813550587106e-02
3.550182508462478015e-02
8.716679091335374774e-02
1.323764628518908082e-01
1.365671515012910064e-01
1.184044925867287906e-01
1.131273174363589817e-01
1.056785604749865409e-01
4.334190552119759898e-02
-5.840259368235688198e-02
-5.461110993547103887e-02
1.838359197219113228e-01
4.819439429022788768e-01
3.433607370565907591e-01
-4.739716805483951689e-01
-1.364715293151159026e+00
-1.353440890355650073e+00
-3.534060226266355631e-01
6.041483767686034456e-01
6.507874304274299249e-01
3.495478789817263454e-02
-4.423845678033770379e-01
-4.265053153868098579e-01
-1.567530495889007391e-01
3.962462546401861185e-02
8.379648473391546060e-02
6.806014707644489348e-02
6.222541302715825506e-02
5.679722410952939282e-02
3.010218966852259287e-02
2.517712125409804144e-03
9.940210292150463214e-03
5.637279073546860864e-02
1.131651418642232870e-01
1.434604967463884440e-01
1.209848135479381914e-01
4.801893884192166839e-02
-4.590203486750672052e-02
-1.291950750033820650e-01
-1.752922708052433443e-01
-1.575985659174729547e-01
-7.208947089509544492e-02
4.462424103656038865e-02
1.412408137378485806e-01
1.862840360786256755e-01
1.778587423492201391e-01
1.382078312628440553e-01
9.774985894173118806e-02
7.141414658180952890e-02
5.060371694753013766e-02
2.617542846856960731e-02
1.401167040308245494e-02
4.027147302491065201e-02
1.015897709229369311e-01
1.587387654313386631e-01
1.748454963666204454e-01
1.485623881220921871e-01
1.044531004339864788e-01
6.473593479311685883e-02
4.135612707045869391e-02
3.316544385466774908e-02
1.554185157782799614e-02
-2.903298671055139224e-02
-4.088201616627452212e-02
1.021875051389921768e-01
3.925058421997185132e-01
4.980474020132487079e-01
-1.165015625835106455e-02
-9.976676906916641663e-01
-1.560672602178807766e+00
-1.012790350056770761e+00
1.340122526480057308e-01
7.322589938206438553e-01
3.963670505383516951e-01
-2.345560138195414979e-01
-4.724471015053106626e-01
-2.730441145807580572e-01
4.204066349195817454e-03
1.046864168755880509e-01
4.047626735529574749e-02
-4.970186340793561475e-02
-6.819825948770993906e-02
-1.765099983998837108e-02
4.277099527005484569e-02
7.227079600039733320e-02
8.400068693166204414e-02
1.146736461172315619e-01
1.594308490344519547e-01
1.560154719907989040e-01
5.754746460783979889e-02
-9.600969729801339669e-02
-2.088878949840379251e-01
-2.199539471896025666e-01
-1.389137979752369245e-01
-1.545560858250572683e-02
9.601233651621726706e-02
1.597560610359669842e-01
1.742520857022442915e-01
1.596306782032643201e-01
1.309080633282288519e-01
9.694879483724394564e-02
7.267758027432341672e-02
6.820014884867814375e-02
7.459209369828440073e-02
8.120170637406994019e-02
9.562336173642005388e-02
1.253461804068135566e-01
1.514944072103101280e-01
1.438412512789131459e-01
9.715455725041177715e-02
4.064186769591238146e-02
1.460281697263996446e-02
3.734610232661139673e-02
8.926893118387604908e-02
1.262623376326132418e-01
1.098015363941307748e-01
4.996820682479122255e-02
4.315894636389730477e-02
2.033097010010644357e-01
4.381283353450696749e-01
3.497451527533422255e-01
-3.409290415816902953e-01
-1.177523672760533380e+00
-1.235338857706576032e+00
-3.081782229622183067e-01
6.730302717823744008e-01
7.843057808792072150e-01
1.734861522396695666e-01
-3.618365117707756373e-01
-4.023401968405442841e-01
-1.613190038172438168e-01
5.753333638682953111e-03
5.396809662894941871e-03
-3.986608918899825493e-02
-2.525896906807161696e-02
3.728877865131986075e-02
8.746510279029826029e-02
1.025238971327731285e-01
1.048754728684630211e-01
1.181124612062967039e-01
1.361743216458205508e-01
1.284845179890860556e-01
7.008979797517024546e-02
-2.396970561338828548e-02
-9.893851342647037861e-02
-1.093107298805245237e-01
-5.870024938019589161e-02
1.742978867798112425e-02
8.660869943049538666e-02
1.266130515339807250e-01
1.269756961206717216e-01
1.003027711717390247e-01
7.250991604286630143e-02
5.498483508153127752e-02
4.490399371460820216e-02
4.789917072374285517e-02
7.365101444051180835e-02
1.117428703767132797e-01
1.347480886078779583e-01
1.252153020458215971e-01
8.919872473450631001e-02
4.876068475611283065e-02
2.689688027115215430e-02
3.236610819836337194e-02
5.427969264965876173e-02
7.784554597835297018e-02
1.066102285763539104e-01
1.491651141433282257e-01
1.738772569811045943e-01
1.215568164349767749e-01
1.335186837804223578e-02
3.095207072658938754e-03
1.952869630045268867e-01
3.567340315775214266e-01
8.531862584721255222e-03
-9.008820574919209623e-01
-1.572587250430054207e+00
-1.154831293336158637e+00
6.081847026888262397e-02
8.808782468308844482e-01
6.663747078231422316e-01
-7.198629728883303158e-02
-5.300290816112744885e-01
-4.837092077239593668e-01
-2.204543853334460513e-01
-2.529539620046346998e-02
4.549909080025852509e-02
5.425033489517772783e-02
5.186244719547893067e-02
5.378140199434369023e-02
5.245919091903517711e-02
3.454641609617864484e-02
1.019637689532883196e-02
1.325845864535251349e-02
5.112917345525212764e-02
7.565455499302443931e-02
3.475347871572814773e-02
-6.044757780472603814e-02
-1.482087559311965064e-01
-1.798462388759088648e-01
-1.463853700363113020e-01
-7.019000046174690699e-02
3.222018105779658574e-03
3.421403400227872316e-02
2.781398912717613151e-02
2.329718035635063023e-02
4.615628441115561531e-02
8.680883371145797778e-02
1.187626037880035595e-01
1.251260214240348667e-01
1.099589798449575051e-01
8.785920229312474405e-02
6.822924089646614787e-02
5.397273421914586949e-02
4.489893252717483407e-02
4.000116737810235912e-02
4.750437065620501109e-02
8.099051678658709952e-02
1.325605562962422213e-01
1.705098303254835579e-01
1.744501089186868970e-01
1.497094569051092838e-01
1.016283748725287095e-01
3.489875358959321910e-02
9.005708338444582545e-03
1.286250721788214924e-01
3.441844806083499408e-01
2.996037932216274458e-01
-3.116724915157028097e-01
-1.117382428946219752e+00
-1.230971201882007815e+00
-3.768625789253889913e-01
5.971886068405196646e-01
7.472361029576031211e-01
1.465167713867364663e-01
-4.170611656621101004e-01
-4.665647357772294002e-01
-1.727406931331379458e-01
9.230042321857434562e-02
1.744024482058568470e-01
1.376200820272741043e-01
7.926663542255588113e-02
3.690363721541595199e-02
8.205339550259238210e-03
-1.061778061614723073e-02
-1.106004249470263386e-02
2.024918618217465272e-02
7.581781549782949658e-02
1.108064168041359987e-01
7.827680724351462893e-02
-1.405216044549192564e-02
-1.108995550565022442e-01
-1.734817226959217140e-01
-1.954459459406703292e-01
-1.625620429143453949e-01
-6.329473404475734200e-02
6.030093587425139345e-02
1.412078129533417825e-01
1.662273955304283957e-01
1.705534900529745157e-01
1.685149654088531068e-01
1.435711204100255656e-01
9.521508146796242578e-02
5.214488994734513272e-02
4.057442476556040456e-02
5.870539376282508937e-02
8.087397320517965282e-02
8.361550962629712980e-02
6.786599588123540250e-02
5.327583999198340359e-02
5.534738848132326333e-02
7.156552460708710817e-02
8.548260912148233914e-02
8.406784849142215355e-02
6.838369674822961097e-02
3.855968528270475176e-02
-1.392069937872095382e-02
-5.571604056650705100e-02
2.839399499589996892e-02
2.967464980759209059e-01
4.946005145906952061e-01
1.466618872476558866e-01
-7.796458859387362939e-01
-1.474597857332630602e+00
-1.106685686553219305e+00
9.312757399822985116e-03
7.162564996483689050e-01
4.704402990023693332e-01
-1.601115518236084778e-01
-4.346997026618850124e-01
-2.622253915264852187e-01
-2.206137421659197517e-03
9.942966314852690057e-02
7.218764037782424148e-02
2.662711508091991988e-02
3.670100029276352968e-03
-1.263066304230837759e-03
1.484991924015468395e-02
4.821959310050669134e-02
7.628860086148328556e-02
9.599777915469230594e-02
1.289582765930214758e-01
1.592477628853396776e-01
1.221908013966695461e-01
-8.042306156232408021e-03
-1.670444984864179749e-01
-2.592201157936002698e-01
-2.352083002434214032e-01
-1.179187827145133788e-01
1.736393854305069706e-02
1.025930966229615798e-01
1.316557571756025724e-01
1.434637661583397228e-01
1.578126642479645569e-01
1.519109829086417729e-01
1.026211147732305623e-01
3.808644532736230742e-02
2.662773982455272567e-02
9.334733088692946656e-02
1.746379011827484395e-01
1.997356783821244708e-01
1.792942703088767076e-01
1.624306456962915091e-01
1.507097787577180714e-01
1.064300449597936765e-01
2.800570494965456611e-02
-2.334166623430171741e-02
6.479936460399062133e-03
8.535329962623373901e-02
1.210359931672051886e-01
7.519880574912932159e-02
4.354056781290301104e-02
1.775973440600919218e-01
4.289846677511579554e-01
4.026151016610967082e-01
-2.480597280690900464e-01
-1.148345712204614566e+00
-1.355716701204756180e+00
-5.319122555052311352e-01
4.941133573245570787e-01
7.497785271365257076e-01
2.498278049004423185e-01
-2.769217856174062131e-01
-3.669651875808514485e-01
-1.493404118726094632e-01
4.984498989757871201e-02
8.977953492654766610e-02
3.445284234198332102e-02
-1.159046487674394652e-02
-5.111663919822457582e-03
4.679639317546740312e-02
1.149149727406783145e-01
1.431319060439882329e-01
7.952913029247830889e-02
-4.582937540134254112e-02
-1.323509299174777942e-01
-1.359250886535641190e-01
-1.190966726230093947e-01
-1.467878785997974722e-01
-1.980612843308481308e-01
-2.006998673599278138e-01
-1.105535070626095934e-01
4.386174347520652855e-02
1.787018131556870060e-01
2.287929877308833571e-01
1.995037466091494349e-01
1.381160803657111025e-01
8.399333415276383219e-02
5.533259433921707687e-02
5.412502980183001716e-02
7.402391780942210731e-02
1.081400457848145508e-01
1.437788845943930027e-01
1.603855102369207419e-01
1.505898245699954230e-01
1.310546333953617193e-01
1.166158041155836156e-01
9.926515277012271099e-02
6.836618213893698448e-02
3.888032043419203942e-02
4.223811278671775471e-02
8.682797469895482678e-02
1.332484621484469334e-01
1.271402424689069277e-01
8.515810885076197101e-02
1.300222257297894424e-01
3.356829314119218477e-01
4.718692221640224393e-01
8.806104465214498189e-02
-8.495840276467224728e-01
-1.550543792680990407e+00
-1.175348064976564189e+00
-4.509296579417620965e-03
8.022439080754936169e-01
6.320232276377958369e-01
-2.174569183598611122e-02
-4.122657046397547043e-01
-3.594135365214488620e-01
-1.418968843973051341e-01
-2.972723570672238663e-03
3.955199531392841750e-02
6.174553256391149270e-02
9.334756014867703899e-02
1.144338657217416483e-01
1.095591810643398306e-01
8.449572120789247687e-02
5.378448210039350752e-02
3.424311151210379656e-02
3.381961720574528513e-02
3.495457821764879486e-02
5.799903202450598302e-03
-6.433352737272148014e-02
-1.470821439719041113e-01
-1.893365582558716731e-01
-1.511317622543975059e-01
-4.779640198393284717e-02
5.215168464443224045e-02
8.994121799599930078e-02
7.089151684067589165e-02
4.661407967474242436e-02
5.348072068273651558e-02
8.057169685740782350e-02
9.708720152876668119e-02
9.455345238992622636e-02
8.822455850240555619e-02
8.994764759377139873e-02
9.614818558134220761e-02
9.631874919897544240e-02
8.780148149401606483e-02
8.205384925185234268e-02
8.709901847045962986e-02
9.202926843458003603e-02
8.874335093165058863e-02
9.338450028100288292e-02
1.210332394086787167e-01
1.512103352902863518e-01
1.400247928694357546e-01
7.450168027245256119e-02
2.537688020851514362e-02
1.194786295685479616e-01
3.520120765419261777e-01
3.978596138484490341e-01
-1.357712855453236944e-01
-1.042674596370511741e+00
-1.432989740122844635e+00
-7.725481554638351511e-01
2.905417441179625193e-01
6.870309192133270404e-01
2.335979971293196955e-01
-3.588240059488279621e-01
-5.129131540619280560e-01
-2.999315885667331871e-01
-6.561075473193264673e-02
2.814612536244101917e-02
3.583599395456677633e-02
3.764140962972113008e-02
4.274446530346842632e-02
2.548964051429309513e-02
-1.683678749523901536e-02
-5.141152654714988696e-02
-4.389393446366695456e-02
1.953070584988103207e-03
4.632826103835390591e-02
5.038717789931103364e-02
3.263502454211803308e-03
-7.811336865805765250e-02
-1.598361684343961309e-01
-1.996808776725966517e-01
-1.646893720552462248e-01
-6.433686868032828521e-02
4.107665522608246883e-02
9.247208626402055043e-02
8.970549079412697135e-02
8.066314526835198506e-02
1.035142156079454645e-01
1.518583909647058805e-01
1.905980905259292701e-01
1.960872235593668911e-01
1.675246879298059599e-01
1.085252949494348446e-01
3.490262586050680432e-02
-5.947959535449843377e-03
2.629197129999341284e-02
1.066989603803957520e-01
1.710144491595288474e-01
1.962969763285587199e-01
2.083716808338728632e-01
2.161373079104888240e-01
1.939401600123420166e-01
1.261620614328155532e-01
2.567998810288953451e-02
-6.477182277713644520e-02
-4.421631801423913516e-02
1.806751695409625769e-01
4.555756217831329891e-01
3.194784180394629747e-01
-4.618118773726502257e-01
-1.299605000299033142e+00
-1.251577621849582655e+00
-2.647794485470121306e-01
6.369245250541244463e-01
6.389740296398840336e-01
2.674596887022229197e-02
-4.181677203748392913e-01
-3.741728345423698809e-01
-8.318084282788661132e-02
1.334996622714670900e-01
1.758717707409344633e-01
1.087525379974981637e-01
1.894692786716565408e-02
-3.973162900274371939e-02
-4.501573442127244917e-02
-8.173833881239175522e-03
3.341751865429778284e-02
5.929193305571316130e-02
9.986223108818449712e-02
1.885064094737558815e-01
2.706780859414566476e-01
2.258510297523841082e-01
2.503342168577652252e-02
-1.963082837825567140e-01
-2.734039694493735628e-01
-1.742726066436472709e-01
-4.229856129106288748e-03
1.113959068928675050e-01
1.306157889914837666e-01
9.807280027891016050e-02
7.577305799257595675e-02
8.977205030520561679e-02
1.227616372255023874e-01
1.336943653591058379e-01
9.810102807317702678e-02
3.884393199455706686e-02
3.588236292962251970e-03
1.318278317907729466e-02
4.665109393537882759e-02
7.461667960831054602e-02
8.925865229594791284e-02
9.541752797736023639e-02
9.285460139696956328e-02
8.135197955737026587e-02
6.623807359456598820e-02
4.426367820534869713e-02
-2.213142790045012458e-03
-6.722593271785098912e-02
-6.440955844365137128e-02
1.301095623057443862e-01
4.601480414796037532e-01
5.272464014421246459e-01
-8.615760571961497694e-02
-1.124568211793496308e+00
-1.609157616368381394e+00
-9.362483452424548158e-01
2.405652351818235168e-01
7.695118786073493755e-01
3.789237652678822399e-01
-2.337786807783800436e-01
-4.289236909844578172e-01
-2.252714502815168218e-01
6.854411215109525168e-03
4.642559628893348778e-02
-4.753643322771709812e-02
-1.132503299599492003e-01
-7.794877176746961567e-02
1.124869905685534771e-02
7.964082487095375251e-02
1.010997774295064877e-01
1.008876839407455428e-01
1.127645408572915675e-01
1.301676000385530996e-01
1.096676880280510191e-01
3.826234016667033611e-02
-3.599774361597687239e-02
-7.080293859514484589e-02
-7.793051877673609629e-02
-6.605030707528233846e-02
-6.951096597450322212e-03
9.377424405692598441e-02
1.690633866857559620e-01
1.742944696063376542e-01
1.385721391908036892e-01
1.092381204729996613e-01
9.103201807405629509e-02
6.561310452613364208e-02
4.341754986756302115e-02
5.893756758864174966e-02
1.188992187415196383e-01
1.834220598697852700e-01
2.037051995150548078e-01
1.687923109061852112e-01
1.122860708239450389e-01
7.491917423453281488e-02
6.757424616378109039e-02
7.504490195356638971e-02
8.659291252942059869e-02
1.053498347737653468e-01
1.199033818401308293e-01
9.579966896406953702e-02
4.391744312670792239e-02
7.804011724952487905e-02
2.834478578773830248e-01
4.505982579817812694e-01
1.198066786852921700e-01
-7.971492260278656428e-01
-1.549967043297391545e+00
-1.253381089465671172e+00
-1.024822478379996682e-01
7.516895645223936606e-01
6.295466842517192241e-01
-1.333703014475075277e-02
-4.086619745004638760e-01
-3.535186349228068847e-01
-1.334265211777707072e-01
-4.286234808429014581e-03
2.052266554777656959e-02
3.404991218850612900e-02
8.177898034906946889e-02
1.488950437630816026e-01
2.036653353936296873e-01
2.135584196411354774e-01
1.654520936791137875e-01
9.594798406360313670e-02
6.244651015058062110e-02
6.626087919950614247e-02
4.391553722075355187e-02
-4.450131914092069624e-02
-1.548890493609898222e-01
-2.093714752806563884e-01
-1.745474264030101308e-01
-7.578962433940591992e-02
3.243308965965535640e-02
9.974626968420387263e-02
1.080059765412890449e-01
7.706652227882640482e-02
4.305389217413693737e-02
3.501277957685521719e-02
6.150508643021193600e-02
1.031851786029920059e-01
1.248631723181008041e-01
1.106330844155088977e-01
8.186078430930283922e-02
6.689405036116809200e-02
6.566884387344551488e-02
6.176911638307636121e-02
5.193952088144387219e-02
4.477442854534105510e-02
4.467585798002358249e-02
5.377387425888067313e-02
8.169201331465278382e-02
1.294942565828015590e-01
1.603407424082863575e-01
1.315659213729995225e-01
9.173464606465653315e-02
1.774157137281215102e-01
3.871639457048370314e-01
3.858023944935096150e-01
-1.928616250980471347e-01
-1.083932275805153500e+00
-1.390401035304728916e+00
-6.557564897536407589e-01
3.980088346009982292e-01
7.255880078372632935e-01
2.280551222169201475e-01
-3.455601106017197610e-01
-4.522063728161893059e-01
-2.112524458396952409e-01
2.131962095040121352e-02
1.148268102615430386e-01
1.524188497644961005e-01
1.817572906757813911e-01
1.376566889123796711e-01
-8.269003922894015146e-03
-1.562801147923739420e-01
-2.008897664757752777e-01
-1.564762143400927896e-01
-1.035028887546208393e-01
-8.739965020881887425e-02
-1.102625413419457689e-01
-1.584281174390899383e-01
-2.093521431797943089e-01
-2.357820575549831876e-01
-2.122705652047908176e-01
-1.301459644880315625e-01
-2.065936616156974562e-02
6.015792533643451317e-02
8.923114428714049029e-02
9.529774514937087992e-02
1.106008439030743140e-01
1.304940260358147808e-01
1.317750779971746666e-01
1.140948634030795883e-01
1.029719129316449128e-01
1.089391048972627868e-01
1.072836439523081470e-01
7.449568706535700247e-02
2.681542989527721521e-02
3.700197360760321477e-03
2.096623450183215595e-02
5.734366707211577263e-02
8.887495010006871143e-02
1.205174084980099730e-01
1.711945700571116669e-01
2.315645710645453381e-01
2.482044245490734324e-01
1.668654252868436438e-01
1.491605553941757929e-02
-5.929347006536973830e-02
1.001754834488487733e-01
3.978132398935116942e-01
3.913852380589534774e-01
-2.558660735234261074e-01
-1.120000142584719471e+00
-1.250154239846355875e+00
-3.755934232381502591e-01
6.030662846419834189e-01
7.349283272219937491e-01
1.405524496700656101e-01
-3.796139792438038008e-01
-3.988169373649991800e-01
-1.267399068016114017e-01
8.517613403886656331e-02
1.265350223725612011e-01
8.002344186186044483e-02
3.547156842072800298e-02
2.036160949074602988e-02
2.555276277745274771e-02
3.590867723014634638e-02
4.799759202720554202e-02
7.433465561935498345e-02
1.226006020730998208e-01
1.676337398364174669e-01
1.593716138479203126e-01
7.556319148251577911e-02
-4.370882951000999023e-02
-1.338516757985101224e-01
-1.635359966669113208e-01
-1.382620658162131699e-01
-7.060666216332525669e-02
3.263893709337520321e-02
1.585892122437380092e-01
2.648539247295498833e-01
2.909432274671805985e-01
2.252319827032628063e-01
1.324538796168729660e-01
8.225381745942889067e-02
8.199092574558232427e-02
9.350740825260363265e-02
8.480137294491384148e-02
6.274929289091994711e-02
6.390701145693421237e-02
1.013934399520904639e-01
1.332768844828142174e-01
1.109685089583865303e-01
4.758373919819151865e-02
7.742349937493548002e-03
3.014768159909506778e-02
8.335047816420712574e-02
9.997510503882166277e-02
4.451865634571142150e-02
-3.000476311897611742e-02
1.559682436358402965e-02
2.530943582128861169e-01
4.489449203537894117e-01
1.477023610176327051e-01
-7.203616717910316103e-01
-1.457143438073484232e+00
-1.301661213568298114e+00
-4.337713732527426203e-01
2.736278354792880396e-01
3.721255508476667417e-01
1.554925213399705464e-01
3.573267780384788844e-02
9.719691906303812301e-02
1.984161577775416518e-01
2.038005486498161156e-01
8.371465974352093609e-02
-9.550131960001105591e-02
-2.379766207311917736e-01
-2.870852040259815330e-01
-2.384941033069730987e-01
-1.170396271391966198e-01
2.891254327888649611e-02
1.331938728442583764e-01
1.485990083635871928e-01
8.483423056007058372e-02
4.700223435628307633e-03
-2.796329171480209375e-02
-3.840964465458429275e-03
3.687922365776282602e-02
6.179127590106185675e-02
7.436968801636544002e-02
8.473422021187299036e-02
8.949244907690204198e-02
9.903898721289515483e-02
1.450406284904912357e-01
2.199952517868252466e-01
2.477862547691296324e-01
1.740871294145848736e-01
5.293791634687392000e-02
-1.453972758615356721e-02
7.397191647195043226e-04
4.087110744150342090e-02
5.663290294656950913e-02
9.885079871981596045e-02
2.700468726175339063e-01
5.050916474512087140e-01
4.376436561184113283e-01
-2.514236584129290741e-01
-1.205758490833308993e+00
-1.486994810859444183e+00
-6.841298053147895075e-01
4.207214676638389994e-01
7.680942001459751811e-01
2.688210150734044457e-01
-3.182088058473164227e-01
-4.360956860211639974e-01
-2.014472930377294579e-01
5.977881800350040575e-03
3.354422188335653282e-02
-9.691195004306200900e-03
5.222244940536104746e-04
6.046331366731796941e-02
1.038589569309060490e-01
1.059544007236236651e-01
9.180957972587347471e-02
8.752739700791445365e-02
9.377372829975476332e-02
9.496800239082717199e-02
7.603511994176390121e-02
2.849318869060971093e-02
-4.645079585543800821e-02
-1.311934575899645627e-01
-1.890103548712185888e-01
-1.749446975408580907e-01
-7.192857899154077306e-02
7.194464951825932375e-02
1.695190993417017844e-01
1.753649492938244847e-01
1.249169149676274265e-01
8.893902691962088380e-02
1.003938088839339826e-01
1.314947591581630548e-01
1.345827851247001494e-01
9.111254573288830871e-02
3.085153681991234173e-02
1.551631866688314536e-02
7.767182024885835312e-02
1.658973817216473079e-01
1.765079641758054707e-01
5.314811595190725713e-02
-1.345997814069238019e-01
-2.263198827098318600e-01
-1.315552942509534973e-01
6.423074323947494668e-02
1.965052317787280012e-01
1.815787526236818661e-01
6.859141431477540352e-02
6.348738914341777242e-03
1.360651963509267870e-01
3.730844361673491538e-01
3.134963702400173080e-01
-3.452881155701745808e-01
-1.179452017853601209e+00
-1.271939741455461625e+00
-3.778104257982951575e-01
6.126986189166170327e-01
7.605723800892920661e-01
1.679434102276358698e-01
-3.817798653679960186e-01
-4.475815907913247016e-01
-2.143786644943870001e-01
-1.734187185326622332e-02
4.843527035407386994e-02
7.151010620979662835e-02
1.099023096956760759e-01
1.332315666923071795e-01
1.097296185144136099e-01
5.730131243681408498e-02
7.045006961922272229e-03
-2.284233948789635496e-02
-1.565870527985514446e-02
2.793939550655447773e-02
6.379004272581169366e-02
4.001546228835069219e-02
-3.926784783980181992e-02
-1.160682964866322081e-01
-1.386290483578130339e-01
-9.864868965642548115e-02
-2.367830678234838018e-02
4.512485548701834770e-02
7.600618931696975777e-02
6.542939114655023369e-02
3.879160879897331632e-02
2.921915389392806470e-02
5.215766662768599876e-02
9.705544562999218750e-02
1.391180361662870402e-01
1.580932928332212661e-01
1.494598399895270824e-01
1.218025335683589477e-01
8.780537635356810977e-02
5.827494692270965976e-02
3.969720101668795104e-02
3.845053864220777246e-02
6.541877072924646985e-02
1.218145394001633741e-01
1.853645350974455208e-01
2.244290012086213593e-01
2.101747314637832931e-01
1.217229948997281264e-01
-4.741363679449916643e-03
-2.989408365034409987e-02
1.718913489585873755e-01
4.441122161204610341e-01
3.179838329775034889e-01
-4.387672802926056437e-01
-1.241257887700084384e+00
-1.158863368364686952e+00
-1.530060276775090655e-01
7.333106655476963054e-01
6.784781354441419277e-01
-4.182497118951800097e-03
-4.899163968372812206e-01
-4.447101205245643785e-01
-1.362359039349151091e-01
9.053288528955492909e-02
1.439751865187185731e-01
1.108419461185543575e-01
7.461533734193960543e-02
5.051193950251027520e-02
2.476697787785003824e-02
2.534259048848701637e-03
7.148369984150537010e-03
4.847599728326294766e-02
1.053342092350254416e-01
1.324029369577288950e-01
8.967409615466047368e-02
-1.601795670237281949e-02
-1.281733522797677827e-01
-1.910010832444061502e-01
-1.859316949873733027e-01
-1.254026759778656408e-01
-4.136385813922566212e-02
2.910562709771507411e-02
7.047728077904240329e-02
9.341585860801530916e-02
1.077901858770222016e-01
1.076022014227134976e-01
8.912299943796028745e-02
6.863753739579155078e-02
6.616906329314659052e-02
7.683093782617678169e-02
7.702125665461551085e-02
6.084246494895526741e-02
5.406072426268598852e-02
8.369835887800344820e-02
1.408550695739926029e-01
1.855021890304565102e-01
1.894621461613569813e-01
1.600550702505430523e-01
1.177566233800849821e-01
6.948519693030447142e-02
1.050289412784914840e-02
-5.304043637638673758e-02
-6.730585916199173513e-02
6.897792174759696804e-02
3.536034443295971719e-01
4.745285419754243228e-01
-8.321918179549228980e-03
-9.919828083016077880e-01
-1.584721406106055275e+00
-1.057934932992010468e+00
1.039275506279140615e-01
7.213408634888580639e-01
3.724644806765950444e-01
-2.820942742264931358e-01
-5.147133647735425699e-01
-2.892925591132390339e-01
1.025698179126580123e-04
9.952000693890288019e-02
4.854301889460234387e-02
-1.850105998340474678e-02
-4.031908811563884171e-02
-2.599914678508355795e-02
7.473204920590816036e-03
5.379807846462794640e-02
1.060535064728521382e-01
1.544067147407962581e-01
1.824966499061954628e-01
1.619204322639256344e-01
7.355528635990923880e-02
-6.153672254086295368e-02
-1.889097787146459817e-01
-2.533191367164539520e-01
-2.212610943528724450e-01
-1.044901224603261569e-01
2.865941394068598908e-02
1.035357293535336815e-01
1.071132570939812984e-01
8.261847806738911726e-02
6.960483814836934680e-02
6.875149004493241733e-02
5.731775684946429500e-02
2.738574370604355407e-02
2.891115395235541001e-03
1.939289002674339513e-02
9.138248547565487601e-02
1.933619629985566246e-01
2.652259552619098404e-01
2.510581884895393689e-01
1.544503622675802712e-01
4.427816866202491375e-02
-1.007716996390186845e-02
8.024117915947533847e-03
6.848633475725279807e-02
1.155246046211428207e-01
9.370676990365900405e-02
1.204906982385046434e-02
-5.219767945276219435e-03
1.777675394394770680e-01
4.427151355686200773e-01
3.438726602500702390e-01
-3.909479931557812149e-01
-1.241785463995701555e+00
-1.261487404715599725e+00
-3.022533682397868793e-01
6.551642116930067594e-01
7.178837744168766744e-01
9.199575286437465527e-02
-4.218351676993744026e-01
-4.384963050135722296e-01
-1.756837944559009324e-01
2.839195635788454436e-02
6.644408908318535922e-02
2.599796659154574030e-02
8.392983537179869724e-03
3.528472957392535247e-02
7.582811637072760236e-02
1.107740523086351014e-01
1.491891147080145474e-01
1.936622688230869860e-01
2.171710942143233181e-01
1.831453898339631681e-01
8.337202546707921103e-02
-4.276890283158286260e-02
-1.344245171419712337e-01
-1.579935410032385079e-01
-1.158508905921726007e-01
-2.304266590085794764e-02
8.812865420269007377e-02
1.626197116961566047e-01
1.670967685064533026e-01
1.242056851400287903e-01
7.629012129045666113e-02
3.870694355423440897e-02
8.776201563399723543e-03
-3.952502858614691597e-03
1.764260940848843412e-02
6.916079413321309100e-02
1.191628231945641020e-01
1.417745614950084998e-01
1.423293133292804491e-01
1.355776470862412875e-01
1.157738866614747564e-01
7.148924399648111383e-02
1.778721318195359766e-02
-5.907069078154259141e-03
2.979452506529127465e-02
1.102403694526357530e-01
1.716233306696794969e-01
1.488469577807384203e-01
6.587438047971466704e-02
6.988292498996694080e-02
2.731818137965912330e-01
4.735839127440346075e-01
1.944535437225976271e-01
-6.807226149853574659e-01
-1.418632228093225089e+00
-1.128438313870378407e+00
1.519881670505993099e-02
8.653622260808525590e-01
7.141343794682026846e-01
3.588881944965344184e-03
-4.579657166825315540e-01
-4.232568441321203911e-01
-1.843478013482716116e-01
-3.498693234396083040e-02
-1.231567881303059254e-02
-1.770411458139744751e-02
1.044955038569638991e-02
5.423433023043797846e-02
6.871621053385038036e-02
4.542234831780826015e-02
2.681939146385928924e-02
5.352779933124085510e-02
1.020773829295630181e-01
1.027714365089268250e-01
2.699929677364210773e-02
-7.356761757362136056e-02
-1.282715312530596785e-01
-1.168998781876418036e-01
-5.936085079878915954e-02
2.249399270193385911e-02
9.182626398882087759e-02
9.645539589638688072e-02
6.547041410094757430e-02
1.534274793824914329e-01
4.139213635165074345e-01
5.207400798842217737e-01
9.983841290069173785e-03
-9.840118591822980543e-01
-1.541670071547004195e+00
-9.647771095775757866e-01
2.321892694936765755e-01
8.855750335820632424e-01
5.738850623524810457e-01
-9.333462807963890939e-02
-4.102037541780062524e-01
-2.772850661051433074e-01
-1.415443316513943783e-02
1.252413596766135673e-01
1.253828073402291909e-01
8.408468818093010888e-02
7.036141635638074043e-02
8.694247894087481221e-02
9.993532541161272154e-02
8.788828899869119415e-02
7.170314289486859338e-02
9.133267081801749177e-02
1.505977450152350683e-01
1.987948613722947955e-01
1.776873417174037462e-01
7.989695173499400394e-02
-4.842634450764921050e-02
-1.483421319671648642e-01
-1.804667597862886219e-01
-1.473904757694649847e-01
-9.575008391658297591e-02
-6.058006430803575260e-02
-1.939269784345535805e-02
5.575526168982963826e-02
1.375572313691460491e-01
1.806985498474590335e-01
1.751311509682694223e-01
1.306768500533855848e-01
5.895387548771931219e-02
-6.352485999530982884e-03
-1.779861662815530182e-02
3.442727859072064467e-02
1.083978931845442084e-01
1.591200286316617196e-01
1.764529702953727963e-01
1.709638187026137901e-01
1.542826288178980876e-01
1.444738143758736992e-01
1.545439026243646541e-01
1.447334620515992598e-01
3.125738065466172888e-02
-1.732130258319692084e-01
-2.600095194843474733e-01
-2.147102635008635296e-02
3.898165120794257477e-01
4.427468396034853204e-01
-1.972632212374328398e-01
-1.055058293632964439e+00
-1.191832322501835018e+00
-3.872310447489816787e-01
4.839886331521202067e-01
