9.518744487663759191e-02
2.374334830011649855e-02
-5.540018904950567979e-02
-1.264165266601323945e-01
-1.702076433615589135e-01
-1.676212062405718628e-01
-1.125869049888462980e-01
-2.689314003323400870e-02
4.239522406564109891e-02
5.453254720335305034e-02
8.539706017536289467e-03
-6.020679516255077190e-02
-1.141149361703118759e-01
-1.408022304821614779e-01
-1.488889957651378659e-01
-1.414957357045085184e-01
-1.068580034031650777e-01
-4.274857270667402342e-02
2.450390620479224457e-02
6.214831408913673583e-02
6.791965691640719505e-02
6.659379357603859018e-02
6.355181115285653271e-02
2.819152515576898999e-02
-5.012309369299074863e-02
-1.187391855183362460e-01
-1.192321951598424024e-01
-6.365809852233116073e-02
-6.687977413110175740e-03
2.938735423016253928e-02
5.524992407318868315e-02
6.495261715694894411e-02
2.954646123199129032e-02
-5.691362010862927034e-02
-1.453770037824246297e-01
-1.671423319893982351e-01
-1.046493204924873188e-01
-8.685914714187059626e-03
5.798659078071972256e-02
7.165975592213441603e-02
3.980930267703029768e-02
-2.503618333482671848e-02
-1.004927036107888388e-01
-1.479712539076350752e-01
-1.566940961390800302e-01
-1.884986019145077907e-01
-3.012154031035216839e-01
-3.778984188190701032e-01
-1.527451355656858634e-01
3.988329991232918426e-01
8.096597724095020432e-01
6.116455604562728299e-01
-6.574673963167576574e-03
-4.360368389885063145e-01
-4.110168937034603398e-01
-1.510972152680703506e-01
8.233380088722894175e-02
2.250707383668003880e-01
3.047062746258063504e-01
3.318673846955788043e-01
3.066021256296387332e-01
2.432070662265143068e-01
1.583864466252387915e-01
5.556605444960259488e-02
-5.670596632595769487e-02
-1.416142888152404355e-01
-1.589665082602492452e-01
-1.105508326720897605e-01
-3.860982213925322204e-02
1.503847687752380043e-02
3.393616984446807400e-02
2.254349873198505452e-02
-6.237021975548812450e-03
-4.075473567284709081e-02
-7.467630676917200172e-02
-1.045083242861798434e-01
-1.259793368524009527e-01
-1.270124477254507556e-01
-8.504662055431395917e-02
5.412791423311061681e-03
1.014631157985518006e-01
1.394667950765555997e-01
9.735297291110020512e-02
9.606595466674174022e-03
-6.786770996241933696e-02
-8.931941819576059982e-02
-4.081903340121809109e-02
4.026224840237482838e-02
8.994952056709634713e-02
8.815812531963666820e-02
7.798208675465652384e-02
9.622950080955812446e-02
1.207866469660213160e-01
1.060377699671652685e-01
4.218395056118407621e-02
-3.286882736413739015e-02
-6.944071365457565870e-02
-5.548852648913164126e-02
-2.345553431545817705e-02
3.847893412281231523e-03
4.595645553914833037e-02
1.162831853867169613e-01
1.716788341151850028e-01
1.478805764899766562e-01
3.644285365966835194e-02
-9.444895707470712942e-02
-1.550460310951867482e-01
-1.110074073264669947e-01
-2.003105308290852732e-02
1.225616661126537228e-02
-5.127451429357259699e-02
-9.254612486787533454e-02
4.849437519952148196e-02
2.923144554659954930e-01
3.067998913506877479e-01
-3.856671975571184657e-02
-4.182107313172978014e-01
-4.730112582778868147e-01
-2.292849438062567746e-01
7.601321629799281943e-02
3.084807886221810347e-01
4.414982191906371423e-01
4.560389477203648512e-01
3.487932283478302753e-01
1.688636523484408070e-01
-3.572027110169004316e-03
-1.087363528640496596e-01
-1.363082610710598663e-01
-1.129996699482413713e-01
-7.110365788433024858e-02
-3.044965669606370523e-02
-7.629417967736232611e-04
8.028086377994280223e-03
-1.394776008926609800e-02
-6.493510180879026594e-02
-1.319648125235816094e-01
-1.991427051311416563e-01
-2.416917050519917509e-01
-2.281556135921821160e-01
-1.519033168976595682e-01
-4.901043502600783280e-02
3.244674330507166249e-02
6.838046098416204754e-02
5.318029780445712729e-02
-1.691586169057935837e-02
-1.297924108749996530e-01
-2.418483009873842182e-01
-2.994585412751790132e-01
-2.686474444578402787e-01
-1.422393649313049568e-01
4.700765963619321641e-02
2.100527357318282551e-01
2.487956044373698106e-01
1.489450637491640250e-01
-5.100609975231221171e-03
-1.202739402783073730e-01
-1.705476342665033784e-01
-1.803289003115525202e-01
-1.683451998200278521e-01
-1.301416507589469584e-01
-6.181766665672093486e-02
2.223213695191368980e-02
9.552440569521948588e-02
1.324902777249045982e-01
1.175642860497237707e-01
5.002499242131370344e-02
-5.128008066506298951e-02
-1.451925172455902358e-01
-1.869443065432916107e-01
-1.599515366912153680e-01
-7.833528930214159192e-02
2.657631275179198754e-02
8.927850679222526509e-02
1.959762643589822717e-02
-1.701387034272625609e-01
-2.518860916371065684e-01
1.988125655119778179e-02
4.950687298601439412e-01
6.637438858877068304e-01
3.121749723381299635e-01
-1.542411458348624809e-01
-2.630504659020868052e-01
-1.537534237011856791e-02
2.887995797955538735e-01
4.461590962284261441e-01
4.364033225929973003e-01
3.195924172586661616e-01
1.677013046779218808e-01
4.111684054043725223e-02
-2.657501075864019541e-02
-2.965208743561670302e-02
1.742585272062089838e-02
7.985210104893661343e-02
1.112564717858659652e-01
8.358502274256283948e-02
3.980290647431850362e-03
-9.980713787327376296e-02
-1.955872776219317877e-01
-2.510799970934650682e-01
-2.456001450021428612e-01
-1.856382729178456814e-01
-9.997276658695172791e-02
-1.782133792245110121e-02
4.419347308423331872e-02
7.815642605703833345e-02
7.716102867343133109e-02
3.769542143707903942e-02
-2.865569281373455540e-02
-9.118830332505820091e-02
-1.169598823107735192e-01
-9.661928265935036675e-02
-4.647080234158389167e-02
2.047960523032155145e-02
1.057435944442704362e-01
1.903481394669293558e-01
2.167556982064661464e-01
1.432710078279751387e-01
5.004477791204189202e-03
-1.118969625553206254e-01
-1.528410968325483732e-01
-1.269728498363519309e-01
-6.523811359706055413e-02
1.560788247381375560e-02
1.000055355298337390e-01
1.592243466364982041e-01
1.653226671142737081e-01
1.014858440304653303e-01
-3.564215457374416557e-02
-2.056592064364982653e-01
-3.091164545040462897e-01
-2.697619906602048978e-01
-1.256144002069903842e-01
2.148294437990132949e-02
1.168790951332519673e-01
1.628389429600318461e-01
1.597249990169921641e-01
8.229082192784116512e-02
-8.577506740957721587e-02
-2.735870287818992219e-01
-3.093959422700812700e-01
-1.147151008331444011e-01
1.035508805907949803e-01
7.270932123631629329e-02
-1.544265983989742685e-01
-2.888624971028746491e-01
-2.115674662401436645e-01
-3.703441132493927312e-02
1.093445273105153465e-01
1.812287529592990221e-01
1.760217666368463496e-01
1.229184646187461982e-01
7.250955580841376980e-02
6.116928609920824905e-02
8.490123354951412127e-02
1.079800655809970283e-01
9.580128036061141827e-02
3.889993644666493722e-02
-4.759153555980818323e-02
-1.355885127643879084e-01
-1.974858141048233262e-01
-2.192318743744813281e-01
-2.023180011932828037e-01
-1.544164025889354641e-01
-8.622799312783431536e-02
-1.909629733368611859e-02
1.816977355688497928e-02
1.419756606043229286e-02
-7.252405686306719751e-03
-1.007223443623140452e-02
7.581981612564534477e-03
9.792572389723480306e-03
-1.520487455062521920e-02
-2.342570764440612963e-02
1.989369278640642363e-02
8.259931687814897616e-02
1.128329022118619851e-01
1.106877905630257036e-01
1.118047440797372699e-01
1.160657109642931339e-01
7.647332239347823246e-02
-2.650919452796905718e-02
-1.312449100744441655e-01
-1.508361185867632959e-01
-7.128777238381808767e-02
3.661997114951856536e-02
9.513291805334114781e-02
8.414246212981978112e-02
3.417401892223755067e-02
-2.207681625348877769e-02
-7.714267485242720657e-02
-1.272205006160837260e-01
-1.443703459223953101e-01
-9.824217268798722535e-02
-4.425286807425777777e-03
7.480172433514763186e-02
8.950213150867787626e-02
4.831598355255406485e-02
-2.409115943660533263e-03
-3.338549091192095919e-02
-6.268170555804056243e-02
-1.449103226827737623e-01
-3.095357896794415642e-01
-4.572351113490505936e-01
-3.643034255404320465e-01
5.044400205583637886e-02
4.784977990385363977e-01
5.015029075383788948e-01
1.389729243542699444e-01
-1.886128698024532868e-01
-2.237509748508213214e-01
-7.594043176183465360e-02
7.503769095897151742e-02
1.859777529432992405e-01
2.819675357540313843e-01
3.601992978852813221e-01
3.907352600719175562e-01
3.579671395884849172e-01
2.770297207636477355e-01
1.747982770090882876e-01
6.777452380596393766e-02
-3.461506484121627814e-02
-1.128675091912522271e-01
-1.389082753792632852e-01
-1.008833415507309483e-01
-2.002247275117717898e-02
6.165305041236958383e-02
1.085200482248431797e-01
1.089953340009900407e-01
7.232438225658649467e-02
1.330381698841335940e-02
-5.288078206680688759e-02
-1.037795976864048647e-01
-1.131664926262544446e-01
-6.907672896663634432e-02
1.221159927772098863e-02
9.213673405344401102e-02
1.345752632800918114e-01
1.237839089899089029e-01
6.476373240202373815e-02
-1.407568093683505585e-02
-6.701249499448319602e-02
-6.892817471037887556e-02
-4.277062166200672200e-02
-2.762620629280829881e-02
-2.643113348514982558e-02
-5.251718833472075049e-03
5.491860864981380069e-02
1.214892474663413630e-01
1.392496536877680380e-01
9.138594425210719296e-02
1.442224527662977485e-02
-4.465636225253082764e-02
-6.479070261396577268e-02
-4.748248234955701474e-02
-2.713779446547243124e-03
5.437378903857308099e-02
1.048274397099523553e-01
1.332332099080832388e-01
1.344863282182731656e-01
1.082524661242029868e-01
5.094179494774626199e-02
-3.004441702935941455e-02
-9.919503169004550980e-02
-1.220808182183239082e-01
-1.163041899587988481e-01
-1.319891514475165228e-01
-1.582249768459273731e-01
-1.083330860750282842e-01
2.312398400318339126e-02
6.251041850457028648e-02
-1.253935601450303639e-01
-3.979285916561144387e-01
-5.024462611392542799e-01
-3.804448258634554048e-01
-1.430907252933446006e-01
1.118334757806542512e-01
3.253349057182612358e-01
4.347925863844213645e-01
4.044151890304790165e-01
2.671427883018193672e-01
1.027245912169562903e-01
-2.472225551950662029e-02
-9.942458140173764114e-02
-1.298607123904767791e-01
-1.176659901855221790e-01
-6.384261083030046136e-02
1.269063844518886208e-02
8.009387412206477042e-02
1.112617262198957735e-01
9.249897128829159820e-02
3.100466026428890312e-02
-3.888067470949903293e-02
-8.224503022802133467e-02
-1.151291866596937385e-01
-1.924064381009425451e-01
-2.988458888574471728e-01
-3.112494763803188014e-01
-1.590785403013801058e-01
4.766587532956025053e-02
1.486175203241561216e-01
1.075103497751796477e-01
-1.031415669045110395e-02
-1.330758252524783802e-01
-1.979147731328995963e-01
-1.559810511254633436e-01
-2.348938079524663658e-02
1.086421677231560051e-01
1.520147401816210886e-01
9.743829991609589958e-02
8.813037649330366513e-03
-4.999255359034170121e-02
-7.502669687759845607e-02
-1.015855777712942193e-01
-1.380570713428322105e-01
-1.544645632832150617e-01
-1.300411626004741306e-01
-7.115357796864484052e-02
1.178419141589150294e-02
9.821370445131755167e-02
1.356620578675301614e-01
8.130360524392231392e-02
-3.360013872862575857e-02
-1.306294444671020627e-01
-1.724777075614194188e-01
-1.793926411319870518e-01
-1.654992986151198608e-01
-1.122228205041028715e-01
-2.272303641579347111e-02
3.078056529174012443e-02
-3.757704613774782293e-02
-1.913363760843733163e-01
-2.382294653213406777e-01
-5.847526728599070078e-02
1.536460765720475963e-01
9.726559605762347127e-02
-1.887667771042213227e-01
-3.679250298034500988e-01
-2.643303228909353320e-01
3.365398812979814025e-03
2.714246713749906004e-01
4.670294356264095281e-01
5.459775967540293484e-01
4.725913718741288072e-01
2.852143530427428408e-01
9.799097350032687226e-02
5.185687191142270003e-04
-3.806659107906390851e-03
4.467187054201765539e-02
1.107040921870694750e-01
1.644826250235213727e-01
1.763206187424338767e-01
1.282581251439816605e-01
3.014597562839130968e-02
-7.706870102012140789e-02
-1.455970117890167392e-01
-1.502433304400033198e-01
-9.060864728916369348e-02
1.384886754374168791e-02
1.173854909450064987e-01
1.656613239956331307e-01
1.414096098878473984e-01
7.361730081248986368e-02
-3.568470969659041231e-03
-7.265528124413575539e-02
-1.185914379380832578e-01
-1.299970194023047643e-01
-1.100257663680715425e-01
-5.826079007238591650e-02
4.121133661365161682e-02
1.758031875157116675e-01
2.610170080227815492e-01
2.013548870790569933e-01
1.506051542982129662e-02
-1.588091054816563319e-01
-2.120892541126460640e-01
-1.718225294538179571e-01
-1.207824296037695172e-01
-7.939445584184776084e-02
-1.241632499753576001e-02
9.236717840307054339e-02
1.930412130941795146e-01
2.310421052343192283e-01
1.861943039069734462e-01
8.997266188351830951e-02
-1.084740973255837217e-02
-8.531313284236925754e-02
-1.143141102797038677e-01
-8.498353307962118464e-02
-6.805605116616538636e-03
8.026476351993003244e-02
1.328992422440994359e-01
1.283345794858253563e-01
4.167378105605097638e-02
-1.506841643084920190e-01
-3.624466361574825712e-01
-3.661977758757488099e-01
-6.840731319966625312e-02
2.386425061518279434e-01
1.933238106460936634e-01
-1.130519803487042146e-01
-2.572247193112299768e-01
-5.273139225114005513e-02
2.901655671495387834e-01
4.824091808658600988e-01
4.318748970847736679e-01
2.491479298957920419e-01
9.117391461118296014e-02
2.937738809740641360e-02
4.224754387244607223e-02
7.754192483551879123e-02
9.601867612561308662e-02
8.061676093387519504e-02
2.978965089708519171e-02
-5.001279539385299067e-02
-1.415581520846763419e-01
-2.151661828085597028e-01
-2.455331017512674963e-01
-2.265194183446840037e-01
-1.653332571887429492e-01
-7.945348665867643656e-02
-2.390695975112194088e-03
2.902053760167802587e-02
8.719704671171287381e-04
-6.887403541617852232e-02
-1.414205255126436689e-01
-1.775881016822282721e-01
-1.639161307065177264e-01
-1.213395278636027474e-01
-7.710729752518391544e-02
-3.813599220342824003e-02
-5.195616002435806888e-03
1.177888113369193746e-02
1.404449464047411583e-02
1.863508860541920192e-02
1.958575926156884764e-02
-2.029093878023390668e-02
-1.119848838393240065e-01
-2.015969251663755346e-01
-2.152113615780378020e-01
-1.333931376591577511e-01
-9.930519125498171382e-03
7.700955812536031120e-02
8.653116707610943037e-02
3.529691309942037392e-02
-2.876325963289280349e-02
-6.635885285667610101e-02
-7.386988318472702264e-02
-7.587758824349510878e-02
-7.968610338230090739e-02
-5.895927018150960708e-02
-4.719299266863652420e-03
4.601686649603345391e-02
5.505603694731845549e-02
2.133643467209235534e-02
-3.636250434676871479e-02
-1.166942482666749048e-01
-2.444639924884402793e-01
-4.006127092346072338e-01
-4.177296220423165618e-01
-7.550736945997270355e-02
5.360622202063238806e-01
9.064974702055239586e-01
6.618700877841018348e-01
8.221002051015258161e-02
-2.698667793286856909e-01
-2.302613943726190826e-01
-3.529243622371051881e-02
1.104173712453948020e-01
1.856215667964260518e-01
2.261836918254908069e-01
2.431071125267208477e-01
2.343877106122154719e-01
2.012376522034298176e-01
1.447903590081062730e-01
6.197871018484710226e-02
-4.534032887670181450e-02
-1.536246064815886270e-01
-2.207917274052101919e-01
-2.186063773346254291e-01
-1.575480417570401526e-01
-7.541248965375244029e-02
-1.101328074228749565e-02
1.308732229620539547e-02
-4.496891629327654481e-06
-2.800518721665188476e-02
-5.686529133267766850e-02
-9.328207993231800443e-02
-1.411980423241545879e-01
-1.857751916640146272e-01
-2.024205810973657704e-01
-1.556306079646260776e-01
-1.729608224562656851e-02
1.620894329119051402e-01
2.480954864682380079e-01
1.660963623157546143e-01
8.510869021502862758e-03
-7.245363576377705783e-02
-3.758877463234847754e-02
2.871535121048405734e-02
4.422720726335190727e-02
1.522697270268611250e-02
2.354679139215465691e-03
3.669048562360340687e-02
9.192453036549395884e-02
1.219649835066191762e-01
1.001162600624605908e-01
3.192943280365038994e-02
-4.692817467900657624e-02
-9.085019872031568910e-02
-7.700960392257359677e-02
-1.537449561238257885e-02
6.939548734497891225e-02
1.484927312991913551e-01
1.888852117882351411e-01
1.694012677191360783e-01
1.008477605159925072e-01
2.057618718319865342e-02
-3.054753874233432850e-02
-3.449777028989914340e-02
-2.519787463121578308e-02
-7.243347029637878243e-02
-1.655247931777025228e-01
-1.328531414422972901e-01
1.531310960040805913e-01
4.645321573749198185e-01
3.959366742534783379e-01
-5.897094269604034877e-02
-4.602061792587811007e-01
-5.133759111550629806e-01
-3.227216326299972016e-01
-5.308300563916436288e-02
2.709432823031541204e-01
5.866233032052624585e-01
7.095025488159230065e-01
5.511440398569094068e-01
2.616478938295489498e-01
4.411366112915716953e-02
-5.947545612446461516e-02
-1.225436653581333246e-01
-1.817026683558359279e-01
-2.041758878581923231e-01
-1.544244942282413935e-01
-4.544309742750718417e-02
6.234099982830668824e-02
1.027594062738272918e-01
5.766510619537362770e-02
-3.432985568016322375e-02
-1.247532324927121267e-01
-1.864543474800906819e-01
-2.013437547108504200e-01
-1.580851787510130502e-01
-7.136617183278490262e-02
2.316351959122907311e-02
9.859770205942705590e-02
1.424766393626333838e-01
1.378843037769854063e-01
7.164597494926316923e-02
-3.351320033122173747e-02
-1.217017307054477360e-01
-1.433374141090756893e-01
-8.565681051025225701e-02
1.670978161854887178e-02
9.660346243395694088e-02
1.064879075646812390e-01
5.957089859375049729e-02
2.140392958971205906e-03
-4.578017827833281289e-02
-1.018416396141487573e-01
-1.745555912829467038e-01
-2.266612486383058900e-01
-2.096165639301540429e-01
-1.268348322372518933e-01
-3.054408122166682449e-02
3.753056763061857898e-02
6.907118162248428173e-02
6.390040109427266857e-02
1.902496558531334078e-02
-5.693378021718275422e-02
-1.414311312631273410e-01
-2.084827482926051301e-01
-2.316264377361399174e-01
-1.931476148618791466e-01
-1.090199973661201555e-01
-4.274457112316599333e-02
-7.214485093712449948e-02
-1.873593122537993705e-01
-2.146346993146027171e-01
1.496743228741119133e-02
3.429731073846387090e-01
3.650995173906610436e-01
-1.632133800182129085e-02
-4.128845688762039501e-01
-4.582891951822758436e-01
-1.880398638944413281e-01
1.493021497809365328e-01
3.741674799942177887e-01
4.306253458097716869e-01
3.459744767857403924e-01
1.919050087668660309e-01
3.988000254898664554e-02
-6.592286393835707081e-02
-1.081580327867950331e-01
-9.129624044249413928e-02
-3.604212077111913076e-02
2.992386981787735489e-02
7.666849326163098499e-02
7.844980827226699649e-02
2.751559972586044289e-02
-6.108499924471595677e-02
-1.578453845402272848e-01
-2.268893357562545288e-01
-2.376905540515150128e-01
-1.862993898619242361e-01
-1.014488667377198561e-01
-1.626247690339577279e-02
6.295881604241806984e-02
1.436880064244850930e-01
2.012762521695168616e-01
1.796029797951473606e-01
6.616797671509738743e-02
-6.928015425600708710e-02
-1.450960383734503367e-01
-1.339155943441023011e-01
-4.246613620745167544e-02
1.045215280984885114e-01
2.351805326393859030e-01
2.567701325441643090e-01
1.526381912415922804e-01
8.013614621379415437e-03
-8.718723528252886323e-02
-1.167408639341439014e-01
-1.050091550695428227e-01
-6.227784489448685845e-02
1.011107738418467843e-02
9.701095767638465150e-02
1.722830726159286785e-01
2.082535545239966868e-01
1.808996370957806910e-01
8.654826920973021642e-02
-3.723885799275527403e-02
-1.256035848162661284e-01
-1.397640770133002364e-01
-9.559658614931909604e-02
-3.026758113405775968e-02
3.635579029575214394e-02
9.620139662129117974e-02
1.289105957689161419e-01
9.213756346679183307e-02
-5.075674652459538638e-02
-2.509193286390733468e-01
-3.464816920607867168e-01
-2.371506123390697551e-01
-7.721856168795357411e-02
-9.658496594899335097e-02
-2.453897264771098541e-01
-2.730457657166422969e-01
-1.070208493926927545e-01
1.057313485355260152e-01
2.420163253887647470e-01
2.838747495395230747e-01
2.452389445173477345e-01
1.511342866324754119e-01
5.574260010413807642e-02
1.460120009874698102e-02
3.818571159015303473e-02
9.294430239362580504e-02
1.357303444572016682e-01
1.335996764094041500e-01
7.589871784617101269e-02
-1.371064371161148654e-02
-9.415687043401667344e-02
-1.428684277495597954e-01
-1.621043855415713608e-01
-1.540136739336996352e-01
-1.116657384746506110e-01
-4.046922662638252621e-02
2.899915773263436053e-02
6.049634126968984199e-02
4.171767761063519681e-02
-7.680175166079765414e-03
-5.814613549401120157e-02
-9.486779329374969705e-02
-1.131416702440204980e-01
-1.023565594256994060e-01
-5.556203051097324819e-02
1.295461366520365629e-02
8.084162032590916369e-02
1.396499658722995807e-01
1.816807673290291858e-01
1.754909146172010659e-01
8.810109682808774101e-02
-5.804341545153718362e-02
-1.777267886871405911e-01
-1.981257707290911274e-01
-1.271690298742661762e-01
-2.802628886118916154e-02
5.168397846359649994e-02
1.008329173864238870e-01
1.177284902674594763e-01
9.477628419346566246e-02
2.948598302935105664e-02
-6.320131230932726774e-02
-1.503453485251764754e-01
-1.902839306304302813e-01
-1.522348323971899342e-01
-4.366105555446350706e-02
7.556079986559367800e-02
1.263514915684076645e-01
8.568644683358402070e-02
1.678661154037581690e-02
-1.706711417965461192e-02
-5.912588461433343490e-02
-2.048428753395709900e-01
-4.060503809096735472e-01
-4.203955285773150474e-01
-9.584591630343593238e-02
3.290615710043630626e-01
4.387129041500304472e-01
1.743464681434752084e-01
-1.210031391581604249e-01
-1.875660523057351425e-01
-7.714884514301537100e-02
6.768848170127138297e-02
1.894092793494012994e-01
2.770106029847006490e-01
3.181316900405244397e-01
3.152271035868830507e-01
2.902455775638173585e-01
2.574722598008550856e-01
2.121017819378204217e-01
1.476539747168221228e-01
6.620832775817277194e-02
-2.643708314223128589e-02
-1.147258296410735845e-01
-1.626477669076981381e-01
-1.297911528377729828e-01
-1.503664425893377551e-02
1.167616418903236059e-01
1.795902453455055781e-01
1.518921907228063806e-01
8.458284042373780121e-02
1.979395828058031978e-02
-4.534720420463927287e-02
-1.106921297358860606e-01
-1.461402786431127976e-01
-1.261948321749006563e-01
-5.907808681834968156e-02
2.314021474985981236e-02
8.427310279921566838e-02
1.009362571285542659e-01
7.986673198825008924e-02
5.169196083110741413e-02
3.323000049772587700e-02
7.840641550228063389e-03
-4.040669859784513929e-02
-8.631591691077890316e-02
-8.471196197602320899e-02
-3.204393589814670540e-02
2.373018296523224033e-02
4.412284514315251843e-02
3.797328074841985895e-02
2.666541499015945282e-02
6.947557222451068021e-03
-3.293781421394759157e-02
-8.042219043731023420e-02
-9.936556620969898279e-02
-6.240819851370242588e-02
2.170861142748330141e-02
1.106804674474223954e-01
1.565998605550794898e-01
1.377703107481374201e-01
6.856411497114744957e-02
-1.960807324743874328e-02
-9.919667790970207455e-02
-1.518504673160782914e-01
-1.767285216682663029e-01
-1.892729622970655001e-01
-1.768486512810512057e-01
-8.002317033630156062e-02
1.030299400844713886e-01
2.143345996380398577e-01
8.412007787579742213e-02
-2.067767917401492905e-01
-3.972630690174425716e-01
-3.732706848044797243e-01
-2.213933496138495993e-01
-2.093729652247329834e-02
2.048193209183293007e-01
3.930338734898924380e-01
4.592016624184597218e-01
3.923089023991687685e-01
2.592874543605423465e-01
1.270961506093973847e-01
2.001595900191523170e-02
-5.707977153558926875e-02
-9.506752872902840545e-02
-8.643849070353457065e-02
-3.518282870937482903e-02
3.587098469604721451e-02
8.549009927281736587e-02
8.353332754225042955e-02
4.212437695092931256e-02
-4.528625854874668115e-03
-4.877341065524792157e-02
-1.120249426184446312e-01
-1.925507658877095574e-01
-2.379869486727956562e-01
-1.981008598025369438e-01
-9.152331196821336667e-02
1.163400272668465608e-02
6.360123091491924618e-02
6.699029057780750418e-02
3.916888357427493472e-02
-1.953582076411279622e-02
-1.056007847835660762e-01
-1.729002517080674983e-01
-1.594836337204876830e-01
-7.436223140620273897e-02
-5.269024873214463167e-04
1.664907238978642623e-02
1.466383839129072920e-02
3.033306265675481464e-02
4.611720665403647168e-02
2.950901492685103003e-02
-2.563148911320264900e-02
-9.394815606278970888e-02
-1.330473233844484404e-01
-1.161884660467937536e-01
-5.639504934776183587e-02
9.552841144535461140e-03
5.320583562394346627e-02
6.410586967739684283e-02
4.054398346752793869e-02
-1.530066941619686628e-02
-9.315380825752711536e-02
-1.713983697756423785e-01
-2.185461255360176547e-01
-2.008648365936887004e-01
-1.102262590982589496e-01
-6.050243000462394299e-03
1.489762237678492933e-04
-1.240424112788419686e-01
-2.132711016128415182e-01
-5.635262098733875152e-02
2.514611501639368307e-01
3.151815786795716945e-01
-2.304359249469110221e-02
-4.070026633518566972e-01
-4.380561184472410718e-01
-1.453827152218326035e-01
1.876452161816787312e-01
3.929479820263004908e-01
4.671308555625633407e-01
4.409642848689074301e-01
3.338947949989775621e-01
1.822728582547976373e-01
3.893096315761739035e-02
-5.695878991205145792e-02
-8.944405361851928693e-02
-5.473236321528472670e-02
3.630578926328489192e-02
1.406848204088868015e-01
1.896780447771131972e-01
1.382795764948679951e-01
5.309426554487428965e-03
-1.494797294514202679e-01
-2.668374774346222722e-01
-2.961764327177903722e-01
-2.118640142196616671e-01
-5.091441169082017160e-02
1.001523622450216922e-01
1.750573966712076213e-01
1.662437947757390289e-01
1.020429359306141703e-01
1.585485077848879099e-02
-6.511809931627407511e-02
-1.242745985980154982e-01
-1.524368304936311591e-01
-1.374091243013741137e-01
-6.545519250548188783e-02
5.852922763492522662e-02
1.909501479610317132e-01
2.599506552316379060e-01
2.173361519485438043e-01
8.615099780112180083e-02
-5.831303372215587005e-02
-1.546398949189811967e-01
-1.846551298400103680e-01
-1.496947069670165054e-01
-5.808423900767902687e-02
6.035779019761672304e-02
1.593248525800068094e-01
2.037093678149416720e-01
1.834884150133488656e-01
1.101141837780479915e-01
1.238163656966885517e-02
-7.193437751064953034e-02
-1.182383931440442598e-01
-1.285281802033374221e-01
-1.100709803200266707e-01
-5.390600478446719301e-02
4.148136196130719489e-02
1.350192226569627840e-01
1.534145000102493384e-01
4.035939421171082925e-02
-1.793250330951729199e-01
-3.468701353038086133e-01
-2.581524344263084747e-01
5.348821720845904626e-02
2.328685615465515835e-01
4.535783984904390859e-02
-2.549140581361192814e-01
-2.884455714008705152e-01
-5.603466261930328124e-02
1.831894386811342423e-01
2.878416408994842191e-01
2.839482205583483410e-01
2.278701585824144116e-01
1.597634403787891733e-01
1.158441665018973693e-01
1.146902779953128254e-01
1.349663735085941119e-01
1.321594127538033847e-01
9.207520007294225928e-02
4.508882166144723841e-02
8.322040618098101514e-03
-4.667158540152532148e-02
-1.365309227941695347e-01
-2.168938451486943086e-01
-2.300391978888323141e-01
-1.717712179655171145e-01
-8.045189855509658761e-02
5.275857382883152383e-03
5.433143255331344956e-02
4.896393478250246623e-02
2.089756768205181664e-04
-6.650114188824930717e-02
-1.332546867814287384e-01
-1.775282789458963728e-01
-1.643053892389956250e-01
-8.410608394483609640e-02
1.648145635589402108e-02
7.697684726115244791e-02
8.893358823062279261e-02
9.250106946511493788e-02
1.150601057828534030e-01
1.325893116583202747e-01
9.198904442590194463e-02
-2.198762528904907310e-02
-1.452522019649113705e-01
-1.888251192744111462e-01
-1.308222227597064524e-01
-2.566772189774655169e-02
5.946788182817527163e-02
8.848744915545042611e-02
5.732877207936978858e-02
-1.780779002672223943e-02
-1.078889114850500597e-01
-1.772384676177223006e-01
-1.975223227720091235e-01
-1.632002338845144895e-01
-9.128323855877196191e-02
-7.733481994525333997e-03
6.028806289474828578e-02
8.691577742270537033e-02
6.363910993155892648e-02
1.325283985620316803e-02
-4.107512222849191846e-02
-1.257193614085573841e-01
-2.741474072895878633e-01
-3.766717965542945579e-01
-1.792479771521426901e-01
3.552675989104919774e-01
7.734682277671152129e-01
5.962472796013575937e-01
5.689786471275479207e-03
-3.796163494161796659e-01
-3.133349323139283382e-01
-5.783162652251383484e-02
1.209216678782607940e-01
1.949641820478071885e-01
2.269803002989455587e-01
2.474243060027382646e-01
2.588953181268919268e-01
2.541174297094420109e-01
2.143590763674252386e-01
1.183868724443182252e-01
-2.914132845936597688e-02
-1.808515458094132333e-01
-2.730019155886475590e-01
-2.751820707422081291e-01
-2.089946800183792863e-01
-1.201907977701546365e-01
-4.004321833770223271e-02
2.614833278440019393e-02
7.098462731792444524e-02
5.055480849109968144e-02
-8.400072497231016178e-02
-2.882465646913973112e-01
-4.115157160126689528e-01
-3.544438814443121588e-01
-1.865776822998907181e-01
-4.086410745214748286e-02
3.610414297770195291e-02
7.477509209241114951e-02
9.610381200966371107e-02
8.795500569854625139e-02
4.372627232648719497e-02
-7.141179755521276720e-03
-1.847568762998660907e-02
2.279074343689446724e-02
7.652657137745354221e-02
9.752931665569423980e-02
9.746280298909391904e-02
1.197755203599651236e-01
1.561811839378488553e-01
1.467064731234050678e-01
6.891938413224645010e-02
-2.721636829356291476e-02
-8.265606911743521301e-02
-8.845920597210560343e-02
-6.879465822850361345e-02
-3.159050478876878482e-02
3.548369461387008983e-02
1.249598823327272845e-01
1.947232069992421710e-01
2.022387523784697771e-01
1.412274710103967601e-01
4.545062654799462976e-02
-3.334683666380951206e-02
-5.395092959450435710e-02
-1.345650683503041289e-02
2.946888857057474581e-02
-1.083007548936525816e-02
-1.117206137881055633e-01
-7.725253265886916632e-02
2.209935463896681440e-01
5.508632432112320343e-01
5.249107095986486060e-01
1.142089069162150333e-01
-3.121326226463363995e-01
-4.397915914271058879e-01
-2.605564920421016284e-01
5.584625824744480355e-02
3.289236369160045692e-01
4.442378118334432413e-01
3.919160491035011962e-01
2.463583389547731040e-01
9.121783287305841592e-02
-3.221048821201345086e-02
-1.163676457246576312e-01
-1.619482466680421950e-01
-1.727093589580173116e-01
-1.528977680032906628e-01
-1.027398939797053434e-01
-3.516543687067769791e-02
1.149277075787413609e-02
2.206786764855679303e-03
-6.189461058436503127e-02
-1.500673426943336941e-01
-2.229605723996078981e-01
-2.462605088757338634e-01
-2.083559890875254506e-01
-1.267817964413813225e-01
-2.866741742356285205e-02
6.140521107072774432e-02
1.134373745265304101e-01
1.032807304389578434e-01
3.888301034548879986e-02
-4.838044439562027427e-02
-1.305371348503859275e-01
-1.796926587147582854e-01
-1.600486421458121034e-01
-5.467313921446816105e-02
9.993951429507219597e-02
2.221721791162853954e-01
2.457035756192103015e-01
1.747680904451912876e-01
6.839869386448903243e-02
-2.296110798539843095e-02
-8.749818830969169348e-02
-1.282942863486538077e-01
-1.361848472192169479e-01
-9.754862998942083474e-02
-2.219413685930843316e-02
5.084261249281273737e-02
8.501014405173432098e-02
7.582853637597711249e-02
3.938384448294011964e-02
-1.254335236050208718e-02
-6.929795794776180684e-02
-1.161939067122251951e-01
-1.592638867003297876e-01
-2.238674562919761302e-01
-2.869114121574080634e-01
-2.659597007889379361e-01
-1.547934754536674506e-01
-9.391467794789562507e-02
-1.767213580507648873e-01
-2.479581681234516999e-01
-8.272852417430243133e-02
2.268654158968701207e-01
3.121118059624554131e-01
4.809613390075882788e-02
-2.540822336612684196e-01
-2.852594987586054009e-01
-7.148576950113762207e-02
1.914788961645457477e-01
3.691584539390918573e-01
4.115649271644984397e-01
3.226643322761159061e-01
1.638097629635754116e-01
2.805965288925254750e-02
-2.587149907197881099e-02
-1.075344903529755654e-02
2.214532165204423711e-02
4.032611872406074299e-02
4.273071383149389113e-02
3.086490414229203089e-02
-3.920735945079175354e-03
-6.276057205910533232e-02
-1.285774587387678580e-01
-1.757304240313204424e-01
-1.824375355883613437e-01
-1.420412142411005274e-01
-7.490853178400405654e-02
-1.936112934903600966e-02
6.811634474583252476e-03
1.978250447288190314e-02
2.561103216706615143e-02
-1.108091716340709691e-03
-6.492100905798400823e-02
-1.183216604414300266e-01
-1.186803826622071234e-01
-8.417955580789389380e-02
-5.429930655017077556e-02
-1.502926098769744208e-02
7.938287392264115061e-02
2.043620313420338175e-01
2.506012172166788288e-01
1.482800402375535898e-01
-3.690354991731167184e-02
-1.673622438853607508e-01
-1.680852140245913950e-01
-7.468237774295619080e-02
2.934301947113476458e-02
9.356642736735686083e-02
1.211704394858964806e-01
1.333430196442252913e-01
1.338534395617417272e-01
1.105149767924113596e-01
6.001257367772823426e-02
-5.262497958854941288e-05
-4.511893583303774879e-02
-6.174165194523962424e-02
-5.072506074198625259e-02
-1.737382582054809374e-02
4.447060439036737423e-02
1.468469897730968754e-01
2.571095987811562456e-01
2.720132244346148975e-01
1.035792125557637999e-01
-1.910624724986688672e-01
-4.011151880042487239e-01
-3.525861477055349802e-01
-1.397411406696696945e-01
-4.184902076425314754e-02
-1.403624252670340466e-01
-2.265525091754719833e-01
-1.512552027776219443e-01
-2.477659069545813664e-03
9.919754396980186295e-02
1.491316861958151552e-01
1.843716482050188343e-01
2.042744524223028546e-01
1.966754236910063791e-01
1.852941838794427420e-01
2.052281300087075988e-01
2.432721768627102987e-01
2.425733600141754265e-01
1.667000310990067735e-01
3.672050244958149912e-02
-9.060740787492614634e-02
-1.671667686861686153e-01
-1.797226635098888026e-01
-1.438224678281239122e-01
-8.078660691016656403e-02
-3.951480845483211490e-03
7.414593256014470612e-02
1.248481882729750025e-01
1.103964470845269774e-01
2.556778908264420100e-02
-8.091902689712024421e-02
-1.447051448709137100e-01
-1.327111971943353841e-01
-5.059152706109169145e-02
6.238477129241787322e-02
1.427012204872443457e-01
1.482452197231815538e-01
1.010641023884132905e-01
5.997971348450448908e-02
5.617023435572716938e-02
6.412444801966558916e-02
3.048339498481745721e-02
-5.884389242963682792e-02
-1.441517188354602685e-01
-1.487088791516241459e-01
-6.527050840767034678e-02
3.757098177586838672e-02
9.374402864834577298e-02
1.024477232580629782e-01
1.010388514563652224e-01
9.326219003307850697e-02
4.393206495086033475e-02
-4.643593314448519332e-02
-1.132612680987989950e-01
-1.030889089174513995e-01
-3.480209536606868742e-02
3.431323174011560728e-02
6.665892272752826919e-02
5.335204976058220694e-02
-2.798145694822924603e-03
-8.404261375166421910e-02
-1.551449142379839607e-01
-2.028435094051132537e-01
-2.664793348839019638e-01
-3.680467990560925551e-01
-3.956244851942811724e-01
-1.681277258312527945e-01
2.645898470057103102e-01
5.231837998691243330e-01
3.307839711247047010e-01
-9.734304785359991496e-02
-3.454663687656744364e-01
-2.936651642300049381e-01
-1.045148361307966789e-01
7.740434307136306868e-02
2.178609654231382642e-01
3.125068772010601292e-01
3.497801898118053088e-01
3.266256090544458202e-01
2.527275698156613015e-01
1.443093937791753989e-01
2.416490968686361637e-02
-8.036664639599018500e-02
-1.459426904770627087e-01
-1.597596835712069563e-01
-1.217723913828264865e-01
-4.533344467157200686e-02
4.426567576674984850e-02
1.140454800949774056e-01
1.349047383435919567e-01
9.706346936372736711e-02
1.275391380707780430e-02
-8.714586635561637207e-02
-1.549576942978146687e-01
-1.528667763538548163e-01
-8.819566283345103841e-02
2.717397291139810045e-04
8.292880405929181631e-02
1.411219837278077094e-01
1.492126037739033295e-01
9.171008704151505098e-02
-8.387900674631614678e-03
-1.011457221256976541e-01
-1.448260153947409090e-01
-1.275124014243534665e-01
-7.523859712689506818e-02
-3.693613812279879921e-02
-2.840188141400325564e-02
4.547506841636256118e-03
1.157181408061426081e-01
2.460589461526503929e-01
2.557348433110043229e-01
1.034023207455590926e-01
-8.335852648381258945e-02
-1.602175824011201621e-01
-1.133978339565478999e-01
-2.258033492980364432e-02
4.978630206217338899e-02
9.227987805846019076e-02
1.077894945526219894e-01
8.901177844969551667e-02
3.493383251699647835e-02
-3.530264847765830077e-02
-9.748038683787081660e-02
-1.333147201681192107e-01
-1.231501692966209538e-01
-6.153575323349747689e-02
2.567562827975978373e-03
-1.318439478656173447e-02
-1.090894435057432055e-01
-1.563525401012733074e-01
-7.864053744033927540e-02
-2.714728733811551734e-02
-1.792314077293690744e-01
-4.246439250412435973e-01
-4.939543509332689486e-01
-3.145782890474376758e-01
-3.196428777766897183e-02
2.058228871677272032e-01
3.413944217731165187e-01
3.778826019820179516e-01
3.343667215454765862e-01
2.235923245294034190e-01
7.230529686213853224e-02
-6.273880449498606127e-02
-1.300780073739878362e-01
-1.214331991261009547e-01
-6.473389168318512132e-02
6.751513755580531087e-04
3.953072250069415011e-02
3.695140661103630403e-02
5.811220019694720434e-03
-3.634629310712270134e-02
-8.910605107021772608e-02
-1.524680432780755046e-01
-2.027295467559044884e-01
-2.027649860887824895e-01
-1.370844837465645116e-01
-3.637373186343041687e-02
3.972933986733201417e-02
5.835159586245869390e-02
4.383123374428953695e-02
3.203360732216689599e-02
1.083573193014291183e-02
-5.504467985167691563e-02
-1.465882106440117294e-01
-1.837087534990861637e-01
-1.107097243152159183e-01
3.697047352179623492e-02
1.646389395574333614e-01
2.035311566481548262e-01
1.564345102139528820e-01
7.010968930150535128e-02
-2.025657748440067019e-02
-1.077285921437571570e-01
-1.814812058086866242e-01
-2.051944032498730641e-01
-1.469881609595721783e-01
-2.458917571162735211e-02
9.543950056853686692e-02
1.522452565009767278e-01
1.376395129441717047e-01
8.354091976551770993e-02
2.074997160809300550e-02
-3.801992919338254701e-02
-8.964825328820384687e-02
-1.282116409889924313e-01
-1.404489901602053725e-01
-1.101865630332067442e-01
-3.083895188397249923e-02
6.737747389517670382e-02
1.002564150930995018e-01
-1.070053001003656162e-02
-2.061883830290123509e-01
-2.599732093361424301e-01
-2.766002608961090278e-02
2.676742447611036857e-01
2.441216633370946187e-01
-9.352357023737159492e-02
-3.359139970677662568e-01
-2.307922029417852627e-01
7.081205310140741005e-02
3.102929850674375212e-01
3.778733761147756165e-01
3.006901208064378661e-01
1.637500818476788633e-01
5.784542871262056407e-02
3.339921060904585404e-02
7.850292077172231486e-02
1.443872434802602744e-01
1.916633091470446026e-01
2.073720846485802016e-01
1.880688298905320854e-01
1.311168466934352350e-01
4.572487636235327002e-02
-4.434438869977985753e-02
-1.104292710510758058e-01
-1.274445467602453030e-01
-8.737359030453313580e-02
-1.233162180394834981e-02
5.867777383103581906e-02
1.015277722430114465e-01
1.175905114842920041e-01
1.125852998713312153e-01
8.037299378580473053e-02
1.992256891218370865e-02
-4.513268086866653594e-02
-8.067679781911370196e-02
-7.092412921198368303e-02
-2.804731783849168797e-02
2.724053834073868890e-02
9.524375296903227206e-02
1.874281753278821960e-01
2.726669163693758446e-01
2.702748111386481522e-01
1.395984616572623072e-01
-4.221311304973122958e-02
-1.395558712330410289e-01
-9.926799402889585622e-02
6.195706163275482153e-03
8.500422144451924567e-02
1.230942647086455816e-01
1.496321969771228777e-01
1.637181579913923601e-01
1.409015011409646689e-01
8.045058986571040904e-02
9.400774699020196523e-03
-4.665225279273479270e-02
-7.139354832324142086e-02
-4.960201311019003800e-02
1.688410269573430850e-02
8.947802541756744166e-02
1.194947512908674236e-01
9.678215676596099715e-02
4.555293305513576779e-02
-3.257902522509840970e-02
-1.659000223063796520e-01
-3.174178684866612032e-01
-3.277391563258907348e-01
-8.738989464859796275e-02
2.109608711199270903e-01
2.153767113745450046e-01
-9.107619291648412496e-02
-3.319629875825465537e-01
-2.729153578013148174e-01
-7.109461267139677298e-02
6.245311826284598300e-02
1.148100250077428996e-01
1.501892729066200138e-01
1.735504455378912569e-01
1.609469138679763267e-01
1.175800831347860176e-01
6.895469184808382390e-02
2.892281749570731544e-02
-6.100439910007954443e-03
-5.009303826595836590e-02
-1.192729362376598878e-01
-2.048362505828339175e-01
-2.561756782119364306e-01
-2.244980516710909091e-01
-1.229338039360276247e-01
-1.941803290032495868e-02
2.738796732640993298e-02
9.796944490529204200e-03
-4.228079988189178268e-02
-9.632308540156936383e-02
-1.399406349330792054e-01
-1.811566028792064298e-01
-2.243717282112822342e-01
-2.433024811017746869e-01
-1.965747971836427910e-01
-8.628414394224839801e-02
2.014125231244997399e-02
5.142838560878287835e-02
4.126196659548320850e-03
-6.017141815833303153e-02
-7.900233460160632770e-02
-4.714971760375075843e-02
-1.672176444121953320e-02
-3.686509863357970151e-02
-9.486532342956308095e-02
-1.288457873221031669e-01
-9.889148729444746655e-02
-2.917117446044707046e-02
2.379139097657649235e-02
2.646129451688063183e-02
-1.639770659209050310e-02
-8.193844584690110344e-02
-1.408899423500021009e-01
-1.591292575958205557e-01
-1.174191515580654960e-01
-3.197685053354175355e-02
5.668998589041829295e-02
1.112023293024684140e-01
1.116592046964523244e-01
5.756462308877127038e-02
-2.759927546578074334e-02
-9.575475782106551703e-02
-1.105352867836399272e-01
-1.089305601500755033e-01
-1.842547395956216638e-01
-3.293377688033770623e-01
-3.142399775145054419e-01
1.014055025621307116e-01
7.201602049747282130e-01
9.169795127132613910e-01
3.765327041363021876e-01
-4.191881991950539010e-01
-7.574852896167947325e-01
-4.998116040228496870e-01
-4.208797458049615137e-02
2.666314949561793268e-01
3.801167863594286933e-01
3.884115974740521282e-01
3.507672336856701989e-01
2.851007775245871789e-01
1.950360241952286688e-01
8.016678284546696620e-02
-4.694950433802046880e-02
-1.534273286678866921e-01
-2.047293200405854441e-01
-1.859699458248940396e-01
-1.101873142811435613e-01
-1.426340754534397362e-02
5.930667268450486723e-02
8.275548093835133345e-02
4.910583235756116327e-02
-2.878694210652086444e-02
-1.209738052352199167e-01
-1.946900814404499136e-01
-2.275908758024586531e-01
-2.042348178418049720e-01
-1.202244418116661107e-01
-3.923869918707302909e-03
9.025030717078327824e-02
1.293604271212022705e-01
1.232571842613630203e-01
8.647984607735659246e-02
1.412690249148918116e-02
-7.292461468087370335e-02
-9.937559107200634456e-02
-9.559369961246505856e-03
1.498023712093565774e-01
2.664308523307137855e-01
2.718647545233656704e-01
1.910205787101641461e-01
9.483064552411793469e-02
2.691453201205949719e-02
-1.741418419052575065e-02
-5.505652045277181772e-02
-7.819512260320121699e-02
-5.981595371484400847e-02
1.274477789205888216e-02
1.173893096996785484e-01
2.062121759994079706e-01
2.358215872166996296e-01
1.986639099271501896e-01
1.233537723315011880e-01
4.242402481787189983e-02
-2.718211967505328522e-02
-7.122800902584859595e-02
-6.791641050468479046e-02
-7.874370558805325257e-03
6.943835976027032397e-02
8.199655002119361769e-02
9.036866025756927143e-03
-1.653907274376105810e-02
1.410655366131526312e-01
3.340164870942082254e-01
2.309795045020371085e-01
-1.893254262214874029e-01
-5.429104113817951882e-01
-5.379686824891923846e-01
-2.585560940970935695e-01
6.897602132792737817e-02
3.066957751498401996e-01
4.051973346137847098e-01
3.677753434617012651e-01
2.423475014849500730e-01
9.006249584551941079e-02
-4.413223787644393603e-02
-1.288663550476174813e-01
-1.431442267473804208e-01
-9.348863428020467992e-02
-1.885534482006867227e-02
4.058713342876058006e-02
7.171826170658916755e-02
7.020243813705816238e-02
1.607248259962057446e-02
-9.520157234194498441e-02
-2.124179689272276961e-01
-2.627679475278287269e-01
-2.233355784627557294e-01
-1.324173142813049875e-01
-3.796230221984905201e-02
4.033694017949628063e-02
9.933940065666101160e-02
1.294881173490682602e-01
1.147011919178369532e-01
4.621128916526823921e-02
-5.712152178886981124e-02
-1.410361499217678283e-01
-1.527164771384659225e-01
-8.286434460491631793e-02
4.372177087135457885e-02
1.854447012916816961e-01
2.745047091003183781e-01
2.452035055386256046e-01
1.054145210083211881e-01
-5.511576075728921026e-02
-1.503462591386700575e-01
-1.670215698702223750e-01
-1.394987479620028725e-01
-9.029144917669067183e-02
-1.899733338810803696e-02
6.707772050104880701e-02
1.356602643206031300e-01
1.502113589599567700e-01
1.041816390096639566e-01
2.658483470557228973e-02
-4.866562415037322537e-02
-1.061137013006685087e-01
-1.358338225369083996e-01
-1.208314121555411208e-01
-5.686480058318367503e-02
2.999711064559982404e-02
9.740876218956881494e-02
1.025441265136877306e-01
1.131587080836215196e-02
-1.540511398083650174e-01
-2.696327695674439195e-01
-2.114352608216039375e-01
-5.029888917371586055e-02
-1.082485401751363124e-02
-1.552828153754732543e-01
-2.764897892200229301e-01
-1.933557654193153175e-01
3.201915161803917109e-02
2.348283618761688729e-01
3.306309774035098847e-01
3.206068538393272993e-01
2.430827050615953777e-01
1.528957950978413749e-01
9.081603042864058728e-02
5.940981147549866809e-02
4.624543880878508040e-02
5.421935882757743935e-02
8.311837110234462922e-02
1.005450315731638428e-01
6.403680631175562299e-02
-3.567015608209639366e-02
-1.666457473239586207e-01
-2.701268950658767820e-01
-2.802422629257605435e-01
-1.735060798857846753e-01
-1.298391982983962759e-02
1.003174275097508117e-01
1.296141654368830609e-01
1.157008857432688387e-01
9.781912932959850593e-02
6.975258601555428539e-02
9.658885986523976092e-03
-7.668851902246390240e-02
-1.447576309024606322e-01
-1.476252518253122759e-01
-8.645318369691216975e-02
-3.962085756218002019e-03
7.470960534317232227e-02
1.607141320820089647e-01
2.418113995293007246e-01
2.377881054903894786e-01
7.716701730277616966e-02
-1.725564659163285053e-01
-3.256069319012765972e-01
-2.756260359585702147e-01
-1.088894845539069567e-01
2.587671431732070301e-02
8.397660937908403567e-02
1.073344493116462350e-01
1.169678860238593798e-01
9.420145235901521141e-02
3.390585668078090892e-02
-3.765186633084831314e-02
-9.042658766867155140e-02
-1.084237939617366808e-01
-8.337798987745750900e-02
-1.328082006427153301e-02
8.356492996525893835e-02
1.685077363341214718e-01
2.053932498024589604e-01
1.650523175452418556e-01
1.549130222181765298e-02
-2.364599560241183174e-01
-4.846753681555067139e-01
-5.658379354322109478e-01
-4.098148129104541848e-01
-1.564468557202056131e-01
-4.823739577000635964e-02
-1.371794908921314393e-01
-2.313066994276190558e-01
-1.945964792957014244e-01
-8.722479965217364017e-02
1.265754041823064467e-02
1.038536315792394221e-01
1.846495895540078425e-01
2.301160225674246385e-01
2.368877121141409192e-01
2.259803579149740338e-01
2.141070583121402748e-01
2.010113820156291808e-01
1.720106238063098814e-01
1.108259443927930299e-01
1.840711579961663846e-02
-8.121835183346877429e-02
-1.531358884696956968e-01
-1.698539480251515243e-01
-1.268975330448498806e-01
-4.473866200433088136e-02
4.579195193814703663e-02
1.138583602240907794e-01
1.301842630966738301e-01
8.331100168723637456e-02
-1.304678441555323642e-03
-7.660789947497050056e-02
-1.105780346420332239e-01
-1.010170627982792252e-01
-6.024066035546427056e-02
1.164177383084100646e-03
6.863970721149724452e-02
1.175817353269126564e-01
1.313165413137536430e-01
1.153012167364152046e-01
8.203485413969270612e-02
3.391624618844407690e-02
-2.872954415346284582e-02
-8.846801321668108786e-02
-1.099368924575025303e-01
-6.864386792703588980e-02
1.678428159794403268e-02
9.451660108260442894e-02
1.266179541032308731e-01
1.106592762931622731e-01
5.923864463582743933e-02
-1.223189698256962714e-02
-7.700077983366085399e-02
-1.056237996183470168e-01
-9.189893136861429501e-02
-5.515069569430808283e-02
-1.265628733303415104e-02
3.267755648421558079e-02
6.768166549270097920e-02
5.770125676154318206e-02
-1.137373006844731062e-02
-9.515066900680346773e-02
-1.330595553134701348e-01
-1.345549442317680866e-01
-1.799012118112674474e-01
-2.858757605212784436e-01
-2.952000037058440940e-01
-2.279769030694484347e-02
4.179660940112532308e-01
6.071764022751326983e-01
3.211988132282814212e-01
-1.440749587713999191e-01
-3.660878419269635309e-01
-2.773921788066046057e-01
-6.475145514508370836e-02
1.495373897157233067e-01
3.398120649192105658e-01
4.647517714738189087e-01
4.694416497921454212e-01
3.565123013981330025e-01
1.954873727777284298e-01
5.802059373383627872e-02
-3.733406238953258793e-02
-1.054948076764531256e-01
-1.401699938637664400e-01
-1.118360639197333306e-01
-1.975237378488997261e-02
8.612885982026638465e-02
1.470998537654479577e-01
1.405327428307797943e-01
7.912322848242642204e-02
-1.008677115637586670e-02
-9.605075306899407694e-02
-1.530280339556941704e-01
-1.725775566805364536e-01
-1.580731861337872912e-01
-1.086335758303280941e-01
-2.526221508734151355e-02
6.752620488532745657e-02
1.242225360785102484e-01
1.092811375682745667e-01
2.416547022551599963e-02
-8.881781385819378927e-02
-1.641978105326636628e-01
-1.508977661142284765e-01
-5.412249617156057735e-02
6.163132022094418294e-02
1.260054498166343073e-01
1.211842094186217356e-01
8.155254749095100508e-02
4.143684887410906820e-02
1.399265194659532431e-03
-4.912194699552032556e-02
-9.898383881133732132e-02
-1.233063349134684988e-01
-1.110275747403761809e-01
-6.723149588129820331e-02
1.362373752226539794e-03
8.076182694797635897e-02
1.358347657583225676e-01
1.304111876366177425e-01
6.419757839816009337e-02
-2.741392811959570894e-02
-1.055162161309548541e-01
-1.476098190637023522e-01
-1.457634496732008178e-01
-1.006224584488520923e-01
-2.641585991637793174e-02
3.380876218271491873e-02
2.327842438336238245e-02
-5.506915987796180689e-02
-1.100748300237854305e-01
-9.760429112948763863e-02
-1.340197652534157735e-01
-3.153965337031774951e-01
-5.021758692959282788e-01
-4.866887880214145756e-01
-2.678129128386254054e-01
1.085851564869272368e-02
2.511749790862217169e-01
4.055427910507922173e-01
4.278378395945997559e-01
3.164900344332570725e-01
1.428959756309525764e-01
-5.890802137489145607e-03
-8.387077733188084971e-02
-8.797785123633411475e-02
-4.044219134647748098e-02
2.691538306382939422e-02
8.377059979189369066e-02
1.031278112213843690e-01
7.047037816974899282e-02
-7.901577382856354165e-04
-7.745915347966500497e-02
-1.330582247311991040e-01
-1.591005575692340246e-01
-1.571879827112561689e-01
-1.301193312667289215e-01
-7.331801753417445389e-02
3.318744999731456508e-02
1.938634454825706732e-01
3.309511092393153109e-01
3.138170459964206849e-01
1.193510863991273235e-01
-1.120271211553642149e-01
-2.357387149246800706e-01
-2.329350351223206383e-01
-1.561499923605623452e-01
-3.903664010374878479e-02
9.950326465092039496e-02
2.085625083833820281e-01
2.192824023897776142e-01
1.205770245507028632e-01
-1.696725497146346975e-02
-1.173721233241109413e-01
-1.633371433785602567e-01
-1.673999804368169475e-01
-1.302408565139748231e-01
-5.479869716156764853e-02
3.131115870992753902e-02
8.665241930159192640e-02
8.623003874123884305e-02
4.496776590278702551e-02
-7.723497576934568870e-04
-4.189970679888696536e-02
-9.588906972325959843e-02
-1.521351485152361571e-01
-1.645684277740394053e-01
-1.130150345683076790e-01
-3.444918364431016899e-02
2.183711122117201753e-02
3.949665998055560540e-02
7.293132806459193609e-03
-1.169800523206915577e-01
-3.194641581200654001e-01
-4.098601955682333875e-01
-1.742594383343035180e-01
2.576090775063885063e-01
4.415364914979035271e-01
1.931778086469922440e-01
-1.452646985689092229e-01
-1.944475138015878402e-01
1.567274703716900128e-02
2.290965683171874712e-01
3.037622312318114526e-01
2.546371780246276528e-01
1.535850126564738682e-01
9.080326265295336763e-02
1.438222496133410577e-01
2.901978495541058800e-01
3.896293910805206373e-01
3.343377170056834879e-01
1.767869964762540658e-01
3.976112735897213701e-02
-3.590330656169993945e-02
-8.863569497568687949e-02
-1.405562441347373848e-01
-1.664647436140237746e-01
-1.384561773296293374e-01
-6.259887494506119476e-02
3.055103296486133893e-02
1.091099410926276159e-01
1.445925724865571305e-01
1.123734216513230105e-01
1.158186587013482899e-02
-1.150906809410337656e-01
-2.014916673328685515e-01
-2.093892183809409335e-01
-1.539218512362162949e-01
-7.667649767665249416e-02
-4.036721693199910727e-03
6.642952675428787090e-02
1.457886258490123932e-01
2.219516699816415362e-01
2.527105907421058340e-01
1.995762706009500675e-01
7.032938553464823661e-02
-7.480394885645652581e-02
-1.607870061241639947e-01
-1.452454540576597342e-01
-4.221007745184779392e-02
8.517186623398897982e-02
1.632201297467073264e-01
1.586329605905774098e-01
9.087371825641843426e-02
-1.259928217609126468e-03
-8.289008676953968369e-02
-1.202538422102060189e-01
-9.191015130226098950e-02
-1.240774727595797718e-02
7.597335655280715305e-02
1.393425727293071681e-01
1.673997745539147486e-01
1.594679111893381462e-01
1.177772511754130863e-01
5.426009291920645683e-02
-2.392843457185876016e-02
-1.349615408538750727e-01
-2.704099886547193243e-01
-3.085075280258799957e-01
-1.063207145933293407e-01
2.258484126253970936e-01
3.282969424856896912e-01
5.689119229548200707e-02
-2.835552549522414312e-01
-3.658002144686340884e-01
-2.236589942626428240e-01
-6.079130367964170195e-02
4.447302542912393020e-02
1.225376950303143087e-01
1.796755040875742671e-01
1.771353089434661021e-01
1.008180957941705036e-01
3.557092177790044385e-03
-5.231782713757124337e-02
-7.344507845431451354e-02
-1.112221617324421485e-01
-1.781346893101196649e-01
-2.324953800260161352e-01
-2.364660544958509525e-01
-1.914941990553985229e-01
-1.146426858360818091e-01
-2.286188405345519412e-02
4.096629186757302227e-02
1.766177514309477670e-02
-9.153747784655177910e-02
-1.907006912154635692e-01
-1.757958612134808418e-01
-5.611711549491789353e-02
4.712031161501599452e-02
4.982144277456874298e-02
5.479298217624679196e-03
1.012997457244805936e-02
6.298014419698512445e-02
7.803534502744670365e-02
1.167976028201409347e-03
-1.230897088988044674e-01
-1.912534629802794539e-01
-1.371105156112618073e-01
-3.124261072749330570e-04
1.047793920279701529e-01
1.050251386392165448e-01
3.960784837636946443e-02
-4.183509498681715899e-03
6.015210572884836793e-04
9.604408241823911632e-03
-2.056906499073669209e-02
-8.877736480939553421e-02
-1.632742155787703930e-01
-2.040603120679829185e-01
-1.787078421022727792e-01
-8.729854676930652591e-02
2.583907501735530771e-02
1.026168850533471372e-01
1.148719486759640085e-01
7.262035015569598406e-02
-1.516780421011320115e-03
-8.997781573054265680e-02
-1.701564707586524783e-01
-2.085932097981437194e-01
-1.979089097258714403e-01
-1.929520915743063170e-01
-2.332652814820053155e-01
-1.926677109450788683e-01
1.371865192510355325e-01
6.516580246057742665e-01
8.415572304576751650e-01
4.119522379600950579e-01
-2.397261646002943336e-01
-5.140428551219957676e-01
-3.114708041193765542e-01
4.674803981945768044e-02
3.045996537432154039e-01
4.206828391663774980e-01
4.293734101663206348e-01
3.588310163310302614e-01
2.410292714209566478e-01
1.093784491993181757e-01
-1.824277677576031931e-02
-1.306891738742574638e-01
-2.009919597421797044e-01
-1.937702054633006210e-01
-1.091008685660015687e-01
-4.404590451014291780e-03
5.115723425148047121e-02
4.081476337788190328e-02
-3.384494064770410433e-04
-4.483135830675296502e-02
-9.866004771575823118e-02
-1.600990710673633466e-01
-1.924067021683877610e-01
-1.586312588981041161e-01
-5.984873048844732701e-02
6.753329800592015875e-02
1.702149116001564488e-01
2.006976887237639784e-01
1.530198081790377918e-01
6.930465925427577167e-02
-1.354909328787647083e-02
-9.497554957636303308e-02
-1.580279466453735904e-01
-1.399856707144636614e-01
-1.389742244771036139e-02
1.424985607018181277e-01
2.178047978626182213e-01
1.808310427587473401e-01
8.359704902289386008e-02
-1.405594391550361172e-02
-7.212003548676475251e-02
-5.747091738228633784e-02
2.329271793534099660e-02
9.854882740910544947e-02
1.118395810108057942e-01
9.990885034666573128e-02
1.277590413013162118e-01
1.857848005835431027e-01
2.063677208142878083e-01
1.554997761517021848e-01
6.669692560520919244e-02
-1.325603908659933432e-02
-7.561837215850486515e-02
-1.176703642087452567e-01
-9.120135776562166008e-02
4.638893601646095627e-02
2.171514072792622152e-01
2.443028447148315185e-01
7.543332312495844294e-02
-7.791510167768314621e-02
6.219436548457782724e-03
1.864059234105557294e-01
1.031109167240879254e-01
-2.737820431634155338e-01
-5.699240458199348325e-01
-5.107257770012808562e-01
-1.875540065181500182e-01
1.615242036574980333e-01
3.775169955682912137e-01
4.100055814191404524e-01
2.934527643767962379e-01
1.206718524392100117e-01
-1.511068305148432697e-02
-7.614830976143777130e-02
-8.284263532372673766e-02
-6.983792380953181278e-02
-4.788434261548100979e-02
-1.116000189705428081e-02
2.570056139834265424e-02
1.968130008384843393e-02
-5.497309403096421049e-02
-1.653639381719773649e-01
-2.459344391738323143e-01
-2.618765241917731523e-01
-2.290150996930587490e-01
-1.745270479898809735e-01
-1.019246735262714504e-01
-1.112954738907987080e-02
6.416622713278349877e-02
7.639245093688126764e-02
2.063955054259638058e-02
-6.020469117844122475e-02
-1.235443399656777352e-01
-1.573954627650402394e-01
-1.684718179995901566e-01
-1.551503954520700168e-01
-9.675213066522111993e-02
1.985969892070538895e-02
1.560584758230790237e-01
2.275778583255282927e-01
1.801260559958025032e-01
4.617442338232633642e-02
-8.805178509166775025e-02
-1.581968227689235784e-01
-1.557275835492571148e-01
-1.027210842590989825e-01
-2.031945823276574276e-02
6.787212561461350435e-02
1.264529936023387480e-01
1.275445126335487123e-01
7.330199169936407744e-02
-9.326449671626843227e-03
-8.819227818834374233e-02
-1.394359965173258553e-01
-1.527256511292467422e-01
-1.301373847343385015e-01
-8.219024029791188735e-02
-2.176042620541482689e-02
4.377002662384615883e-02
1.014152199163142892e-01
9.934582367798586167e-02
-3.669832406763613719e-02
-2.820118890041581339e-01
-4.197107149514048285e-01
-2.188592129272695919e-01
2.062404519131616765e-01
4.160972982524736574e-01
1.993322514735800521e-01
-1.408475484810411960e-01
-2.326952780493799500e-01
-7.103775238164618255e-02
1.347346358205977757e-01
2.578198867819824214e-01
2.841111206802565681e-01
2.364268513871208566e-01
1.596702654796792187e-01
1.112967258012120264e-01
1.189935914604969003e-01
1.556364050618849193e-01
1.669204199449791370e-01
1.225161397860840412e-01
3.580386300802642502e-02
-5.860207035333308417e-02
-1.296758197109897925e-01
-1.580323224043785890e-01
-1.428935192794031639e-01
-1.024767032494602742e-01
-5.488100353418755989e-02
-3.407222241168482435e-03
5.036140193047102670e-02
8.699357766428279792e-02
7.807286016937366180e-02
1.967921180367723094e-02
-5.314268404513753513e-02
-9.578186175942483838e-02
-9.254311419951027906e-02
-5.817169630131721614e-02
-1.219974899008767141e-02
3.404123332329050955e-02
7.583240803449739498e-02
1.180663479706945268e-01
1.664950834819246273e-01
1.960208293369224697e-01
1.524875553529878858e-01
2.285957227944875048e-02
-1.179498442161739657e-01
-1.722581201960545760e-01
-1.168969360648023370e-01
-6.352068560295135585e-03
9.610326270558569584e-02
1.560167387440995479e-01
1.583793455403486872e-01
1.057240720513430987e-01
2.768175842681776244e-02
-3.622081964225420947e-02
-6.755363451248451445e-02
-6.879049429621786338e-02
-4.045963789434924018e-02
2.056251589668479582e-02
9.487941838793130522e-02
1.220413100757194724e-01
3.841390801973777747e-02
-1.288496551958487335e-01
-2.446755998428107870e-01
-2.242507361752640593e-01
-1.598971409520779929e-01
-1.822722642053370146e-01
-2.453933195252199773e-01
-1.884626168847034489e-01
-1.619023820536094616e-02
5.514463975098898851e-02
-8.183278211081354558e-02
-2.595951920076724484e-01
-2.977890083827657297e-01
-2.086311121661615364e-01
-7.101341667044072659e-02
8.803695844473774512e-02
2.418632576936456946e-01
3.363027089025518723e-01
3.457634266749257113e-01
2.957370580166776008e-01
2.242085799737670859e-01
1.591325508121700927e-01
1.275936728483929583e-01
1.428900693937676103e-01
1.739272316412356356e-01
1.483169371145107440e-01
9.834995365635189682e-03
-1.886899615492596272e-01
-2.821763763842965456e-01
-1.751747121101383808e-01
2.087898601727316422e-02
1.261161552692901533e-01
8.978876079169845204e-02
-1.546447294982115223e-02
-1.062556949421972208e-01
-1.437113538002077195e-01
-1.288460973351036043e-01
-8.009971640939374249e-02
-1.282213749741675790e-02
6.018570250507654373e-02
1.137489447970620876e-01
1.174834999119415135e-01
6.971074075495430067e-02
1.341839323554600873e-02
-3.272962468002099667e-03
9.990943503950052221e-03
-7.451361174592211443e-03
-7.485220625037537767e-02
-1.239750241954000048e-01
-8.441958162340992833e-02
1.683910028538161685e-02
8.109119359608921163e-02
4.274667999347186997e-02
-7.841323229376975790e-02
-2.041952502668121783e-01
-2.539267914991189534e-01
-2.004071319382698113e-01
-8.756749312402076213e-02
1.835753576435951093e-02
8.551359712496996168e-02
1.165253453020094337e-01
1.162479607464094455e-01
7.911120666251358902e-02
1.534913610153305213e-03
-1.039500554935162274e-01
-2.010474980719481330e-01
-2.403174343603088625e-01
-2.094189591739116230e-01
-1.729834216824086002e-01
-2.006333031068795181e-01
-2.233138025170611218e-01
-6.034870268976487429e-02
2.867021726370652668e-01
4.849282984414341469e-01
2.552339305274808900e-01
-2.029295095932006632e-01
-4.497888928471258652e-01
-3.311498967394410076e-01
-2.537778569823406077e-02
2.603149752207722933e-01
4.345764590812897787e-01
4.793914028186903042e-01
4.104867222948345717e-01
2.713008196538807537e-01
1.195267878806494793e-01
3.108811606327348959e-03
-5.870353974722135326e-02
-7.727121608219054971e-02
-7.108204528189696059e-02
-3.761179348639973746e-02
3.295628856497427595e-02
1.137477123928348904e-01
1.442333454314751462e-01
9.268584859926498609e-02
-8.246814860760901672e-03
-1.001077861812839226e-01
-1.535734009089597396e-01
-1.725879817419639917e-01
-1.589906630590813275e-01
-1.008115403537392096e-01
-3.715429496600725079e-03
8.998236846057361404e-02
1.330066722796618417e-01
1.117600879439931416e-01
4.102351381273335040e-02
-5.908911856393023188e-02
-1.537010977939946565e-01
-1.811492304710105861e-01
-1.002964985092357625e-01
4.668797067602194206e-02
1.585962177600953038e-01
1.727419725824062557e-01
1.153305853303625700e-01
5.075768158698301669e-02
7.270354242005660876e-03
-3.017699300764438430e-02
-7.605575745550724465e-02
-1.203846434431020823e-01
-1.368532568689873885e-01
-9.943264387504167912e-02
-6.670418924697173874e-03
1.017475703834946621e-01
1.687861417920608897e-01
1.651376972728821058e-01
1.013383277493348639e-01
5.812771930838154383e-03
-8.832805109764660378e-02
-1.453600073068982979e-01
-1.415342150678292610e-01
-7.891980335628720478e-02
1.459877177550728336e-02
8.648949385905724263e-02
7.718984576464640868e-02
-1.839940494468256596e-02
-1.017985933270126736e-01
-6.556775177235979468e-02
1.763449735644603139e-02
-5.648778838613160991e-02
-3.003822295096366113e-01
-4.644863665355320470e-01
-3.770160387549570391e-01
-1.236358932918966563e-01
1.450917493028730798e-01
3.570517553979113967e-01
4.618379687752374174e-01
4.141141325397990069e-01
2.453174813839302248e-01
6.223579547771359438e-02
-4.368556045796392201e-02
-5.043864404497745701e-02
1.033346038311530775e-02
8.356087199275126498e-02
1.230491478997938759e-01
1.200967338325230477e-01
9.200647354525118282e-02
4.608194418664050829e-02
-2.447043318595235051e-02
-1.127444095906943861e-01
-1.821712026524108796e-01
-1.829101126846330305e-01
-9.354835247358339601e-02
4.420707877629245081e-02
1.484145426084853558e-01
1.719343211574631547e-01
1.379386847291211027e-01
8.722706728361361017e-02
2.407807021129940855e-02
-5.922518716408951833e-02
-1.385804611217365256e-01
-1.752493968368335764e-01
-1.590140670064750517e-01
-1.002309802690359297e-01
1.157991680354655481e-02
1.841426989469911180e-01
3.393549454753664318e-01
3.369557158021456722e-01
1.399119597600624321e-01
-1.149135044614804091e-01
-2.624945551606057692e-01
-2.617152709829080326e-01
-1.774784649874507347e-01
-8.301997839817615299e-02
-1.217935290636102362e-02
3.215999088867646516e-02
5.296311142552055651e-02
4.376988954493211958e-02
-1.187572206169244457e-03
-6.631700846417271089e-02
-1.205871970182775671e-01
-1.468928831283737579e-01
-1.472569679288390221e-01
-1.209788256137537543e-01
-6.484086071311420674e-02
5.989259758212361201e-03
5.950123245046205073e-02
5.738986543344501423e-02
-5.098023949580109820e-02
-2.825785596661624099e-01
-4.888416057169852058e-01
-3.714167331104583636e-01
1.407884046301015324e-01
6.038249601318160797e-01
5.195306909104231430e-01
3.783363181240077810e-02
-2.456881141702604576e-01
-1.028472100812800882e-01
1.743609359738937103e-01
3.014177147489946473e-01
2.750343434193916470e-01
2.025107513510485957e-01
1.410362057038995476e-01
1.113918021974682065e-01
1.274011665473982480e-01
1.690368983909975864e-01
1.824145281936972451e-01
1.368023984127738346e-01
5.380627251747134576e-02
-3.181239232282581653e-02
-1.080074425582653735e-01
-1.644888259692430799e-01
-1.722377652090375522e-01
-1.205809763873895990e-01
-4.828905111312772891e-02
-6.123743344879310074e-04
2.052280774674028127e-02
3.452506154959510132e-02
3.930471910499294674e-02
1.861797189114510268e-02
-3.166670676921749805e-02
-1.105419817847879266e-01
-2.168880920516652600e-01
-3.092443571147243109e-01
-3.050403148314534962e-01
-1.844632502084416759e-01
-3.818333054585082431e-02
5.264321417883648102e-02
1.060195791145864125e-01
1.546319711051615253e-01
1.578954012967594134e-01
6.493113465448215049e-02
-8.124182331668014512e-02
-1.670375821317242604e-01
-1.302801469643423138e-01
-1.583769140323639316e-02
9.148409046304872838e-02
1.472101359010357380e-01
1.491046434789591313e-01
1.044077396170820793e-01
2.587938806674480036e-02
-6.173764154333373499e-02
-1.292864398739742016e-01
-1.503864059799205344e-01
-1.087054338075106596e-01
-1.478738912827381319e-02
8.691803281697473016e-02
1.422146669204220337e-01
1.295864701291674359e-01
7.891722072015971978e-02
3.425563290081319601e-02
-8.850103959293918396e-03
-1.048065288357261232e-01
-2.533357369972372153e-01
-2.966868025145646959e-01
-4.828758440573555077e-02
3.732353700958847553e-01
5.364843298395696181e-01
2.364065127414153866e-01
-2.039470454701437230e-01
-3.847107733437803989e-01
-2.837719212204472541e-01
-1.052979885477174082e-01
2.957462659122189058e-02
1.155170692200581800e-01
1.690551632366799339e-01
1.939504700323006203e-01
1.869667238688082211e-01
1.471310358863172074e-01
8.568307552375239999e-02
1.988696914892972012e-02
-5.065689624871572150e-02
-1.531456505445995819e-01
-3.049612549255366623e-01
-4.470595289744873080e-01
-4.575719983875218833e-01
-2.973261916200260480e-01
-8.626850605793583149e-02
3.587586006482229584e-02
5.040057933482464114e-02
1.328751798974861682e-02
-4.106205013466496939e-02
-1.020913099119128559e-01
-1.476241816847967125e-01
-1.477322739601580892e-01
-9.135988323757041063e-02
2.396313439778206215e-03
9.570277265395092658e-02
1.557419090721229860e-01
1.694543468266419273e-01
1.402462040453418823e-01
8.711246229519478690e-02
4.557055036525677061e-02
4.142859068630113523e-02
6.037189593128058918e-02
6.892697793373293857e-02
6.210000594324638357e-02
6.648436659525477910e-02
1.016931729350069868e-01
1.527976324199799008e-01
1.727533616896457791e-01
1.079089744326512251e-01
-5.425911498181391207e-02
-2.377498286297370922e-01
-3.103733429670244570e-01
-2.164171381436791608e-01
-4.583395463871803299e-02
7.706060019729095434e-02
1.236082348148475202e-01
1.389799411311147259e-01
1.415903856395417659e-01
8.812295894865809776e-02
-5.649785477613003537e-02
-2.246910292167106638e-01
-2.822495533818036306e-01
-2.060499136904156980e-01
-1.420771510245700808e-01
-1.861176229658300374e-01
-1.760960504459618825e-01
1.281054993733402037e-01
6.161478281299600512e-01
7.986454280639107006e-01
4.074956053871457429e-01
-2.010434247770234162e-01
-4.924847146711054946e-01
-3.509915806252340564e-01
-2.264101990622147120e-02
2.665354995509245928e-01
4.402435000054663594e-01
4.909931725256456159e-01
4.316801014855020657e-01
2.979177093827085065e-01
1.355634956003007319e-01
-1.576921937633152249e-02
-1.218635034035083914e-01
-1.608370375291504617e-01
-1.412936677763923232e-01
-9.460901129435442258e-02
-4.476905368434749843e-02
-1.178177747380715346e-04
2.809508723568862609e-02
1.746825547950196789e-02
-4.205036333330498810e-02
-1.191765053982213468e-01
-1.574714068769721975e-01
-1.304500557428605045e-01
-6.262274471789415486e-02
5.979733563105183239e-03
5.359249865228386811e-02
7.780667924788420287e-02
8.019092130308773381e-02
4.155186734815747435e-02
-7.635461252806771681e-02
-2.603010066061955952e-01
-4.083533601143167213e-01
-4.312419719446637933e-01
-3.345590570838482547e-01
-1.606838796237515798e-01
4.228398108690016588e-02
1.871480392013024907e-01
2.040841181943505167e-01
1.220292725852012983e-01
2.918176639311365408e-02
-1.441855805439823390e-02
-2.555468411786336342e-04
5.068713565431449269e-02
1.065699442884295994e-01
1.396441373231541994e-01
1.492447808157182365e-01
1.658033393354795548e-01
2.095438974064540716e-01
2.507266229236714827e-01
2.328013269414606901e-01
1.355438400468924331e-01
-5.088472701099220480e-04
-1.151227379231203329e-01
-1.696957641303975528e-01
-1.439984176041027852e-01
-4.125999559880774714e-02
7.746701780093791234e-02
1.093816340296355771e-01
1.326522790320863385e-02
-1.082433350728824600e-01
-1.145775453224498197e-01
-5.849367586697802601e-02
-1.517707432276771962e-01
-4.050597968009519989e-01
-5.458020462994326305e-01
-4.041213505057126287e-01
-1.077183261955220739e-01
1.586883967401931939e-01
3.320815703602217894e-01
4.019411914189243151e-01
3.568852359427728271e-01
2.217553422763149928e-01
6.120996837086153941e-02
-6.009011570682666614e-02
-9.956695333205105303e-02
-4.905474065084027696e-02
4.972858534442269052e-02
1.251883759889361181e-01
1.347460339079419589e-01
9.343238753166079047e-02
3.654158628490556532e-02
-2.255453136447288162e-02
-8.292997750006066149e-02
-1.285776586055632775e-01
-1.350120920879604169e-01
-9.595070979723889504e-02
-2.698976982940555144e-02
5.203686833505296455e-02
1.230223974372618295e-01
1.612550643174188447e-01
1.415130462849341075e-01
6.320888385519395081e-02
-3.931729210028424293e-02
-1.195220751017179450e-01
-1.481009453516475283e-01
-1.189821528648063453e-01
-3.607354527111777259e-02
8.758696529002914233e-02
2.078269148588515747e-01
2.521866922319400683e-01
1.799245450685083847e-01
3.253390827365776339e-02
-9.997516014056721800e-02
-1.599368718175007142e-01
-1.548612917279336698e-01
-1.146277877349368424e-01
-4.667872383155199922e-02
4.252774973164179240e-02
1.129798772588479910e-01
1.233614296320236087e-01
7.918151112056412422e-02
1.350339516525721900e-02
-5.706470880068796603e-02
-1.267769177527185431e-01
-1.740490769202341914e-01
-1.743482380260567288e-01
-1.322421564606751920e-01
-7.492761905458014682e-02
-1.968463373252631390e-02
2.764092912186190062e-02
3.707044621582976374e-02
-5.899451735640470068e-02
-2.830261795956788284e-01
-4.767959899679449220e-01
-3.633409582916687919e-01
8.699289304119857402e-02
4.681722887255747034e-01
3.903055955385978937e-01
2.221756378233963325e-03
-2.392858549913919608e-01
-1.589407665606730746e-01
6.038057828603116128e-02
2.145689867830131436e-01
2.539837425602418097e-01
2.182070529533987890e-01
1.513788973190743625e-01
8.345327802933399930e-02
3.935073868654159757e-02
3.935895647135967401e-02
7.638406222317234429e-02
8.837521726738990779e-02
-1.663475681475989551e-03
-1.729057113011081004e-01
-2.917058918060284611e-01
-2.754797627389685144e-01
-1.981650843734632517e-01
-1.657260657515987889e-01
-1.714163130154759129e-01
-1.381049836742754000e-01
-4.360944217507937981e-02
4.994824590706097023e-02
7.523866302744736112e-02
2.918793969734588545e-02
-4.557611362292618429e-02
-1.127643101901950745e-01
-1.511980513569838314e-01
-1.412113507939031787e-01
-7.822559276499360670e-02
8.042849142089931319e-03
7.297896658166509731e-02
9.740800702727429872e-02
9.582237867692049160e-02
8.305338650555785240e-02
4.598533217733546952e-02
-3.639251811016896987e-02
-1.368955981584335513e-01
-1.576801014939207268e-01
-1.092970968469907100e-02
2.488302172629727471e-01
4.308975582574372520e-01
4.051718392511944322e-01
2.331806243147997726e-01
5.912434895473717839e-02
-4.198040017708996180e-02
-7.078762442924604881e-02
-4.843816739146745987e-02
1.523309116037194211e-03
5.479203162467018856e-02
9.254242856358894931e-02
1.085122124088482159e-01
1.147638727506451878e-01
1.295899909762592839e-01
1.462616803165304180e-01
1.245052010554570515e-01
2.816856946884114046e-02
-1.356029803312778226e-01
-3.068222077331655973e-01
-3.717391193991395615e-01
-2.305660196059940159e-01
3.386537170177832817e-02
1.602991742520855634e-01
3.060304376800273077e-02
-1.680251702867413821e-01
-2.281259540159623622e-01
-1.542129319909101015e-01
-3.201936269122901413e-02
1.096666584386981336e-01
2.493889864844492932e-01
3.367887244959091864e-01
3.462201191883051421e-01
3.016674769338549833e-01
2.385031107187205179e-01
1.724554235823387849e-01
1.060467847282042381e-01
4.328983640873553668e-02
-1.008307911778296914e-02
-5.197592941746918827e-02
-7.626327728735568523e-02
-6.636946911235447333e-02
-1.685731642678957309e-02
4.531824040733187231e-02
7.956053645539946928e-02
6.472982162588147848e-02
6.731919667464308921e-03
-7.345888460867468217e-02
-1.493476253498987327e-01
-1.934569696128048688e-01
-1.867173206107609063e-01
-1.294230479280188972e-01
-4.026400906406542302e-02
5.140245250630557511e-02
1.083847727852749465e-01
9.582350894867010249e-02
1.134583746535145279e-02
-9.224147823479510178e-02
-1.404615595353732038e-01
-1.129418729786912795e-01
-6.439314918062009896e-02
-4.935677846198592567e-02
-5.038843169913564957e-02
-1.219879198340915669e-02
6.459574654088405532e-02
1.078429013011085458e-01
6.365495543912996768e-02
-3.967136375874012744e-02
-1.338274944974063574e-01
-1.798314128944734913e-01
-1.800296741681273183e-01
-1.474081419658964665e-01
-8.606505098767687489e-02
-4.412807902123106613e-03
6.684898113354505178e-02
8.740124824249217994e-02
3.979956135750728485e-02
-5.548382121753739349e-02
-1.534713681361333792e-01
-2.115989493492490547e-01
-2.153374206053065842e-01
-1.917759844292333815e-01
-1.943574402691941871e-01
-2.392159477566491166e-01
-2.302776905490719339e-01
-1.664749666975862130e-02
3.613552083415267346e-01
5.649330761384994126e-01
3.282154335358087871e-01
-1.333057672456227638e-01
-3.759102675356849055e-01
-2.793506153945905512e-01
-5.728765719963687525e-02
1.192139360005909365e-01
2.408039617400678234e-01
3.218847233040335598e-01
3.346610310733407756e-01
2.562900042323984495e-01
1.116628985899241755e-01
-3.178168593382228735e-02
-1.099995075516485982e-01
-1.129729911478263432e-01
-7.768924674045425693e-02
-3.011255793660083668e-02
3.068718646459847599e-02
8.865474564745944031e-02
1.030495353780905704e-01
5.583459793566064588e-02
-3.202395931797842599e-02
-1.289982712915375140e-01
-2.081456758878581226e-01
-2.430032092152299428e-01
-2.150292806102176990e-01
-1.328810628445356024e-01
-3.257934660183697817e-02
5.279862498261299331e-02
1.129585267922328523e-01
1.416192070649572865e-01
1.186260708145465415e-01
3.166052791260227928e-02
-8.669760256882720617e-02
-1.582332674703585684e-01
-1.145089993554138791e-01
3.176679236369445158e-02
1.799692929078823556e-01
2.318302113085715654e-01
1.844166530271278415e-01
1.076194731058562615e-01
4.700114845342848874e-02
-9.854788940374467274e-03
-7.992213993729545274e-02
-1.387999586916885131e-01
-1.393377869500636579e-01
-6.193082501963479564e-02
6.026463644086617333e-02
1.630165231596330810e-01
1.981629036114385956e-01
1.661618964997645109e-01
1.070662175696300428e-01
5.403003130298712070e-02
8.407761991759711822e-04
-6.569375304097233026e-02
-1.186796892066419723e-01
-1.101111658980130359e-01
-2.915300697941973149e-02
6.439116478925149822e-02
6.221402302034438614e-02
-8.068741504004339760e-02
-2.176058192717582607e-01
-1.176193077487056732e-01
1.673120229997901443e-01
2.360652506065830936e-01
-1.082019851201706795e-01
-4.916179919180435065e-01
-4.671101746423691470e-01
-8.653382538426419857e-02
2.885138808043972714e-01
4.551722630366039635e-01
4.467886918138266328e-01
3.488212494682359499e-01
2.026582778377840621e-01
3.914932846258093596e-02
-8.494481210871314414e-02
-1.154268510489654120e-01
-5.216523190631142115e-02
4.365121748817656078e-02
9.951341229259513810e-02
9.009879724235225762e-02
4.084624587621531883e-02
-1.969429001873792759e-02
-8.556177072361480229e-02
-1.494460247868839298e-01
-1.869868207025056905e-01
-1.795818829493150415e-01
-1.316310891292581109e-01
-5.950907604074379825e-02
1.945186427141184712e-02
8.184938153636162061e-02
9.635958020743416730e-02
4.917233782913285611e-02
-2.965903983752264314e-02
-9.228634720229726696e-02
-1.231787266578883572e-01
-1.361774300248649594e-01
-1.302537456102593194e-01
-7.511667028066436325e-02
5.104228419272369144e-02
2.057946192156925036e-01
2.808068689175500232e-01
1.962911993132882282e-01
-2.698993730724522783e-03
-1.807292731870760449e-01
-2.416111409165091206e-01
-1.972046964644167399e-01
-1.168123941876989952e-01
-4.511262136720619459e-02
1.709220871265384328e-02
7.522202190150897860e-02
1.120204150545630190e-01
1.006840822063094637e-01
3.425828215473267213e-02
-6.632332500358179006e-02
-1.640527337029848154e-01
-2.185680296730382055e-01
-2.033163539966803268e-01
-1.248998054819340231e-01
-2.009047141437282635e-02
7.150170091828754459e-02
1.198126535331466153e-01
7.924600436000109327e-02
-1.038530720948936115e-01
-3.685408540852553316e-01
-4.374455735956759850e-01
-4.270518662198737048e-02
6.138696615804061230e-01
8.938835655917635181e-01
4.945647380339104893e-01
-1.110662996594333207e-01
-3.108529363628789177e-01
