-2.473349967970675245e-01
-3.162959047783535094e-01
-2.771577785572141295e-01
-1.162712441839425237e-01
1.141107253524114573e-01
2.976157368788994728e-01
3.313827762247283371e-01
2.181758615412087987e-01
6.083675328492937906e-02
-3.887174674505307348e-02
-5.325878340582660547e-02
-6.180732179819469624e-03
7.873441487099278047e-02
1.877953939053562671e-01
2.979206271859740629e-01
3.683361034853029348e-01
3.598405986958356784e-01
2.682375039936834571e-01
1.349512130621637329e-01
2.037131127755062443e-02
-3.406594266646614105e-02
-2.839825241355941818e-02
8.451268219652821601e-03
7.643698230849893527e-02
2.455126704762462253e-01
5.498564802471663793e-01
7.535730919970560215e-01
3.549118990963112674e-01
-8.458502239757862418e-01
-2.158325807945649100e+00
-2.479400797659569999e+00
-1.578004789890964821e+00
-3.962240060421522436e-01
1.258188469570188928e-01
-1.966041340749614952e-02
-2.816707995395051900e-01
-3.179083622674908072e-01
-1.885878760280025601e-01
-8.761188218576325404e-02
-9.319300242010682134e-02
-1.402660939315686917e-01
-1.316139535183358800e-01
-2.968800356326396772e-02
1.379356491595666034e-01
3.169662860444943941e-01
4.524678013528959930e-01
5.018315263261200476e-01
4.523961548869754323e-01
3.299782030502534380e-01
1.826927149754698498e-01
5.674073925670192198e-02
-1.251254146829456661e-02
4.267055067175868667e-03
1.256150929393647919e-01
3.285207931530688685e-01
5.208869638887662079e-01
5.831474391987780947e-01
4.717058303214944348e-01
2.608284272532461756e-01
6.532737190650796111e-02
-4.832102507214836029e-02
-7.194428809398781266e-02
-2.275077288060073366e-02
7.501795603844928217e-02
1.904653167177697282e-01
2.898857637023241063e-01
3.452137816262462189e-01
3.348259286552167091e-01
2.392647914509249962e-01
4.769924060509660169e-02
-2.038997175294640085e-01
-3.956659350967370870e-01
-3.889849636006419975e-01
-1.686601602734995042e-01
1.293072720289088484e-01
3.484644851152043366e-01
4.273763855491065078e-01
3.978445045706533456e-01
3.177279904401508759e-01
2.137002916836477640e-01
8.345206489176466846e-02
-5.278300233069965763e-02
-1.283208186198560030e-01
-7.676092822089405909e-02
9.736427481266088368e-02
3.021972896931049979e-01
4.272718423055933412e-01
4.333017786408506211e-01
3.573424952783448849e-01
2.327816102746460836e-01
5.271190944255908090e-02
-1.501640678375189830e-01
-2.248421521346489760e-01
-2.123921122868294500e-02
3.030619537676895181e-01
2.009504141148589218e-01
-7.023807320663877363e-01
-1.889093584125500769e+00
-2.271542700884217503e+00
-1.501192135232319202e+00
-4.416443741630405873e-01
-5.459655333056173676e-02
-3.549102442912026589e-01
-7.134067731581640315e-01
-7.021862458464066536e-01
-3.760349567775634338e-01
-2.660831744605917509e-03
2.305426051132415666e-01
2.904359506428528248e-01
2.319733199136824742e-01
1.252133931341563033e-01
2.637454863525601212e-02
-2.604818468069138027e-02
-1.477960519117543781e-02
5.762176782468068220e-02
1.771537460677004017e-01
3.177191449836963555e-01
4.327350328435118354e-01
4.640456014267319018e-01
3.795177845963138008e-01
2.099049408712210518e-01
3.616065487417523955e-02
-7.224900366161611520e-02
-9.766261967351209938e-02
-5.194410764717992401e-02
5.227716358852480677e-02
1.880382756029467528e-01
3.044646076516165922e-01
3.571711720933908318e-01
3.294159687696157079e-01
2.207722556921736801e-01
5.195499395270092302e-02
-1.113294625481638933e-01
-1.803391619374453969e-01
-1.181279737397795543e-01
1.748800150408102647e-02
1.219947803502127032e-01
1.335594269014676871e-01
7.238630196319975618e-02
3.884121733215150848e-03
-2.881379447404467525e-02
-3.617932261916037562e-02
-4.532811966021915023e-02
-4.757460834762607116e-02
-7.205790444203826611e-03
8.717628640361589631e-02
2.067834178393632705e-01
3.113765433701071728e-01
3.711285246733889709e-01
3.675296335885826493e-01
2.946699736407464854e-01
1.635903114407921688e-01
5.751165333874522570e-03
-1.237984400651418043e-01
-1.590482364646136071e-01
-6.442196421644603987e-02
1.212413768950876825e-01
2.895785385418522817e-01
3.391259396569917262e-01
2.792879814584567910e-01
2.476402019751131889e-01
3.335827672613057571e-01
3.220409034717204300e-01
-2.249912226558857808e-01
-1.348681007814697130e+00
-2.260124824727387072e+00
-2.042827401328858983e+00
-8.377210286452715371e-01
2.389988687936919765e-01
4.104299809067729066e-01
-7.514065288686337662e-02
-5.464745308963608883e-01
-6.670998786148878423e-01
-5.246786827103220308e-01
-3.181578468073356647e-01
-1.359959067500078334e-01
3.634791486703380786e-02
2.151597208311797349e-01
3.765307841731989624e-01
4.839435790481650401e-01
5.047243158595179358e-01
4.116011449301558711e-01
2.224645401992098870e-01
3.041770418876291876e-02
-5.450423499255688947e-02
5.958114673682970985e-03
1.611061941494834338e-01
3.230848096454522200e-01
4.256940255940769857e-01
4.483542435389575864e-01
4.014058789148863271e-01
3.008491020429346352e-01
1.617390218816724956e-01
1.264560845041617400e-02
-9.705925092294080680e-02
-1.187036924201858995e-01
-3.307453299164422877e-02
1.347794524752227163e-01
3.146415749420350405e-01
4.236847861852697794e-01
4.238694321864112102e-01
3.344896371077724084e-01
1.887953647737034835e-01
9.997660607489265716e-03
-1.712232610936547939e-01
-3.038364006703067610e-01
-3.254238555332319982e-01
-1.940366908534654211e-01
5.990472436133046502e-02
3.231774347916769874e-01
4.761152717721989225e-01
4.773962863693396175e-01
3.632647365452548738e-01
1.955777099268359853e-01
3.889037431932057531e-02
-4.435208108387472120e-02
-2.175035696993950912e-02
8.766780334976567723e-02
2.304593021428767152e-01
3.468288326902004282e-01
3.904069020042468807e-01
3.452909218869432695e-01
2.324541319748999191e-01
1.031974554983845910e-01
1.722251704537459613e-02
-3.320890229576177466e-03
1.406314734656717927e-02
7.253887075073806034e-02
2.499764349572087541e-01
5.245151613012645209e-01
5.506537300654066325e-01
-1.229564988875471443e-01
-1.363439753466965998e+00
-2.234379251606153804e+00
-1.947900221288010769e+00
-8.792681680337173233e-01
-1.013248426424741000e-01
-8.914551748782371943e-02
-4.125656532015850586e-01
-5.160069997425341670e-01
-3.055830223259878298e-01
-2.440917317235432107e-02
1.102266809242751222e-01
7.039727978390937502e-02
-3.745907609262159182e-02
-9.852981605281124766e-02
-7.310318933471775249e-02
1.163933876098126319e-02
1.258849378679659792e-01
2.651968452127527187e-01
4.117644855310094720e-01
5.051371893297963434e-01
4.853306499681112052e-01
3.550385286429385001e-01
1.781424681276100042e-01
2.787308779447577461e-02
-4.764453431951849727e-02
-2.844884632043623990e-02
7.557748672278027935e-02
2.212486109478128404e-01
3.449846923977770152e-01
3.909247480742196745e-01
3.396955904752217981e-01
2.181434204810214772e-01
7.573665860500802816e-02
-4.574592552876173557e-02
-1.121534215159184361e-01
-8.770337585055829055e-02
4.079820922084805707e-02
2.260945135199277922e-01
3.679243825834330184e-01
3.753773447317866330e-01
2.315672091720165082e-01
6.260660500757669195e-03
-1.916640646483037391e-01
-2.804652682623288151e-01
-2.414947475824342216e-01
-1.094747920850435707e-01
6.444684510626412510e-02
2.371449931888433560e-01
3.679516048292081343e-01
4.219323898161748687e-01
3.963959232535088084e-01
3.187648301570652487e-01
2.109504978821025167e-01
8.268776965785266941e-02
-3.688464242656073339e-02
-8.845125236167382388e-02
-2.478689385035431555e-02
1.356118987162753253e-01
3.107508330767767002e-01
4.155199601481402438e-01
4.078348180990286620e-01
2.857219583948383823e-01
9.545473046635881420e-02
-3.351657969196707165e-02
3.307741357442513935e-02
1.779129741950938592e-01
-5.972329021163198803e-02
-9.775162914184205576e-01
-2.037330814147571445e+00
-2.203984089817700998e+00
-1.237966188017311397e+00
-1.082624204685905256e-01
2.019543918996691556e-01
-2.497095701482730246e-01
-7.546999670243280667e-01
-8.659629339456450525e-01
-6.416298069944923466e-01
-3.163361775491828065e-01
-2.877935567890239910e-02
1.874997683504000257e-01
3.217773632119272365e-01
3.599301478863910497e-01
3.063903043487643529e-01
1.957999172377991592e-01
8.017296087054845422e-02
1.061359269038329722e-02
2.167375628427919976e-02
1.181785417481944211e-01
2.693141265947402996e-01
4.162736351711750493e-01
4.979880180585791183e-01
4.826758939806174431e-01
3.800116042425329965e-01
2.296798096009552426e-01
8.202118681984479909e-02
-1.931460984319069082e-02
-4.675716044362956958e-02
9.173394175317088617e-03
1.324726260917114817e-01
2.747762115544059025e-01
3.748515505984716945e-01
3.990266872888481586e-01
3.576067797656570235e-01
2.739131503059910600e-01
1.515607402654696179e-01
-7.398179971720280149e-03
-1.662309745555897444e-01
-2.612566347309285830e-01
-2.432026786743324009e-01
-1.087266598253337629e-01
9.146260264551274444e-02
2.703647247465140735e-01
3.452445090038399611e-01
2.813745222285435887e-01
1.181714677099783561e-01
-4.420754459417305937e-02
-1.091133021056826663e-01
-5.391127457772047771e-02
6.751713394415723157e-02
1.915597074571691594e-01
2.955120161269260137e-01
3.721292429782098177e-01
3.760536314167882144e-01
2.445775286080341948e-01
-3.368822237327092489e-03
-2.346093094961515246e-01
-3.162197838148537721e-01
-2.389168795254696109e-01
-1.005027948796196335e-01
1.836330528031015694e-02
1.549609298011441760e-01
3.951828163498400937e-01
6.062698611614972810e-01
3.152649731598679006e-01
-8.107884540350718261e-01
-2.243208300011907408e+00
-2.814068477893442832e+00
-2.009363619547657631e+00
-6.164546776313369891e-01
2.400886644674991577e-01
2.583159746804867818e-01
-8.612265355167189607e-02
-2.988126388132623101e-01
-2.853862857999469593e-01
-2.072136631871980550e-01
-1.792336627102369406e-01
-1.724978731250725317e-01
-1.171938522830721363e-01
2.540844692879854622e-03
1.561902797287392508e-01
3.087233620769228581e-01
4.313698307350009031e-01
4.953261185255692922e-01
4.770155149842242315e-01
3.742655089143159808e-01
2.218660879824729260e-01
8.875080750232625104e-02
4.129916733857144640e-02
9.722735838050838852e-02
2.211149152521164618e-01
3.605145952956615440e-01
4.701154547465174471e-01
5.127899792671022361e-01
4.680041313419280313e-01
3.456479929560850040e-01
1.857008186844597286e-01
4.543234323088395088e-02
-2.479379636948024143e-02
-8.783403476457713951e-03
7.576668749768500355e-02
1.991732260717442027e-01
3.204784234379432495e-01
3.774271707447054980e-01
3.129173747344715650e-01
1.282557261559205131e-01
-9.396075421620914137e-02
-2.351325853833524659e-01
-2.292460409724523251e-01
-1.054808369332438378e-01
6.394922474896307107e-02
2.325185652774362788e-01
3.797350926888435896e-01
4.785519779043819755e-01
4.968748970014170152e-01
4.229422654092855338e-01
2.755723458078142007e-01
9.983351922790410782e-02
-3.942062233123750509e-02
-7.840299706034123406e-02
5.186277422529014802e-03
1.673302403491069568e-01
3.275415400032188340e-01
4.285747616046311492e-01
4.523676043347755193e-01
3.846097477349378346e-01
2.134804834394862239e-01
1.661410985654818064e-03
-8.013690975991739907e-02
8.408177782875114747e-02
2.736925493921320562e-01
-2.837947038421795298e-02
-9.982050754241652557e-01
-1.936109233314744715e+00
-1.889571744870570447e+00
-8.882526654249360831e-01
3.149979377032466332e-02
1.169144269536016717e-01
-3.745166531669713028e-01
-7.680024454584701843e-01
-7.463704816541124609e-01
-4.319370416040232974e-01
-6.434169974873155118e-02
2.082872733981006308e-01
3.415845868776913319e-01
3.585836744645515273e-01
3.198005483531295989e-01
2.675259694161255530e-01
1.747336175481103704e-01
-3.714207096342441589e-03
-1.992625353953929590e-01
-2.301469807851483640e-01
-1.066568245208117556e-02
3.168253169402204250e-01
5.352187260831450244e-01
5.603196360246791574e-01
4.469671484659535343e-01
2.769497133956307366e-01
1.013865888847278185e-01
-4.573026828155946077e-02
-1.244923410367337613e-01
-9.738498289159774890e-02
3.157455037547715615e-02
2.002145885278801551e-01
3.300325965487782010e-01
3.750592535976174369e-01
3.291424922377899076e-01
2.145058587673086270e-01
7.066056117169405848e-02
-6.469584748201087643e-02
-1.702597985564105465e-01
-2.337260448883919928e-01
-2.340480038198788082e-01
-1.411589942874791892e-01
5.041834575512298133e-02
2.786798347509698015e-01
4.215223096375995682e-01
3.739943069080884919e-01
1.392406131847482298e-01
-1.422929034136500293e-01
-2.774986389301523082e-01
-1.830654832990523395e-01
4.582718803478048886e-02
2.553566636964849090e-01
3.760209967530182551e-01
4.183860880221903500e-01
3.935540782126643045e-01
2.944079698653815358e-01
1.317303974471144279e-01
-4.260670173263687854e-02
-1.488172280001017200e-01
-1.348061954283754360e-01
-3.621913352582799284e-02
6.469818865339592440e-02
1.723444965094737824e-01
3.824535352051808279e-01
6.304258900685097977e-01
4.862751654881038998e-01
-4.962799349128312887e-01
-2.008326204628388734e+00
-2.900446067657347360e+00
-2.361426513514450320e+00
-9.411499042360991218e-01
1.152352126238581631e-01
2.680193790098772677e-01
-6.034006638582092852e-02
-2.982643186025418780e-01
-2.920519299206518760e-01
-1.926909784975335271e-01
-1.436752080345644889e-01
-1.530747291461508897e-01
-1.490510806311685643e-01
-7.483198793532035153e-02
7.299049545407781947e-02
2.581954181015937988e-01
4.240382887183706262e-01
5.109154676582771115e-01
4.876900775403804067e-01
3.735754091189292803e-01
2.204957091592489593e-01
8.158623115780494484e-02
1.352629795723179346e-03
9.648526648437683040e-03
1.028157800359117413e-01
2.387178896776809556e-01
3.601640514385860969e-01
4.252222986167294994e-01
4.176150441141898151e-01
3.336444669740331603e-01
1.809882767105961965e-01
5.057231233592984071e-03
-1.140726439785990781e-01
-1.199406212286402429e-01
-1.980214583993180830e-02
1.351488699170508845e-01
2.786976096078404574e-01
3.418940170834920966e-01
2.799485273763184234e-01
1.079981014573986597e-01
-1.014139536445248513e-01
-2.631959770584877956e-01
-3.227041425035895306e-01
-2.652565572457890042e-01
-1.005327774295352444e-01
1.373215305780271789e-01
3.635319713046081258e-01
4.673764731824575080e-01
4.183519533142963098e-01
3.077187862300142518e-01
2.293737502691100827e-01
1.669303275103461437e-01
5.677314335762565639e-02
-7.846028410072368453e-02
-1.300228305898306347e-01
-3.315125421283579565e-02
1.570466649779473367e-01
3.276083147962901010e-01
3.999423216343844234e-01
3.483271973093391982e-01
1.800649062956414248e-01
-4.155502950003898965e-02
-1.657263379051233387e-01
-6.209771574813172101e-02
1.238552054852453954e-01
-7.418301695097984094e-02
-9.183270916715821075e-01
-1.858664185994941986e+00
-1.937927944884697773e+00
-1.015757501809001706e+00
-4.045722040024404831e-02
1.376123277544546442e-01
-3.339079031700825650e-01
-7.678828562092394616e-01
-7.802213621995145454e-01
-4.740551370444652246e-01
-1.075425002115943246e-01
1.761723041246245902e-01
3.517187462164129141e-01
4.177141248472976409e-01
3.766006078097876020e-01
2.624972615545517751e-01
1.343756291613556197e-01
4.608847500879646730e-02
3.355118248169403072e-02
1.081650984692629353e-01
2.449782974906340727e-01
3.864083570492140574e-01
4.746631842772474630e-01
4.869085215467693351e-01
4.313615816111917023e-01
3.183583590069385405e-01
1.653139527327542047e-01
2.275571815195738881e-02
-4.600441424919699679e-02
-1.564840730999907809e-02
9.059947863039498339e-02
2.278410165488927441e-01
3.472475551575998631e-01
4.050606967658160751e-01
3.796264288427119160e-01
2.814141669689237957e-01
1.429756289360132604e-01
1.434838325122134422e-03
-1.127161163392300935e-01
-1.769009230752160988e-01
-1.715363346717813930e-01
-8.014845082776279883e-02
9.356729648449273185e-02
2.979274696012669810e-01
4.386067313470380369e-01
4.441628328600801812e-01
3.260267722144500890e-01
1.610728690444384603e-01
3.128554509471107026e-02
-1.343123301882193955e-02
3.796830486682451627e-02
1.617617072374748499e-01
3.059195230555081246e-01
4.050254021915444258e-01
4.122167502928530958e-01
3.259708087641590146e-01
1.795865143826296806e-01
1.718344151899596495e-02
-1.051301864285267840e-01
-1.284780398473894802e-01
-4.466585935816266839e-02
8.784867584262473494e-02
2.326544355024531274e-01
4.320411541213926010e-01
6.486410862656978304e-01
5.516222385980966703e-01
-2.645762743406104289e-01
-1.594408390588286872e+00
-2.440747362575413693e+00
-2.032218471885730349e+00
-8.265175750225828288e-01
4.717740381196980359e-02
1.088307872137284082e-01
-2.215871930173013982e-01
-4.080395486062969312e-01
-3.334288219608605996e-01
-1.747177203883655550e-01
-9.532613481085348839e-02
-1.130985781707458532e-01
-1.438625862604399619e-01
-1.036342976435472019e-01
2.782276847894255695e-02
2.125394105146191370e-01
3.878379209825676965e-01
4.910599270182269271e-01
4.825312131288497230e-01
3.683369084343053879e-01
2.033216602692078101e-01
6.428463464221423340e-02
5.014885689861862256e-03
2.751966603879131903e-02
9.987448522974072540e-02
1.976175808786106436e-01
3.114448618395798674e-01
4.142001018690193992e-01
4.483217945736217014e-01
3.713059439442927823e-01
2.067745071929736889e-01
3.216090219017107843e-02
-8.052777312488665351e-02
-1.011001974910903933e-01
-3.397715965519449571e-02
9.656507948981014888e-02
2.466314950376758686e-01
3.524961634946414124e-01
3.484558100540653403e-01
2.056841727267297582e-01
-2.979303224490404550e-02
-2.425330490899760272e-01
-3.166845759895542400e-01
-2.208488871210384230e-01
-2.257233949764078651e-02
1.835567936059907812e-01
3.461342039414200822e-01
4.552110846327445115e-01
5.005497124864016767e-01
4.568884831985695616e-01
3.143755848662487806e-01
1.146996595973860111e-01
-5.679421828926075472e-02
-1.238654094245423137e-01
-6.707934437839463415e-02
7.124243730478008185e-02
2.206122084795751614e-01
3.290026331684498540e-01
3.786893982872599485e-01
3.511011251151541779e-01
2.101673400256737212e-01
-2.242686462254236610e-02
-1.857011207701221023e-01
-9.136104237706595133e-02
1.555901945658362540e-01
3.163766892345132309e-02
-8.749846454112264471e-01
-2.089906592580636602e+00
-2.478442283301459437e+00
-1.599550373370722589e+00
-3.531994008153236386e-01
1.279462111279271175e-01
-2.638604644078314521e-01
-8.119548549855956088e-01
-9.498691149983501392e-01
-6.756080886159013810e-01
-2.737273748053318245e-01
4.729246564356290317e-02
2.458135521414329394e-01
3.408403658459699948e-01
3.295523065152002329e-01
2.170657675239576201e-01
6.524424654887697739e-02
-3.562001748951157398e-02
-3.374854068132120133e-02
6.266792098914050757e-02
2.111773579637482023e-01
3.628075547988972027e-01
4.742575017961485062e-01
5.100804792289826972e-01
4.505374926088371312e-01
3.096152090839206505e-01
1.373995795873234615e-01
-5.759872753884242441e-03
-7.771556469652843302e-02
-6.366493677604148638e-02
2.951701807617128706e-02
1.785937420176592350e-01
3.410958781193458855e-01
4.552509032183036930e-01
4.622209951699276509e-01
3.473592265084488595e-01
1.628240769066159332e-01
-6.009170320041633262e-03
-1.081204224027575850e-01
-1.501852551576435824e-01
-1.511271478767674536e-01
-1.031700411212581742e-01
5.303093343178856903e-03
1.490669352820722937e-01
2.669595382285082641e-01
2.988913490935664052e-01
2.232438010833556752e-01
7.733800577688892952e-02
-5.385894293161471585e-02
-9.049472982883602357e-02
-1.381083109918643942e-02
1.294022979262932638e-01
2.697892042123053447e-01
3.564233862597563918e-01
3.678026880708778479e-01
3.040046692118252847e-01
1.829452696635571474e-01
4.543161554868955371e-02
-5.289999358124947149e-02
-7.444435741468076462e-02
-2.810473151897171021e-02
4.086838588954021245e-02
1.076768040434051554e-01
2.262302139284977365e-01
4.555087697224179388e-01
6.155527357902041974e-01
2.241725421653253947e-01
-9.672267394763361947e-01
-2.303445931949543724e+00
-2.617359929129358775e+00
-1.596894918749242942e+00
-2.344131586679481238e-01
3.859839006988879939e-01
1.913808986545454949e-01
-2.012329264587742750e-01
-3.480635964267169147e-01
-2.598841479713281388e-01
-1.433522643807619568e-01
-1.147554203522724581e-01
-1.324481640201367605e-01
-9.607548846304027335e-02
4.169650382459710175e-02
2.439723533186138049e-01
4.315366370378778682e-01
5.409008021654941878e-01
5.471710853016307219e-01
4.545520656719042041e-01
2.924971416300709004e-01
1.173008563784326830e-01
-4.825277226510472917e-03
-2.648747534478013144e-02
5.914514304185169297e-02
2.141863971612266160e-01
3.744900686650862176e-01
4.775119635721519207e-01
4.840743821927918078e-01
3.934187808715776113e-01
2.418349820136664052e-01
8.062292555360406343e-02
-4.227713444179913294e-02
-9.021624928156822543e-02
-4.895353921498921124e-02
7.053276179653794609e-02
2.379690663507963155e-01
3.908202458726819373e-01
4.299634664139717621e-01
2.872122813659382379e-01
1.598914077706335354e-02
-2.272237716686152376e-01
-3.146625398044772259e-01
-2.416927286029054156e-01
-8.786640489149136202e-02
8.028075134097244214e-02
2.400845356991558877e-01
3.716804965824604956e-01
4.370055063498615722e-01
4.107789706111831252e-01
3.052366945309882285e-01
1.575691827488093499e-01
1.268493862546883795e-02
-8.225611292882020753e-02
-9.170706708173594068e-02
-1.231046655907884479e-02
1.237578944454645891e-01
2.652666744883495631e-01
3.643569703537997695e-01
3.884697540115205072e-01
3.136567283465097611e-01
1.314145312917344155e-01
-9.524889209954585934e-02
-1.955881987584148218e-01
-3.238184195293192236e-02
2.056187057638082516e-01
-1.066199371084532513e-02
-9.356966237913127982e-01
-1.934880966543820691e+00
-2.007346273538406667e+00
-1.063755987540059733e+00
-9.674449322250774919e-02
7.336788410009087436e-02
-3.743682452563754093e-01
-7.786926881601359263e-01
-7.837950633577124293e-01
-4.743452841821295674e-01
-9.220831170825943834e-02
1.858315041460964212e-01
3.055573809549553266e-01
3.087872159482590861e-01
2.674494142472489955e-01
2.237283830325863532e-01
1.893736966195461724e-01
1.737050201423790408e-01
1.829372498491905474e-01
2.165799950120799455e-01
2.809174308280107391e-01
3.735916457194043416e-01
4.523775645514769850e-01
4.534647208522791795e-01
3.482958084726905934e-01
1.774467868690443040e-01
2.878970378174639314e-02
-2.774471023220003232e-02
1.131296980199247328e-02
1.022306039869970984e-01
2.060468297963424233e-01
3.034394629684197264e-01
3.731666586096551441e-01
3.823325065007587287e-01
3.052306647958438757e-01
1.551060932496045874e-01
-6.237613226525993634e-03
-1.172321717620155440e-01
-1.796118274181394137e-01
-2.312941598042483893e-01
-2.522733039271071176e-01
-1.655617492250838207e-01
4.091277726659578451e-02
2.565853774460811199e-01
3.485387901800670596e-01
2.820424744205797252e-01
1.296451047505148280e-01
-2.131859266237030523e-03
-4.384037741433848695e-02
1.201778843272272371e-02
1.288403389820156064e-01
2.546180060074391682e-01
3.415417845969341837e-01
3.586923057580019836e-01
2.973840313367170363e-01
1.708868338452848024e-01
1.744904085972716345e-02
-1.004237814463393441e-01
-1.238325934330936906e-01
-4.706498453161223061e-02
7.381025128750427766e-02
1.892888694344173062e-01
3.211402035720739567e-01
5.161891610811512043e-01
6.813278133673332793e-01
4.622923604184739910e-01
-4.962605348727999743e-01
-1.916687470243497060e+00
-2.766246927393667399e+00
-2.274784671412430015e+00
-9.206581427430691189e-01
1.091588099879093887e-01
2.520011290977995921e-01
-9.843947389866065933e-02
-3.502437724109122574e-01
-3.304946682252475898e-01
-2.109798603840065956e-01
-1.546545333753445162e-01
-1.550507732654246296e-01
-1.247508897386730709e-01
-2.284085470224348630e-02
1.278069435815420707e-01
2.886287731663870204e-01
4.214830184553531867e-01
4.799015365486690166e-01
4.308013170183644935e-01
2.930498720874871732e-01
1.345759717136029154e-01
2.219161537013121174e-02
-1.301096082871700844e-02
3.491733389174850322e-02
1.553087234221064705e-01
3.104784354787773482e-01
4.424838002647621393e-01
4.957032490741454800e-01
4.362721374841439514e-01
2.733632628908312379e-01
6.671270466566012192e-02
-1.013924513268737865e-01
-1.676126626028701383e-01
-1.109606605186711226e-01
4.228248600821071790e-02
2.243400154612399666e-01
3.499201339288978141e-01
3.578823779654241588e-01
2.420050526545576841e-01
5.051595757510859985e-02
-1.353050541318549516e-01
-2.371565263343191898e-01
-2.216471102654913594e-01
-1.092944169073405969e-01
5.720305205360499967e-02
2.339153200841910252e-01
3.717175033552563845e-01
4.300790042163828431e-01
4.051105560942705464e-01
3.215737195819407535e-01
2.002719961955186367e-01
6.102154233645008113e-02
-5.387360201427533746e-02
-9.589645087900590392e-02
-4.593749328567293955e-02
7.743628273901007053e-02
2.263809081872861229e-01
3.416662286800676296e-01
3.783925711451267548e-01
3.097504678227964714e-01
1.286219675772486137e-01
-1.000545665388463401e-01
-2.039731032221779039e-01
-4.498028902378160832e-02
1.990974354138218827e-01
1.786758502329480192e-02
-8.496859451578229194e-01
-1.805477905593923849e+00
-1.869841718090257121e+00
-9.493904902893255393e-01
-4.343479484329038076e-02
2.306198220323538856e-02
-5.263689230032946309e-01
-9.609727243060537383e-01
-9.102924542901006388e-01
-5.165258564978455480e-01
-7.949799699878429271e-02
2.229006097336661274e-01
3.603710010974637834e-01
3.667746346003834534e-01
2.871347167233871955e-01
1.680131502053986425e-01
5.683669649262456519e-02
-1.754850930857285857e-03
2.166992997104549498e-02
1.218624265493913061e-01
2.600177497758506262e-01
3.922836253627007275e-01
4.850543602300989021e-01
5.028414368537603707e-01
4.158962798740172273e-01
2.426189187472185260e-01
6.138843356779875859e-02
-4.397663287742992200e-02
-4.142172314836888025e-02
5.062471662189954591e-02
1.941459542724910947e-01
3.402471724978676781e-01
4.301935797484084945e-01
4.239702186182454646e-01
3.283004959082309049e-01
1.836832814876639963e-01
3.312179873249342099e-02
-9.082832599407553165e-02
-1.648639275815894090e-01
-1.750889860768251871e-01
-1.177925796871470421e-01
1.405666555668688006e-03
1.603692221235193116e-01
3.057503467631993432e-01
3.638541024262195167e-01
2.941514047320966108e-01
1.342968832280931890e-01
-2.141094301164988417e-02
-8.995321756541414804e-02
-4.584226753781706076e-02
8.313023492701807071e-02
2.432506059693624323e-01
3.756093047463989754e-01
4.315114885159785363e-01
3.891350860155688429e-01
2.622150896593625768e-01
9.612545822439511056e-02
-4.390665830535149528e-02
-9.820856679842510095e-02
-5.503360076976045873e-02
3.052457514735446020e-02
1.006257505458370144e-01
1.955404235572129890e-01
4.101914628017686026e-01
6.380901422270344181e-01
4.263072701649377461e-01
-5.973202625620083195e-01
-1.994043444099594664e+00
-2.628040139407576969e+00
-1.921835507471369997e+00
-6.173052078043350654e-01
1.466588813280594872e-01
8.934376556718837126e-02
-2.574429872534118591e-01
-4.023673424562244083e-01
-3.026285726992505865e-01
-1.576423168311532619e-01
-1.072035402538558252e-01
-1.290047453746286654e-01
-1.137773076214532719e-01
8.052117881131767504e-03
2.064840526427809964e-01
3.954094346600999232e-01
5.104066082840167384e-01
5.346598824790818050e-01
4.769476083966686097e-01
3.595468175028786462e-01
2.208431151206253495e-01
1.039202956715188225e-01
4.336693590932537423e-02
6.478755596667018501e-02
1.708282314485079501e-01
3.189792007777135785e-01
4.393438995296121141e-01
4.814558814879879023e-01
4.308194678089753427e-01
2.962321711081350450e-01
1.119257294816066034e-01
-5.605181408002504057e-02
-1.394583514525395695e-01
-1.097563209433642384e-01
1.609675615359955000e-02
1.885884108040262741e-01
3.300676724950692420e-01
3.599765495755135603e-01
2.486965754683398699e-01
4.492484983644540880e-02
-1.529847759999045653e-01
-2.527156028972666335e-01
-2.187505396525543933e-01
-8.924959818718961047e-02
6.531829950881559710e-02
2.026264895570317193e-01
3.176158003507890681e-01
4.078920929430080999e-01
4.507808055647470891e-01
4.071933029470160004e-01
2.570546589480648403e-01
5.272649448931975708e-02
-9.395195959586052914e-02
-1.119348431160641366e-01
-2.694774704153916553e-02
9.628869273232616710e-02
2.199651565724688451e-01
3.246231255124056858e-01
3.721130418697004005e-01
3.060199180343624037e-01
1.124869736619933946e-01
-9.489431325242067561e-02
-1.135563092464518531e-01
7.422636263752956098e-02
6.214456578717240942e-02
-6.467984857674051735e-01
-1.838180691788423582e+00
-2.470730336563207175e+00
-1.842152570212366447e+00
-5.646516368602565450e-01
1.620045512108671260e-01
-6.008780523357648562e-02
-6.490779609563216423e-01
-9.393898652370545888e-01
-7.927787345701384769e-01
-4.511718531146747257e-01
-1.430449963118017587e-01
7.622152963366492229e-02
2.346707737799678672e-01
3.225818928314347911e-01
2.872706159748966703e-01
1.238458855490368882e-01
-6.035550211521217151e-02
-1.029517181196545478e-01
6.457667078644301062e-02
3.364706288743472551e-01
5.449469314756829608e-01
6.344612045357975738e-01
6.579990043715758796e-01
6.372277043554169795e-01
5.314780696878538269e-01
3.343638702027775800e-01
1.181615982266683990e-01
-2.190204321534099802e-02
-3.730471372934589247e-02
4.952342994937480175e-02
1.735377784308947124e-01
2.775465660145420288e-01
3.397830611750035090e-01
3.632437589270540723e-01
3.487132181832025557e-01
2.784053081570196375e-01
1.213322597300766220e-01
-1.270172912488506389e-01
-3.825516307905019731e-01
-4.844041897639274619e-01
-3.338297764953984670e-01
-6.755738589906350178e-03
3.109638787546394334e-01
4.740389652825439670e-01
4.544673087360525110e-01
3.170294371027337910e-01
1.521101793004945024e-01
2.629313455467156835e-02
-3.189616162585648396e-02
-2.210150462548867573e-02
5.119136515823378974e-02
1.808748557331456008e-01
3.267421067159775316e-01
4.137251582306364361e-01
3.871126663981701022e-01
2.600171902231986354e-01
1.004232740909420385e-01
-2.065762174012680460e-02
-7.393256398546663166e-02
-7.899872255704967761e-02
-5.743781304906303564e-02
3.775589159197749456e-02
2.941628297442254736e-01
6.252141290669597229e-01
5.927403000468586258e-01
-2.713847878177224615e-01
-1.720921895168055160e+00
-2.670576650269817165e+00
-2.296202937921674181e+00
-1.049739144857362527e+00
-8.474380991595129031e-02
7.457292252697188262e-02
-1.803164581688309065e-01
-3.077974424101659889e-01
-1.865535450609796253e-01
-9.679412835077021507e-03
5.046147532590643248e-02
-1.188507845734935661e-02
-9.700711975947076682e-02
-1.101755776352755511e-01
-1.874034889895756853e-02
1.497910125380877144e-01
3.346161861749121225e-01
4.723281977850477542e-01
5.230421241223941475e-01
4.804609865662795576e-01
3.674141868259570010e-01
2.298579694716661737e-01
1.219606626410696115e-01
7.695489222590237710e-02
9.536864081448140351e-02
1.659042671631461296e-01
2.801118708000242541e-01
4.126927913251240421e-01
4.980825211470080172e-01
4.594087275264746584e-01
2.887509901395022283e-01
7.663824653212931992e-02
-7.033021262341172808e-02
-1.116809579528673102e-01
-5.639456706260527474e-02
7.455922907216727680e-02
2.351548219859739830e-01
3.477370659101843287e-01
3.457096036470189149e-01
2.231111318377204389e-01
4.437612591096244674e-02
-9.732540007255519043e-02
-1.489926943082827415e-01
-1.216686342667386012e-01
-3.596473953859857797e-02
1.156225501317853926e-01
3.152993073792084155e-01
4.784125258029469641e-01
5.241645167181496756e-01
4.577202866307710227e-01
3.412735335794251368e-01
2.157903258196727514e-01
8.580157938791946326e-02
-3.844603634791749630e-02
-1.168012882646630307e-01
-1.026063104421893191e-01
1.950289392479251024e-02
2.083188234936418914e-01
3.650160683731806799e-01
3.852769208547724422e-01
2.523357652611362689e-01
8.253692638210920196e-02
4.780768911233376772e-02
1.883347350411028742e-01
2.444447181313309791e-01
-2.221191579224137957e-01
-1.271668090046810251e+00
-2.171004795329853465e+00
-2.014971135993299356e+00
-8.859175569999541144e-01
1.476489150575125142e-01
2.974041181852294935e-01
-2.129351227258576840e-01
-6.993066408326588101e-01
-7.879503228289937988e-01
-5.512860659757379267e-01
-2.173306697792989906e-01
6.824801467709093461e-02
2.667611083866210375e-01
3.739985083880933980e-01
3.872739152624388170e-01
3.190987923743958676e-01
2.027690528831138927e-01
7.945516732629073764e-02
-1.090003377927925565e-02
-3.045249998259803165e-02
4.234825713734410163e-02
1.839210914701641109e-01
3.299188316086561490e-01
4.239714348864848104e-01
4.430266151719338130e-01
3.791502626401546672e-01
2.388829622530771468e-01
6.707452129077989822e-02
-6.297746082213163954e-02
-9.764562031221510341e-02
-3.310742690181708858e-02
9.795175896295475748e-02
2.494265550974074375e-01
3.683163345111231113e-01
4.077304552367218005e-01
3.560349351249343375e-01
2.394165286167329043e-01
8.354972997738367713e-02
-1.042949860069202483e-01
-2.926504809016891029e-01
-3.935406532601365970e-01
-3.227158681619803904e-01
-9.388670096760617922e-02
1.765613143282818154e-01
3.599757696197816714e-01
3.982198955037584143e-01
3.104611672190540350e-01
1.548981421166502337e-01
2.343044105972032221e-03
-8.134795566459737670e-02
-6.445590071275883459e-02
3.090674533837685714e-02
1.457429982066777152e-01
2.314190117999871676e-01
2.770658097451639268e-01
2.787744836336212284e-01
2.130262336957491898e-01
7.905098558217543703e-02
-6.449892995152992081e-02
-1.504797089850283265e-01
-1.720822968431574285e-01
-1.553117781144259246e-01
-6.149779213673040035e-02
2.032953355488717473e-01
5.655308756427480654e-01
5.867426825242400001e-01
-2.315581656021129808e-01
-1.683584586148710205e+00
-2.678359022753147745e+00
-2.336801030347369856e+00
-1.080821938608411026e+00
-9.153428282890979650e-02
7.068658114453828245e-02
-2.098461659707326343e-01
-3.746251739768711175e-01
-2.762021102556661556e-01
-9.161265556533715326e-02
-7.089490342028076375e-04
-3.240682394944518346e-02
-1.082054894267299727e-01
-1.400275775645714316e-01
-8.418167007019375370e-02
5.320925866357700817e-02
2.329195224154753940e-01
4.052734965884407514e-01
5.269200541010392591e-01
5.671496689512305345e-01
5.098395132423256815e-01
3.617661898815968669e-01
1.701867726267435876e-01
2.136552196075005086e-02
-5.507307870064981348e-03
1.063788493899679444e-01
3.002486170216459027e-01
4.804700720205318798e-01
5.619002623830655629e-01
5.106597865367349387e-01
3.582574070529286336e-01
1.759708439730572338e-01
2.883043559661284394e-02
-4.845401861672938432e-02
-4.271305923087707901e-02
4.503579989435484154e-02
1.847479536229839625e-01
3.093519639222307438e-01
3.420476084291995678e-01
2.463881776484095898e-01
6.353351277093528815e-02
-1.049575011175805372e-01
-1.748765862715120079e-01
-1.440277860326397708e-01
-6.615878129577731914e-02
2.597243987907318918e-02
1.402696231914047631e-01
2.760769093418877773e-01
3.929610948113280711e-01
4.371155579496535659e-01
3.816330296031223979e-01
2.379132864641923528e-01
4.807132524972867332e-02
-1.170400526380583894e-01
-1.786633477926636848e-01
-1.092708358998961959e-01
4.087590633389838468e-02
1.993741710531416189e-01
3.253016414193902750e-01
3.873522751321371027e-01
3.361456268371323941e-01
1.580074261749024600e-01
-4.161998109957503605e-02
-7.815063889153944787e-02
7.918925933200213207e-02
9.920956629460850329e-02
-4.619604982762410272e-01
-1.479804719761649512e+00
-2.086685103386696216e+00
-1.621749012597138551e+00
-5.463261527884447633e-01
9.417914282135915471e-02
-9.379283774110420968e-02
-6.202971492811104604e-01
-8.846967530391212087e-01
-7.410533505021449363e-01
-3.875161588088211206e-01
-3.614552122096206799e-02
2.198684853952495855e-01
3.657178578541795400e-01
4.134910675127956847e-01
3.783109039430518905e-01
2.735188876021348303e-01
1.330896626669705318e-01
2.213739709867962313e-02
-3.475098492981526510e-03
6.215209321751655192e-02
1.873861823915326241e-01
3.309154848801785231e-01
4.448988507637022249e-01
4.795694285565744730e-01
4.093689983971690594e-01
2.567199204814353264e-01
8.515911921744757918e-02
-3.935849112362749952e-02
-8.389708345353581731e-02
-4.749402100805773935e-02
5.754571620336600135e-02
2.042588931357490756e-01
3.394327502847437339e-01
4.013467319221610818e-01
3.618856271371872491e-01
2.432378979268479402e-01
9.278939371366166922e-02
-4.831630453699840844e-02
-1.557478097653924587e-01
-2.145975866173542301e-01
-2.073387940785738348e-01
-1.158042548565705598e-01
5.333449480501355200e-02
2.432417454547471103e-01
3.644450939590677674e-01
3.554901983009814415e-01
2.257323059935663900e-01
4.931376357649402964e-02
-5.850836574446376115e-02
8.050481290629506528e-03
2.461229413438980052e-01
5.045529732389836264e-01
6.136046419895219151e-01
5.459770806988116787e-01
3.951167256919300708e-01
2.350569852140644844e-01
7.727045005863623917e-02
-6.358207341639483812e-02
-1.393743716765066809e-01
-1.176528811400768815e-01
-2.773008912534386666e-02
7.126949921205365246e-02
1.766054943809015898e-01
3.580906856953531281e-01
5.978660617678261957e-01
5.897448425990214904e-01
-9.631698005578413768e-02
-1.380093642125541864e+00
-2.361304734494471980e+00
-2.150607469114854897e+00
-9.905551904192662072e-01
5.993413004143938183e-03
1.895379854030130873e-01
-1.173159899787562938e-01
-3.374900862567229987e-01
-3.034488066000247120e-01
-1.861098972293503406e-01
-1.387479739946776702e-01
-1.531272698473936100e-01
-1.441121430421973826e-01
-5.694752478872463358e-02
1.064335153358960950e-01
3.061192827894294033e-01
4.821474503316323101e-01
5.740524906718382780e-01
5.530843627118227079e-01
4.421431119683932875e-01
2.925882390229906926e-01
1.480299466621461391e-01
4.376864213277292803e-02
1.853023409244069705e-02
9.049998610207897476e-02
2.251351592964652426e-01
3.538114245926816115e-01
4.239048633455284598e-01
4.160875712132836024e-01
3.300595209711752465e-01
1.818888959840524455e-01
1.394389217251298246e-02
-1.103405110621041990e-01
-1.370770187565606701e-01
-5.631775799668038707e-02
9.677747221496932339e-02
2.680585006935400916e-01
3.916563567839652094e-01
3.901131141013763903e-01
2.234878291155972252e-01
-4.772641637052464636e-02
-2.838079848462122246e-01
-3.684996422895923662e-01
-2.883368598252828430e-01
-1.151248802478740396e-01
7.378823039185415655e-02
2.417260689413252006e-01
3.756584998470756109e-01
4.569588176472937358e-01
4.503238272862870595e-01
3.236010394556873004e-01
1.045514034005058240e-01
-9.988279791902260341e-02
-1.825538799662801137e-01
-1.221691432770833363e-01
2.339476076407290966e-02
1.779190894835937786e-01
2.885903767339330628e-01
3.336339769966379931e-01
3.065881770988289068e-01
1.963106966159192945e-01
2.082983242246124259e-03
-1.995251581226242521e-01
-2.335136304647414118e-01
-3.701641576196661870e-03
2.247024840016734748e-01
-1.016030958718048272e-01
-1.146084756095609780e+00
-2.149378568424550551e+00
-2.105714326311232565e+00
-1.052310306046660537e+00
-8.128221362550924756e-02
1.960934955220914114e-02
-4.725278990073671359e-01
-8.438835732443125126e-01
-7.646287062437265858e-01
-3.851529755057372939e-01
6.383178362437038483e-03
2.382492997111574085e-01
2.933594767928870972e-01
2.401531771832531859e-01
1.528215075783805055e-01
7.069664674014987382e-02
9.709403929536085387e-03
-1.103560634541007890e-02
3.143270942021199332e-02
1.442153429825432931e-01
3.028850873359567597e-01
4.506790530192969491e-01
5.174706006463376529e-01
4.514514952756009114e-01
2.503868783966684552e-01
-1.089004237854021562e-02
-1.977635840646092824e-01
-2.169830983757521370e-01
-9.868130173411594763e-02
6.099441490594523924e-02
2.066892374135168298e-01
3.316477911954188174e-01
4.143001905161890486e-01
4.028564956680526499e-01
2.770095999835777700e-01
9.671524215706803207e-02
-4.475886472561833168e-02
-1.091389177370609975e-01
-1.245326437663261954e-01
-1.184979302575247945e-01
-7.798740440984880395e-02
1.776187629294228437e-02
1.506038866233654072e-01
2.632537558904577968e-01
2.978108112147160869e-01
2.350435486359443160e-01
1.096286371707961005e-01
-7.732209377169866824e-03
-4.996642483742622792e-02
1.066211310084526354e-02
1.476524068439782622e-01
2.929267631679368655e-01
3.768143236929755724e-01
3.699628135037267285e-01
2.856064541844233751e-01
1.485429933536294156e-01
-1.159534428361016535e-02
-1.388932452486161262e-01
-1.657094899076202998e-01
-7.407693893141266417e-02
7.148259955619515327e-02
1.800197385554218599e-01
2.404559480350819956e-01
3.472266038139023570e-01
5.311083597331639483e-01
5.175175823874488268e-01
-1.514884315194892916e-01
-1.453695676039615359e+00
-2.492360395210114543e+00
-2.305841865519358436e+00
-1.068583135239378645e+00
8.127158067394105179e-02
3.794905349521032756e-01
5.324192669131808109e-02
-2.969519101369589298e-01
-3.920636130344737347e-01
-3.215101689179722944e-01
-2.455571007511815063e-01
-2.036557398105093841e-01
-1.357127881022424098e-01
9.745420164517192702e-03
2.148312537621261120e-01
4.084825583766806822e-01
5.178651684859105764e-01
5.114621544649518015e-01
4.095394638509888829e-01
2.643146601921216310e-01
1.330921555310377591e-01
5.732857539619709564e-02
5.107364080931960093e-02
1.090498128074162132e-01
2.253221206698174939e-01
3.866402787558310683e-01
5.376880946922456550e-01
5.856060081845397836e-01
4.808876318870659028e-01
2.757720985358647070e-01
7.173437181836743448e-02
-5.972440004535202462e-02
-8.967068806249411939e-02
-1.918881872356758764e-02
1.189389437007893208e-01
2.727731020237294524e-01
3.923275765717763042e-01
4.270606584962667873e-01
3.278446027027509535e-01
9.216181729415549861e-02
-1.917372675310002050e-01
-3.766589980352933464e-01
-3.583483401287052006e-01
-1.537451495155926495e-01
1.236164780447754630e-01
3.574243155887744106e-01
4.876003236497306048e-01
5.009641346377798898e-01
4.101926589650631283e-01
2.523625125263132540e-01
8.074148292630033141e-02
-5.699436851813920180e-02
-1.287772914181359585e-01
-1.154818838882388371e-01
-1.757509680024926801e-02
1.327070126388296134e-01
2.792521059111302550e-01
3.709399042228752608e-01
3.845351474046505014e-01
3.197660745151961192e-01
1.774916906130740435e-01
-2.399993014245826312e-02
-1.793035254403436696e-01
-1.123861500843779671e-01
1.820234691096823676e-01
3.002514742441505513e-01
-2.844371414283441424e-01
-1.444943023698676887e+00
-2.202840075242834317e+00
-1.788989241040818357e+00
-6.640097366284383185e-01
5.490997096343019912e-02
-7.239127953457523412e-02
-5.486161012394499270e-01
-7.482000504845393030e-01
-5.242628266194913067e-01
-1.158379049703524566e-01
2.126277792913123799e-01
3.619558833535471143e-01
3.615303723401113167e-01
2.703567160585299001e-01
1.456262555609357801e-01
5.019573845808478207e-02
2.321048467316840988e-02
5.062228094866205730e-02
1.074901148236350745e-01
2.059207568585235404e-01
3.494831851915881638e-01
4.693664702161224334e-01
4.683176563872733511e-01
3.250669227000803074e-01
1.220093213047337422e-01
-3.110782754619530188e-02
-7.990014459237289313e-02
-3.307064330547785508e-02
7.666542848984411740e-02
2.138579607877049427e-01
3.373519827784774439e-01
4.032718638551791579e-01
3.852068337367903772e-01
2.899852387016729205e-01
1.484969934494735078e-01
7.578596798344435642e-04
-1.077567006218247553e-01
-1.451171992186021942e-01
-1.236644237842641075e-01
-8.357667155769980816e-02
-3.469022357045897786e-02
5.203549829992460546e-02
1.788105644363960356e-01
2.794270674459723436e-01
2.751589470179096608e-01
1.631991793288159465e-01
2.787258829023998852e-02
-3.554874681409247311e-02
4.926239797700069853e-03
1.186987863271735666e-01
2.575359762614904402e-01
3.708130996611095909e-01
4.013222132483680316e-01
3.177873170532492519e-01
1.532038953297822637e-01
-1.773644227458579317e-02
-1.338271066669579623e-01
-1.650981440458790805e-01
-1.023094852985295677e-01
3.112115772855873763e-02
1.662464496113242873e-01
2.465516948663186436e-01
3.188925970504996599e-01
4.698442818238679486e-01
5.554035875713480008e-01
1.135802999346664510e-01
-1.095209082323660432e+00
-2.411463701650867097e+00
-2.683782286721964283e+00
-1.629880487835419167e+00
-2.548841153103789114e-01
3.574323859277044879e-01
1.341604319302275028e-01
-2.940557604490424692e-01
-4.650102474953352050e-01
-3.885698817387190918e-01
-2.720474229147392120e-01
-2.173212681146126923e-01
-1.744436904242178676e-01
-6.314187338742700828e-02
1.274704283989374909e-01
3.364432098313795416e-01
4.801101778907194140e-01
5.007460328092805391e-01
4.015210969881865544e-01
2.478026756043893442e-01
1.164333741425018498e-01
3.849384007818081044e-02
7.085439560284734206e-03
2.958286530064466874e-02
1.305324399934177093e-01
2.925703357032207741e-01
4.308740032172881373e-01
4.554538869119644229e-01
3.498812821694073372e-01
1.737062020251939898e-01
3.370991078945523994e-03
-1.086113441102773552e-01
-1.353063428013278058e-01
-7.191676318069928353e-02
6.160974207220246135e-02
2.255769760463893214e-01
3.721490582435482142e-01
4.468151197626048510e-01
3.880499673918988979e-01
1.672423339489298721e-01
-1.438885975393116301e-01
-3.794457163904075281e-01
-3.998220629484725008e-01
-2.092112762701985318e-01
6.200448734809013707e-02
2.803835674171774039e-01
3.963174234578846766e-01
4.319462263992416839e-01
4.238072652056653622e-01
3.804220154609806448e-01
2.928443444144163132e-01
1.867144449276723905e-01
1.179335604841401791e-01
1.033807194589891620e-01
1.192336373716571807e-01
1.569354416245761219e-01
2.115670483169259930e-01
2.582988710087214534e-01
3.033200799254374691e-01
3.838579281019960376e-01
4.481003119603181317e-01
3.457264963985909323e-01
6.680072754751702202e-02
-1.180121017050156373e-01
3.481845541248153320e-02
2.981343545234406145e-01
7.170341851657241472e-02
-8.542543359555360150e-01
-1.769842955177829413e+00
-1.743423440943697944e+00
-8.489442379092619895e-01
-1.044543992970036472e-01
-1.580348622020023575e-01
-6.536615907960975358e-01
-9.163506047166598556e-01
-7.182883401443147520e-01
-2.857307836472180451e-01
9.107394221634280973e-02
2.844040922050108389e-01
3.023448356809729232e-01
2.042265197007091249e-01
6.821547090251035839e-02
-2.714634549950199066e-02
-4.087552057364120250e-02
1.565046516629502518e-02
1.150488410459552246e-01
2.442791939093024722e-01
3.835680490790532304e-01
4.817853645636877569e-01
4.807365000903760510e-01
3.648238054804099906e-01
1.801451031742098974e-01
3.875958521403856383e-03
-1.006971445038180729e-01
-1.026004820850328209e-01
-1.522731603902205411e-03
1.691919582030946001e-01
3.422263206948017444e-01
4.402239054169433397e-01
4.193170103624433986e-01
2.979223798418932367e-01
1.391199816471193895e-01
2.300815854381297806e-03
-8.379595094074444861e-02
-1.145330630628863533e-01
-1.010934106238075836e-01
-6.446620687925636028e-02
-1.947096104676250897e-02
3.576490340843904714e-02
1.072841578043114280e-01
1.771631176562641352e-01
1.963593440935836321e-01
1.295952442708499519e-01
1.028112714132168627e-02
-7.385701552520891611e-02
-5.793549966755387470e-02
5.338761133389514912e-02
2.103292846848390241e-01
3.548354248999272542e-01
4.289187027658712958e-01
3.889514846448234864e-01
2.413403572955960530e-01
4.927936180577364295e-02
-1.093992715830547635e-01
-1.814308073808757471e-01
-1.471736987780416506e-01
-2.620983872169617770e-02
1.195434200814048664e-01
2.186939869124351343e-01
2.579446528291942098e-01
3.097347501040286222e-01
4.144955448668882769e-01
3.679462274755574969e-01
-2.291218071479438068e-01
-1.412677906990189580e+00
-2.410010694575605683e+00
-2.274449835511754170e+00
-1.079600088581308626e+00
7.968117741402014342e-02
3.819653385517270405e-01
1.345950245173037352e-02
-4.120762265867693452e-01
-5.986483259082059361e-01
-6.064380075001701842e-01
-5.314496634122499730e-01
-3.859719217851707018e-01
-1.793639695059981998e-01
4.667121930610328151e-02
2.479134394082142534e-01
3.896034661790568898e-01
4.499614193638378223e-01
4.253582951960084291e-01
3.278126808447455742e-01
1.892956836777893170e-01
6.545192967257210115e-02
1.369450649101368322e-02
5.826974259544492191e-02
1.802946335316787385e-01
3.389647165644313342e-01
4.871048374743043863e-01
5.660625348965775405e-01
5.215481794899814449e-01
3.549797751439226490e-01
1.420288553918479524e-01
-2.420705398425166549e-02
-9.618829375744716859e-02
-7.202456609366424123e-02
3.240384251938152604e-02
1.866669794664570503e-01
3.413117648412905547e-01
4.404429792200175164e-01
4.337376108504179539e-01
2.879468849243488338e-01
2.224844302415258934e-02
-2.646338572791795962e-01
-4.354779832666230699e-01
-4.038051853291328985e-01
-1.893115070246476073e-01
1.049726787852028609e-01
3.610907603120827591e-01
4.966150160143047998e-01
4.807718429882896771e-01
3.391674931814404048e-01
1.434128706440397916e-01
-2.669050536985312708e-02
-1.211193210707871976e-01
-1.256469222671419139e-01
-4.841668668018946076e-02
8.459420282851545791e-02
2.286717291850525469e-01
3.320547099426739424e-01
3.578160037170571850e-01
2.989521903892000676e-01
1.739345420942869924e-01
1.090870506869024911e-02
-1.456927453806279027e-01
-1.992799676143296450e-01
-2.743837718600563094e-02
3.237602761071031177e-01
4.456014757426162154e-01
-1.677366626507120762e-01
-1.387691420793459862e+00
-2.243257234173819281e+00
-1.934040263041861829e+00
-8.683704630970796590e-01
-1.508352335742621786e-01
-2.414489912168687469e-01
-6.561097723365295620e-01
-7.860577146711422714e-01
-5.155501015776263740e-01
-1.016323109404825009e-01
1.987103409698262602e-01
3.006665449560470549e-01
2.513281129333134190e-01
1.387534436182668030e-01
3.655193515772688084e-02
-1.254232622898774838e-02
1.011908312454468800e-02
1.086654054525801605e-01
2.658496796601723666e-01
4.276723224483657826e-01
5.194540791216986086e-01
5.017299762735866198e-01
3.995316511648043245e-01
2.652429293606365368e-01
1.374634308401757599e-01
4.434980685327172961e-02
1.316664217294573336e-02
5.734403495444724552e-02
1.632113736547448901e-01
2.945673616683407436e-01
4.109561816174198690e-01
4.788065188103390324e-01
4.633120380782915770e-01
3.410911009810568828e-01
1.523560846420103920e-01
1.414932293149139333e-03
-3.870497911234951904e-02
5.920940829291905516e-03
5.336848240148132916e-02
4.934685107015332473e-02
1.679016530147368208e-02
4.305149395717115107e-02
1.852828581174885969e-01
3.627681936949312957e-01
4.021912636998520862e-01
2.434205509196744055e-01
3.075365772989014160e-02
-5.490388645506574100e-02
2.557728720941820563e-02
1.888626140284825894e-01
3.361104100490364677e-01
4.063474420837064338e-01
3.793169309741900030e-01
2.706564108577745320e-01
1.277224009398645888e-01
6.985472329918802729e-03
-5.827369459318806205e-02
-5.701180072007823452e-02
1.573016843492617417e-02
1.354180741551240796e-01
2.320979885795248221e-01
2.625585885821958287e-01
2.930678054833667501e-01
4.062494361590524017e-01
4.405131484403805309e-01
-4.498948963007928098e-02
-1.225411031009521867e+00
-2.418525273510386153e+00
-2.550645845056948247e+00
-1.439298797408878894e+00
-9.717194373189078083e-02
4.603122039816918698e-01
1.971648432700358056e-01
-2.816485745994047329e-01
-5.294810898144178823e-01
-5.099691624758347919e-01
-3.677846679756350268e-01
-2.043623344200574676e-01
-3.998009437409773964e-02
1.345822528456873668e-01
3.140899488668695838e-01
4.624192860957559437e-01
5.261428603329745268e-01
4.740226886091557512e-01
3.311968167350490266e-01
1.690117261005932847e-01
5.434866305645939810e-02
1.568344873624210808e-02
5.529697397364199268e-02
1.642297014711788794e-01
3.115528349173757872e-01
4.406745793311905857e-01
4.952108918557176498e-01
4.527485970745528387e-01
3.336863964850777520e-01
1.791363642927572275e-01
3.120785035462516482e-02
-6.608178422661710461e-02
-7.565966668361204239e-02
6.140518379185777587e-03
1.452672469896935659e-01
2.938651601466889529e-01
4.023614642232128391e-01
4.150831040930022531e-01
2.887177227311624184e-01
3.686017832680386908e-02
-2.491288238708876668e-01
-4.354577910604374713e-01
-4.211284535004908292e-01
-2.087994443201960093e-01
9.061264480405588351e-02
3.417988369872774213e-01
4.748130456969641977e-01
4.885651074806619532e-01
4.000276546706806879e-01
2.283907695630219281e-01
1.918326577217127279e-02
-1.511437318769653371e-01
-2.115856370193361369e-01
-1.410186138696302438e-01
2.063974124834985421e-02
2.011312424854717895e-01
3.332181712974206511e-01
3.774035381704458625e-01
3.261820870879446610e-01
1.897578457474085878e-01
-1.323867538641803829e-02
-2.258601326061642212e-01
-3.115654464893387043e-01
-1.201880687957521815e-01
2.731566397719020767e-01
4.016586451516437339e-01
-2.404153949433877613e-01
-1.448480940981935694e+00
-2.211869231084923282e+00
-1.812050163997276364e+00
-7.557358705379536579e-01
-1.206040299011486294e-01
-2.697257843078637030e-01
-6.876837954193697477e-01
-8.003312293713494840e-01
-5.196237191931284416e-01
-1.067102458975195123e-01
1.827798995192855824e-01
2.693998954450872452e-01
2.145662407809888206e-01
1.142282436742594609e-01
2.349413209660929092e-02
-4.128923231295052176e-02
-5.354916939055155006e-02
2.676594248526564107e-02
1.923284212496519929e-01
3.668284867071036071e-01
4.708863690926842760e-01
4.795913717111566221e-01
4.061871574219577119e-01
2.689771083579043931e-01
9.468940413323145844e-02
-6.290611915174412760e-02
-1.347649904760452322e-01
-8.637958454344395187e-02
5.057255305164235631e-02
2.091084755355804847e-01
3.333569673986006010e-01
3.856847088301246229e-01
3.436413720382285319e-01
2.200472644164827019e-01
7.108619277019156968e-02
-3.829440547980870330e-02
-7.792970746250116321e-02
-5.986059925421251260e-02
-1.579984073503883091e-02
2.492929214189652451e-02
5.553648181510500298e-02
1.014083478937893995e-01
1.785290477035108569e-01
2.331253436317367311e-01
1.788943146583168720e-01
2.258352128545110249e-02
-1.057372388322136009e-01
-8.774909824545250314e-02
6.233357456048285727e-02
2.394356670795443343e-01
3.582089794442780972e-01
3.887324280376654451e-01
3.320555582435893438e-01
2.103812075987176178e-01
6.503074623772656104e-02
-6.189486521899104088e-02
-1.370071300260999880e-01
-1.305078834797603893e-01
-3.068977179488867682e-02
1.214706823446530248e-01
2.358015115771683601e-01
2.593416045380863566e-01
2.690602397208909369e-01
3.866459615795695415e-01
4.916195789088429469e-01
1.220280491659688216e-01
-1.004515215838576836e+00
-2.288032843716079068e+00
-2.566811152798210038e+00
-1.485244814809173697e+00
-4.284845722995272999e-02
5.954793644276767939e-01
3.145883460350940020e-01
-2.180102998633549893e-01
-4.915207947938557975e-01
-4.822551015935933605e-01
-3.625740240623859800e-01
-2.200689999553947784e-01
-5.230553803179800731e-02
1.349480310629396496e-01
3.053507484053903931e-01
4.265247844836317359e-01
4.848836995480585443e-01
4.760377684301904666e-01
4.009699246490955327e-01
2.772806182641130990e-01
1.502865577840458711e-01
7.862772923349400922e-02
9.730643308874428743e-02
1.978187942609154204e-01
3.396856967996168541e-01
4.685704937291527150e-01
5.335851340721904368e-01
5.094761924001366404e-01
4.069257385758955903e-01
2.605093193140782248e-01
1.120386947732847083e-01
3.326192322861860028e-03
-2.957632121731909591e-02
2.863390112335034016e-02
1.569739094830031878e-01
3.009058181598098791e-01
3.957330129190223533e-01
3.945240724087092365e-01
2.851950279464355309e-01
9.509748141788294806e-02
-1.127463837400170810e-01
-2.525004695053945647e-01
-2.463225737522505843e-01
-7.908792496970649955e-02
1.698962770662131583e-01
3.840828520103646837e-01
5.007100103939371438e-01
5.196454169810666990e-01
4.526869533013752611e-01
3.105780790591393115e-01
1.258204440355902565e-01
-4.325322380645959391e-02
-1.356962458169805874e-01
-1.177930731653724639e-01
1.007986229319787763e-03
1.763628242919943745e-01
3.476924189061685322e-01
4.495167716158956495e-01
4.219516472246949701e-01
2.376365320091395616e-01
-5.595735101109709092e-02
-3.207863608345306594e-01
-3.843808748991847102e-01
-1.499280665636392174e-01
2.645629033885419368e-01
4.293942954084832286e-01
-1.481556240123610424e-01
-1.347696644667740307e+00
-2.197874509246475316e+00
-1.868714559997351365e+00
-7.755023575979564932e-01
-7.707384645059073280e-02
-2.444731350464721953e-01
-7.371364685106324144e-01
-8.996247215362884742e-01
-6.171983381993231266e-01
-1.646589167556497812e-01
1.843401685623658470e-01
3.245107803711028693e-01
2.863086719169722905e-01
1.557469072583243241e-01
2.031096864649045708e-02
-5.314129336969150574e-02
-3.280889861399889640e-02
6.775171251791817228e-02
2.054013233144413586e-01
3.419398030122107746e-01
4.552447450374379478e-01
5.155261831812458784e-01
4.777266748586175282e-01
3.276974670467691642e-01
1.264549956601077885e-01
-2.345670878140720950e-02
-5.898830278642595154e-02
9.555637265282402454e-03
1.333412207720586495e-01
2.695485975500561127e-01
3.901085613852067757e-01
4.638595102578840224e-01
4.488590556899595407e-01
3.179101874450911969e-01
1.019630466700213733e-01
-9.694130422184137064e-02
-1.699970424800818503e-01
-1.063330489403432333e-01
-2.731555495281416668e-03
5.452875572305736218e-02
7.340253942113818264e-02
1.052088908878555662e-01
1.578919452587793648e-01
1.832564431427998186e-01
1.367980948518611739e-01
3.848111517844722551e-02
-3.830853526846503959e-02
-3.723464640862533814e-02
4.244567090844894586e-02
1.699573473893710440e-01
3.055471331127908585e-01
3.959135940588089930e-01
3.888797519517651069e-01
2.727490877785402890e-01
8.994242862468783406e-02
-9.034832730613948093e-02
-2.053372311473813383e-01
-2.137376001657294577e-01
-1.087264205316046395e-01
6.147698054754828501e-02
2.040096968671370747e-01
2.619309093083994622e-01
3.014419747430676644e-01
4.304909181355259240e-01
5.184741901115271778e-01
1.055923674073412366e-01
-1.072675711767638207e+00
-2.403560975273436817e+00
-2.732928291949872524e+00
-1.696031890998347613e+00
-2.479882894298399143e-01
4.477021044943015893e-01
1.961217075921934117e-01
-3.759937485276545477e-01
-6.753864310053404596e-01
-5.969819055593088564e-01
-3.679194603745787329e-01
-1.879574459554455013e-01
-6.768682795980375533e-02
7.120369186961734986e-02
2.505419726388525836e-01
4.144787127167599561e-01
4.994780424932890872e-01
4.866742869728533094e-01
3.994159025350983994e-01
2.765677747257885288e-01
1.512389843111314747e-01
5.069979077214270546e-02
1.077827227973228441e-02
6.999351921708317492e-02
2.286353944154448925e-01
4.134363449332911777e-01
5.120461015499226942e-01
4.712981921879927927e-01
3.425111205435154571e-01
2.050603274498444262e-01
8.392083213933114461e-02
-2.047446755911173574e-02
-6.896309509962315898e-02
-1.042187889696861991e-02
1.433206782652581279e-01
3.119875714193066085e-01
4.160185000019797075e-01
4.246061412262688295e-01
3.347173076680869941e-01
1.422182740780637000e-01
-1.238337193390978697e-01
-3.509276876702916992e-01
-3.968979698297802061e-01
-2.272303055170743491e-01
4.715281387876693597e-02
2.863172216456563168e-01
4.247540953249459017e-01
4.597078676922999318e-01
4.046289264953202847e-01
2.790177106101756621e-01
1.181504631162708652e-01
-2.471377882996384986e-02
-9.391844954697711745e-02
-6.030726226619165936e-02
6.080797938892150423e-02
2.196130365151323927e-01
3.565042646272854054e-01
4.248144082386910436e-01
4.062073255061021126e-01
3.066481923306664803e-01
1.401542111836365234e-01
-5.467600869933250674e-02
-1.713806511905208163e-01
-7.682052719120391338e-02
1.935577063243180407e-01
2.648788604493762522e-01
-3.447324604873072684e-01
-1.547150547152279954e+00
-2.406074907402840690e+00
-2.063313683365378015e+00
-8.748256665210012439e-01
-1.733697371978232260e-02
-6.362989156472825814e-02
-5.422779502478959346e-01
-7.668685431052496559e-01
-5.522692776263973258e-01
-1.387289966369412431e-01
1.999031527548979503e-01
3.508826558303086984e-01
3.321976220394896595e-01
2.145616978463183444e-01
7.934274372896135685e-02
-6.099373457917937891e-03
-9.158380685562142465e-03
6.531013729916521071e-02
1.882162002118206723e-01
3.205824503161106009e-01
4.256469306137258823e-01
4.727192698332655096e-01
4.337840255688327762e-01
2.989824926283931039e-01
1.079766875471501603e-01
-5.465075111553642506e-02
-1.128999865006202058e-01
-4.800092038290345448e-02
1.011087155630648327e-01
2.756282130171389122e-01
4.281826584104676536e-01
5.175292560220280391e-01
5.017263199562752574e-01
3.727682249998403585e-01
1.844069364259102728e-01
1.581974861416149056e-02
-8.045008463906223872e-02
-9.345526429867297147e-02
-4.795141479541780577e-02
1.781676448153795417e-02
8.542799908412911092e-02
1.589667196535152760e-01
2.337671680551597908e-01
2.756636557045767377e-01
2.395871177165179444e-01
1.205224731406510930e-01
-1.405116587287098123e-02
-6.479202138030985825e-02
1.527899392530169403e-02
1.842551057499826062e-01
3.540852748212793832e-01
4.545278484053999479e-01
4.594675758274463506e-01
3.767847448850384917e-01
2.343495451386956863e-01
7.649829787156152416e-02
-4.235099978705343660e-02
-7.754620468847060744e-02
-1.496200554515491471e-02
1.181259015734700130e-01
2.540456811801441450e-01
3.231906483634065519e-01
3.368943144657370325e-01
4.003459485082502822e-01
5.097600804166930732e-01
3.131388781538866350e-01
-6.269493021892761364e-01
-2.054542599262128011e+00
-2.855087227418654727e+00
-2.224348617576329623e+00
-7.421982521138494882e-01
2.993286971229198734e-01
3.535823264599937676e-01
-1.100200613460947940e-01
-4.609455147201622083e-01
-5.114253558814781941e-01
-4.030186503390437158e-01
-2.812860170353896350e-01
-1.673105894284763751e-01
-1.998528081733553369e-02
1.666237657536270567e-01
3.401702867097240457e-01
4.425695150826185476e-01
4.537763781811930408e-01
3.822917161257969321e-01
2.508019187319013854e-01
1.063406346243588041e-01
1.322504090400464585e-02
9.106835631830947561e-03
7.398389410185787773e-02
1.580082060625511153e-01
2.366976467839949638e-01
3.153834337647233310e-01
3.747222582801583712e-01
3.553711173691577740e-01
2.274385607550741817e-01
4.377461656276129820e-02
-9.909992059482572446e-02
-1.335817529197292630e-01
-5.719863518101618582e-02
7.730409411621426419e-02
2.072216949467388103e-01
3.001415483931356709e-01
3.424573434438620834e-01
3.059667557379799341e-01
1.581271957542641771e-01
-8.744045092207181069e-02
-3.382629516102877432e-01
-4.568813636326428673e-01
-3.560977332545792184e-01
-7.614451176698484869e-02
2.371501458757776515e-01
4.394092161720787315e-01
4.820026017722175427e-01
4.092911997685911851e-01
2.825704410851319626e-01
1.341879206894890930e-01
-9.920078957998977598e-03
-1.025498835243334045e-01
-9.193040619057417373e-02
3.433741451300031944e-02
2.219084903202183101e-01
3.740243242953881220e-01
4.168053477716193167e-01
3.464500133584578756e-01
2.174412336780812416e-01
8.721595829354972240e-02
-3.029674795462965892e-02
-1.415760890188118570e-01
-1.879365312774008423e-01
-3.932143357964890118e-02
3.010105623084275983e-01
4.655622256097920464e-01
-5.780906909397719173e-02
-1.208528651003293986e+00
-2.080446422060106215e+00
-1.856501837744017003e+00
-8.674830934066202204e-01
-1.673036279613241695e-01
-2.285544411941865806e-01
-6.045080095239124818e-01
-7.049769189794778956e-01
-4.171278346151400251e-01
-1.101385980356107269e-02
2.395206068962147661e-01
2.619338408051064548e-01
1.493670967117558812e-01
3.202947454730455112e-02
-1.599289569590535420e-02
1.007376961009096711e-02
9.050653219455341569e-02
2.131737305453324793e-01
3.562423206048757618e-01
4.712708153119322119e-01
5.095873025614234830e-01
4.593611159934880561e-01
3.478985275233720253e-01
2.136301589882979024e-01
8.682802159572064471e-02
-4.410783448621283936e-03
-3.018025764213818837e-02
2.589826605530539533e-02
1.518783082735857271e-01
3.043880531191588967e-01
4.170715832117165012e-01
4.308604176462470514e-01
3.311355659745498503e-01
1.567515577779652891e-01
-2.061147317778389693e-02
-1.278065717066639573e-01
-1.237666062496767388e-01
-2.508846359778459101e-02
9.784713196317497419e-02
1.696098384919016433e-01
1.681459245445050821e-01
1.264010409411032709e-01
8.144922185729012998e-02
4.075691533797363292e-02
-3.518207657236577419e-03
-4.130375492808253252e-02
-3.650312188671518687e-02
4.238294800731492312e-02
1.856920339083885096e-01
3.386487333033921243e-01
4.357293846362266798e-01
4.443057044309618453e-01
3.750012692281127213e-01
2.549562542365090834e-01
1.083058947329109262e-01
-3.527641369876478861e-02
-1.292543227022422414e-01
-1.206311756587371276e-01
1.088247245841198613e-02
2.089559296819025469e-01
3.517459813680797742e-01
3.426513553967013848e-01
2.157058623211036696e-01
1.337022019668951955e-01
1.948639243553748623e-01
1.828863249100263766e-01
-3.356733735558989351e-01
-1.398854805896096343e+00
-2.236092256131456679e+00
-1.966912443766450469e+00
-7.654011366888602286e-01
2.453724972626494805e-01
3.278325044613817352e-01
-2.099521011058661513e-01
-6.771631119979758529e-01
-7.644718126868966790e-01
-5.825044847498979106e-01
-3.306140850771411843e-01
-1.015593951149264818e-01
1.024529612471134499e-01
2.830396979412704295e-01
4.063280709129092338e-01
4.359546743071140984e-01
3.762057877016902752e-01
2.676101728942281155e-01
1.533903610086541358e-01
6.346394448146153167e-02
2.431634151924680007e-02
6.376869403225368660e-02
1.885355274372385037e-01
3.607447096196165770e-01
5.069163384535131378e-01
5.533023792032029098e-01
4.682238330058192122e-01
2.869931572415460597e-01
9.198585223537572575e-02
-3.948344631568524027e-02
-7.424571471087523800e-02
-2.289635479821666708e-02
8.586896850952932536e-02
2.200538693260193357e-01
3.398661653577018660e-01
4.032826153273433856e-01
3.863514313387746424e-01
2.844805850731994545e-01
1.016578911309534705e-01
-1.302248000305286368e-01
-3.279687976175522102e-01
-3.905920740995782459e-01
-2.688259303386172361e-01
-3.751526461197952911e-03
2.902444569428601073e-01
4.881824777338815147e-01
5.254773990559044039e-01
4.206351956256790259e-01
2.418058636793146698e-01
6.619996709234901577e-02
-4.318550116446476933e-02
-5.566292156367581151e-02
1.922190838236341459e-02
1.434322599048554192e-01
2.669779565626151374e-01
3.399330143329730713e-01
3.295636386999641898e-01
2.397834730725562358e-01
1.114461784006343381e-01
-6.177011788639684420e-03
-9.180784882876558139e-02
-1.505853379734878872e-01
-1.502483883920281982e-01
1.528875569971818726e-02
3.728243059190665676e-01
6.062389727021196828e-01
1.559514625375787722e-01
-1.080669230085122834e+00
-2.255055347435396040e+00
-2.319603911795292461e+00
-1.316218752155968730e+00
-3.217760736313302616e-01
-9.001626403460155634e-02
-3.627061242631151039e-01
-5.206762454679717544e-01
-3.472085017985839239e-01
-4.712226813327682201e-02
1.329855626376199584e-01
1.262755920908939233e-01
1.352617688419436442e-02
-8.901824401823957289e-02
-1.089737040286844205e-01
-4.168703902941746364e-02
7.871663121324612433e-02
2.212234525331922830e-01
3.609480945796557649e-01
4.566806690215305387e-01
4.632165160878237153e-01
3.755702184738767824e-01
2.377861622032532152e-01
1.046530635857217534e-01
1.384881368134779217e-02
-1.067677448610098584e-02
4.447639830429386126e-02
1.715010068812309607e-01
3.284460829812324012e-01
4.427998230767384857e-01
4.506316678219454142e-01
3.442125747432880356e-01
1.723948686777374839e-01
9.419846038266933841e-04
-1.160119959617711971e-01
-1.410605017001351491e-01
-5.659979074212534433e-02
1.195281744660086631e-01
3.153856293652526066e-01
4.143947297766461535e-01
3.123480948012680725e-01
9.045236810805240557e-03
-3.309615830522859570e-01
-4.747555968374077562e-01
-3.514198765045276618e-01
-1.173765115897551503e-01
5.924780695269323688e-02
1.709921427866268884e-01
2.881050218584090272e-01
4.109266489429168057e-01
4.608838155403716108e-01
3.838980994248665790e-01
2.201790316765480093e-01
5.751489515130460417e-02
-5.334310662050133212e-02
-1.063000902702488509e-01
-9.327344819469403359e-02
9.637914894327394288e-04
1.584951191457483477e-01
3.117743793218814563e-01
3.746906213359332272e-01
3.005057653200222667e-01
1.458507534205119027e-01
6.826604699866130332e-02
1.507332190106112635e-01
1.572319740941790778e-01
-3.571505371639481785e-01
-1.410711007547705398e+00
-2.209463951445989505e+00
-1.899230379713578998e+00
-6.902649838239351965e-01
3.175998831085901086e-01
4.210063675990314835e-01
-9.036683538595627341e-02
-5.519500985396139647e-01
-6.466649893545842742e-01
-4.735104280588347536e-01
-2.301378628475114207e-01
-2.508359898802098222e-03
2.050119682830483514e-01
3.713347192715841794e-01
4.475869520422609549e-01
4.075949537954917656e-01
2.732907592132308716e-01
1.026537406506327910e-01
-3.184488213973107190e-02
-7.110385885555635388e-02
3.715570451683679679e-04
1.484955699451464828e-01
3.135296507127997012e-01
4.364810382300556846e-01
4.735997338669180601e-01
4.102089937574064371e-01
2.708393539316245047e-01
1.052193619138310499e-01
-3.810211924747900630e-02
-1.189455881063700010e-01
-1.055990083947020847e-01
3.539943312917868956e-03
1.615057411840828405e-01
2.983546419842228459e-01
3.681299922332468277e-01
3.625871149057153242e-01
2.885935842867204948e-01
1.512332654685475952e-01
-3.316737538429860577e-02
-2.148363223082731255e-01
-3.178411965334527745e-01
-2.789237800420635294e-01
-8.631035167263984009e-02
1.967963897917806571e-01
4.440796866138618237e-01
5.389058163714820493e-01
4.566740988966497827e-01
2.711378316327051619e-01
8.946500547968211370e-02
-1.593308500490236285e-02
-3.295959758206638140e-02
1.612674800090369356e-02
1.167736213463992229e-01
2.624251897058654803e-01
4.150229398966396310e-01
4.916062654261099674e-01
4.060446900862451081e-01
1.430192795052371846e-01
-1.778977548905162076e-01
-3.567323915100358844e-01
-3.109164499686606353e-01
-1.547589635170803779e-01
3.436985672134289238e-03
2.230697541910957593e-01
5.275483782277762268e-01
5.950084532156927342e-01
-6.463780049477396705e-02
-1.384116517907547861e+00
-2.422461186034427172e+00
-2.273245515260879479e+00
-1.183919801457287591e+00
-2.327478817253147148e-01
-2.832857445588858950e-02
-2.622699149275861119e-01
-3.925844202499746971e-01
-2.615279330227506249e-01
-4.667430086930553917e-02
6.611274720379620162e-02
4.496055437404376104e-02
-3.267258248371598256e-02
-7.629088439667354449e-02
-3.591514080667040920e-02
8.906020983867704577e-02
2.657626811193450900e-01
4.448964224868507400e-01
5.667054453561810590e-01
5.793665740906311923e-01
4.766509735194328634e-01
3.073432295140545722e-01
1.368156653593178840e-01
1.266131915058412577e-02
-3.339340229381892317e-02
1.868000433926641710e-02
1.583844039653377334e-01
3.299306756085180758e-01
4.532001114710721978e-01
4.699156944213578324e-01
3.744797514032167096e-01
2.081354539311652818e-01
3.337059264415237481e-02
-9.030136913036798663e-02
-1.249140388719254813e-01
-6.419681893872136724e-02
6.726365091553515585e-02
2.178843458419935653e-01
3.166720440429491301e-01
3.051309678892096811e-01
1.850297858042952992e-01
2.682265882194692641e-02
-8.210234108738123648e-02
-9.761879769120834771e-02
-3.298888607782252125e-02
7.180044129860418956e-02
1.824896766418347138e-01
2.790928600053536601e-01
3.524794252438868125e-01
3.938143977281419739e-01
3.794089742867633452e-01
2.846856776313076431e-01
1.279507618278114545e-01
-2.259073776754825374e-02
-1.002985635577882811e-01
-8.276064056486281961e-02
1.632999233609759224e-02
1.706045079438021361e-01
3.388851746258342290e-01
4.494733349721678484e-01
4.224636845542232844e-01
2.510679397545946268e-01
6.511575927390612917e-02
3.713838265435802366e-02
1.164422822236468452e-01
-9.878701948999121796e-02
-9.505803568727531072e-01
-2.048593330819123981e+00
-2.390183486417800651e+00
-1.525706283316978995e+00
-2.419284504549376325e-01
3.485220796640425833e-01
3.052139112893386547e-02
-5.653832960029442356e-01
-8.413793119030542611e-01
-6.919700042078796853e-01
-3.337416900592531932e-01
-1.260001335052060231e-02
1.425166030499300518e-01
1.637176470002465745e-01
1.847534556528727945e-01
2.694823453273900715e-01
3.288653976904800658e-01
2.639246771390242330e-01
1.178319255856101200e-01
2.396988420307202133e-02
6.215350271322893361e-02
2.066381036776038238e-01
3.739289387078949534e-01
4.867913208920376933e-01
5.077234462703377194e-01
4.406350043473604705e-01
3.123218904335171020e-01
1.574966170468090620e-01
2.641063172711237764e-02
-1.949458586874210780e-02
3.717748014680593432e-02
1.355230741891259583e-01
2.054437489277397277e-01
2.433528235684397356e-01
2.764488324199337321e-01
2.968805873952697905e-01
2.715966537282347160e-01
1.832208479900837572e-01
4.029763479849240992e-02
-1.259024535165606806e-01
-2.581075318346876535e-01
-2.871407279909201637e-01
-1.816166095678996562e-01
1.048429265895570520e-02
1.925601042603824475e-01
2.939606088010964791e-01
2.944160469463345531e-01
2.003948662810278170e-01
4.494586784281599107e-02
-1.020295252041307082e-01
-1.633180981712100133e-01
-1.020444330716962500e-01
5.870150940996877315e-02
2.501608950783318908e-01
3.893013837588131798e-01
4.140806435258304052e-01
3.127769353664272556e-01
1.344082084518765097e-01
-3.477120300724514945e-02
-1.238446225487937202e-01
-1.196489281004928656e-01
-6.144092733850041455e-02
1.082825991204475896e-02
1.188778440258609903e-01
3.398040411576996322e-01
6.412133153221939441e-01
6.808014096194764386e-01
-1.220176567390474781e-03
-1.299972813388909465e+00
-2.269026452186912568e+00
-2.048644270784113708e+00
-9.528922815707837612e-01
-7.257986320431120131e-02
3.858242699423432981e-02
-2.597701981877050259e-01
-4.229219683532978724e-01
-3.143595911985355706e-01
-1.262664067170194138e-01
-4.318025106231024313e-02
-7.935624805947806559e-02
-1.384808038591880397e-01
-1.327471529869932998e-01
-3.399009407025666701e-02
1.379594504131923249e-01
3.298265159736492591e-01
4.676604869036652401e-01
4.946248374745648713e-01
4.092703227112072795e-01
2.599807710348211454e-01
1.071809520945495864e-01
-2.046155597340355153e-03
-3.579613140540748029e-02
1.930861862081839284e-02
1.438746681271371730e-01
2.840089621808026266e-01
3.756939347125588524e-01
3.797790395513775952e-01
3.030026401158332217e-01
1.858977789777594702e-01
6.981169175889426204e-02
-1.859337199690092382e-02
-5.957247478178262501e-02
-3.518359589609119237e-02
6.336970356966044327e-02
2.166639978684919698e-01
3.574914492050082493e-01
3.919734146394220353e-01
2.683149974252954095e-01
2.379570043132493706e-02
-2.321692393967863255e-01
-3.718529756391004693e-01
-3.207196575244668502e-01
-1.118350146355352459e-01
1.442666132461049577e-01
3.506136522021103263e-01
4.667779597725374985e-01
4.855898872815239686e-01
4.168734582025320767e-01
2.898324317207595646e-01
1.387637152749073288e-01
-9.705166900939433614e-03
-1.235241282883648983e-01
-1.599959791551566757e-01
-9.438852704962881479e-02
5.326023504427461475e-02
2.281299646773304324e-01
3.690749048083951100e-01
4.236479778567886489e-01
3.514539104192642704e-01
1.491417146456166798e-01
-9.002460362721252662e-02
-1.724749312295602299e-01
5.351316503722152590e-03
1.858420709426054918e-01
-1.409637103324004881e-01
-1.070073547188374441e+00
-1.846057136730823833e+00
-1.593852249160405909e+00
-5.011639593062535702e-01
3.183403013311792984e-01
1.967883428153389680e-01
-4.492287395003761175e-01
-8.663166897420561119e-01
-7.849811845882266326e-01
-4.178182891890767081e-01
-4.891633838723221522e-02
1.937226536727712778e-01
3.089289842719078472e-01
3.252204798705523037e-01
2.582191502024461238e-01
1.282108030084043448e-01
-1.186892489728826050e-02
-8.778204502226599759e-02
-5.347902124679604352e-02
7.594314721153590242e-02
2.429881079444536351e-01
3.887844416955323346e-01
4.713207543082684747e-01
4.610372095854702312e-01
3.483378964480594586e-01
1.673551326842155351e-01
-7.357364470043935983e-03
-1.074780206438583074e-01
-1.101733754619790423e-01
-3.054102765905505196e-02
1.039917724243784036e-01
2.569012289610015376e-01
3.721235797853427174e-01
3.899011350991128944e-01
2.945104263260895361e-01
1.384079515429215146e-01
-1.208334501775912631e-03
-8.827063750102329132e-02
-1.351852919744992720e-01
-1.524299318324894847e-01
-1.176264791736389981e-01
-4.551585631793579612e-03
1.653117329244420952e-01
3.100629579915940015e-01
3.413907431366628442e-01
2.414046061678997435e-01
7.648692225122497024e-02
-6.357523071296344863e-02
-1.197096972415521571e-01
-7.081194467611724719e-02
6.770838152389378750e-02
2.416906656820162480e-01
3.798039325516629483e-01
4.316581862779731438e-01
3.860835363422191469e-01
2.633582772157632146e-01
1.024776188909694435e-01
-4.451072639039423129e-02
-1.200708757362429213e-01
-9.102562969589225728e-02
1.331642091626220048e-02
1.217259240557474753e-01
2.184430917275964057e-01
3.823750548998484655e-01
6.061610077579211442e-01
5.506382683570322234e-01
-2.563485736241547519e-01
-1.690887692617061955e+00
-2.747133229563889945e+00
-2.499315835689140286e+00
-1.233068346517099290e+00
-9.926542149224176770e-02
2.177099690185577696e-01
-7.529027851019165496e-03
-2.162948851706809617e-01
-2.240984973624650933e-01
-1.718360565103906890e-01
-1.688907843659183672e-01
-1.753373643842772167e-01
-1.270748885544583096e-01
-1.906229131539234622e-02
1.299767101482351972e-01
3.033013457322486506e-01
4.603404076049405491e-01
5.372647993064244565e-01
4.955745085820118523e-01
3.580081247924485899e-01
1.977221744358521049e-01
9.364557579580987112e-02
8.006820122347933777e-02
1.361522217709297267e-01
2.287947124269978927e-01
3.429185878620794048e-01
4.554336586611357762e-01
5.134971347032890598e-01
4.692827110244988109e-01
3.254225376459065622e-01
1.360384405541029407e-01
