1.320337506545575246e-01
1.244622263350576713e-01
5.204167176812778822e-02
-2.260810904262253174e-02
-7.064166849653935598e-02
-1.128388810040038132e-01
-1.754963563392432646e-01
-2.294858676251670115e-01
-1.938340809285863109e-01
-3.028521967533756576e-02
1.614350079912054703e-01
1.894339570062354150e-01
-3.691736246008409106e-03
-1.465318071860150784e-01
1.575349817020720578e-01
8.598041443266086770e-01
1.288881955399797219e+00
9.042226686032999172e-01
8.253593723903779322e-02
-3.055339887914638730e-01
3.051819674019785184e-02
6.039101845210134156e-01
8.693910004796063795e-01
7.240285399467207839e-01
3.776863911240520011e-01
4.334094333853452663e-02
-1.817834581205509115e-01
-2.706094077568529932e-01
-2.277623647588595535e-01
-1.014734049884098155e-01
2.812063484572401018e-02
9.804491302113130247e-02
9.613847974128353346e-02
5.296160814137301776e-02
1.614203793474201093e-03
-5.774927855828738965e-02
-1.456133570308521530e-01
-2.540543407938913867e-01
-3.279496698995182924e-01
-3.093409324744887390e-01
-1.948249134255271020e-01
-4.812920654901828299e-02
4.123045035629042954e-02
2.995885000358641109e-02
-4.809103116427196345e-02
-1.411017913172968319e-01
-2.362962924186149394e-01
-3.243102727625192805e-01
-3.552302519062868758e-01
-2.817762462303561866e-01
-1.230587373252920724e-01
4.708950739390113660e-02
1.627049903383058216e-01
2.047192945642264950e-01
1.909736601241189269e-01
1.359867082310914632e-01
2.894876808136620516e-02
-1.292958414841360593e-01
-2.773383412127877201e-01
-3.242909930958448594e-01
-2.436222399933620775e-01
-1.157993948949759683e-01
-6.693738765064109753e-02
-1.457835028813803391e-01
-2.451777547044586003e-01
-2.013931054086434969e-01
-1.912794977141686267e-02
9.489253904974402631e-02
-6.426590359251171600e-03
-2.337010287483073656e-01
-3.950781366798758465e-01
-3.822350456502506266e-01
-2.217290204845508983e-01
-3.396990754250266142e-02
6.321182327980996718e-02
2.261642249602160634e-02
-1.383263995842125560e-01
-3.436596877436330355e-01
-4.680720355911595076e-01
-4.165686483895984504e-01
-2.152997766264950208e-01
5.025401464905987492e-03
1.077860036192789528e-01
2.468158250375778254e-02
-1.781597805239373833e-01
-2.331025313875177973e-01
1.666879979634205144e-01
8.980546033357206248e-01
1.271117460969529489e+00
7.974079350462941473e-01
-3.403656614344366393e-02
-2.927974654712825475e-01
2.143450811818245483e-01
8.433843633255055927e-01
1.021356021792170221e+00
7.648159462335337722e-01
3.980816664532970672e-01
1.378615393849308701e-01
7.402877382204756107e-03
-3.776620122102401778e-02
-2.419476084927810189e-02
3.447743359042333700e-02
1.161328810861723543e-01
1.867741124898228133e-01
2.072665131754293233e-01
1.491686944644721180e-01
1.653897673397771231e-02
-1.454563700859524134e-01
-2.664900262169821454e-01
-2.872841362949885569e-01
-2.019147843429959788e-01
-6.479757850013502518e-02
5.548086560961706937e-02
1.156053941094536824e-01
9.898036793537934308e-02
2.021146475947790261e-02
-7.964009436264074537e-02
-1.751701508945933683e-01
-2.671175718248108288e-01
-3.323033187310793224e-01
-3.131331405269168200e-01
-1.808684280508575659e-01
2.599631692635110888e-02
2.292125874069256275e-01
3.465455331226084401e-01
3.217733606864467411e-01
1.638641397298452318e-01
-5.050619570534908842e-02
-2.296973042922900721e-01
-3.130656410169956327e-01
-2.840846645053425323e-01
-1.741926193475077100e-01
-4.693104943946238561e-02
4.272376876209206531e-02
7.105549232500579793e-02
3.716291432936590783e-02
-4.685275510910510977e-02
-1.630956524245833206e-01
-2.892099008025569296e-01
-3.800178442591624628e-01
-3.742370994150458485e-01
-2.616740230488632801e-01
-1.219223786319330177e-01
-4.916181884908880223e-02
-5.491819150556449813e-02
-8.406883041757390318e-02
-1.051135230825393091e-01
-1.431714345986137837e-01
-2.264905020446137673e-01
-3.228255907306332162e-01
-3.448788678386470186e-01
-2.333522055805572482e-01
-4.643616457939664377e-02
4.634684657687088843e-02
-6.496533965287897006e-02
-1.962191003306025250e-01
6.644098109365295657e-02
8.094014344971797170e-01
1.398254667079218416e+00
1.113840042948181175e+00
1.685742567167734518e-01
-4.762199178306734115e-01
-2.997507109959898219e-01
3.108124093031394697e-01
7.213989567993103202e-01
7.050981858031138971e-01
4.371122463184860529e-01
1.578737095529518242e-01
-4.068856996040613044e-02
-1.826224277812469599e-01
-2.783522851953294519e-01
-2.865142328233309943e-01
-1.905747632426904037e-01
-5.453309759428470738e-02
3.477771001249772842e-02
5.084087576640743816e-02
1.976840953356339206e-02
-3.971727232471154723e-02
-1.334369020842874065e-01
-2.593904157136785460e-01
-3.760406228610363999e-01
-4.136455883241011988e-01
-3.342361209424400403e-01
-1.806489380233897990e-01
-4.332206218150688737e-02
2.348931011104584896e-02
3.051380633519969188e-02
4.040273400252140934e-03
-5.643772833250956800e-02
-1.518361594440575391e-01
-2.370028945158097478e-01
-2.405667193164460205e-01
-1.345451676434574473e-01
4.468813521914331843e-02
2.329939117053913267e-01
3.618770724016685536e-01
3.734897388615476821e-01
2.599473572416343692e-01
7.655516042435828172e-02
-1.099957611413390074e-01
-2.673566119332173030e-01
-3.656847154942411970e-01
-3.435711928502881429e-01
-1.813150808395668223e-01
1.474985213853365063e-02
9.436571544800970157e-02
2.819718399003614401e-02
-8.086061113777467946e-02
-1.401560835302458341e-01
-1.581739009541602015e-01
-1.919374378765437428e-01
-2.484789739365878269e-01
-2.681402978380580393e-01
-2.052986722036587997e-01
-9.850152905660730651e-02
-3.322133003954893388e-02
-4.943645601310920484e-02
-1.188963850607304418e-01
-1.989295542710175224e-01
-2.635338747700743944e-01
-2.817357512825321986e-01
-2.227511459695111773e-01
-1.255364959473993791e-01
-1.189007144050904519e-01
-2.732691001097661276e-01
-4.023796027772718054e-01
-1.281192815586478795e-01
6.703051407981684973e-01
1.468378691234371924e+00
1.481029431597079782e+00
6.230518147820354180e-01
-2.754060739905300759e-01
-4.412837061931594307e-01
4.239739768402120412e-02
5.754633056613511766e-01
7.700915594696836619e-01
6.591085555642646199e-01
4.502808617889081932e-01
2.756396157747402764e-01
1.297224284424066398e-01
-4.343917022810869777e-02
-2.340833010105076162e-01
-3.479276412431910326e-01
-3.106050137821084745e-01
-1.655523612941464939e-01
-3.334275598941631447e-02
1.309096155647987425e-02
-4.666955652532407857e-03
-3.474555326200103045e-02
-6.446937893625120930e-02
-1.223974275276843715e-01
-2.276432831764872711e-01
-3.441977700150047892e-01
-3.909968520725921604e-01
-3.048929811746318719e-01
-1.113709220886374002e-01
6.840311450928346360e-02
1.209369810666917067e-01
5.181369772342039881e-02
-5.062580798622708100e-02
-1.402083824809839396e-01
-2.299955724484892550e-01
-3.022256708071742182e-01
-2.909758136522715977e-01
-1.641511574229982118e-01
4.258764525556236330e-02
2.669965259145232195e-01
4.361616052191567561e-01
4.684870018436197436e-01
3.303881219926217416e-01
8.357790065419329339e-02
-1.558940655193913061e-01
-2.935230064781452763e-01
-3.012782007245455862e-01
-2.239825264651236769e-01
-1.384399531574878606e-01
-9.097509024902705743e-02
-7.557674627643157228e-02
-6.128242220179838662e-02
-3.675125125433602313e-02
-3.697934980590016074e-02
-1.119419350423221104e-01
-2.547371588143700349e-01
-3.749171613773304435e-01
-3.665418678050266221e-01
-2.150755998994041684e-01
-2.335575199786796285e-02
8.214554890362499306e-02
5.841578286181405705e-02
-3.373573579664550931e-02
-9.788762048266277938e-02
-1.081472787298091154e-01
-1.302891420881771567e-01
-1.945480178014729056e-01
-2.242317976225616238e-01
-1.783409962922801184e-01
-1.393614290195955285e-01
-1.015189272945503374e-01
1.856626848507352545e-01
8.628980201115036275e-01
1.505428904991703343e+00
1.458451790134510873e+00
7.132156542754083395e-01
-2.932741467698202209e-03
-1.080639745475387853e-01
2.719004125489979939e-01
6.546885713306285215e-01
7.568415564330432943e-01
6.259615831630453986e-01
4.346845602303937572e-01
2.803450111750567797e-01
1.579334076906630802e-01
3.293441887174122784e-02
-1.032900043326849815e-01
-2.218784237421442818e-01
-2.743318210163652182e-01
-2.283889734511058145e-01
-9.647776736018157107e-02
6.676251402799902868e-02
1.868057447873471000e-01
1.944626936189648714e-01
6.448373831794784738e-02
-1.478431379051443062e-01
-3.281241864790168661e-01
-3.841940132229553218e-01
-3.115396063740190624e-01
-1.817263721731995629e-01
-7.253439291310850856e-02
-1.538584548227401455e-02
-8.638310898323052836e-03
-5.417968132379993168e-02
-1.472691304054137840e-01
-2.504151088490531030e-01
-3.205625871309477626e-01
-3.345624123913010228e-01
-2.614014228240795767e-01
-8.221307785983618388e-02
1.303725219839332317e-01
2.387107206552403216e-01
1.761652059486921995e-01
3.559736080243361411e-03
-1.620385558753478783e-01
-2.415274504455496574e-01
-2.459415569863829532e-01
-2.481333533960551618e-01
-2.780439565362102794e-01
-2.735324249137953689e-01
-1.794579237570185226e-01
-5.433153652095608355e-02
-6.108065409496437823e-03
-3.990624973500041250e-02
-5.590483921179967980e-02
-1.965389247995705940e-02
-3.558370803562135865e-02
-1.782728362948705070e-01
-3.460021770254901874e-01
-3.836640292654776574e-01
-2.757724294881276905e-01
-1.297089146774606516e-01
-3.325797741503028898e-02
-6.401633846144262618e-03
-4.511739875857415094e-02
-1.348377090890792440e-01
-2.358021571339095623e-01
-3.141603451115915768e-01
-3.889194922443700575e-01
-4.872974667948294925e-01
-4.965442925031663401e-01
-1.254178899391782398e-01
7.566844572334072705e-01
1.671631235195269349e+00
1.797859524591569169e+00
9.545197253356471068e-01
-5.733755122776149071e-02
-3.933627328428655479e-01
-5.202367617242967951e-02
4.019582019696553155e-01
5.791910688896920734e-01
4.957794136767542104e-01
3.398091380747635393e-01
2.312596456159967673e-01
1.640999120652257837e-01
7.984695015080989222e-02
-5.330305927446522818e-02
-2.222473448142203711e-01
-3.724356951417471251e-01
-4.197882148979227290e-01
-3.193756898383589560e-01
-1.379773951146315569e-01
-3.808205330792666099e-03
2.642905531512920042e-02
-2.971455345263172669e-04
-3.506782076859814301e-02
-9.503244397404203569e-02
-2.073036059284054933e-01
-3.343103801016752974e-01
-3.886845468147000493e-01
-3.175115469171787552e-01
-1.640125348243118009e-01
-3.405996697682353580e-02
2.715640182661955941e-03
-3.556783827853132740e-02
-8.793101676607761874e-02
-1.194514091485471968e-01
-1.321166448388401971e-01
-1.263369424381942385e-01
-8.208897286105740210e-02
8.880176524830321605e-03
1.099754481713175608e-01
1.653961590436910378e-01
1.538520946945799439e-01
9.581912145544799198e-02
2.139898709558589462e-02
-5.197757081612176117e-02
-1.311189781428262202e-01
-2.312900867466222699e-01
-3.223445384006951020e-01
-3.317466323809171724e-01
-2.384697947667185902e-01
-1.112841993463198065e-01
-2.484308073628991448e-02
7.422956803449409086e-03
-1.241703596802090637e-05
-4.839256634822176883e-02
-1.416947443252027650e-01
-2.577598466816342082e-01
-3.449824422997689322e-01
-3.524405747899866936e-01
-2.736942353400642625e-01
-1.507150612627627673e-01
-3.310699227160161101e-02
4.407431029439831671e-02
5.441754289910201436e-02
-1.032762466250465930e-02
-1.305870717842907980e-01
-2.847786146162225029e-01
-4.625439345176520223e-01
-5.846141362249905882e-01
-4.109950460243965709e-01
2.776405154105602846e-01
1.232675874102374669e+00
1.712104224272740671e+00
1.269495467982915349e+00
3.696871151735643402e-01
-1.763743148737876298e-01
-1.382091594078161401e-01
1.343521418283926683e-01
3.163338303049183509e-01
3.578798859409720867e-01
3.340233917244557760e-01
2.952601816669767065e-01
2.410956553191251073e-01
1.618659870501051035e-01
7.093493802378947333e-02
-1.738988080634007449e-02
-1.140000241618881610e-01
-2.258668117230933636e-01
-3.135098025913076181e-01
-3.129612045411823695e-01
-2.063311107691366830e-01
-5.106820525657437132e-02
6.617670881850608311e-02
9.744632373082387500e-02
6.041355350456232426e-02
1.871842093024068780e-03
-6.325376021564770024e-02
-1.519669819706341851e-01
-2.447108570205337452e-01
-2.631406094847250632e-01
-1.521463818425624337e-01
4.041071264527662521e-02
1.966798269912418129e-01
2.314740123654369097e-01
1.481579682273358733e-01
1.134801138360764551e-02
-1.135041071459981787e-01
-1.946954200034018145e-01
-2.161143798627875590e-01
-1.474933222848618941e-01
1.862573566442802392e-02
2.008961500784987864e-01
2.713450727049595002e-01
1.889609383776137408e-01
4.140222840626726908e-02
-6.242261297993427493e-02
-1.013917022599999940e-01
-1.322648115783393585e-01
-2.051700328302039911e-01
-3.102459040068724638e-01
-3.897269492829694149e-01
-3.782394382892261819e-01
-2.524108862824481214e-01
-7.687616584309521495e-02
3.470723428432932745e-02
3.926374958077902266e-02
-1.187604812624761842e-02
-7.593881679942900143e-02
-1.543202031717083589e-01
-2.222234052990205988e-01
-2.190536237225784166e-01
-1.284497928199559713e-01
-1.017767769838372714e-02
5.754282099132783379e-02
4.365374449041573707e-02
-1.683317335342062945e-02
-6.639856896863906288e-02
-1.091498175320122638e-01
-2.262780436897841307e-01
-4.484141946805777490e-01
-5.947502380484814832e-01
-3.154834473432472919e-01
5.174390573333703669e-01
1.413545134130630432e+00
1.585016116927728591e+00
8.783739665133669661e-01
3.964501515871024506e-02
-1.898478676135564036e-01
1.246770575575976425e-01
4.356841676460160295e-01
4.709011460052681675e-01
3.861536470674165611e-01
3.736800182298097850e-01
4.045799027181212204e-01
3.565739849542700068e-01
2.152533688134518342e-01
6.546840156463805405e-02
-3.834553539968148239e-02
-1.173667227699073112e-01
-2.021101045938013818e-01
-2.677212405452576993e-01
-2.550911138004774981e-01
-1.486829552894714801e-01
-1.530024044516793691e-02
4.915864420547484681e-02
1.160506756942069652e-02
-7.613923786822340833e-02
-1.478533267759022107e-01
-1.893988353355953724e-01
-2.247389499696529902e-01
-2.558811223160646908e-01
-2.427106992019715803e-01
-1.540276236872323012e-01
-1.996946002743563500e-02
9.104874235058796339e-02
1.349798183642959559e-01
1.140692539764337488e-01
6.174478398957403136e-02
2.408405083616581288e-02
2.428159100146073945e-02
3.107454542375489431e-02
-6.503775354649828436e-04
-5.249097101304893431e-02
-5.891236233918992898e-02
-1.119937037233502755e-02
2.263023189703369104e-02
1.712573504489535436e-03
-4.159888046707651416e-02
-8.587351512429247657e-02
-1.622980489221679534e-01
-2.678700855061379449e-01
-3.180376728642531625e-01
-2.456544063161947011e-01
-9.559849367430019174e-02
2.485893446133951440e-02
5.980176145494512513e-02
3.726505563154017958e-02
-1.342915163920712154e-03
-6.627253982227006290e-02
-1.836112724455025158e-01
-3.184746361164733641e-01
-3.817118807872764141e-01
-3.191381993867125622e-01
-1.721820541838949004e-01
-3.849912519894345408e-02
2.342146224836209184e-02
3.923138907629007688e-02
5.861285465817341056e-02
4.776261949135310325e-02
-1.102198075949785555e-01
-4.016457379153836604e-01
-4.783112081445483055e-01
7.091444403169064326e-02
1.053472883145267991e+00
1.597422577457941806e+00
1.151295445398286210e+00
2.657183580586431337e-01
-1.110019898771192892e-01
1.958764713950554015e-01
6.073397265266872180e-01
6.724814193466447376e-01
4.628650701010862956e-01
2.496832329280131990e-01
1.543783804546063898e-01
1.298650357252909560e-01
9.492637422157204630e-02
2.473805602039863202e-02
-4.508732804113543824e-02
-8.928578066825298976e-02
-1.446002755844945087e-01
-2.510675051231673893e-01
-3.726723791572515432e-01
-4.238924198173009694e-01
-3.581567285167408521e-01
-2.121790944420505753e-01
-7.544187469438111415e-02
-1.708911980914019219e-02
-3.634057392774813627e-02
-8.538331345665732541e-02
-1.395209766264714490e-01
-2.248693484899213502e-01
-3.560597401584291721e-01
-4.772468749019319612e-01
-5.054581108731137640e-01
-4.067200459270878810e-01
-2.088064063760657341e-01
1.556289835787944345e-02
1.714246886829540184e-01
2.120285729998392099e-01
1.839332534958403598e-01
1.359765749503028254e-01
2.748856636724499383e-02
-1.683555260379739626e-01
-3.254646586965033173e-01
-2.803064244417650674e-01
-6.979220887254504457e-02
9.438172377180603645e-02
8.981727239803130591e-02
-9.902736139668105730e-03
-9.438113129451392025e-02
-1.578394775221034774e-01
-2.437218520370030839e-01
-3.351184672126468755e-01
-3.655600206769668015e-01
-3.038269474368389123e-01
-1.861437750361963905e-01
-7.912618002909610482e-02
-2.440498612747550589e-02
-1.533510243245595969e-02
-3.090598111651981020e-02
-7.886996386284381155e-02
-1.759535367331733213e-01
-2.929273109510635020e-01
-3.601876929735328692e-01
-3.343849119029309591e-01
-2.283817404882373114e-01
-7.834135607647942090e-02
7.469759220371945119e-02
1.586034109094379141e-01
7.351266922708621365e-02
-1.965134646469374191e-01
-4.226682878448619340e-01
-2.000640403463819772e-01
5.739622946445539498e-01
1.323584814967548651e+00
1.303021391714200172e+00
5.557580439104067294e-01
-9.855666672266819028e-02
-1.043684136230083326e-01
2.872909108345299001e-01
5.464829701858308075e-01
4.889884258191709021e-01
2.918471340485543353e-01
1.566574712929132973e-01
1.064867010758081822e-01
7.095386156874822214e-02
3.599119860755408545e-02
2.661534235117534938e-02
1.928812249265789841e-02
-3.306135990446591733e-02
-1.298230750226116448e-01
-2.450343577964117781e-01
-3.732744026562290207e-01
-4.830487081091190960e-01
-4.867324996604514009e-01
-3.438217152344354988e-01
-1.388561722098836104e-01
6.004369415890754846e-03
4.050160950948757110e-02
-1.393482069465929243e-02
-1.132179330406708900e-01
-2.224060627309037419e-01
-3.190710819804903342e-01
-3.715577365832750667e-01
-3.440360733107329927e-01
-2.430654420512450842e-01
-1.191804539544011055e-01
-9.330233967491097929e-03
8.189708300753334447e-02
1.545241085301949924e-01
2.058790817508423243e-01
2.224859648002013301e-01
1.586990769316691252e-01
-1.402112710967110681e-02
-2.155658444245249217e-01
-2.940144965948209843e-01
-1.886571592547885978e-01
-9.853284368321266196e-04
1.202875876961358448e-01
1.200875132481635799e-01
4.138634368570678901e-02
-6.216119460817263326e-02
-1.708285471645796805e-01
-2.735955022110886925e-01
-3.347204011470533702e-01
-3.030248526961692446e-01
-1.650833472081505438e-01
1.836116102301180858e-02
1.475075946164896012e-01
1.609466952802101891e-01
8.019583717860431782e-02
-2.223191985125656106e-02
-9.767226049004724964e-02
-1.513082880720638679e-01
-1.986812566467457686e-01
-2.274854518281413940e-01
-2.200838585583302365e-01
-1.741116860311963666e-01
-8.300247459625660629e-02
3.812202775301621466e-02
8.985568084496867169e-02
-1.841395110493737608e-02
-1.374078816990978724e-01
7.834037152110165381e-02
6.814386245982595458e-01
1.148061470956371011e+00
9.489870126567604425e-01
3.014087598190223760e-01
-8.609452257455127433e-02
8.969341654372563200e-02
5.311906008402127455e-01
8.803040910803214825e-01
9.945657786032932046e-01
8.190597746718174532e-01
4.088839160699682118e-01
1.670342097330931863e-02
-1.265602032789654718e-01
-4.706666448708935607e-02
8.390071076934779715e-02
1.601771141995994574e-01
1.609909823442007559e-01
9.018733298112652230e-02
-2.884871940632657492e-02
-1.573542119551243346e-01
-2.648743102864527521e-01
-3.137235481979391283e-01
-2.576596455901467020e-01
-1.099272803533622445e-01
3.443394979696599856e-02
8.459778159395511810e-02
3.042329690055549721e-02
-6.922222804318010903e-02
-1.505036025491778284e-01
-2.038153245541325098e-01
-2.688482968253058658e-01
-3.587799465006923372e-01
-4.099554164386409183e-01
-3.393134086350619860e-01
-1.478914492281595550e-01
6.158098612642776831e-02
1.800663171040200738e-01
1.898224037312147561e-01
1.529715172379004229e-01
1.149721490588790362e-01
5.527899845115199357e-02
-5.222336457216490702e-02
-1.663134996472499794e-01
-2.068051046672126914e-01
-1.479323330567184069e-01
-4.794008307708577665e-02
2.050648877397803771e-02
4.276803232130133720e-02
4.698067361747537002e-02
3.034257742410498976e-02
-5.536923569805837775e-02
-2.154027610236006474e-01
-3.519343899258061681e-01
-3.543683310261900310e-01
-2.276708959405590038e-01
-7.672205282204379306e-02
1.066075524646933892e-02
1.915108020349661627e-02
-2.276226116101661909e-02
-8.322507114217063406e-02
-1.500529281518347968e-01
-2.246074061010269463e-01
-2.872605239730839366e-01
-2.855149446621040865e-01
-1.784663549236650271e-01
2.380672093226687130e-03
1.337660684298097868e-01
6.912106457125330450e-02
-1.850741693142614608e-01
-3.285235362849750484e-01
2.645921783732895285e-02
8.034058783468367437e-01
1.286981580374832790e+00
9.053359595038747987e-01
7.287129998521954533e-02
-2.704593259275772654e-01
1.470029726578651608e-01
7.422550097196283225e-01
9.480089159167253143e-01
7.445622540618929142e-01
3.975922755075240178e-01
9.387134189635229498e-02
-9.917523002946190824e-02
-1.508633224666172390e-01
-7.291274572003911270e-02
5.206689869237350610e-02
1.266339871571638132e-01
1.200130859465504407e-01
6.576017090876351556e-02
1.337631909487282077e-03
-6.422121997763838297e-02
-1.439334318069677154e-01
-2.457913681954619622e-01
-3.375444936201168478e-01
-3.514389442128368346e-01
-2.516857351540497945e-01
-9.080424986917209895e-02
2.705441967615981533e-02
4.274480436602750427e-02
-1.382672485016757033e-02
-7.982756243692627762e-02
-1.371038151640163183e-01
-2.086964919864964241e-01
-2.875964629981713205e-01
-3.067162080760444942e-01
-2.025111972030688989e-01
1.833786616190376945e-03
2.038700674094192644e-01
3.157115086528521908e-01
3.168775180155502524e-01
2.104826581883028069e-01
-4.761473341737813836e-03
-2.702250760019964115e-01
-4.401469917930793674e-01
-4.040727194974145786e-01
-2.084082308343584433e-01
-2.565479462432639773e-03
1.031015548389702108e-01
9.828016623275556696e-02
3.207674556259721560e-02
-5.487093712384240318e-02
-1.585065608283104110e-01
-2.772588286597589824e-01
-3.682813098193426504e-01
-3.693842422363419198e-01
-2.650420794106817524e-01
-1.092686689875895650e-01
1.297162232600474786e-02
4.472502095419517154e-02
-4.784613618596025159e-03
-8.322798284525306789e-02
-1.584361723972733671e-01
-2.353175650915804995e-01
-3.108875167125113581e-01
-3.405015344440321390e-01
-2.678820485439888932e-01
-1.058807668845097721e-01
2.105485464646780769e-02
-2.218907708393829184e-02
-1.710065223080562136e-01
-9.066103627377743168e-02
4.846111118009506780e-01
1.240920354708391349e+00
1.418957935578187390e+00
7.453027871033468532e-01
-9.852745350578923089e-02
-2.957314514741618550e-01
1.569897300088474168e-01
6.506987498860319352e-01
7.732808400126147674e-01
5.900559474848644514e-01
3.280181172111097387e-01
8.740449362283458923e-02
-1.281836631658158643e-01
-2.811951008495576221e-01
-3.136439633157031559e-01
-2.386747902904220453e-01
-1.342225630267349368e-01
-6.014232899714282155e-02
-3.148486559048816608e-02
-4.987456732092972883e-02
-1.120556134636812168e-01
-1.996195227322065668e-01
-2.842283579019603823e-01
-3.339489929773648003e-01
-3.255328116134865724e-01
-2.698805967778106218e-01
-2.051155882098571193e-01
-1.551948950731607269e-01
-1.200106882159700933e-01
-1.023295153195596524e-01
-1.171496541446544470e-01
-1.764611111638728635e-01
-2.740215931661736937e-01
-3.701018509680149005e-01
-3.936988034311589280e-01
-2.977938336253567742e-01
-1.187509051955849410e-01
5.239022845096961284e-02
1.537706704375500499e-01
1.866663561665327653e-01
1.867402971541263224e-01
1.702556230046178842e-01
9.948852066113055004e-02
-5.888892346144779244e-02
-2.342434754414321474e-01
-2.927842257010617733e-01
-1.990907269265413393e-01
-6.185462775666940999e-02
-1.983144160009374726e-03
-3.802798250924285806e-02
-1.144852216581238868e-01
-1.856742929638234285e-01
-2.479502276332633259e-01
-3.124759091704177316e-01
-3.632376879250025503e-01
-3.588507336235978173e-01
-2.780297076077573593e-01
-1.421507077464242708e-01
-3.196755343344006781e-03
7.764744926471674191e-02
6.902680147230187691e-02
-1.169868710487688424e-02
-1.322948228237212642e-01
-2.559209862294302695e-01
-3.120195601861892598e-01
-2.330296770247627658e-01
-5.574155328061831255e-02
5.880255355871053663e-02
-1.464796966309625179e-02
-1.350545786163001027e-01
6.871406832669819942e-02
7.213150275950243051e-01
1.316338866792279738e+00
1.175713194418461560e+00
3.555725771212453479e-01
-3.290097232145743344e-01
-2.922166457839193709e-01
2.223899141419293235e-01
6.209159824294120389e-01
6.521859928263894490e-01
4.769362401445988442e-01
3.108113180650114993e-01
2.020425545550920132e-01
8.767831221456789947e-02
-6.456783842400533324e-02
-1.956387625713685019e-01
-2.197170383890183210e-01
-1.340805994876804186e-01
-2.833791976364339465e-02
1.710369923018658159e-02
-3.745665327979015927e-03
-5.538449449048628986e-02
-1.113726854155649565e-01
-1.661387807233597746e-01
-2.164440726136824256e-01
-2.449529197235815470e-01
-2.336660764191301198e-01
-1.759089019399036335e-01
-6.513730467964518045e-02
8.085628099815664327e-02
1.820759078904109762e-01
1.591124864213846746e-01
2.799364951454958936e-02
-1.396483457129552574e-01
-3.021774690640412486e-01
-4.136555655370703910e-01
-3.855653767152394940e-01
-1.882266585473737208e-01
7.229842321662489912e-02
2.658150574977044545e-01
3.642381119949811286e-01
3.919794033704437353e-01
3.343439241274734353e-01
1.743092145228899159e-01
-4.005467474919261611e-02
-2.249786357718424334e-01
-3.202593497197344652e-01
-3.053015182134670713e-01
-2.026187816011323639e-01
-7.096944550197695212e-02
2.910572439557021496e-02
6.117458836179601178e-02
1.758029433787048137e-02
-7.717981181458399842e-02
-1.781024737395610347e-01
-2.469205705257124517e-01
-2.639653462321486788e-01
-2.244459278507433819e-01
-1.380810930391643543e-01
-3.189925685495059726e-02
5.415076242746689333e-02
8.770185263875063253e-02
6.628909804088525815e-02
6.082534386997930781e-03
-8.271973662202733446e-02
-1.756843326526964510e-01
-2.090445708071335673e-01
-1.327642266292771711e-01
3.019846185908621472e-03
5.404577864402713983e-02
-6.263834220198816194e-02
-1.717582236529389128e-01
9.208167888736365492e-02
7.920720022026406237e-01
1.340565763766531360e+00
1.072002893656385902e+00
1.910005700151821695e-01
-3.733740604211384650e-01
-1.181008589518911661e-01
5.434687250763085009e-01
9.574605846702946010e-01
9.205926008250401305e-01
6.420842815605682929e-01
3.629619219354636717e-01
1.592323680509315775e-01
-2.179871943390624192e-03
-1.394197445056032103e-01
-2.139745452741882159e-01
-1.903986823116948224e-01
-1.012800428158808913e-01
-2.330846839380110169e-02
-1.717181921821651913e-03
-2.573155089565489634e-02
-6.506852040717116259e-02
-1.031050399840818532e-01
-1.443916210133159017e-01
-2.083440851087649537e-01
-2.942336832346336695e-01
-3.388397790419265254e-01
-2.599420910153098507e-01
-7.792680613616559393e-02
6.647702938876567935e-02
6.672146964470121455e-02
-3.767648857296215098e-02
-1.472422355043603581e-01
-2.276538778724559453e-01
-2.943569848470300454e-01
-3.236148987938959332e-01
-2.458686350272478172e-01
-3.717307509673552224e-02
2.164355168200273738e-01
3.698004559110601996e-01
3.318189888065244952e-01
1.380571742171310401e-01
-8.023531128161558168e-02
-2.177707216153922098e-01
-2.794845239021132577e-01
-3.212936406204540130e-01
-3.462136839203260874e-01
-3.071828388032781798e-01
-1.882736553824825854e-01
-4.605994796361019550e-02
3.111653975119011567e-02
8.168599835757014288e-03
-6.063093982774100249e-02
-1.102159476910844343e-01
-1.554252079622669702e-01
-2.446410029235211447e-01
-3.466001156728721888e-01
-3.546291123940168988e-01
-2.067618057652150509e-01
3.384052403218684030e-02
2.201613244621264120e-01
2.418030714673641002e-01
1.168130348011725550e-01
-4.663285044439254012e-02
-1.704179331300136324e-01
-2.430467514717269129e-01
-2.696028383172216492e-01
-2.783085873772522256e-01
-3.305931494489365297e-01
-3.676431824121982328e-01
-9.458198229408443236e-02
6.836219079811939325e-01
1.538991147362609446e+00
1.648562212596151211e+00
8.063585257981797927e-01
-1.951427742220094574e-01
-4.932743965758629723e-01
-7.429119069759534955e-02
4.721772016392764004e-01
7.183201510317691607e-01
6.583590416294614611e-01
4.669244920374615027e-01
2.704667288021480598e-01
1.128505895452000946e-01
-1.858240054536509922e-02
-1.702178722714865478e-01
-3.506031979150315836e-01
-4.638218739478245922e-01
-3.945293435083280786e-01
-1.786109788587252611e-01
1.245952654880787269e-02
7.298527265763214700e-02
3.856011162268150466e-02
-3.463433570911471360e-02
-1.484750769469975473e-01
-3.027243391842168174e-01
-4.309683001689253445e-01
-4.334713550509080582e-01
-2.693363866584835287e-01
-2.118591209902224992e-02
1.515919469725272029e-01
1.619361851388118612e-01
6.897221440090517408e-02
-2.222529803684982624e-02
-7.626805319862124677e-02
-1.197563647841716483e-01
-1.635359940325596395e-01
-1.562604945967484005e-01
-3.382224802195510360e-02
1.718344265077541011e-01
3.198778737389519899e-01
2.970490112535881244e-01
1.364487283918283389e-01
-2.979465789912515150e-02
-1.156317685468838674e-01
-1.507087394016243531e-01
-2.079938950549577170e-01
-2.935469350162725477e-01
-3.359931361979857090e-01
-2.795985323984893078e-01
-1.590217819689205281e-01
-6.357002299223137032e-02
-3.852800543234624620e-02
-4.999649971128957565e-02
-5.946938892094191798e-02
-9.823477056995567891e-02
-2.127766089486315959e-01
-3.539304179109040160e-01
-4.004649135755042888e-01
-2.994666922393174890e-01
-1.203856017466125305e-01
2.538765017824564166e-02
6.810500075739824022e-02
4.281392037024905894e-03
-1.135945623504268087e-01
-2.194984823868404156e-01
-2.879626087870138518e-01
-3.491976126885489862e-01
-4.409893681403805332e-01
-5.065651863457406590e-01
-3.353999402229540516e-01
2.581779265513268751e-01
1.054924682572075723e+00
1.407663996574222365e+00
9.311393692544820411e-01
7.608990064273626897e-02
-3.725005808343390679e-01
-1.987926332348939895e-01
2.005422091110288796e-01
4.437857584874950190e-01
4.784892261347898357e-01
4.115993802514347211e-01
3.197328656933483559e-01
2.345003963785460832e-01
1.637367912794271407e-01
8.359204374786691205e-02
-3.750654643004663891e-02
-1.899577884632267233e-01
-3.090903374576087215e-01
-3.191195993096020422e-01
-2.094006200423809139e-01
-5.709757118906865631e-02
4.743682117863434744e-02
8.716961494031381930e-02
1.147563082995874811e-01
1.491816449520999566e-01
1.084698552864913901e-01
-7.452600034025666509e-02
-3.051382323353325488e-01
-4.053269903606591673e-01
-3.109942760461686939e-01
-1.192155927855786945e-01
2.651604122519304885e-02
5.607304512681812736e-02
-2.485392018684804902e-03
-8.568239142864279845e-02
-1.563781073349924389e-01
-2.021874358614096368e-01
-2.095850173044874476e-01
-1.585967701159468612e-01
-3.317390035088804007e-02
1.498740699221718931e-01
3.141535378513383159e-01
3.610059278465829191e-01
2.566628510093185711e-01
6.615572273194106345e-02
-1.071283142221527429e-01
-2.053892771254450800e-01
-2.406823047127641391e-01
-2.453375762234540070e-01
-2.207796435067497509e-01
-1.595720568659113048e-01
-9.214439426752361884e-02
-6.130852356927505437e-02
-5.621090144507678854e-02
-2.300323835672652556e-02
3.426767748958941401e-02
1.371231037595061451e-02
-1.509858360313331149e-01
-3.532002856387126410e-01
-4.092306403528860881e-01
-2.755662369842644677e-01
-8.666959941547269786e-02
9.757632765465991398e-03
-1.365275600772190324e-02
-8.747898005784332520e-02
-1.417019659590818548e-01
-1.627867477761302528e-01
-1.874081064881199521e-01
-2.636669317087601550e-01
-3.931850971677313678e-01
-4.453723508361591699e-01
-1.607003530631125887e-01
5.591211426104524262e-01
1.300467214290162099e+00
1.395316843661138062e+00
7.388544349787991017e-01
1.321858714357401765e-02
-1.411309907653021667e-01
1.808603619105431659e-01
4.883619734318396244e-01
5.646496701360083081e-01
5.520556513873072779e-01
5.796480874486957813e-01
5.649980461027824807e-01
3.911514471541234217e-01
1.156777430324324729e-01
-9.567930376037858675e-02
-1.764875209941965117e-01
-1.966784626849971129e-01
-2.020954629023497262e-01
-1.297548187351435234e-01
5.902809147409399104e-02
2.546844819778766311e-01
3.086832666827873384e-01
2.089007687677220948e-01
5.773240407196453261e-02
-7.013511089182897229e-02
-1.749613392921554600e-01
-2.726581839575337729e-01
-3.356413695008332310e-01
-3.059685329210852234e-01
-1.760241372928664227e-01
-3.071700478350167934e-02
2.531282771715980331e-02
-2.912710853704848779e-02
-1.198839144731992656e-01
-1.601238650894215299e-01
-1.375302746571749057e-01
-1.115771305770642957e-01
-1.168397734740270338e-01
-1.005333076995444108e-01
2.574966287725409184e-03
1.572291996872248188e-01
2.482042968795980520e-01
2.124025030221333987e-01
1.020618964501348869e-01
5.161311825652725033e-03
-5.970524945105372405e-02
-1.349295980557704555e-01
-2.249716970251628423e-01
-2.609439947388518810e-01
-1.894048602336571574e-01
-5.505544797332563578e-02
4.916085796920448281e-02
8.674861073115477939e-02
8.265707708067936144e-02
4.749151138260217925e-02
-4.053583866405351122e-02
-1.736980875379889599e-01
-2.899578349094084628e-01
-3.294188852969153758e-01
-2.748275191528403716e-01
-1.430211256862041203e-01
1.533691793607220785e-02
1.242407314480820230e-01
1.268052053842836369e-01
2.569007110471306643e-02
-1.135062567750526330e-01
-2.153973809853452492e-01
-2.819100706207711693e-01
-3.870346598050237730e-01
-5.042997599746760207e-01
-3.719038627621366055e-01
2.661556269793121099e-01
1.155439428340772068e+00
1.532816100396501513e+00
9.832485981427110389e-01
6.663348224501275396e-02
-3.426006129418600055e-01
-8.784389949005638742e-02
3.215061335448499702e-01
4.935355528091197597e-01
4.641349948946806303e-01
4.130397254362462856e-01
3.932344007153861232e-01
3.237561079989240143e-01
1.232665020385545068e-01
-1.715666715272643750e-01
-4.232333573237737623e-01
-5.343078082643111237e-01
-5.224315824130761898e-01
-4.422718870570722660e-01
-3.178264286455025900e-01
-1.790876632196917173e-01
-7.739085181191364404e-02
-3.173767933373517619e-02
-2.008292874607923995e-02
-3.414152812499451906e-02
-9.446667578962611445e-02
-2.026326278742922316e-01
-3.100609984231563754e-01
-3.506737558831112267e-01
-2.970780846216485305e-01
-1.801978887825929632e-01
-6.333879874136635890e-02
-2.292759260800417837e-03
-1.753036879781475280e-02
-8.481803093726758558e-02
-1.510683212858411339e-01
-1.782193125492178010e-01
-1.762800513076140663e-01
-1.781041701912578767e-01
-1.854220539745015384e-01
-1.670671937884582181e-01
-1.164341211992007130e-01
-7.447995460163374382e-02
-7.130329038128363495e-02
-8.325739635476961387e-02
-9.109451161956151621e-02
-1.412531039826716850e-01
-2.723648449391990467e-01
-3.974407328863999167e-01
-3.623358437019530420e-01
-1.489531091138034669e-01
7.089981240844436816e-02
1.328881672484981957e-01
5.533594635410260532e-02
-3.396383857208794266e-02
-7.492561142722385659e-02
-1.151583784337294053e-01
-2.037617506879979834e-01
-3.038672353140861038e-01
-3.343044035413237913e-01
-2.672724673105167925e-01
-1.480842779004953313e-01
-4.080465793053666274e-02
1.908692940475835778e-02
3.979124069697260319e-02
4.142880430440549350e-02
-1.650688250040895783e-02
-2.167817215365888117e-01
-4.752724513134762296e-01
-4.072904343155640539e-01
3.039653000170811081e-01
1.298788431898546536e+00
1.688668968152148731e+00
1.106718568781539069e+00
2.316558868331369536e-01
-7.498641275739878487e-02
2.354502868692395501e-01
5.834186600223769670e-01
5.737383360135965837e-01
3.064619095951520711e-01
8.039983649233904683e-02
4.214304416855282898e-02
1.184792668038989749e-01
1.717130159158809233e-01
1.422509869855588249e-01
5.213679720540743967e-02
-5.626390070779990760e-02
-1.560239573877712504e-01
-2.416506423258380776e-01
-3.100459350566613925e-01
-3.386331940941815777e-01
-3.042786768992504776e-01
-2.206055876682212480e-01
-1.344094585231592198e-01
-8.182170832605165089e-02
-6.214192897621186040e-02
-6.827662903444502163e-02
-1.218697867248456357e-01
-2.327477883607505793e-01
-3.351473673962165889e-01
-3.300679225358954527e-01
-2.005808790051466783e-01
-3.422978167696599794e-02
7.490566469325146692e-02
1.046098238780280021e-01
8.915544965255212118e-02
7.427870025613192428e-02
8.737419741163947318e-02
1.087350852834451514e-01
8.110789233145668242e-02
-9.615745903181668539e-03
-8.644963015073647838e-02
-6.842997540832733427e-02
2.048731235961928285e-02
9.109003374826084298e-02
1.058759294208984347e-01
8.926564181122614849e-02
5.013319125153479355e-02
-3.686797839076807332e-02
-1.674089677227955930e-01
-2.648866826448399436e-01
-2.371472603562652104e-01
-7.797401585645943878e-02
1.108236960813304139e-01
2.103141124085972369e-01
1.893125126380080514e-01
1.034150900343168145e-01
3.109620641405836869e-03
-1.096184120033417281e-01
-2.229593630619222389e-01
-2.691525770790568761e-01
-1.891481322295606449e-01
-2.337603780929349215e-02
1.193078257947780274e-01
1.782186076299093480e-01
1.753738282025006090e-01
1.302945705551146749e-01
-3.322472938661699508e-03
-2.333232561695988416e-01
-3.425336028191843241e-01
1.619270267473180147e-02
8.178614728258424282e-01
1.418735504096832578e+00
1.218954822145484229e+00
4.808190688047847550e-01
1.716958505589094575e-02
1.673951286670785077e-01
5.490061204158596109e-01
6.985834167113801341e-01
5.349721876506412510e-01
2.452109535331549739e-01
1.900060476794441372e-02
-5.955632487820158860e-02
-8.824388054548853999e-03
8.383539435135808904e-02
1.309503971793798127e-01
1.138134394328041421e-01
6.964087848182888563e-02
1.776852852837379135e-02
-6.390718401810599469e-02
-1.823508829570937295e-01
-2.836596935773169070e-01
-2.956123509321826881e-01
-2.106518935645687873e-01
-9.496006536156967326e-02
-1.462301407526276492e-02
1.156346866490041633e-02
-1.178497412340249323e-02
-8.421949441525691804e-02
-1.975691718503068406e-01
-3.157126241835401803e-01
-3.821795831991464665e-01
-3.528873778620254531e-01
-2.297212652771298547e-01
-6.485804792765299809e-02
7.439070665410930927e-02
1.440381410030530940e-01
1.360593182486471431e-01
7.301766591467911960e-02
-1.195541175705161670e-02
-9.399071902063610429e-02
-1.511724205857878367e-01
-1.612238867277640819e-01
-1.213548176695329467e-01
-5.816308990440048621e-02
-1.115489658722652530e-02
-5.369695258174902314e-03
-2.740160143249066593e-02
-3.428170742502921475e-02
-8.635166237675236806e-03
-3.690556027014023181e-03
-8.920150356323479357e-02
-2.286944453868570148e-01
-2.841093261615574850e-01
-1.864622860043747554e-01
-1.847393220691954246e-02
9.514317346587239377e-02
1.003533580376765322e-01
1.976891832022638698e-02
-9.586232635187655338e-02
-2.162728932341121402e-01
-3.304675431680175191e-01
-4.015921484341590242e-01
-3.773672255161744093e-01
-2.608368440770933994e-01
-1.157400430856560802e-01
2.751482357949982561e-03
7.053772035341887570e-02
4.654059773368136865e-02
-1.330483822164360563e-01
-4.184567618732272787e-01
-4.951812160052389555e-01
-1.239300943876093207e-03
8.839403605083538951e-01
1.351474708085150356e+00
8.913157293519498037e-01
4.224270959628231847e-02
-2.779350768941862282e-01
9.384849960430388660e-02
5.690506715525234238e-01
6.563793044498559270e-01
3.811287622468859104e-01
3.248919666814869406e-02
-1.699600150249590269e-01
-1.786462480962483779e-01
-7.742244622365077045e-02
8.656274646090512948e-03
1.337399716180251788e-02
-3.801037926801965894e-02
-9.696356922498278186e-02
-1.643847756544152550e-01
-2.637517402159603175e-01
-3.681618019312518086e-01
-4.065711255681055403e-01
-3.473807699703757579e-01
-2.425973492948904631e-01
-1.638460835315440067e-01
-1.056766875372303627e-01
-5.653573791597123199e-03
1.196698957480916425e-01
1.418089810066152090e-01
-1.627418420219174655e-02
-2.612298047237856524e-01
-4.249465104068106958e-01
-4.129741296934367756e-01
-2.487746437979477809e-01
-3.556762256778030207e-02
1.225918061109177865e-01
1.933123230941595772e-01
2.093157807904028611e-01
1.913272483356865117e-01
1.083250480524755865e-01
-6.284768246958279125e-02
-2.635754814753410447e-01
-3.797328164682116647e-01
-3.430835291650328744e-01
-1.903514533840775791e-01
-2.971868709818283744e-02
4.096866563226957136e-02
-3.730063722177514446e-03
-1.207950712308532570e-01
-2.526008916772357615e-01
-3.513674758760801375e-01
-3.642316340437891098e-01
-2.701682854306249881e-01
-1.364871931302897579e-01
-5.581768633859642004e-02
-3.560266782138918340e-02
-2.066006000402989193e-02
6.931270651290354773e-03
7.349572868377927254e-03
-6.224006565912698630e-02
-1.949022803832237138e-01
-3.206832347323916865e-01
-3.531877008250306482e-01
-2.658850327921674084e-01
-1.087813012052665368e-01
4.633761773393048344e-02
1.295175978028691721e-01
6.423573685756606144e-02
-1.276227684719710431e-01
-1.795234026327772181e-01
2.294625967589373206e-01
9.496810605823903240e-01
1.292528347646374920e+00
8.528710710684507257e-01
1.414985826805969515e-01
-5.685824821001164708e-02
3.287013537411344610e-01
7.569100356145153086e-01
8.419622773021243622e-01
6.147531773525227727e-01
2.728263280990143591e-01
-1.734855387437034963e-02
-1.681601504439942107e-01
-1.791262807260634027e-01
-1.076989924348198957e-01
-1.798537764390879118e-02
4.564149729698717406e-02
5.672145350397791996e-02
7.492191432654960077e-03
-8.396371590640080984e-02
-1.894572508074781059e-01
-2.926158728412381338e-01
-3.729281542366575386e-01
-3.858586404731726427e-01
-2.969607023566075421e-01
-1.342209027962673329e-01
1.793162529315111067e-02
8.608418222296268518e-02
6.505512851775265004e-02
1.316860377406713078e-03
-7.520453901813312081e-02
-1.755611258594286794e-01
-2.925508265415125431e-01
-3.533928561018245262e-01
-2.800085025625377866e-01
-8.748048797745860972e-02
1.246706552566945736e-01
2.818888696812844041e-01
3.774543066720591478e-01
3.929654903283602008e-01
2.675697374303764864e-01
4.940799116095212495e-03
-2.637381719733218333e-01
-3.885911140113361695e-01
-3.295214050372274883e-01
-1.571108811748714862e-01
1.229572227412509960e-02
7.845814537857277726e-02
2.296622766062884902e-02
-8.214533626076042649e-02
-1.649905468831573130e-01
-2.234600117446248757e-01
-2.793967003311815245e-01
-3.115029481961300584e-01
-2.742440209499290016e-01
-1.623438636262794776e-01
-2.860331744441747467e-02
6.303189511799524303e-02
9.432134981775536220e-02
9.199605284423781337e-02
6.865254754475762222e-02
-6.246024865696551964e-03
-1.458396321049035271e-01
-2.725172247720858976e-01
-2.606113000668550672e-01
-8.369036739304773487e-02
1.143509072660232884e-01
1.372087137683811187e-01
-5.597301778552941920e-02
-2.237187599736575327e-01
2.362295974653761885e-02
7.528434638830874270e-01
1.380434749947911488e+00
1.206738609673998486e+00
3.584213420760021807e-01
-2.745288689596535603e-01
-1.358703769114271986e-01
4.461371473792389297e-01
8.538494753660135217e-01
8.600595001745043877e-01
6.215777429367580487e-01
3.362719287938794599e-01
8.271739982562575921e-02
-1.142372744913763560e-01
-2.092048613187227346e-01
-1.689220908860528669e-01
-3.296563655355946171e-02
1.026599851471183128e-01
1.602322237897607915e-01
1.287843399651202314e-01
5.206603904257895571e-02
-2.470869312309907639e-02
-1.046150833060496832e-01
-2.151642411872917715e-01
-3.248403315121225488e-01
-3.454595705589652010e-01
-2.458395096914466615e-01
-9.790785188327466582e-02
1.001970549968744795e-02
4.722278007431064684e-02
2.049317864032184841e-02
-6.300973381414062824e-02
-1.853756280335791817e-01
-2.927708552020905075e-01
-3.169709755705170662e-01
-2.382432375664606250e-01
-1.052617277556820996e-01
2.649865534404811235e-02
1.488157770163902605e-01
2.588120541483892589e-01
2.897592847719822617e-01
1.573443024448653860e-01
-1.091614575363558381e-01
-3.578568608091536318e-01
-4.677864943334915648e-01
-4.412448991751032890e-01
-3.385736221730683559e-01
-2.137092089040673881e-01
-1.181891320450964566e-01
-8.832034832225856003e-02
-1.122811512600414008e-01
-1.490376662059586799e-01
-1.869140338000163659e-01
-2.479552507387422777e-01
-3.223714510557655344e-01
-3.476904155121431361e-01
-2.864370631673391343e-01
-1.818007037470140974e-01
-9.699395486252199161e-02
-4.172943868882004331e-02
-2.392109631042959109e-03
-1.292587324335915319e-03
-7.602643136434694693e-02
-2.225959936563680908e-01
-3.832231921021694299e-01
-4.728349643980217509e-01
-4.290327350698374675e-01
-2.873529461403269147e-01
-1.949250611760913188e-01
-2.519399740857222736e-01
-2.890862180471982512e-01
6.690564755623749915e-02
8.767323295058492283e-01
1.509712784110130990e+00
1.233210135135852870e+00
2.436470913001854699e-01
-4.466273044053615804e-01
-2.511727419126606464e-01
4.185081424048802679e-01
8.603501068914983785e-01
8.350099930815224614e-01
5.480969952255421163e-01
2.658597706524074011e-01
9.187648380875539089e-02
-1.793197831191790936e-02
-1.270714812889562617e-01
-2.177097020318890519e-01
-2.174176236162604081e-01
-1.108355203636566810e-01
1.985060210388379931e-02
7.911239507775012780e-02
4.536318627908633716e-02
-4.080734918864055427e-02
-1.417647891439720031e-01
-2.489149497910376763e-01
-3.534627315083036514e-01
-4.152167636156029462e-01
-3.796383736478384230e-01
-2.383597468457202551e-01
-6.355842986541604400e-02
4.391449178639427603e-02
4.292223862527436845e-02
-3.064025207381753171e-02
-1.279359431303564165e-01
-2.313476895408421719e-01
-3.232418440561825590e-01
-3.518888509708487655e-01
-2.649558266985347910e-01
-6.535491424041908748e-02
1.788247223949626652e-01
3.645456760265569085e-01
4.023942300388165805e-01
2.750758028186907622e-01
5.446068448868176398e-02
-1.603058267249861113e-01
-3.136960192653140966e-01
-3.926515521594470814e-01
-3.875548138034451973e-01
-2.926692496780376462e-01
-1.364043904732531176e-01
2.399181429770425727e-02
1.413509491618255565e-01
1.914196521936193940e-01
1.576275037541995938e-01
3.588704663459732491e-02
-1.418954739746378091e-01
-3.018412724216228415e-01
-3.550562821858630480e-01
-2.600734276652049148e-01
-7.432362318877688834e-02
8.510713301965888711e-02
1.437445348820972080e-01
1.146896132754660069e-01
4.867845934572472000e-02
-3.215069456954373212e-02
-1.364421491271922970e-01
-2.460127573287595459e-01
-2.862073297989856657e-01
-2.019848376002990609e-01
-6.217931347210534088e-02
1.499525801410015249e-02
1.089201141958314745e-01
4.985260783131020834e-01
1.181574119409418921e+00
1.576915227124771057e+00
1.151920254567937230e+00
2.376739912711778036e-01
-2.973986999781014773e-01
-1.012787287876554254e-01
4.084790818568044823e-01
7.235222025665244416e-01
7.395665402939718414e-01
6.176177179309771947e-01
4.808653879718840507e-01
3.380371876140015885e-01
1.701056565433090584e-01
-7.730554271990203521e-03
-1.518707578655147106e-01
-2.151742436503868428e-01
-1.685974437551886196e-01
-3.171877875563670901e-02
1.039998326685752095e-01
1.280945590032023240e-01
2.947451366732932801e-02
-8.344640507670594842e-02
-1.259581483413267367e-01
-1.374793665812251986e-01
-1.837687196586530458e-01
-2.354794051819776857e-01
-2.170846130933909712e-01
-1.180288506578838492e-01
-2.050113762549765628e-04
6.668646698296828990e-02
5.829149975975050912e-02
5.505450025426288953e-03
-5.201906223970897969e-02
-1.151987625879383886e-01
-1.972145914382786580e-01
-2.533427991465437845e-01
-1.956818857669557765e-01
-1.035768253470057201e-02
1.845539415008050632e-01
2.498260154337448302e-01
1.679766813966027394e-01
3.326148604914107298e-02
-7.218178402160273233e-02
-1.444337255694849165e-01
-2.127076594383653374e-01
-2.715175928617697965e-01
-2.750847316892862660e-01
-1.922148071407349390e-01
-5.783192267486814142e-02
4.091636595692059453e-02
4.097277319931019041e-02
-4.318049530681662695e-02
-1.559615419911571099e-01
-2.657893512552145232e-01
-3.617414161177781584e-01
-4.143897539118617801e-01
-3.886663176680504872e-01
-2.876613874803959359e-01
-1.571040608788106530e-01
-5.059354856305777609e-02
2.319442447961022127e-04
-1.162040492423201989e-02
-7.912773447964406570e-02
-1.822788015980932597e-01
-2.788109893040209286e-01
-3.162556610357364351e-01
-2.899905533249693690e-01
-2.778512417013854763e-01
-3.213846041438703227e-01
-2.359602281098828191e-01
2.624270649184806681e-01
1.041866621300917561e+00
1.415186569690634943e+00
9.139606337972386862e-01
-7.150024690402378980e-03
-4.907895779287323457e-01
-2.815700152639248888e-01
1.960875095815975966e-01
5.099862515790192230e-01
5.865073340270353652e-01
5.399175685898975896e-01
4.375882797931593404e-01
2.855664363436976050e-01
1.074250829704024857e-01
-6.049769295903159594e-02
-2.083175739905656354e-01
-3.232917590420338882e-01
-3.535314648465452958e-01
-2.635543155628910506e-01
-1.098424339967389307e-01
-4.294658014168742377e-04
1.201414798473061582e-02
-4.848426496993745588e-02
-1.405793367497261970e-01
-2.377535808842337062e-01
-3.165519399675452150e-01
-3.480206362954855748e-01
-3.083395111838425073e-01
-1.982160394996095865e-01
-5.338714486312232110e-02
6.782703001561335432e-02
1.109976329740164080e-01
4.456203121600260664e-02
-1.224144301141335822e-01
-3.142266110470626206e-01
-4.129421166042190339e-01
-3.576995321966676689e-01
-1.915093386309711931e-01
9.539567489161191252e-03
1.932292484830962498e-01
3.120117916507688660e-01
3.191258984806031873e-01
2.075159031142551069e-01
3.076840967772638546e-02
-1.319877369854876026e-01
-2.429708095786348165e-01
-3.193828530968111368e-01
-3.712253412047852863e-01
-3.694073575391921271e-01
-2.912242875830824973e-01
-1.578871482906026302e-01
-2.292140437142045281e-02
5.128761811654163061e-02
2.420596516782350799e-02
-8.785225825024205182e-02
-2.206239400808806261e-01
-3.125541307782133682e-01
-3.336533206359387771e-01
-2.824489138776544173e-01
-1.837033249480667374e-01
-8.085266128810633668e-02
-9.862901311235381524e-03
2.184450426160279915e-02
2.654487295405609515e-02
1.183279369015972915e-02
-2.056710197883743554e-02
-6.032868299606908985e-02
-1.154899343346344337e-01
-2.407189804174102166e-01
-4.219513901319416060e-01
-3.943168598923679768e-01
1.941914357975356997e-01
1.195248640717425426e+00
1.781270017649783100e+00
1.325747624137184832e+00
2.946526915081550957e-01
-2.889945868129076834e-01
-8.772012563676293007e-02
3.867177527435547990e-01
6.242288254160600625e-01
5.981974367585362051e-01
5.023865888513444622e-01
4.116637588157318062e-01
2.829633975318360251e-01
1.118508070743410299e-01
-3.928603383356511769e-02
-1.288590458001302730e-01
-1.651502872456447335e-01
-1.606695927376481370e-01
-1.201286098655611895e-01
-6.661673744898624627e-02
-3.476936351212620013e-02
-3.655613656993862703e-02
-5.601954996025350353e-02
-8.093463628735010629e-02
-1.249033034578226065e-01
-2.053001632841740531e-01
-3.052691205441330213e-01
-3.698150236657312129e-01
-3.447698439464408349e-01
-2.314330000073897275e-01
-1.057459539387496372e-01
-5.552153250475344581e-02
-8.395852830183561655e-02
-1.081794130619875144e-01
-7.354878352657666374e-02
-2.640112343042805287e-02
-3.104793281242105435e-02
-4.899646113435286721e-02
2.638374366562685341e-02
2.054786842391607971e-01
3.480337597004360406e-01
3.208105582696100244e-01
1.527584491687936363e-01
-1.987629209027002436e-02
-1.144948956573667992e-01
-1.556819470342344081e-01
-1.989291540784383916e-01
-2.461092149294789866e-01
-2.420634661523267672e-01
-1.490966844532265467e-01
-8.726510587291236298e-03
9.499530327047291112e-02
1.207986043748946747e-01
9.013904791685517504e-02
3.467602576015851867e-02
-4.618021720635343691e-02
-1.642087539721347189e-01
-2.908355038732605702e-01
-3.551413340383619555e-01
-3.052496566563447922e-01
-1.653287326280290515e-01
-2.625705196954376819e-02
3.343057013096169955e-02
1.425425071145408444e-02
-3.344053107198867447e-02
-7.983456964376202392e-02
-1.273913998819434512e-01
-1.882992166133320711e-01
-2.758627124552865961e-01
-3.455736455215631109e-01
-2.033963668506162670e-01
3.529384841227105607e-01
1.118345341821529670e+00
1.441167223242560524e+00
9.678520969674301311e-01
1.948078635211283605e-01
-1.414676827928514902e-01
5.564842654230726243e-02
3.469869038316789056e-01
4.239005718283179736e-01
3.305620209894840067e-01
2.228902158748840290e-01
1.671507638056237421e-01
1.383800406012841711e-01
8.796849177884120963e-02
-6.262501132984217567e-03
-1.238404266637016943e-01
-2.290710079413371680e-01
-2.982418756568503415e-01
-3.098250113375948245e-01
-2.518544934195550700e-01
-1.563194770682815038e-01
-8.143563719130622602e-02
-5.341217279785600430e-02
-5.868996110090234780e-02
-8.383405356053844071e-02
-1.377882191833308401e-01
-2.341247985461543668e-01
-3.487096188946187114e-01
-4.057274941559835812e-01
-3.412535860543861044e-01
-1.826553888762296463e-01
-3.040618482507137510e-02
4.019907408295216728e-02
3.158706852604997728e-02
-1.234912484694264748e-02
-6.127314678854051122e-02
-1.144874704098128998e-01
-1.731327267170051087e-01
-2.005644475372863056e-01
-1.402851476917980900e-01
1.733610369963903275e-03
1.307171304521610178e-01
1.578222966731916976e-01
9.110148438843837515e-02
-4.234934906273621347e-04
-8.338815561187103154e-02
-1.823241340074668315e-01
-3.114954307797093147e-01
-4.148085439682191455e-01
-4.060500883729533106e-01
-2.751911193127556943e-01
-1.104625138174434168e-01
5.953844520649714984e-03
6.752281895767300868e-02
8.322458475204669304e-02
2.394436609032807306e-02
-1.165519740153148215e-01
-2.672860777399898580e-01
-3.424665267801389468e-01
-3.184074898018838251e-01
-2.263678215092060908e-01
-1.154326394548016443e-01
-2.999646725346393969e-02
1.632320678692470578e-02
4.406908599670365800e-02
6.435069356768297055e-02
5.373438457539066182e-02
-1.435159696549147962e-02
-1.484045871692335761e-01
-3.235045496852069769e-01
-3.868988082119093064e-01
-4.353282768183937973e-02
7.938762027664437726e-01
1.612103412459020779e+00
1.656514652220049788e+00
8.637569318661416640e-01
2.889449327302046067e-02
-1.562198170642394301e-01
1.810137052459771800e-01
4.907123841461187297e-01
5.046851360806484665e-01
3.562051484773726129e-01
2.532931345207048990e-01
2.399618359330428774e-01
2.346253795121784058e-01
1.775082753162965377e-01
8.975376932865879176e-02
1.302592886744503506e-02
-5.685867299643898587e-02
-1.369813402532572000e-01
-1.935725773837002894e-01
-1.764264682569629261e-01
-9.737268744244939600e-02
-2.199914348659185587e-02
2.189642840661022022e-03
-2.188793254774090008e-02
-6.797694896791460495e-02
-1.238872366027215788e-01
-1.963397177920005177e-01
-2.758108265054663999e-01
-3.083483772127175171e-01
-2.394100332213440208e-01
-9.160334199581046666e-02
4.641387006277936794e-02
1.147909761119558225e-01
1.198417615360392458e-01
8.357956918488262943e-02
1.584356399073540145e-02
-5.743791713980360425e-02
-9.569534840782074891e-02
-9.456487985769407301e-02
-8.591975278274172068e-02
-7.597934684773427483e-02
-4.459235188590526811e-02
-1.892205953885285966e-03
1.577788392836661571e-02
-1.052369956253217630e-02
-7.868334049832029220e-02
-1.790477690256909726e-01
-2.887796419774865675e-01
-3.644597579343195615e-01
-3.608915273498888299e-01
-2.687079052495647824e-01
-1.269114256402961161e-01
4.752165226948353374e-03
7.730771591990608094e-02
6.622769185801358205e-02
-2.213748019526683500e-02
-1.509494841104945251e-01
-2.661404668514619209e-01
-3.160428197987376064e-01
-2.721987021266059625e-01
-1.501475633822692557e-01
-1.616593627545293010e-02
4.745842185158419962e-02
1.679699457994088610e-02
-3.624367195311808953e-02
-2.752654333273742149e-02
-1.558810743455618132e-03
-1.205859558662525921e-01
-4.120773678897885484e-01
-5.426310193926180414e-01
-6.652930531463602248e-02
9.033638319989064636e-01
1.526779042774919493e+00
1.170400330690309021e+00
2.900044143401117602e-01
-1.575764908962083433e-01
6.935822979924263776e-02
4.321338680160043411e-01
5.040607496802520515e-01
3.780569277982039345e-01
2.925510894524752104e-01
2.755280485227426523e-01
2.268321137660619380e-01
1.268593063679234745e-01
4.245136588269346478e-02
4.452220029466094284e-03
-3.458434474259020758e-02
-1.300671273267705041e-01
-2.657804048659084817e-01
-3.578093728449613375e-01
-3.447965933961271157e-01
-2.565363398946681750e-01
-1.644548684910367986e-01
-8.461219282404024156e-02
1.379490101674046842e-02
9.945239523410576155e-02
6.480519388175408346e-02
-1.180910805063620922e-01
-3.129703398702902151e-01
-3.738147606707411530e-01
-3.019783195761285288e-01
-1.855710805115839690e-01
-7.640064170765534235e-02
1.321657485866070680e-02
6.800506949733062245e-02
8.237099954272034119e-02
7.775529297295895315e-02
7.262926064478944510e-02
5.652563209521699328e-02
1.182112949048958264e-02
-5.272181664238363707e-02
-1.008053244459486825e-01
-9.874550970906147140e-02
-4.889900860038311897e-02
6.339806220937282272e-03
1.917281911170193309e-02
-3.150003778499321783e-02
-1.449036496228914561e-01
-3.027353707564673924e-01
-4.446667927720505675e-01
-4.789237617895957810e-01
-3.682727687534467775e-01
-1.886624469718555797e-01
-6.511570353127633937e-02
-6.081744543574514605e-02
-1.338342819890296631e-01
-1.855224081756639276e-01
-1.662415452230377733e-01
-1.298212120396049496e-01
-1.491919359534703005e-01
-2.042603913905308988e-01
-2.088770115936159355e-01
-1.332705090171270035e-01
-3.997501262892901031e-02
8.329429224349555599e-03
1.702693139740394518e-02
1.448019814745474254e-04
-9.962513511265172483e-02
-3.339198315054506816e-01
-5.353738168387136565e-01
-3.110799974637363241e-01
4.826409671154664460e-01
1.294354910650160839e+00
1.347221659360129165e+00
6.420337717792975463e-01
-4.702260537329222556e-03
-1.210210231921235446e-02
3.824477124337163914e-01
6.360394537718472296e-01
5.322666272265114129e-01
2.288793297774035507e-01
-1.832787764359575244e-02
-7.589684699179337357e-02
7.060137612149450237e-03
9.216308099125297693e-02
9.937895815303131319e-02
5.209229313918434245e-02
-1.185405113170510342e-03
-6.230015324210576300e-02
-1.659812913563914194e-01
-3.026709613238595109e-01
-3.907734468243188597e-01
-3.536876900819324043e-01
-2.052673251373289542e-01
-2.708219719364598349e-02
1.099052524365031758e-01
1.659766437338330569e-01
1.218693685369175855e-01
-6.711794240158348163e-03
-1.722748398290381844e-01
-3.210227290704165126e-01
-3.941433147852617669e-01
-3.441591746749949610e-01
-1.914008572354478632e-01
-3.039159553378309453e-02
5.440193793451038318e-02
6.198717920887650279e-02
5.350030582748639685e-02
7.504547436435098084e-02
1.055423985344823568e-01
8.016616966375485209e-02
-2.504237168441627442e-02
-1.423489746466723160e-01
-1.659233243688534587e-01
-5.768328056984785984e-02
1.089217748176613543e-01
2.203351068505803034e-01
2.285595513364796771e-01
1.601373419498756945e-01
4.509225101936410740e-02
-1.004499410642431950e-01
-2.274888597537028934e-01
-2.532466033368538372e-01
-1.342824517098122894e-01
7.051072841705312289e-02
2.286078163351144554e-01
2.425704206907139115e-01
1.326600249075486071e-01
4.695727009659516477e-03
-6.129535526574314552e-02
-7.909529741429612015e-02
-1.060729831958241998e-01
-1.454803650813621674e-01
-1.458454470567148720e-01
-8.954295958730118521e-02
-1.183193978791852348e-02
5.870421348953883123e-02
9.235595560425431672e-02
8.623351195391544544e-03
-2.240839180881337989e-01
-3.873238306553314914e-01
-1.055690029907550009e-01
6.366890691166752214e-01
1.225079219734406921e+00
1.049042567995877473e+00
3.397484182953176557e-01
-8.098841536242858130e-02
1.519486593481730041e-01
6.150519819416513378e-01
7.677530172886747328e-01
5.262359182529949830e-01
1.559384622981585533e-01
-8.512021942047984235e-02
-1.166276246781051684e-01
-1.727270888906248109e-02
8.346143622936214035e-02
1.223082040021471750e-01
1.176630187281966500e-01
8.925464556784834524e-02
1.746250451886371610e-02
-1.127188997493460410e-01
-2.691966760210834919e-01
-3.862044707782354425e-01
-4.041432122179456909e-01
-3.064315827629965350e-01
-1.454757758245808219e-01
-2.132517128625289679e-02
-1.971133116139370603e-03
-6.890068697436499412e-02
-1.563757020183185187e-01
-2.297076534406256032e-01
-3.012547524742112959e-01
-3.705464402798501200e-01
-3.869113809650214231e-01
-3.052839046977655624e-01
-1.576612685352338228e-01
-3.184879559887091038e-02
1.524864069520187083e-02
1.749580728054726461e-03
-1.423392136198688845e-02
4.164353789769715750e-03
3.305139375124725720e-02
-7.122551496786329490e-03
-1.684209628040109208e-01
-3.695589861407640453e-01
-4.412871255613732835e-01
-3.225688160610254984e-01
-1.348268950048205628e-01
-2.888561975180807193e-02
-4.388745419093793149e-02
-1.319932904492555903e-01
-2.380847913374204705e-01
-3.301008811773082363e-01
-3.870114727755262218e-01
-3.818536761475233021e-01
-2.950697602696091826e-01
-1.511762242736436335e-01
-2.426135935985550621e-02
1.602404116297862641e-02
-2.753639088759637921e-02
-8.523793561911291450e-02
-1.105065004416250218e-01
-1.312396409781101392e-01
-1.826719653311519864e-01
-2.326087180915651920e-01
-2.207590512886424550e-01
-1.404201796633748334e-01
-3.372525855266027967e-02
5.965517435765696486e-02
8.652212292422363504e-02
-4.502159762527503661e-02
-3.338075373430851589e-01
-4.890417525589876857e-01
-9.071954192365942748e-02
8.068060361613085263e-01
1.440117202736087121e+00
1.153119730143512767e+00
3.046311972866257434e-01
-1.646017659685000967e-01
8.624994618168894955e-02
5.759411681506370062e-01
7.771657958416949841e-01
6.234313200220442663e-01
3.329546853085000313e-01
9.683076103952029112e-02
-9.489393845662066895e-03
1.060278269529765956e-02
9.914582750262321276e-02
1.750873141965362811e-01
1.964168541985736871e-01
1.730525417169841706e-01
1.090078865746944292e-01
-1.758643650125666855e-02
-1.994391400284100391e-01
-3.623798154584220721e-01
-4.070110620333440843e-01
-2.975349718778268482e-01
-1.098775768809724940e-01
2.527026548522369465e-02
3.585967049915633753e-02
-3.863197480364009145e-02
-1.097529292488154951e-01
-1.458582166612061859e-01
-1.864271014709838747e-01
-2.514324985554406977e-01
-2.829075704124896506e-01
-2.020708329467364728e-01
-1.273858916964652754e-02
1.840317488194163076e-01
2.981631799973550878e-01
3.280123353847193557e-01
2.994800328323800609e-01
2.016974646311099906e-01
3.818203084083515719e-02
-1.191588603095861815e-01
-1.860131861876332948e-01
-1.480678006507509525e-01
-5.911943360670814107e-02
2.109343856973430048e-02
7.033407041583158992e-02
9.205192193481391560e-02
7.672920192088587832e-02
5.260922890031261706e-03
-1.054831392491699105e-01
-1.986865613247077167e-01
-2.279761881815212665e-01
-1.879891977370922729e-01
-1.052101902875660910e-01
-1.993086980998393098e-02
3.398535821755249015e-02
4.238528151555503304e-02
5.193764877302096440e-03
-7.317165055433116905e-02
-1.876812032686957787e-01
-3.233783223329603773e-01
-4.286877816706543554e-01
-4.221473256291591314e-01
-2.627709705719224464e-01
-1.374300789194772554e-02
1.659492793835963265e-01
1.128259251914424111e-01
-1.699274335799387248e-01
-3.824795240815286879e-01
-1.097012192953533971e-01
6.601727453484382835e-01
1.290145549874924580e+00
1.129009213868645167e+00
3.765743484128183383e-01
-1.295670841927001882e-01
2.968310311204804680e-02
4.913143789283567209e-01
7.410155370547049092e-01
6.415179993202071440e-01
3.450523716279448316e-01
3.285806391872737875e-02
-1.746715526508726968e-01
-2.183526314156509218e-01
-1.203365083921116435e-01
1.696511078187455668e-02
8.138186164665109357e-02
3.899534630772510946e-02
-5.492097452732442459e-02
-1.333430651050088456e-01
-1.843049555497508485e-01
-2.355145757100138293e-01
-2.987639996366418527e-01
-3.429805678996061813e-01
-3.199735853006178132e-01
-2.180952937730870622e-01
-8.161384889651410179e-02
2.718322015273812176e-02
6.860721514246985453e-02
3.153964920164820801e-02
-6.750940645906203241e-02
-1.752551751178592909e-01
-2.187673813302032921e-01
-1.683388435224334734e-01
-6.913435550335227109e-02
2.632242418367157846e-02
1.247685875716347259e-01
2.468961980781617660e-01
3.579113625288642964e-01
3.884897618196581637e-01
2.971286955822758924e-01
9.390406679393661915e-02
-1.602938952569715192e-01
-3.610041817522127161e-01
-4.082824733401246298e-01
-2.863669457401590290e-01
-9.023788909110874723e-02
4.740275701581767726e-02
6.401135071617859718e-02
9.102832020978415123e-04
-6.807624785248811428e-02
-1.245604881257151991e-01
-2.033789082683472027e-01
-3.098441329521723908e-01
-3.788086371721749446e-01
-3.432196563312373550e-01
-2.157942824061813147e-01
-7.311317671329387036e-02
1.841231118677581421e-02
4.266177900943379092e-02
1.868441442138574562e-02
-4.240658297595253923e-02
-1.512256577866497032e-01
-2.894574043244343420e-01
-3.700140970144760177e-01
-3.048727279110947097e-01
-1.236080132013269162e-01
1.544642877714862139e-02
-2.691168533636071475e-02
-1.719864199327565402e-01
-8.812907656976445847e-02
4.713030918448435358e-01
1.181278175631375271e+00
1.291232943377051745e+00
5.559039315837784878e-01
-3.095494734102756107e-01
-4.706117085083944551e-01
7.250853775549054303e-02
6.811374717246118093e-01
8.777270624811793764e-01
6.730386482273558180e-01
3.318589045957939798e-01
6.277423186798811172e-02
-8.525076566057637750e-02
-1.507095226481131311e-01
-1.683358345413123180e-01
-1.475938033984805220e-01
-9.764011666905011988e-02
-5.032793009512877280e-02
-4.831303316947765936e-02
-1.021976881374093565e-01
-1.774228102789472405e-01
-2.397458463088285863e-01
-2.917456414783309304e-01
-3.412410886674026589e-01
-3.555583233617485295e-01
-2.903715233631545267e-01
-1.631927130549480076e-01
-5.359510915199694470e-02
-1.457583228030224359e-02
-2.100359768774802058e-02
-3.247864892531093090e-02
-6.711685450972371125e-02
-1.586990409477338215e-01
-2.623917233810443839e-01
-2.667796287464828664e-01
-1.132832115107458015e-01
1.240035278267451885e-01
2.985473138798486192e-01
3.339185535795747839e-01
2.827003718827313383e-01
2.270060548583540394e-01
1.623435711867417253e-01
2.970165519211656613e-02
-1.598345063597116922e-01
-2.941997457000017913e-01
-2.781769758070181675e-01
-1.494443133101523991e-01
-3.201092883730476124e-02
6.364159910365293008e-03
-1.075170172704562402e-02
-5.590065121766375072e-02
-1.406089119268158771e-01
-2.659487118815906381e-01
-3.849666116602699084e-01
-4.320053620683653173e-01
-3.752256000114463919e-01
-2.391865677685409974e-01
-8.709473190118889596e-02
1.854306471574657805e-02
5.330238682576144554e-02
3.733573113213086575e-02
-5.581296669017982853e-03
-8.943400388840869186e-02
-2.332618124265580795e-01
-3.850179652153235543e-01
-4.257112220554976623e-01
-2.832690886734499092e-01
-3.520587298812002247e-02
1.216492353872754145e-01
4.248660124467890792e-02
-1.607306367553287818e-01
-1.104664749753258152e-01
4.428549935883345223e-01
1.132460288161438067e+00
1.206577216766389293e+00
4.984632366332490960e-01
-2.251177269776972745e-01
-2.229406339294279782e-01
3.335955366058723226e-01
7.646926156867887014e-01
7.550575186419496987e-01
4.950409544871727241e-01
2.490932668496325664e-01
8.854355513288601764e-02
-3.521231594562872907e-02
-1.407951987933965254e-01
-1.852551593747267522e-01
-1.332808496214423211e-01
-1.246538390199941615e-02
1.032060335912550336e-01
1.496980433528651566e-01
1.142456803523119735e-01
2.713637698734805426e-02
-7.842408726604349622e-02
-1.775148125628633333e-01
-2.326959242188193500e-01
-2.066884850311382360e-01
-1.102527091206200599e-01
-6.813587037454403583e-03
4.904019907773948805e-02
5.532179776936952537e-02
2.888853543854206368e-02
-3.244307462689811905e-02
-1.194015943563224574e-01
-1.817423979472714557e-01
-1.727076106180392145e-01
-9.940059646606025368e-02
6.223556522869023999e-03
1.404698845958001208e-01
3.011797194524871157e-01
4.234326452571255395e-01
4.103106808969106956e-01
2.408228915460704778e-01
4.851811893545471266e-04
-2.002914148098701441e-01
-3.044767026163291979e-01
-3.168678378185280087e-01
-2.745815602207219985e-01
-2.139146499575593219e-01
-1.494247788265520294e-01
-8.368311397622525682e-02
-3.436955995549183934e-02
-3.419848033325800785e-02
-1.009343931314869436e-01
-2.173277174095873954e-01
-3.344063647058592159e-01
-3.893165282489037815e-01
-3.397495918050194019e-01
-1.996562390196886250e-01
-4.032271712979821482e-02
5.535272478103916288e-02
5.714984249989610299e-02
4.129380455854200077e-03
-5.996501863329928295e-02
-1.404003421386113282e-01
-2.405002338715346299e-01
-2.961489680850108996e-01
-2.366130426195091618e-01
-1.123444235599010133e-01
-7.918593630226193614e-02
-1.654504110536983430e-01
-9.245306135021738592e-02
4.538367736983859868e-01
1.253063512249523725e+00
1.546546385887143105e+00
9.269678679578446934e-01
-3.350562894483202769e-02
-4.422975784112086473e-01
-1.150563385930793991e-01
4.184917706659103676e-01
6.652308241621163187e-01
5.767229570529170957e-01
3.609422217037829839e-01
1.785966652890769724e-01
5.294760838816000431e-02
-6.219270598912967490e-02
-1.993905544618159997e-01
-3.314389672912415596e-01
-3.825671090605479718e-01
-3.013885685428497330e-01
-1.317300799226082120e-01
7.722416625453105282e-03
2.876187548796165644e-02
-5.644710201106360736e-02
-1.818441149311266769e-01
-3.108453281770444665e-01
-4.324574663074006731e-01
-4.982461322382907842e-01
-4.368327783065603098e-01
-2.507764393311012752e-01
-4.261949879157447829e-02
7.855129218765954935e-02
7.680427278050463991e-02
-1.810231413625082789e-02
-1.457248838490239340e-01
-2.465038147334798480e-01
-2.908532668216342598e-01
-2.753113034406287629e-01
-1.953541585972120020e-01
-4.688365396849302619e-02
1.419745030968754540e-01
2.946099651417720677e-01
3.197564889031486723e-01
1.890071560601420120e-01
-1.952138423178028520e-02
-1.927452481611637292e-01
-2.893755638743923941e-01
-3.271953314544617242e-01
-2.950573992442520610e-01
-1.604401605965999622e-01
3.329769574143404826e-02
1.604583722647942301e-01
1.465196654870340454e-01
4.778534992928248903e-02
-4.183551883472344524e-02
-1.008743743120634473e-01
-1.574208335053102759e-01
-2.100362749280260677e-01
-2.230398087655900974e-01
-1.828844269240746667e-01
-1.197787448854138181e-01
-7.222841424866888183e-02
-4.772990924597836360e-02
-2.560611799742015457e-02
-3.477978383256204176e-03
-2.346293682202198541e-02
-1.167632619486849987e-01
-2.331163986213919681e-01
-2.795837205603097786e-01
-2.442184894718338883e-01
-2.106859888914210943e-01
-1.668771482909427728e-01
1.146361767945935084e-01
7.613507537501346123e-01
1.373480140098013669e+00
1.308883640639036283e+00
5.356317991488961372e-01
-2.144853315255403903e-01
-3.077186634745369131e-01
1.569492897257432351e-01
6.544084246543334649e-01
8.209879346321313776e-01
6.631358714087101092e-01
3.999644992845258762e-01
2.015321413407765161e-01
7.155874889819020812e-02
-5.925472618711506712e-02
-2.033086096643565155e-01
-2.986048844426364979e-01
-2.818289497910017594e-01
-1.637076938739084331e-01
-2.720180382820528570e-02
5.295653323725657557e-02
6.321504805577184138e-02
2.072373864146232272e-02
-6.119569504470834254e-02
-1.631736097468331481e-01
-2.538825039654413196e-01
-3.042735163834178191e-01
-2.936344581912889717e-01
-2.092563579932920359e-01
-5.340311897235958116e-02
1.429518490687572141e-01
3.120297036459001583e-01
3.743990561811965101e-01
2.929541861709519801e-01
1.001543567490355974e-01
-1.203920746105648226e-01
-2.658453750518179892e-01
-2.601896466018747689e-01
-1.114034550857487399e-01
9.079447794256376159e-02
2.545526034015104799e-01
3.386397575339040178e-01
3.288340408882112764e-01
2.201025134384078097e-01
4.036031244894748571e-02
-1.473477708483577064e-01
-2.815165973674022548e-01
-3.305813589496318650e-01
-2.973412126666543642e-01
-2.142890608515273243e-01
-1.280828268729163333e-01
-7.239887156096333487e-02
-5.396409974193516063e-02
-6.506909142073091790e-02
-1.010214784589563014e-01
-1.647140384690674864e-01
-2.547185188686106327e-01
-3.391540145128316142e-01
-3.535077079996042926e-01
-2.589759651811431862e-01
-1.044922837174889763e-01
3.768202565295929868e-03
8.059545620065177579e-03
-5.256481985090601106e-02
-1.166510235924547584e-01
-1.797613617556892418e-01
-2.532708238134769863e-01
-2.938055114890820163e-01
-2.571101590269044834e-01
-2.014947890190371960e-01
-2.253897687485869605e-01
-2.374737718440154410e-01
7.246205313461449860e-02
7.792468920152872958e-01
1.332728271499976413e+00
1.085759849765405960e+00
2.241696165357213166e-01
-3.676091899469647872e-01
-2.013223205591703480e-01
3.614827904134759184e-01
7.367018723407321446e-01
7.441045237739950524e-01
5.590437735791550233e-01
3.479583477021138127e-01
1.174074862877420022e-01
-1.425919958729593151e-01
-3.348253120305651476e-01
-3.661699660617662722e-01
-2.808521623949936652e-01
-1.858949627812165051e-01
-1.228902900344551741e-01
-7.379251137690528983e-02
-2.604333428714220022e-02
1.232317445900338142e-02
2.699706701887367652e-02
-7.759524499387539416e-03
-1.244943772450444186e-01
-3.057854126113117577e-01
-4.447698913455778724e-01
-4.237543090840452109e-01
-2.478088251364770067e-01
-5.068526476616458387e-02
4.970871080204310177e-02
5.027909425296010065e-02
1.012013950009589026e-02
-3.319124286975604077e-02
-7.844952754112113902e-02
-1.363070643457998665e-01
-1.896054889608608518e-01
-1.689642068070980607e-01
-1.858840638220333671e-02
1.937576162071091845e-01
3.008209771020148304e-01
2.105118073270146051e-01
8.318279288932028948e-03
-1.498936488977572756e-01
-2.069594481353601856e-01
-2.254925682673547538e-01
-2.657739880149910805e-01
-2.954747387019862614e-01
-2.414175523331417716e-01
-1.072069359701857127e-01
9.997314004081839234e-03
3.560232594766113423e-02
6.356592863930032866e-04
-2.725623704430007316e-02
-5.479356853467436117e-02
-1.500994871352126780e-01
-3.199038118001588105e-01
-4.456798592225377220e-01
-3.918567251579494481e-01
-1.788802933450819865e-01
1.747944630874240582e-02
7.375327343372654887e-02
5.059051650569089398e-02
6.191201529343166171e-02
9.999925191383400580e-02
7.303404190588951017e-02
-5.961671706527199577e-02
-2.691266606675458140e-01
-4.866049187047967184e-01
-5.335378988300116809e-01
-1.146094030053572965e-01
8.382787532777835615e-01
1.763049874504214465e+00
1.830051083293483760e+00
9.473575464535363144e-01
-2.937820336769464413e-02
-3.287378791879456141e-01
-3.598026589037567335e-02
3.273493928268526032e-01
4.905509654341805859e-01
4.958446578792270465e-01
4.268314011391866059e-01
3.111741128698591319e-01
1.786727086448690605e-01
6.525414347988664487e-02
-3.498456488821373445e-02
-1.546335708716602697e-01
-2.837981023470876885e-01
-3.540781759031480513e-01
-3.073414976983572244e-01
-1.678929215162225375e-01
-3.257853306887922157e-02
1.588448916105467471e-02
-1.987334070179383114e-02
-7.527946849696033615e-02
-1.106293194953974213e-01
-1.513885091281940154e-01
-2.300680739241703909e-01
-3.146843506195423634e-01
-3.334414451989867190e-01
-2.617247839158529654e-01
-1.471346321379864430e-01
-4.957410570775920566e-02
8.514989065506541749e-03
2.698677202476250370e-02
2.051713273763861554e-03
-5.918502947486105337e-02
-1.179607800492815661e-01
-1.253933105789444002e-01
-7.249147638341704725e-02
-7.791264761791495339e-03
1.222178311664240749e-02
-1.476973319236134750e-02
-4.488609283859616716e-02
-4.980642452955386101e-02
-4.785772818013110663e-02
-7.880752207750466032e-02
-1.575616166179927002e-01
-2.460826273295796673e-01
-2.765215052181526634e-01
-2.157303918681814647e-01
-1.023672361216243776e-01
-1.172152213066855568e-02
1.360785855976977266e-02
-8.540420550795336380e-03
-4.433814474035582820e-02
-9.726421972487382661e-02
-1.871947493213881042e-01
-2.896429923607635737e-01
-3.387864443727156560e-01
-2.921008284490207441e-01
-1.651864160994715447e-01
-1.002742000077422313e-02
1.178110890672177669e-01
1.861076568747950799e-01
2.120860137552847968e-01
2.279042208182791573e-01
1.678402078399283681e-01
-1.059109338923181071e-01
-5.051748764405814551e-01
-5.628050192309115296e-01
1.141575551231461538e-01
1.196262560862565882e+00
1.758257841428588319e+00
1.289438149363948849e+00
3.297728063171821988e-01
-2.067937267330181017e-01
-7.982937806383856583e-02
2.496206517454996054e-01
3.771539343692423274e-01
3.455718407260723324e-01
3.511906046640861367e-01
3.915452885662299432e-01
3.402355104339362390e-01
1.925842795474190239e-01
5.633861144666255094e-02
-2.136074989594705098e-02
-9.015033486484680392e-02
-1.972989563760391696e-01
-3.206105061955499824e-01
-3.904160526666853870e-01
-3.577180386452042393e-01
-2.458207997943652745e-01
-1.360728048655137079e-01
-9.905627775807765434e-02
-1.408496175222871682e-01
-2.135016966648218828e-01
-2.730939926703515597e-01
-3.214674986585224770e-01
-3.781866251906082499e-01
-4.166716966047012138e-01
-3.695179730403342355e-01
-2.210743547097177575e-01
-5.611481112040357655e-02
1.957571152480105936e-02
-1.221969349057104928e-02
-7.395828646624180713e-02
-8.830917600943288814e-02
-6.794383106422061114e-02
-7.998675307584340866e-02
-1.254083083341449301e-01
-1.205697790674291475e-01
-2.016766153998511904e-02
1.068167247884855148e-01
1.518264524336107590e-01
7.528632934443309221e-02
-6.734736898781276682e-02
-1.774407868588156190e-01
-1.974464746730615894e-01
-1.661986868220256264e-01
-1.721355520895853086e-01
-2.328732286701458709e-01
-2.637141887382359884e-01
-1.986768559664628120e-01
-8.748304247408113243e-02
-2.753479599135665382e-02
-4.996358946581469507e-02
-1.183772825968704701e-01
-1.984918644798436826e-01
-2.764761447943669403e-01
-3.310060768616223670e-01
-3.382853283226295860e-01
-3.005935627791989639e-01
-2.371714663649919230e-01
-1.551624840604658995e-01
-5.832078122206362653e-02
2.919215497346396015e-02
7.595261196195961240e-02
5.258935827938897301e-02
-9.030241723375712071e-02
-3.632255269358663496e-01
-5.742312028693504766e-01
-3.426473964932261751e-01
4.787619035493583253e-01
1.380276788146847844e+00
1.549432604987563300e+00
8.469951945943452465e-01
6.214873544683580109e-02
-5.743133085980924729e-02
3.622163409522866084e-01
7.007027203705094021e-01
6.625109564452515976e-01
4.374049589486093126e-01
