-2.347535224978377494e-02
-6.081691096673313632e-03
-8.690371219375082890e-02
-2.007574232240881829e-01
-2.384332693899950395e-01
-2.033682352148794836e-01
-1.693630222315951617e-01
-1.345190570015885045e-01
-4.775163017021023110e-02
4.957747581154566680e-02
2.147451994935805492e-02
-2.032495468392825355e-01
-4.632058007069909666e-01
-3.734857149497032847e-01
3.014353773487699062e-01
1.167928597432123849e+00
1.415362152375058358e+00
7.802948071111389661e-01
-4.660989050017735891e-02
-2.767296013051222525e-01
8.456532908090622080e-02
4.639170992196245402e-01
4.849300543999561230e-01
2.504776520349528135e-01
5.614415229265466711e-02
3.907397863075882938e-02
1.093575204330736322e-01
1.227890475288440364e-01
4.341401211653142522e-02
-6.331009499024849163e-02
-1.435143859963495527e-01
-2.138939986253269032e-01
-3.089188793773957609e-01
-4.056330778327143505e-01
-4.339075614694912209e-01
-3.625526035557645743e-01
-2.418922301824050769e-01
-1.438620097853510194e-01
-9.132869979993606113e-02
-6.927198830067274327e-02
-8.087777201847505537e-02
-1.562203103795046788e-01
-2.930891581544025626e-01
-4.051364108917416273e-01
-3.623699463167071033e-01
-1.208759304944860696e-01
1.864058737550078892e-01
3.514083916953477105e-01
3.092800203449889707e-01
1.821339506229053551e-01
9.553135862171983905e-02
4.638691594086757908e-02
-3.270056194546319683e-02
-1.421249903780875123e-01
-1.662810231308487208e-01
2.012081812941002648e-02
3.525669013832343768e-01
5.562099066214126752e-01
4.319669888527709056e-01
8.838615367543392609e-02
-2.052897375110660505e-01
-3.117333852607105382e-01
-3.060858859731301340e-01
-3.190430928825011558e-01
-3.585790881896133153e-01
-3.266061611523628505e-01
-1.904227013393716694e-01
-4.268375513796750231e-02
3.128155606873168904e-02
4.908871325204929026e-02
5.180237644622300019e-02
1.652278532258313198e-02
-9.249109189055856883e-02
-2.389856484786751778e-01
-3.350979158811228098e-01
-3.293458402511789673e-01
-2.455902431628644023e-01
-1.443520578781237185e-01
-6.087167134499953808e-02
1.801606948704791156e-02
1.020284938712995026e-01
1.223042677975941656e-01
-2.905955670376701022e-02
-3.043440770292932251e-01
-3.729043781950235337e-01
1.045233152752140515e-01
9.211273765540536340e-01
1.312131767919671343e+00
8.516257935259150536e-01
9.390376363473576515e-02
-1.166925178890546866e-01
3.070574819684207535e-01
7.655265848412518004e-01
8.162302738466488128e-01
5.494330391100006317e-01
2.731500949329171979e-01
1.449147312996797166e-01
1.297591626314414937e-01
1.447788462173976165e-01
1.520728691723224890e-01
1.474263976209343185e-01
1.217431340006405738e-01
5.309672494355448247e-02
-7.078809454643668342e-02
-2.199136441486775340e-01
-3.168768573238888164e-01
-2.938984929027381177e-01
-1.665042996956109522e-01
-3.147753931820127665e-02
1.832456935103731963e-02
-2.704306012543341436e-02
-1.055583105045066333e-01
-1.661982402428724970e-01
-2.136815957808824995e-01
-2.672895478082147336e-01
-3.135309769892963283e-01
-3.139311686001329260e-01
-2.397336338707014847e-01
-1.037240924025046862e-01
3.152215432526618566e-02
1.077491672502200182e-01
1.438905714924090251e-01
1.999670975200122658e-01
2.533652958134104405e-01
1.913072311456190944e-01
-2.816567983660608898e-02
-2.729369434134010231e-01
-3.567035053373924236e-01
-2.345959028254251955e-01
-3.649911686917636094e-02
7.460563707069295392e-02
4.582822369389787098e-02
-5.204388624752282616e-02
-1.296013108606242081e-01
-1.743049971541918153e-01
-2.251973640640284879e-01
-2.857311685427184611e-01
-3.111701289238325008e-01
-2.719991938012440436e-01
-1.906792906256646325e-01
-1.152212215108153193e-01
-7.628877100007568079e-02
-7.119918635489068393e-02
-8.186909301393258120e-02
-1.056472721180761604e-01
-1.574273368162802667e-01
-2.266430285463777172e-01
-2.523690871067446606e-01
-1.808262459987833581e-01
-3.932111108502606839e-02
7.578414063631566666e-02
6.346704729422346369e-02
-1.203883960503829148e-01
-3.535981935976095225e-01
-2.929952252667538115e-01
3.105816210480117356e-01
1.106717642309648086e+00
1.318971167718294035e+00
7.070126927398857619e-01
-3.679017678676743675e-02
-1.634836355126342566e-01
2.729630329775037390e-01
6.982350640893036919e-01
7.612839732414471428e-01
5.397323579123235460e-01
2.597139373098534265e-01
5.055556113774611893e-02
-7.133763726553284112e-02
-1.191446750342575467e-01
-1.028770234845196169e-01
-5.205525110452474680e-02
-1.584881785786761837e-02
-2.409837307010929616e-02
-6.650685973655552641e-02
-1.231336610466147313e-01
-2.013755192192545895e-01
-3.121251190232925410e-01
-4.087487268999888124e-01
-3.990553306242624609e-01
-2.505392044469815227e-01
-5.010639359651145736e-02
7.642234180680809730e-02
8.189687931648247099e-02
9.747719718426127791e-03
-8.404805177999188914e-02
-1.819179304994104074e-01
-2.811352716079713598e-01
-3.528197910957819317e-01
-3.463353044848703211e-01
-2.357921182831155538e-01
-5.538383896621988656e-02
1.210996518176100101e-01
2.347988647244563520e-01
2.662226790620038086e-01
2.173000828225856162e-01
9.619098557771615932e-02
-7.048032918865214380e-02
-2.218502231920642109e-01
-2.835333830843942415e-01
-2.260287961004543433e-01
-1.003012967391796462e-01
3.054634487327730769e-03
3.301037017303747045e-02
4.923038041367162540e-03
-4.368713432717968859e-02
-9.950020849089420694e-02
-1.693764794101716986e-01
-2.425130712709459013e-01
-2.738048329178772167e-01
-2.215864453018718261e-01
-1.020847598858074523e-01
1.253992225841324935e-02
6.271781138129342570e-02
5.514288023619274420e-02
3.051739976215919400e-02
-4.796143826110758901e-03
-7.676924229636575281e-02
-1.768440010240334981e-01
-2.381470657161998128e-01
-1.970465656530351883e-01
-7.415844511868521782e-02
1.564737963805995502e-02
-2.327198474842532422e-02
-9.850591718069033609e-02
5.937985394757616664e-02
5.570286554113222932e-01
1.025109294940618199e+00
9.250712603469875006e-01
2.677449563817307920e-01
-2.912240547163260640e-01
-2.310236900069322641e-01
2.664979792774157530e-01
6.692311530557855104e-01
7.145324689587452260e-01
5.249545008389935319e-01
3.193815211505055540e-01
1.742628302203830803e-01
3.289689386662091042e-02
-1.298909849159419483e-01
-2.246459616082266408e-01
-1.649616997974557298e-01
-5.318052693541554243e-03
1.119294144507528982e-01
1.155936582298809356e-01
4.864215873193759171e-02
-3.407423446187332616e-02
-1.426402564190882849e-01
-2.915504419070006348e-01
-4.133754773201199773e-01
-4.092782959587462077e-01
-2.715721416556786671e-01
-9.045912591146229587e-02
4.321801954913402632e-02
9.030916073596403915e-02
5.443093205293274978e-02
-2.836665061465930282e-02
-1.154616044291234822e-01
-1.949047336668887631e-01
-2.679376816008241513e-01
-2.978368080331156298e-01
-2.306250391314977055e-01
-7.653721762092624559e-02
8.392640932813955068e-02
1.914314447467483915e-01
2.553964221830173353e-01
2.940046642914483366e-01
2.708019788742875300e-01
1.261715746273694982e-01
-1.279237156320200131e-01
-3.683088095657202077e-01
-4.462476201385556784e-01
-3.229655015969488674e-01
-1.058011078963431162e-01
5.562423892994033947e-02
9.007388956661599444e-02
2.766173849515842637e-02
-5.845000914117222390e-02
-1.275454080220854436e-01
-2.009528924159068586e-01
-2.983282082861947737e-01
-3.575073186116922708e-01
-2.870178965544006866e-01
-1.064258805689110299e-01
4.844298078295418419e-02
7.779787067346066731e-02
8.266378534582674575e-04
-1.132994834990694311e-01
-2.220822186056486403e-01
-3.077002250085857371e-01
-3.401865720607981647e-01
-2.716041086456906783e-01
-9.708558266826186611e-02
7.440061258542221556e-02
7.828927499839154203e-02
-8.393124961915915394e-02
-9.811260024011905778e-02
3.815375066324846465e-01
1.157702319054549456e+00
1.471363298692498045e+00
9.077298799683104491e-01
4.659724045409524562e-02
-2.332010796449220658e-01
1.889974175932385148e-01
7.306658426864746092e-01
9.110381239245998186e-01
7.224861431079365737e-01
4.024292998006059330e-01
1.393665186848498938e-01
-1.790186470865102325e-02
-1.088324878612501601e-01
-1.717758722692893092e-01
-1.935790067476408638e-01
-1.448670241085422694e-01
-4.713165215962446253e-02
3.166539634770119960e-02
4.137580734201572880e-02
-1.956653041999852766e-02
-1.212917035450986197e-01
-2.262913157314832280e-01
-3.090163563534725766e-01
-3.589503383780373591e-01
-3.628661637442042176e-01
-3.069000814031329627e-01
-2.019737610992085319e-01
-8.399251494217747915e-02
6.432786050179443299e-03
3.190150957912082225e-02
-2.692046652080135050e-02
-1.436926444750266374e-01
-2.544516504783145283e-01
-3.044122154792895940e-01
-2.702684973547887504e-01
-1.455829193529046550e-01
5.277400208898824774e-02
2.502046940513324436e-01
3.287075679572041831e-01
2.221418897655732805e-01
-6.913588370671033823e-03
-2.206607836771946052e-01
-3.353727034889487091e-01
-3.660984406378428035e-01
-3.555617265721290332e-01
-3.102293125371899940e-01
-2.181313541530875977e-01
-9.431766748940775824e-02
1.258187316813555792e-02
5.412773048485863825e-02
1.861354846837100577e-02
-7.085399076993757761e-02
-1.883775272381001120e-01
-3.047466833041450607e-01
-3.596993397435415130e-01
-2.957894840484961985e-01
-1.389770110855164664e-01
8.475272766438779470e-03
7.158270547500879266e-02
5.273589625134659370e-02
-1.525426182666522398e-02
-1.064300057627221019e-01
-1.924213904187155877e-01
-2.383800670296233049e-01
-2.249109911647934890e-01
-1.863798688669787984e-01
-1.961143037787436705e-01
-2.135388405190293826e-01
2.330454620172042052e-02
7.016616083461606479e-01
1.451701585908919068e+00
1.532611598813785392e+00
7.553537166088835075e-01
-1.549677314184156052e-01
-4.197488600076089704e-01
-5.759039796096668273e-02
3.830900165505570776e-01
5.582282966678677738e-01
5.156359162138531849e-01
4.062699564654097539e-01
2.864029201805375902e-01
1.544245514690431864e-01
1.688592123999010583e-02
-1.202397286763584733e-01
-2.578462736126173049e-01
-3.640729139803973169e-01
-3.598422187227988123e-01
-1.878427007260676795e-01
8.195760944109545254e-02
2.562227965393605311e-01
2.015666204305317233e-01
-1.132478062292358381e-02
-2.182945705017856342e-01
-3.445251310917782361e-01
-4.059927508357059622e-01
-4.105400669356867871e-01
-3.420808140608263548e-01
-2.168563722012605277e-01
-9.603158941335411536e-02
-2.918184191088086382e-02
-1.432832509005232437e-02
-3.120310165038601632e-02
-8.599094755539768431e-02
-1.944176198349450435e-01
-3.278563380382988335e-01
-3.939222609187319479e-01
-2.980854472878691208e-01
-5.550648221002436877e-02
1.835037362320269538e-01
2.739204991101430453e-01
2.207284517327335049e-01
1.324298802669995612e-01
6.837829780887802467e-02
-5.914219802960703209e-03
-1.324946740618823393e-01
-2.812971452603274525e-01
-3.637764009636120788e-01
-3.113478012445757837e-01
-1.457329560393975376e-01
2.473577120473140559e-02
9.848906183481466459e-02
7.099716634977276675e-02
9.098690128374765235e-03
-5.103220364136593079e-02
-1.332572623051982985e-01
-2.435930266898567731e-01
-3.203272458444076931e-01
-2.996451746395869531e-01
-1.936615556511157576e-01
-6.946510968615096648e-02
1.930570645227660045e-02
5.826544298903135050e-02
5.785590352087240790e-02
3.416154992817721503e-02
-1.395020243269058831e-02
-1.221620533763452809e-01
-3.070352304523905618e-01
-4.289147202024705674e-01
-1.791990892228796373e-01
5.708073005272213951e-01
1.367028213729332586e+00
1.471429541292297527e+00
7.648754350237314537e-01
-2.377650343231071939e-02
-2.149889688313622038e-01
9.765813483855678712e-02
4.072164829245271123e-01
4.652644879095096941e-01
3.781441063977514228e-01
3.059041317049704944e-01
2.833332683652874384e-01
2.622225529437744451e-01
2.026810857997275173e-01
1.030619457467938510e-01
-2.395761415476765910e-02
-1.663323672945898613e-01
-2.875673352027163787e-01
-3.207463643008679477e-01
-2.291906742943518038e-01
-6.091053287163807756e-02
8.232622050884615128e-02
1.204321329606306418e-01
4.525630387539511523e-02
-7.505793252683988503e-02
-1.567058279587188463e-01
-1.892825103655789154e-01
-2.288707439210163896e-01
-2.852093181810073652e-01
-2.843354049221826774e-01
-1.859394521502926167e-01
-6.453380787030954524e-02
-1.085892249017023081e-02
-1.712843303722192886e-02
-2.620351888295418402e-02
-3.413930684637594970e-02
-7.005042344087740458e-02
-1.108561869873267436e-01
-8.674373051474948415e-02
2.817247118723465588e-02
1.695640602838859312e-01
2.377581172996379444e-01
1.918283804081858390e-01
8.809391027095539450e-02
1.429214999226194847e-02
-1.642110059905736025e-02
-7.104326081910712631e-02
-1.820837207325443907e-01
-2.799046474468490087e-01
-2.761636518208744340e-01
-1.708421102776182254e-01
-4.344211245916165809e-02
2.575598133226419603e-02
1.048400606045822754e-02
-5.115577562747098544e-02
-9.669505695546712354e-02
-1.092903992405599434e-01
-1.326962715428685324e-01
-1.982351268456180593e-01
-2.635590226815030523e-01
-2.573273737692330365e-01
-1.725319106457297302e-01
-7.703069344306874566e-02
-2.640248254224138863e-02
-5.101949208227467975e-03
1.924056120257324962e-02
2.804395405039815381e-03
-1.567194257077126618e-01
-4.397875130431438961e-01
-5.453526640703041384e-01
-8.970998291486380338e-02
8.326964280663545770e-01
1.464880045479757031e+00
1.199398379346028776e+00
4.546940571747328796e-01
1.614717465221206516e-01
5.137387286245008733e-01
8.823498508879373814e-01
8.056511673666836293e-01
4.478351920196389502e-01
1.720838535060897345e-01
1.061035428172941303e-01
1.425279348533672885e-01
1.431992899227910732e-01
7.277532039963495458e-02
-1.380059285145249746e-02
-7.379667298821358801e-02
-1.424070826137797674e-01
-2.680410545145090473e-01
-4.057510936458004203e-01
-4.451084175198399828e-01
-3.467030536213639436e-01
-1.856490532830193385e-01
-5.690104671770250533e-02
3.845261256042283721e-03
5.434039119654182279e-03
-4.107568616869225475e-02
-1.340207710801476770e-01
-2.595279197983798025e-01
-3.671853715415722696e-01
-3.908155480006578197e-01
-3.065294490902543134e-01
-1.588963089816473884e-01
-2.846756232073340692e-02
2.583204782364369526e-02
1.127912933344789315e-02
-5.921763837389668050e-03
2.557304372803341150e-02
7.082018536186210356e-02
4.128740925843176618e-02
-8.432667839852996117e-02
-2.068626212584915858e-01
-2.106517054575422765e-01
-9.456088590655448156e-02
3.918428181022941270e-02
9.758386042673801442e-02
5.887193266896659921e-02
-4.786490280951707227e-02
-1.820934227799243799e-01
-3.056541267081006041e-01
-3.694693421204485184e-01
-3.279061157896974721e-01
-2.022846967928664252e-01
-9.003890484724857979e-02
-6.521543922633275814e-02
-1.011736900745997259e-01
-1.247368906812603012e-01
-1.195311684940074948e-01
-1.395415208631057002e-01
-2.213441350235678950e-01
-3.156402033504491778e-01
-3.337364249049658560e-01
-2.485056425170140970e-01
-1.152435667934700869e-01
3.227919232598418491e-03
8.535116539974996197e-02
1.040954383309246334e-01
-1.718114818707563302e-02
-3.069080708635177901e-01
-5.526685189055317027e-01
-3.393215958610555361e-01
4.565886529648389702e-01
1.252983497518261435e+00
1.279654547099422057e+00
5.791429087640612705e-01
-8.575095929590825783e-03
6.919661794869125249e-02
5.171613061678300705e-01
7.500991508009080544e-01
5.655738487216729338e-01
1.937333359111673148e-01
-5.195972091095086426e-02
-6.670367934351109640e-02
3.243627811719667492e-02
1.014087778452207322e-01
1.118365226271043067e-01
9.960353443015726449e-02
6.736745751173982277e-02
-5.956910732092427635e-03
-1.226388435625825474e-01
-2.597410626138431100e-01
-3.583239401028552318e-01
-3.481592811914760999e-01
-2.339903171446645058e-01
-1.097821277130544976e-01
-5.111897023269383611e-02
-4.602146570455886015e-02
-5.305478692758255899e-02
-7.059405869466826855e-02
-1.263133645094457191e-01
-2.319425521816851909e-01
-3.497161569407049031e-01
-3.963679321254647836e-01
-3.134961219082011419e-01
-1.365449244279944574e-01
3.952954166890350340e-02
1.512108042743814940e-01
1.952146949848363178e-01
1.883883381764648590e-01
1.356246613003400658e-01
4.073878658238468120e-02
-7.141541144062152346e-02
-1.559733728090502702e-01
-1.704933951436838069e-01
-1.063033235411750127e-01
-5.614706374146133036e-03
6.522334768802172389e-02
6.331102359162386894e-02
-8.199965509910729991e-03
-1.046274228252470767e-01
-1.695687452874628243e-01
-1.852256346305285462e-01
-1.916798879077184770e-01
-2.335359506730759760e-01
-2.776027821563836206e-01
-2.238664734101462883e-01
-5.037394975305877626e-02
1.108500474398136509e-01
1.263793947683072849e-01
1.953078951937748872e-02
-9.858993685015562947e-02
-1.714574789176914749e-01
-2.020922693604919052e-01
-1.836346358811172252e-01
-9.875983077741144756e-02
3.106629179266794799e-02
1.348598253663734481e-01
1.181954164036816551e-01
-6.658556417530225868e-02
-2.737798933646009569e-01
-1.483589390717771905e-01
4.827238386625015698e-01
1.179320604363647496e+00
1.231576760856758712e+00
5.719739964319491277e-01
-7.739799220109364053e-02
-1.165197370056226117e-01
3.054773087132855447e-01
6.747610850979137709e-01
7.136597977038642293e-01
4.852273090142376066e-01
1.815322521385878962e-01
-4.517767565056547696e-02
-1.281498866957672400e-01
-7.639698296790034537e-02
3.764491142081990288e-02
1.145185226015437291e-01
1.009743315213758458e-01
2.435971820022063764e-02
-5.898593862554807332e-02
-1.328733026845419218e-01
-2.221265720714865055e-01
-3.260306161530951985e-01
-3.807013303264099591e-01
-3.240736062762835656e-01
-1.835450997149432328e-01
-5.693870788969485758e-02
-1.054586420714821379e-02
-3.018759788346080455e-02
-7.147379084912149072e-02
-1.240023236507320631e-01
-2.093160762694616372e-01
-3.235054628959484480e-01
-4.007104449607953867e-01
-3.620581499548315985e-01
-2.033127840842554324e-01
-6.462997096260619107e-03
1.334384773658322254e-01
1.799880139390564182e-01
1.715788710449375476e-01
1.644093008258493693e-01
1.476753251063134265e-01
5.123094742306374960e-02
-1.345296995834383280e-01
-2.898673484230584463e-01
-2.752625700624900529e-01
-1.010267177775419772e-01
7.488367781406032875e-02
1.270398161901149237e-01
7.168283527079839790e-02
-1.494803994909819390e-02
-1.040648603641497055e-01
-2.053858534384467305e-01
-3.008655937440615213e-01
-3.321135736386676696e-01
-2.611022038532430645e-01
-1.201434868468658074e-01
1.748774163609644744e-02
9.705108487212581181e-02
1.006267896049272276e-01
3.090110963082058973e-02
-9.683056822838075062e-02
-2.378954644249452743e-01
-3.144298847234627270e-01
-2.716370605370316271e-01
-1.450326295040333391e-01
-2.815769831848057708e-02
2.583985154945690754e-02
8.958345667465984763e-03
-1.036969432903470933e-01
-2.807698238052093176e-01
-2.850788673053509803e-01
1.696648855191989491e-01
9.207755393804476496e-01
1.270477106286237667e+00
7.946852967544929536e-01
1.737573097579714343e-02
-2.051938749524913619e-01
2.520460427141966164e-01
7.931112187991267160e-01
9.326502010899396788e-01
7.023539298973922040e-01
3.717682170744564529e-01
1.074658205218470969e-01
-6.179127883355844952e-02
-1.398114383836761010e-01
-1.299879475602096490e-01
-5.610906514767065312e-02
3.809657757614862139e-02
1.078414642202941420e-01
1.178423495011324679e-01
4.589811195079913225e-02
-9.593101964486096256e-02
-2.394483326938895706e-01
-3.028582046639298753e-01
-2.828656170680301507e-01
-2.652470437462145503e-01
-2.960681418167616097e-01
-2.925798010299884844e-01
-1.740811819725949783e-01
-2.280288780346309205e-02
5.825752485462451502e-03
-1.218086023687055958e-01
-3.041190453028516649e-01
-4.204253105369359367e-01
-4.009227077148335150e-01
-2.471471623562000175e-01
-2.946390586558552890e-02
1.663652803481634745e-01
2.932274589922883035e-01
3.307610535852174571e-01
2.606498955375008419e-01
8.521117132491023982e-02
-1.453471643372002686e-01
-3.361000841867369804e-01
-3.915022766518590491e-01
-2.826495568586775975e-01
-7.697788571859219553e-02
1.054413896799113320e-01
1.692584080174354688e-01
9.756989121692366540e-02
-4.071083602825847914e-02
-1.413370621168228147e-01
-1.631287244924289059e-01
-1.716284153461078432e-01
-2.381934398574884204e-01
-3.186762282269242075e-01
-2.974383232540623867e-01
-1.413417314653545587e-01
4.244658380695336131e-02
1.125421376224599868e-01
3.414730351157589661e-02
-1.092873951133571109e-01
-2.313976440881411745e-01
-3.133237973303348300e-01
-3.492807384093610246e-01
-2.996974837001671887e-01
-1.563112880177954800e-01
-2.062865517865740406e-02
-3.431840675293915816e-02
-1.532216127238681669e-01
-3.770915697982325787e-02
5.880287884351691474e-01
1.366835103208507318e+00
1.474759314653950382e+00
6.582991029323190801e-01
-2.882511015804786747e-01
-4.620451597996326765e-01
1.092604174764598146e-01
7.089616661836679601e-01
8.507877235014482675e-01
6.210224140632003564e-01
3.301171411139137701e-01
1.395585041280077709e-01
2.075006197668736313e-02
-9.213224633929076313e-02
-1.938750243623311165e-01
-2.322615033802512829e-01
-1.887885995734587818e-01
-1.039798363728158537e-01
-3.512709204179497585e-02
-1.214857861082097729e-02
-3.220737983734880266e-02
-8.558585434245075119e-02
-1.751763411733554543e-01
-2.900817980679327723e-01
-3.672263096012965966e-01
-3.319733105444528931e-01
-1.958694270792054326e-01
-6.188274871669877109e-02
-5.806398424453243327e-03
-2.192554587654930130e-03
2.354331961822709457e-03
-3.788913320095853125e-03
-6.763398467825101901e-02
-1.819615504933564387e-01
-2.724126281230298541e-01
-2.601047424760578597e-01
-1.180804184954892255e-01
1.035983558398513998e-01
2.917774107130360894e-01
3.467264144181047003e-01
2.664256512862251958e-01
1.286737535598983517e-01
-1.010675355927747460e-02
-1.494249568033459152e-01
-2.751836503096673492e-01
-3.267562750132061433e-01
-2.697596141292256666e-01
-1.554439044114311330e-01
-6.751905494512443207e-02
-3.228494410498725792e-02
-1.813409701999848730e-02
-1.135022751288949396e-02
-4.209252178531162208e-02
-1.232811115413463693e-01
-2.089686446072186454e-01
-2.397928003144249587e-01
-1.986172022990165820e-01
-1.035294285270075831e-01
1.377626570057004229e-02
1.041581129362624814e-01
1.220275974123083002e-01
6.947445808829956493e-02
-1.341187320114643755e-02
-9.516756683654920002e-02
-1.560145046535479640e-01
-1.783713098062474078e-01
-1.846493509059423666e-01
-2.278880681813119091e-01
-2.448273361201996623e-01
1.571466963197770683e-02
6.863288812600498723e-01
1.372651273510319792e+00
1.403153608831825272e+00
6.710628383112444695e-01
-1.351175072241541653e-01
-3.488464666690508920e-01
-1.332932360926760568e-02
3.937404821293276624e-01
5.603685203663482106e-01
5.043131034987068384e-01
3.740708947744462720e-01
2.569655708441018760e-01
1.431545419162504051e-01
-7.073272573780743644e-04
-1.580452380802049028e-01
-2.624600142477896414e-01
-2.607805604034725278e-01
-1.757339259948839660e-01
-9.641959171833239250e-02
-8.772809007339846255e-02
-1.243977595563329763e-01
-1.419193538599420323e-01
-1.303039728297373245e-01
-1.427592413023741624e-01
-2.204923202952969730e-01
-3.287208778460028458e-01
-3.785182088523785793e-01
-3.192486184536529881e-01
-1.901642208542155266e-01
-6.828779913310764615e-02
4.268879624544356932e-03
2.427448687554052686e-02
-9.332927764631843495e-03
-1.005420834492538468e-01
-2.253778785079526836e-01
-3.225134350419140983e-01
-3.329003383108163350e-01
-2.440409828010959015e-01
-8.457969404336962427e-02
1.037133725319653449e-01
2.571534788591127163e-01
2.934247051260970296e-01
1.859969798653039741e-01
7.301588125897560955e-03
-1.466156429475518053e-01
-2.408587965450092461e-01
-2.848257462029407661e-01
-2.727596220364718049e-01
-1.832296743839880171e-01
-3.824347054555542191e-02
6.368151399593274808e-02
2.510719294185389389e-02
-1.155067191826497364e-01
-2.050054177875135220e-01
-1.874084232188396593e-01
-1.812148156035397750e-01
-2.737127452588565824e-01
-3.749205205318346112e-01
-3.564395525603381576e-01
-2.268947272024175177e-01
-9.877486073779581655e-02
-4.063671550466124022e-02
-2.837782975505206973e-02
-2.601452022206203474e-02
-4.300306335145188952e-02
-9.304278464318442576e-02
-1.588391739085679433e-01
-2.360029819689972719e-01
-3.505738343115051836e-01
-4.366436575770943351e-01
-2.368447873364153689e-01
4.374153270867929266e-01
1.240378046407324408e+00
1.431296773870105010e+00
7.752607218997387140e-01
-4.927894262460075225e-02
-2.783106224396365014e-01
8.404708081431055966e-02
5.183517786490347001e-01
6.914592171205319326e-01
6.332051018727197222e-01
4.883200185111780667e-01
3.420941312402501766e-01
2.233247262611751938e-01
1.342384116353582679e-01
4.894746906449912865e-02
-6.051193967915977079e-02
-1.705980556930454251e-01
-2.133676139764218160e-01
-1.571124560946670079e-01
-5.476406912317668269e-02
1.547010219087361846e-02
5.636737425593189854e-02
1.480551676769016056e-01
2.860009111255912839e-01
3.043007576574566220e-01
8.817293217334440381e-02
-2.192231374916641384e-01
-3.642723947384837180e-01
-2.620252496278480669e-01
-3.733495044134062246e-02
1.344487083236969860e-01
1.674372355062590245e-01
8.995868533762706176e-02
-2.037918127455365727e-02
-1.098996500695110651e-01
-1.637570458906923154e-01
-1.694658545763767787e-01
-1.009122053671117625e-01
3.092049903745930362e-02
1.370700636315426157e-01
1.279554231569536293e-01
3.030341184964199103e-02
-4.325759219898482610e-02
-4.005716400523913479e-02
-1.947359120552803746e-02
-6.727767673919146652e-02
-2.051382280311608575e-01
-3.677365279215036309e-01
-4.406067736491952047e-01
-3.556046639701201939e-01
-1.726780674502535473e-01
-3.173234001933238763e-02
-1.835346928269812605e-02
-1.085027867911982358e-01
-2.312704813406894211e-01
-3.456897470000356853e-01
-4.418211817141752817e-01
-4.897828644811876297e-01
-4.397575723278981386e-01
-2.888030131002852774e-01
-1.090012554845448539e-01
1.191769641847740223e-02
4.270678138823134906e-02
1.407855852175552910e-02
-3.377848557154112391e-02
-1.014863666399588582e-01
-2.356821014107790269e-01
-4.517623409793565803e-01
-5.869677558405607121e-01
-2.970204713364429372e-01
5.592481730662937078e-01
1.474887720666394841e+00
1.616800269749324448e+00
8.376178099881093075e-01
-4.088598145916916282e-02
-2.375887244344221938e-01
1.380382026622559710e-01
4.869935142057216226e-01
5.131080692351236427e-01
3.563498436458427121e-01
2.410649059621649271e-01
2.345247372495514182e-01
2.720782125259023077e-01
2.768787710657384382e-01
2.130296848358718687e-01
6.539174649590907829e-02
-1.626919292152152752e-01
-4.024626184238810911e-01
-5.075382788409755763e-01
-3.631529186344130689e-01
-4.682313235752899594e-02
1.947807110284462406e-01
2.116238871362179641e-01
1.013979062575044165e-01
1.189794036625134270e-02
-6.385778023598194519e-02
-1.938368257417911744e-01
-3.435363241726067107e-01
-4.077526410091755205e-01
-3.340135195230291565e-01
-1.639356676137964930e-01
7.354926278942078982e-03
1.047177532677371625e-01
1.279224233538358013e-01
1.209124008265696631e-01
1.042263594306746394e-01
8.012385814478185930e-02
6.704631409578806767e-02
7.225935675606881547e-02
6.683146591742847309e-02
3.494864209221721502e-02
1.285459869363678523e-02
4.156608042038117262e-02
1.036360426734524998e-01
1.284077756818120253e-01
5.468230424435002041e-02
-1.100309403703291222e-01
-2.874381915419716438e-01
-3.876208044689224419e-01
-3.740977570873463831e-01
-2.831162970468448781e-01
-1.859455844852472284e-01
-1.229919316944828728e-01
-8.101982950902618386e-02
-4.266467861982033150e-02
-2.871149420936642410e-02
-6.948362492221139830e-02
-1.580938886080933692e-01
-2.487506206638711859e-01
-2.895715266408553368e-01
-2.593893125718389481e-01
-1.831284279306058804e-01
-1.038918711250279431e-01
-3.849668683207712466e-02
2.232595685034986788e-02
5.723143216304571457e-02
-2.076364176037160184e-02
-2.675708499107515848e-01
-5.103666402302484695e-01
-3.426365757898491293e-01
4.318668377611590281e-01
1.323182561567039839e+00
1.510051249962084174e+00
8.401430500768267695e-01
6.112232007463974659e-02
-1.178523620278548456e-01
2.292152891141277515e-01
5.644345356190686447e-01
5.590980830308914795e-01
2.981814326670339521e-01
4.676867897176991556e-02
-2.935533876148532437e-02
4.118266855195523712e-02
1.249400369011064160e-01
1.239550778353327026e-01
3.760063226568875067e-02
-8.078367456087019727e-02
-1.984094771331630369e-01
-3.122427354063462279e-01
-3.962006815620446321e-01
-3.947256134133865224e-01
-2.964187204450642876e-01
-1.710511963567298843e-01
-9.532338516772072279e-02
-7.219849132216936416e-02
-5.776911445783381588e-02
-4.105936364173941311e-02
-6.555350753420584320e-02
-1.769949928152455276e-01
-3.511754859378544147e-01
-4.783959498536689559e-01
-4.526383711803489973e-01
-2.836436292288717631e-01
-8.836574768788377221e-02
2.974373250054458337e-02
6.599640655616284546e-02
9.536171005718360738e-02
1.860712907492844126e-01
2.984734479514070671e-01
2.891702516018726521e-01
8.895095140049945337e-02
-1.697536131103967727e-01
-2.921312018187497972e-01
-2.300223404786027881e-01
-8.726938021821883940e-02
1.513453761472180470e-02
2.421552256153948826e-02
-5.031736387849963799e-02
-1.703922684797011811e-01
-2.860274850345483899e-01
-3.417835558472658852e-01
-3.023630930971011321e-01
-1.862540388609836561e-01
-6.103012692682344142e-02
1.222049675490222836e-02
2.903812110441718330e-02
2.456103774384787650e-02
1.490106212095013150e-02
-2.228693108164759781e-02
-1.080796121639547719e-01
-2.185698875973023092e-01
-2.914253448054422990e-01
-2.767443709773748095e-01
-1.719829251922232183e-01
-1.347826246309386314e-02
1.341359006166674139e-01
1.766472856827705495e-01
4.095209480643997868e-02
-1.875850648667801435e-01
-1.971956196247232895e-01
2.801396196757719448e-01
1.005328955173102168e+00
1.299854224045394302e+00
8.454875265091477132e-01
1.520306842006343140e-01
-7.361416736346773626e-02
2.628667661903915098e-01
7.225090185554755573e-01
9.120981025653940311e-01
7.504459341134341877e-01
3.875558698156600923e-01
5.379527197573441555e-02
-9.049191770800785184e-02
-4.682161658242365437e-02
6.487608886279494502e-02
1.236676662322134246e-01
8.912468406955167954e-02
3.491281425000286424e-03
-7.640998153061070997e-02
-1.471961944627197538e-01
-2.376379037846989284e-01
-3.329447639462780328e-01
-3.700828593762821028e-01
-3.130092612424676402e-01
-2.002128054770799248e-01
-1.113552492141443584e-01
-9.602885464903804236e-02
-1.370773388057406894e-01
-1.844392865236594292e-01
-2.185801558092028973e-01
-2.603481239079546983e-01
-3.117928955497396570e-01
-3.196320277428433276e-01
-2.308290457952382191e-01
-7.460275046601591575e-02
4.872085908294893769e-02
8.419796746693511413e-02
9.983231425769406586e-02
1.904533587385008608e-01
3.126537807247817269e-01
2.971948166368456601e-01
5.756479218865891145e-02
-2.682826022404699584e-01
-4.253779779871866285e-01
-2.810045388363826002e-01
4.406297061477952581e-02
2.787410171419550942e-01
2.564504278430609907e-01
5.574856517829576696e-02
-1.348060090042588754e-01
-2.321668985047776745e-01
-2.780390817802861902e-01
-3.000950889732160176e-01
-2.597091403029588297e-01
-1.438507189115245111e-01
-1.741139700246491229e-02
5.054060857230188025e-02
5.112113971986761984e-02
4.712381922886515334e-03
-7.819904258241283657e-02
-1.850735181299312249e-01
-2.889890604996328549e-01
-3.576592651424818636e-01
-3.588788587187464740e-01
-2.714107519827412274e-01
-1.140349912174991459e-01
2.417941158442356991e-02
7.050977372589981376e-03
-2.013586659199036177e-01
-3.609948461358780669e-01
-7.481141399577828643e-02
6.927663262557401946e-01
1.310330045450900371e+00
1.100371815202159542e+00
2.769407613526428946e-01
-2.388169313691600459e-01
2.487696190327020815e-02
6.328995369781628133e-01
9.452040212907212302e-01
7.988341137876991960e-01
4.368505774750601756e-01
1.085522928805562198e-01
-9.901445792500199183e-02
-1.774474518086052999e-01
-1.305175224859103089e-01
-1.145315976455889284e-02
7.570880153088156705e-02
6.895245220486012627e-02
5.351092657703749103e-03
-4.984021515251003259e-02
-9.536611501013743386e-02
-1.726461869761211076e-01
-2.849039878477735988e-01
-3.827492384298180617e-01
-4.084268169181639041e-01
-3.307467314473944153e-01
-1.710227464922887131e-01
-2.103061838803717970e-02
7.916521580684876200e-03
-9.891667955563056280e-02
-2.295547956818546897e-01
-2.780388092316558590e-01
-2.599433367220264079e-01
-2.443892814839921934e-01
-2.313806937705586431e-01
-1.673828374249822504e-01
-4.382601147017622240e-02
8.519519901150268693e-02
1.664420675968607544e-01
1.811338510900677434e-01
1.229686738483311836e-01
-1.145551202501565377e-02
-1.915945514244130343e-01
-3.362741701436368635e-01
-3.589473685186574392e-01
-2.436277594773516020e-01
-7.246803721152955680e-02
3.772212258279656477e-02
3.663274003329923534e-02
-2.846212601151679872e-02
-8.618284890335822790e-02
-1.272735349436916186e-01
-1.974725523052050236e-01
-3.069626723925173439e-01
-3.750637379858587361e-01
-3.051967143671882043e-01
-1.159397470036523520e-01
5.609927882850795217e-02
1.031712617188147024e-01
4.859138904511042800e-02
-1.264193008316804451e-02
-3.221765431900058818e-02
-4.857584348302793065e-02
-1.175454287544598353e-01
-2.107678819663887093e-01
-2.232391567162033408e-01
-1.147530110111982110e-01
-8.114005517686996224e-04
-3.080432840670936645e-02
-1.396169764595222573e-01
6.538305002516633935e-03
6.192652924387296309e-01
1.312426689697623772e+00
1.353552613036351104e+00
5.899494204663514596e-01
-2.378450718071787873e-01
-3.722931663721503193e-01
1.255054026494911712e-01
6.415356457216643271e-01
7.632891515136487337e-01
5.472683122225022734e-01
2.583018721669748663e-01
5.722544191885645115e-02
-6.910049743695348412e-02
-1.733892423472926381e-01
-2.384963049787543476e-01
-2.245301566136480576e-01
-1.487180015183407478e-01
-6.096471614176981330e-02
9.801599233935750360e-03
4.303070174424396266e-02
1.281645111457136929e-02
-7.682295590618409831e-02
-1.836262302121093037e-01
-2.685322707533451814e-01
-3.065249983369016662e-01
-2.685929077922187269e-01
-1.496824289583425505e-01
-5.466648650014057503e-03
8.410945297587664460e-02
7.902128235808109080e-02
-6.551070792998613807e-03
-1.275343904368127501e-01
-2.361283173070456154e-01
-2.981677585268913133e-01
-2.921055873210501863e-01
-2.104490552887936239e-01
-6.042449943533571149e-02
1.395119047424319414e-01
3.356427438842215505e-01
4.292369860222901012e-01
3.490531791282137641e-01
1.257914837260296625e-01
-1.354968794873022686e-01
-3.298430976585151608e-01
-3.923688558899496859e-01
-3.184340310717321820e-01
-1.696265941784176057e-01
-3.270929326170468610e-02
4.144025877001597524e-02
5.362202698719446131e-02
2.611244561003524603e-02
-2.270150081425537786e-02
-7.473463436280924910e-02
-1.049056855517161990e-01
-1.055832639009586793e-01
-1.076176251113999116e-01
-1.307223790230963578e-01
-1.346235746457617177e-01
-7.994923246330053190e-02
-7.935756232777639585e-04
3.701194294509159433e-02
5.869130401882013091e-03
-8.443288170576476737e-02
-2.057389846210539441e-01
-3.031845500100015522e-01
-3.136677927075464112e-01
-2.432035017322144166e-01
-1.979190975540082720e-01
-2.323601917398084304e-01
-1.522512080200299489e-01
3.265064655822069173e-01
1.061912825719764308e+00
1.378522699761759229e+00
8.290629506475681865e-01
-1.205982219337699002e-01
-5.784964078153568279e-01
-2.462515417208011592e-01
4.066267255345458742e-01
8.097661832790751246e-01
7.972887996743740491e-01
5.409901127000885657e-01
2.604082107145236913e-01
5.943828259553809307e-02
-7.565578329044903017e-02
-1.971927229117322877e-01
-3.056167976806777320e-01
-3.397174804959594008e-01
-2.601518662197432330e-01
-1.100998950461863912e-01
1.580660489369561938e-02
4.262778013103175889e-02
-3.799217278443963591e-02
-1.701457329701538124e-01
-2.853882647892917457e-01
-3.592918438769217016e-01
-3.987876278176541445e-01
-3.810233751760315757e-01
-2.655749125565846080e-01
-8.213053202128092756e-02
6.348068531195263930e-02
1.025047745911849967e-01
6.656042698521202894e-02
1.165579665941092122e-02
-6.150746602850554190e-02
-1.728506616203463742e-01
-2.889794982016700708e-01
-3.272899632129773750e-01
-2.345546895222418993e-01
-4.347684894102642195e-02
1.573353992470095941e-01
2.920978607212765810e-01
3.249845438060456337e-01
2.481201997815636329e-01
7.756920553356799752e-02
-1.355459145722303638e-01
-3.101554962443253682e-01
-3.726666504675273384e-01
-3.001907572977203786e-01
-1.365782656628339586e-01
2.832372013127028645e-02
1.098730951649757315e-01
8.198817158946981876e-02
-1.210741455287845693e-02
-1.066505090917054394e-01
-1.742309062580687240e-01
-2.350780720676095004e-01
-3.005666771528907599e-01
-3.256322025572672141e-01
-2.519391259887298617e-01
-9.642003152514137809e-02
4.483557868493462384e-02
9.169667298662256827e-02
4.822660130155109054e-02
-3.015271623124796130e-02
-1.073471062202488308e-01
-1.799331398908491364e-01
-2.294228011449397087e-01
-2.181444323954762621e-01
-1.731344332004095821e-01
-1.863808084114701447e-01
-2.023785783022224172e-01
9.647777676717748940e-02
8.888504221143085360e-01
1.681996879563367298e+00
1.650949488412556621e+00
7.245720105727360139e-01
-1.756163577771526485e-01
-2.508086540543810194e-01
3.188191157064306225e-01
8.319937217802656493e-01
9.096660167051783263e-01
6.797585929136689131e-01
4.283898025679644395e-01
3.044589082919050838e-01
3.001171178840600362e-01
3.289274281181940318e-01
2.785195387815888601e-01
1.173206741950157672e-01
-3.205732554862655154e-02
-3.012573526755544379e-02
1.006186459334376115e-01
2.151881910193086112e-01
2.125695831576886463e-01
1.057306283271519931e-01
-3.246781110077374966e-02
-1.472547861079502862e-01
-2.310521929037455957e-01
-2.897190506491326700e-01
-2.976924285371032042e-01
-2.205292820731062364e-01
-8.512471639060006923e-02
1.770917970937263552e-02
2.215506058119019739e-02
-4.758378784088262980e-02
-1.173575650581008545e-01
-1.510073031472810301e-01
-1.665511766297630980e-01
-1.590442900826004591e-01
-7.131899235205126086e-02
1.042120780224563975e-01
2.570162278775468545e-01
2.636262075809461258e-01
1.200585896409599174e-01
-7.673079894195229678e-02
-2.382589765375143220e-01
-3.419668272794507136e-01
-4.127712554540160506e-01
-4.745655706834302490e-01
-5.092211213081343502e-01
-4.664504705475049917e-01
-3.315402996030265004e-01
-1.687031355799931687e-01
-7.063513939054189006e-02
-7.469161109735952819e-02
-1.499574006400696269e-01
-2.526895791700594085e-01
-3.613888375652888896e-01
-4.534605250037541668e-01
-4.838770369468939347e-01
-4.188869769385824005e-01
-2.812483983445904223e-01
-1.407319248087267605e-01
-6.378786307189163174e-02
-7.944501849057858389e-02
-1.717040910471825110e-01
-2.844434076697236469e-01
-3.565122356434144435e-01
-3.854669004051135550e-01
-4.475018710510461628e-01
-5.806856163821007000e-01
-5.852188557092017351e-01
-8.690356805661295092e-02
9.252459666969201635e-01
1.735465552895122388e+00
1.554966953150308973e+00
5.505187538744057418e-01
-2.949150162251101825e-01
-3.618347000140986758e-01
6.423294004928084555e-02
3.985071080582677228e-01
4.239051248621074075e-01
2.953218974755947857e-01
1.989580420280290252e-01
1.617397408754747690e-01
1.156391634452487577e-01
2.537839817743668680e-02
-9.158740625808715896e-02
-2.093451078884928929e-01
-2.997304289259412058e-01
-3.275078008082484837e-01
-2.772312428219611546e-01
-1.727983045163400955e-01
-6.700356232012710800e-02
-1.659890800881437534e-02
-4.563458110934039830e-02
-1.256473886335145174e-01
-2.121340643688212346e-01
-2.888257602371500643e-01
-3.500534576627731265e-01
-3.673466050130943517e-01
-3.131017680905275880e-01
-2.021175082925171507e-01
-8.075867229163508076e-02
1.483255420428049656e-02
7.026340403505802745e-02
7.825011938476381101e-02
4.251977269218632643e-02
-3.163670851145009011e-03
-9.370791814672580974e-03
3.683860373731240312e-02
9.554812710699384093e-02
1.260800182614000009e-01
1.268580961950189212e-01
1.138313203844328325e-01
9.087521191293722322e-02
5.091326859619986489e-02
-6.977748031736893258e-03
-7.117431160118452282e-02
-1.325161004587657454e-01
-1.898443549541206921e-01
-2.266680753486068622e-01
-2.050669970933752251e-01
-1.086926771825804799e-01
1.590750345224027293e-02
8.522004596277628352e-02
5.626535040145274474e-02
-3.733685591927688591e-02
-1.343145808484027259e-01
-2.034716341132109252e-01
-2.414224596616539598e-01
-2.436584018909480343e-01
-1.998232009108895091e-01
-1.102689151125189060e-01
6.126574099120787181e-03
1.206092606116223737e-01
2.025330328583652140e-01
2.243526541829975463e-01
1.599315395394519945e-01
-2.487357923007470911e-02
-3.078924756207968016e-01
-4.599094642966676250e-01
-1.080438771482917920e-01
7.798741043835265563e-01
1.562821356672677631e+00
1.502122065102521775e+00
6.952184336146189914e-01
-1.351364908442143076e-02
-7.165095155577369535e-02
2.802683502635398005e-01
5.268391093972193406e-01
4.785632145932573467e-01
2.996022064463784718e-01
1.916938778789196718e-01
1.846009052192007782e-01
1.924096879958905881e-01
1.638372824526465599e-01
1.144653534265785144e-01
5.379203965493815909e-02
-4.639185855074132864e-02
-1.943277744415564667e-01
-3.260710818704425917e-01
-3.519529890416556173e-01
-2.562651510045628744e-01
-1.191764894047126905e-01
-2.990725338069287823e-02
-7.161048035943102380e-03
-2.026598782334613352e-02
-5.551834460593496612e-02
-1.258300230631496930e-01
-2.237896813825472342e-01
-3.001206393967039698e-01
-3.041803396945397808e-01
-2.295729554937310235e-01
-1.126903673985233251e-01
-4.686625407191617049e-03
5.876719744167115123e-02
8.185522399249987868e-02
9.128049201558417758e-02
8.042676582885895098e-02
1.037824135759504891e-02
-1.031099965928204271e-01
-1.612581979645672514e-01
-9.400832471965682446e-02
4.314184199929095576e-02
1.328426891240248875e-01
1.366272206697510261e-01
1.248935759836580089e-01
1.529236541003215211e-01
1.626052284224336064e-01
6.151712260721338421e-02
-1.343408460410557281e-01
-2.942277053477566073e-01
-3.072915379146021198e-01
-1.922004097939016276e-01
-6.399764078460035144e-02
-1.400300866396411020e-02
-4.334566966345607120e-02
-9.978642165003741293e-02
-1.462741125194356451e-01
-1.899651876240168458e-01
-2.583021770492276437e-01
-3.423303010536529190e-01
-3.769005889844142532e-01
-3.121360207281432819e-01
-1.860148921161552393e-01
-7.617201941875495486e-02
4.711739330551432091e-04
7.699035319924918408e-02
1.260215256144660012e-01
2.984181021054391203e-02
-2.682536082873197558e-01
-5.654735193863492659e-01
-4.471476004588172959e-01
2.774063242407507346e-01
1.154149641499980117e+00
1.401098944118494005e+00
8.288682359251031695e-01
1.102396804478154302e-01
-7.568665657872751529e-02
2.110639029784588949e-01
4.641977865104386924e-01
4.039142602438212659e-01
1.645437460098611027e-01
1.661789034082638769e-02
5.848598484336177405e-02
1.591153478983610148e-01
1.534250172172829385e-01
4.017456474586236087e-02
-5.985627911286819924e-02
-9.705834924849994494e-02
-1.513549614328318915e-01
-2.929297788083976006e-01
-4.571969000002129024e-01
-5.027845320358833581e-01
-3.759707158588209697e-01
-1.747023134716079174e-01
-4.080265154537383865e-02
-2.808751854809253545e-02
-9.300099355684615654e-02
-1.733634664524489888e-01
-2.471478296835284971e-01
-3.269446495276065456e-01
-4.116746061405410773e-01
-4.570350600199151736e-01
-4.039766569038378830e-01
-2.330688517689010197e-01
-8.198528431287571694e-04
1.750564997806451362e-01
2.125081208608907424e-01
1.592498406814111256e-01
1.273045442144212225e-01
1.354477053211738669e-01
1.013735113043277847e-01
-1.173085037545633022e-02
-1.264581339440375984e-01
-1.431568200487973175e-01
-5.324398511191414524e-02
5.477542839148179243e-02
9.304518382985170477e-02
6.363138461955704372e-02
2.240201454767626679e-02
-3.210969037536964832e-02
-1.478962542653621537e-01
-2.786247536307150940e-01
-2.794899565190525070e-01
-1.078658459525848740e-01
9.104388667023904924e-02
1.667886143647916708e-01
1.222185965783842421e-01
3.948926569857703905e-02
-4.344475956140377709e-02
-1.341500599648968173e-01
-2.333394489254644599e-01
-3.079310338454780971e-01
-3.021346133928169420e-01
-1.907490824265771767e-01
-1.317099254634500338e-02
1.615797222759075835e-01
2.624083447344240927e-01
1.993963033512757277e-01
-7.310402470518717610e-02
-3.722993576432138685e-01
-2.657704010602685019e-01
4.830495887738202598e-01
1.394726241226410313e+00
1.603846454613807371e+00
9.307873585122576898e-01
1.819038134609145541e-01
1.156025208188889153e-01
5.745361439696724526e-01
8.979657574327173375e-01
7.663343783021806521e-01
3.722569760578305909e-01
3.237536100095443625e-02
-1.131523500205213750e-01
-1.007912167863544428e-01
-2.685635659908837403e-02
2.733407876509161283e-02
2.358544232653033215e-02
-2.787595618277092721e-02
-9.856457791617498354e-02
-1.800720352883949937e-01
-2.779342264239487159e-01
-3.775844704001339314e-01
-4.376725690376924716e-01
-4.243155691666697371e-01
-3.411133637805577878e-01
-2.155868127192748229e-01
-8.034356141458869061e-02
1.455146386063028291e-02
9.189557557536705279e-03
-1.113420997002215751e-01
-2.902437274558663516e-01
-4.458560749040038629e-01
-5.217227721811480423e-01
-4.816414779900358711e-01
-3.070193581396631899e-01
-4.782852901443410132e-02
1.574426903810047795e-01
1.871353708243678471e-01
7.184484852358016815e-02
-4.051277971008568346e-02
-7.546576060107888784e-02
-1.037705380426658386e-01
-1.883343775177697133e-01
-2.651710737516760341e-01
-2.395744155772290551e-01
-1.233412182518244249e-01
-1.970496623682957416e-02
-1.038508248764404181e-02
-8.865567804320262368e-02
-1.897489272620876688e-01
-2.661761077851055868e-01
-3.186578765250439593e-01
-3.575818446684735363e-01
-3.607103664753811278e-01
-2.899659016973244463e-01
-1.470049690600434000e-01
4.146400720803137402e-03
7.894209977146056378e-02
3.988977570292014108e-02
-7.423930367376438411e-02
-1.892710430623059104e-01
-2.607851285806218056e-01
-2.841730020964173820e-01
-2.581671008942286183e-01
-1.786461444385928909e-01
-6.507070870323572453e-02
3.059847492112543338e-02
3.623917525472984680e-02
-8.714383988963851635e-02
-2.180109104215896543e-01
-4.406171456006039572e-02
5.954640706266726147e-01
1.282815681640967709e+00
1.318028809665077405e+00
6.260160183172939208e-01
-5.420236381177376273e-02
-8.957134360735799494e-02
3.611030405549918165e-01
7.363664275466171860e-01
7.478720989049411072e-01
4.948971402452224666e-01
1.773206737559470669e-01
-9.086227525658729931e-02
-2.530595535028623555e-01
-2.655186011854874240e-01
-1.448938298388703083e-01
4.667960597965148395e-03
7.268062197606731112e-02
3.765086164324511764e-02
-3.035305065170804117e-02
-5.666643015382492182e-02
-5.771044753680772132e-02
-1.250424028602344917e-01
-2.899116504671022110e-01
-4.495379465216131631e-01
-4.646143756020614246e-01
-2.981607826521863180e-01
-4.660727692616539741e-02
1.375953996503569976e-01
1.615145207388369308e-01
5.175557353877487804e-02
-9.985464344419860139e-02
-2.217135010241007287e-01
-2.749450545999959639e-01
-2.371923327701720152e-01
-1.247371739839849281e-01
-1.395678679006556733e-03
8.338832041678094498e-02
1.530603859244530907e-01
2.501350644049999961e-01
3.312638858233968309e-01
2.870311219409672487e-01
8.529326398212758176e-02
-1.687201424416037154e-01
-3.333700186419831790e-01
-3.376499112335950015e-01
-1.983667971363131666e-01
-3.407384739220059577e-04
1.424454719451718754e-01
1.613312909284640717e-01
8.670922893986407476e-02
4.302250902693625229e-03
-5.210377734064276789e-02
-1.257312078101033848e-01
-2.323441968903518229e-01
-2.911573827159110173e-01
-2.157103704571519120e-01
-3.274676022366744543e-02
1.441995330246574891e-01
2.291394144682094014e-01
2.105421023514335577e-01
1.207840933832162317e-01
-3.489125479605637362e-03
-1.410185099045337676e-01
-2.630836506435645372e-01
-2.988826032215617934e-01
-1.860896582934177534e-01
1.209466241063284972e-02
1.139106149407877050e-01
5.206512132453303132e-02
7.068988045275106935e-02
4.714926930996407028e-01
1.066459230114061407e+00
1.196053454046839493e+00
5.714561789311195517e-01
-2.219894218380779605e-01
-4.164461411286830006e-01
4.841003802991701577e-02
6.258139962992369520e-01
8.545983206600519244e-01
7.033523555489670231e-01
4.131611274178721427e-01
1.898717502165484794e-01
4.713814368136698407e-02
-9.753641867321297121e-02
-2.421752268035828048e-01
-2.895573562035907433e-01
-1.970963315811402050e-01
-5.375474880378484921e-02
1.751306422832793475e-02
-1.394744824634852089e-02
-9.129167771499877015e-02
-1.654374043261362948e-01
-2.339747820668889866e-01
-3.025736818291965835e-01
-3.546372415607846329e-01
-3.505555051677216594e-01
-2.448043150235358623e-01
-4.265685994313487411e-02
1.580724022717408805e-01
2.374798271078210898e-01
1.729099480976518388e-01
4.412509500124304346e-02
-8.116145168438188007e-02
-2.053842872685426590e-01
-3.191136094872260576e-01
-3.427664911916621926e-01
-2.148135808626456811e-01
1.829112735218691582e-02
2.412560811350019374e-01
3.578065953731970894e-01
3.349895013801550969e-01
1.988865826306517870e-01
-2.463163523109337949e-03
-2.234160270548282423e-01
-3.959377861379154151e-01
-4.282099646034559504e-01
-2.994451649178428432e-01
-1.219402791460369451e-01
-2.766941701546175164e-02
-3.163989890531173493e-02
-6.539944405996434007e-02
-8.540379235485952292e-02
-1.079788570078724086e-01
-1.789217234668573075e-01
-3.074528626976201218e-01
-4.136321041901622753e-01
-3.897238734588834852e-01
-2.341400088044170713e-01
-6.762503874885367194e-02
2.426356545771491974e-03
-2.041103730152063478e-02
-7.187943477907063339e-02
-1.197522098525488632e-01
-1.838735817911245629e-01
-2.824517540621967471e-01
-3.718693072306858416e-01
-3.816928546909131303e-01
-3.352377413451446686e-01
-3.327602877925248670e-01
-3.045047304613229255e-01
7.266492312198051529e-02
9.116829674365762859e-01
1.635251193892985455e+00
1.452801027950779034e+00
4.302334745136581762e-01
-4.444799634205114369e-01
-4.365158215087679983e-01
1.839676588780848054e-01
6.911219342915969621e-01
7.458868187456635379e-01
5.190729068461029660e-01
2.903655930654361894e-01
1.561813069217427852e-01
4.422285418711191518e-02
-1.353468959836949814e-01
-3.637064189766468503e-01
-5.025779364780457170e-01
-4.335480976397131370e-01
-2.076739949324744317e-01
-1.977111147444012007e-03
6.610336599325229712e-02
2.043487172232409665e-02
-6.045695284725600277e-02
-1.335491947990589956e-01
-1.842419725485955340e-01
-1.951472575164162893e-01
-1.604192880708770474e-01
-1.029199215027224168e-01
-4.999066624530151826e-02
-1.130900980916075410e-02
4.422432035471450008e-03
-1.798905003895980362e-02
-7.092328426987248857e-02
-1.223367536007265582e-01
-1.620964057117408319e-01
-2.097664482218260518e-01
-2.560059749942677487e-01
-2.326225066207311676e-01
-7.850706459588670250e-02
1.644409120987727901e-01
3.558709811447530180e-01
3.823663145049920886e-01
2.577001069450729487e-01
8.128814505361439680e-02
-7.463808882748418361e-02
-2.079567014885078391e-01
-3.279551043672259691e-01
-3.913183876643248627e-01
-3.332755922981723851e-01
-1.612620551996520324e-01
2.314651958908586771e-02
1.166837296198451196e-01
1.078777638943641259e-01
5.914220323854242622e-02
1.146620946543759276e-02
-5.464575688490851818e-02
-1.558326554600408531e-01
-2.472008867093015982e-01
-2.577593437662857867e-01
-1.671912550073306469e-01
-3.048060318478263558e-02
6.901983158565953846e-02
8.502996930997062941e-02
2.251707255795157292e-02
-9.486704072252631625e-02
-2.336365418013261475e-01
-3.419635544422570672e-01
-3.869624462969192824e-01
-3.785981065457443839e-01
-2.766834191178537128e-01
8.289058824557124505e-02
7.901275368216967854e-01
1.533361959283366271e+00
1.697154820567629896e+00
1.032807941036905319e+00
7.756232268833765375e-02
-4.038392648424186104e-01
-2.406763733918988180e-01
1.652224940691384147e-01
4.497742302581090312e-01
5.610596945574497507e-01
5.738715347057939953e-01
5.091971289484663599e-01
3.608472131653244208e-01
1.684383431452683433e-01
-1.096633996330718258e-02
-1.612148377580085445e-01
-2.797097346727825395e-01
-3.241788001676675357e-01
-2.493057021115520078e-01
-8.847367864406838200e-02
4.893643042368161361e-02
7.429878540139875365e-02
-3.203768948815634635e-03
-1.034734021630782375e-01
-1.719025373328143536e-01
-2.278154824259248645e-01
-3.049422734466217255e-01
-3.762319043171584720e-01
-3.680798852732242721e-01
-2.311132342722534150e-01
6.439342154531110807e-03
2.237977734449999312e-01
2.726343384306168516e-01
1.239661531087066365e-01
-8.334678990833895018e-02
-2.054264959835912230e-01
-2.348571258756549929e-01
-2.170400919773773085e-01
-1.368478230521800454e-01
1.919018126583383471e-02
1.748976960421904647e-01
2.239624114401301547e-01
1.374056111851392759e-01
-2.181558889140444019e-02
-1.608092858994572549e-01
-2.297173357799007498e-01
-2.551886907807940919e-01
-2.850599364476136266e-01
-2.964411571688442826e-01
-2.190362491260779698e-01
-6.743556809099757188e-02
3.538820749789779729e-02
1.021587833917927610e-02
-8.115438137837815979e-02
-1.420104137811014633e-01
-1.741629727051092202e-01
-2.396248819918660178e-01
-3.340705995773892711e-01
-3.752362126806448872e-01
-3.146982316669050816e-01
-2.005898608771062852e-01
-1.106190922243989877e-01
-6.813765286062149762e-02
-4.958145759692960536e-02
-3.844997112119352689e-02
-4.632900194904485125e-02
-1.098266486187294694e-01
-2.750506779688351999e-01
-5.126601665181710343e-01
-5.980634317900969110e-01
-2.057205004589394981e-01
6.599549505287027884e-01
1.391263144162609100e+00
1.303931340290327201e+00
4.968139287738643217e-01
-2.161587974604828877e-01
-2.891347479837722556e-01
6.025566946649715816e-02
3.486120719848735949e-01
3.937959368130811710e-01
3.106134478941111610e-01
2.310727141676083285e-01
1.715625973954487127e-01
9.759214719595693532e-02
1.130799951557686506e-02
-6.600250853854566779e-02
-1.534283580276137593e-01
-2.814565725831643106e-01
-4.099997095531773827e-01
-4.451439720225274232e-01
-3.526391521530619633e-01
-2.052741277635043438e-01
-1.038642056204214237e-01
-8.416614492915780454e-02
-1.127320078163589756e-01
-1.543007792771534104e-01
-2.201497788570612180e-01
-3.322455455723066775e-01
-4.489503962149277161e-01
-4.742629794903102658e-01
-3.662780345497497758e-01
-1.972488794724984174e-01
-7.469577986518825818e-02
-3.655064616923389686e-02
-5.044629563571294273e-02
-7.478784644883806898e-02
-8.497820325868957192e-02
-7.206939956677255177e-02
-4.576106406738067456e-02
-1.603807877825755290e-02
3.625292614738481051e-02
1.320216819352560411e-01
2.317858019436025430e-01
2.551397019440250213e-01
1.778065353570698615e-01
6.128055586227142137e-02
-2.629056007296565883e-02
-7.971912554655201377e-02
-1.300058624966873855e-01
-1.719800893124953101e-01
-1.571072416876443667e-01
-6.445354204099286444e-02
5.946438139917250426e-02
1.413377686028988445e-01
1.346299005086979694e-01
5.055117060116355587e-02
-4.593317548345787760e-02
-1.070767856874500767e-01
-1.523220143241412472e-01
-1.972073713778581261e-01
-1.891735918261920057e-01
-7.999124810345352443e-02
8.804541933532258891e-02
2.152013350880404574e-01
2.362108446406033513e-01
1.693261648945314224e-01
9.119364473232985380e-02
4.990052631473507888e-02
-7.998739648012414064e-03
-1.763320068655774842e-01
-3.820560120913767399e-01
-2.709206389933925263e-01
4.750571991591113763e-01
1.543671353497701793e+00
2.012940893817086518e+00
1.378622658976770277e+00
3.050521627499538369e-01
-1.539908352201113384e-01
1.960599971822323262e-01
7.163537188049693416e-01
8.887450056355215011e-01
7.500002183408799317e-01
5.630545264233245417e-01
4.644500874581422023e-01
4.479267532526979845e-01
4.663841433719659313e-01
4.594686848110404731e-01
3.620379544046794518e-01
1.539296914844375808e-01
-9.766986202140795492e-02
-2.658983374027233948e-01
-2.635713641716711519e-01
-1.210936348323760486e-01
5.029774399708816096e-02
1.542825613881317615e-01
1.520988851939404363e-01
4.796456564098673658e-02
-1.292006240969042485e-01
-3.231174982532543094e-01
-4.513575590741631949e-01
-4.550730549567864047e-01
-3.512973879395747123e-01
-2.085053980926611927e-01
-9.089287920102380458e-02
-3.250853510004889091e-02
-2.054311228131698239e-02
-7.693820399894735901e-03
2.427590807622050789e-02
4.219335747193929398e-02
2.796940706222871692e-02
1.660891065920502147e-02
3.755469620030867095e-02
6.641826241063590597e-02
6.767116697982417106e-02
4.869917049142603177e-02
3.447494619707482111e-02
1.310304663044415535e-02
-4.998100764760225051e-02
-1.588946800774289070e-01
-2.857189992606389839e-01
-3.952857796651643163e-01
-4.395217544695509404e-01
-3.728670314102448535e-01
-2.144848106109616404e-01
-5.923420072121857172e-02
4.662413694432366446e-03
-3.430923217661813185e-02
-1.309745215483902048e-01
-2.420771530166916374e-01
-3.505827028026230474e-01
-4.427225203724616809e-01
-4.768435026785015629e-01
-4.052123187977565988e-01
-2.453509528295149678e-01
-9.715855097071524060e-02
-4.862810368904259273e-02
-8.133177998853517721e-02
-1.176545691705110364e-01
-1.603615702293609002e-01
-3.053641381508082620e-01
-5.277040438380746767e-01
-5.081472718130903843e-01
8.061778201258630594e-02
9.882409127735147791e-01
1.411664770849599293e+00
9.281270939813849319e-01
9.072383005517650756e-02
-2.745335761894335258e-01
-3.140879974331051150e-02
3.401917642788626073e-01
4.436402644963500230e-01
2.767835846612659023e-01
4.817204545787277803e-02
-7.097728346150644629e-02
-4.680457628096949818e-02
4.465842322887094568e-02
1.029996582814686618e-01
7.092665833584324564e-02
-5.351177796161424305e-02
-2.325042198060189025e-01
-4.021661693433696838e-01
-4.935026963599485339e-01
-4.718754131777019856e-01
-3.708675461004969365e-01
-2.757020284723526449e-01
-2.506839801681575164e-01
-2.790832491625928613e-01
-2.883931573814235150e-01
-2.419371650946238184e-01
-1.942886217425660034e-01
-2.312873965060437409e-01
-3.530727111331804502e-01
-4.551080298055322215e-01
-4.397501210645424208e-01
-3.105082972656856288e-01
-1.459968095855797565e-01
-1.911908296777061270e-02
4.684243212725999750e-02
7.637926616682653991e-02
1.029659140082416768e-01
1.067541247216021033e-01
1.907663581183954155e-02
-1.641637699653198390e-01
-3.236426600957108546e-01
-3.367303216591933657e-01
-2.102888816545658568e-01
-4.764492896966305430e-02
5.851442520028040523e-02
6.542512901131307401e-02
-2.574462998999641622e-02
-1.768866350488585981e-01
-3.327842816200045628e-01
-4.322045324267594912e-01
-4.145384579413849968e-01
-2.750997578703278656e-01
-1.073648892438184704e-01
-2.052614192263294349e-02
-1.925164268994725494e-02
-2.512621006371590360e-02
-4.227133850689183264e-03
-8.974516936106062548e-03
-8.877943138099729514e-02
-2.070086325055364440e-01
-2.695035382944295232e-01
-2.212325609861680864e-01
-9.436936799448020219e-02
3.826397917311763486e-02
1.229251522668507873e-01
1.153202305205072997e-01
-2.857583106911630241e-02
-2.462291403416923818e-01
-2.675222052224905944e-01
1.776097749761403888e-01
9.094522636872010013e-01
1.282951882406871968e+00
9.229274443560452346e-01
2.632338966638210209e-01
1.923696579445466348e-03
2.656665742507179351e-01
6.402968276348619536e-01
7.601896142255074595e-01
5.801689946558878930e-01
2.551148352997250068e-01
-2.134147480278817885e-02
-1.173536184507493474e-01
-3.225177190745816963e-02
1.175331352523118905e-01
2.048391281308330480e-01
1.832762395144391654e-01
9.426716399703027882e-02
8.274296409017282278e-03
-5.917570224102151888e-02
-1.596734490576868504e-01
-2.980304000067712233e-01
-3.672267204629013904e-01
-2.828093733698086032e-01
-1.184955736268818588e-01
-1.664133177110930367e-02
-1.775081347720579988e-02
-5.482853197937532369e-02
-7.135734899150236732e-02
-7.835847466103108838e-02
-1.142820321384277193e-01
-1.839004253704082936e-01
-2.319302864919229878e-01
-1.877678757018816647e-01
-5.304719196511534229e-02
9.015200941943547763e-02
1.716636592635832903e-01
1.837508497600535140e-01
1.507013247690341395e-01
1.123203585648501618e-01
1.042968349897257230e-01
9.793359036830706632e-02
1.929644436084888490e-02
-1.217560849870576167e-01
-1.971512174481187540e-01
-1.134104561670250810e-01
5.846176223792513837e-02
1.609467659626188929e-01
1.224664579137679787e-01
1.938404359469569904e-03
-1.184546486261371795e-01
-2.197081276590152066e-01
-3.047947384988402009e-01
-3.319067969433531218e-01
-2.528695815006656855e-01
-9.542029258238092504e-02
5.487915366485522639e-02
1.447647230014604269e-01
1.707710693625633380e-01
1.217483994031053202e-01
-2.634782936681939400e-02
-2.398814892382230002e-01
-4.005938501667883345e-01
-3.968467688446282171e-01
-2.361930804827607200e-01
-2.615792848335021792e-02
1.470602914328219823e-01
2.507736588625193996e-01
2.265356747916953961e-01
2.166671362442392640e-02
-2.102883314068316467e-01
-9.914133151756933382e-02
4.924234362231595385e-01
1.081633164477224129e+00
1.026412832564931321e+00
4.003106045810101987e-01
-5.049144183289226706e-02
1.286659755373019132e-01
6.308791284137614808e-01
8.998728390504462382e-01
7.182661783776729258e-01
2.579049327469041808e-01
-1.668817305842809628e-01
-3.182465654792050458e-01
-1.598330469695911082e-01
1.340241541620368626e-01
3.249406906504103132e-01
3.177552152453840262e-01
2.029647521019013745e-01
9.234828217781648751e-02
-8.400817259392880099e-03
-1.422611102760090174e-01
-2.910280372741921306e-01
-3.691044974672836321e-01
-3.138408294633718287e-01
-1.557845105574444666e-01
5.632322686213026008e-03
8.064193423039618669e-02
5.069453126726743142e-02
-2.614593737216423797e-02
-8.402664148885383155e-02
-1.325251684613784620e-01
-2.278497726871089590e-01
-3.505970680774457282e-01
-3.842379176044852795e-01
-2.532196624650244754e-01
-2.539720934659175228e-02
1.684049823604926721e-01
2.708271535398980578e-01
2.983976464529899397e-01
2.524604665094628553e-01
1.169008084223671223e-01
-7.140034930038488548e-02
-2.260648497045582295e-01
-2.850457052353012055e-01
-2.461733505351336171e-01
-1.499637335844216379e-01
-5.106523094385478911e-02
1.139898022871634053e-02
3.341915447661374106e-02
3.292428888294116757e-02
9.280748943539179202e-03
-6.875028749959923025e-02
-2.027661241236173861e-01
-3.056794383767078016e-01
-2.620712472714212260e-01
-6.564864105509878034e-02
1.455475422414468367e-01
2.185700095525694442e-01
1.317345406798222096e-01
-8.383001462489474837e-03
-9.938862817851412679e-02
-1.374667607772485922e-01
-1.781706319282461426e-01
-2.373840686220910490e-01
-2.515194370038931759e-01
-1.492417483622472674e-01
1.881477006132802401e-02
6.452607929014506083e-02
-1.189241180558540389e-01
-2.952380724818783886e-01
-9.813920610730142088e-03
8.036972036138284592e-01
1.465552403360510958e+00
1.227945710274348290e+00
3.029391522529363834e-01
-3.135119426675327392e-01
-8.099677914826754199e-02
5.573230263467752188e-01
9.069058365402868915e-01
7.783593635202068484e-01
4.303845831854487547e-01
1.279130505816843955e-01
-6.092905339260350911e-02
-1.690958974699663109e-01
-2.059697915149883984e-01
-1.660371265211568192e-01
-9.490707167472087202e-02
-6.604426064391616391e-02
-8.448430987325294961e-02
-8.125122298097171847e-02
-3.572440096010641442e-02
-3.332184340503142189e-02
-1.433930111422763998e-01
-3.047071255305720539e-01
-3.958518825032279476e-01
-3.722626092769542039e-01
-2.902095713619312622e-01
-2.208707373418555275e-01
-1.792118660541429376e-01
-1.530273154392552126e-01
-1.604494304929737769e-01
-2.253817944727024847e-01
-3.225720851828399183e-01
-3.898817627004969033e-01
-3.770523654221900611e-01
-2.700464195190301342e-01
-9.228059593013125672e-02
1.006046957760202698e-01
2.304764275192120182e-01
2.291257272220758590e-01
9.629389427380109778e-02
-8.462019238190068848e-02
-2.229737382591536199e-01
-2.967801378594379091e-01
-3.218087215171197002e-01
-2.876760259044141010e-01
-1.822926862672483439e-01
-5.177317927163183064e-02
2.135843547911989160e-02
-1.294696277572539300e-03
-8.720556933766597518e-02
-1.866415714716589958e-01
-2.769044202296800372e-01
-3.461004254758076604e-01
-3.729758184914710450e-01
-3.382779869446042587e-01
-2.447860978369777729e-01
-1.289810709118329179e-01
-4.316018772608873344e-02
-9.080985714851722707e-03
7.266443864149228771e-04
2.185002226038169557e-02
3.832020418578226117e-02
-1.374679480645918037e-02
-1.466137499532104427e-01
-2.561901836683863065e-01
-2.430008799865966129e-01
-1.765284010707706686e-01
-2.000437497312435586e-01
-2.304472301982725124e-01
6.482898126554978435e-02
7.787089854810362866e-01
1.370999032536271089e+00
1.162777351718001562e+00
2.608811782590181316e-01
-4.632691039110459208e-01
-4.124092377299555245e-01
1.518771628766263371e-01
6.197375619396342517e-01
7.105048098164795656e-01
5.363658644366933181e-01
2.972526239467985221e-01
9.793505841849078908e-02
-3.996084949516422180e-02
-1.316663506926331328e-01
-1.951016682833994764e-01
-2.143652486460063400e-01
-1.612371522974580529e-01
-6.330044627015447845e-02
5.994437363849957137e-03
8.776125177646426287e-03
-3.776874430374237146e-02
-1.086681844056981289e-01
-1.915907387457540245e-01
-2.704952038544083393e-01
-3.135122967834918506e-01
-2.839986184749254128e-01
-1.791462516350420253e-01
-5.470604404894777173e-02
1.624123386447035369e-02
7.312226252879687471e-03
-5.105794472586742960e-02
-1.105452920508371989e-01
-1.472165482945611281e-01
-1.714325156415027751e-01
-1.930642949563034505e-01
-1.861040540702004198e-01
-1.074808154564947382e-01
4.377220814230246143e-02
1.936021564021934427e-01
2.366183549762368998e-01
1.320101846084548447e-01
-4.681833193203125548e-02
-1.753169613925969206e-01
-1.938204703289173048e-01
-1.473625072297262695e-01
-1.081854639598962414e-01
-9.475703534558913010e-02
-8.770673864115133278e-02
-7.851436353404216140e-02
-6.589244308011704687e-02
-3.921992451695893028e-02
-1.190730030053980225e-03
1.961938426964603827e-02
5.333844446167248024e-03
-3.777188035191533788e-02
-1.062750012605594707e-01
-1.773996501086496091e-01
-1.816499105693455129e-01
-7.909914117158373115e-02
6.326752995816417591e-02
1.287879908642245719e-01
6.278585781554767153e-02
-8.875741425572433729e-02
-2.245079476225028958e-01
-2.689288205673880383e-01
-2.268724440976537249e-01
-1.748395706209220357e-01
-1.955975603809829710e-01
-2.531544003011026445e-01
-1.118504191558332694e-01
4.358870703951405745e-01
1.131326225989100154e+00
1.317282451263673160e+00
7.313604753786239199e-01
-5.437217151673892634e-02
-3.156098010803502496e-01
8.814205336652572442e-03
4.612625397407992822e-01
6.883157039172199676e-01
6.606943152370533534e-01
5.046129608625051777e-01
3.328271542560303775e-01
1.921289009433475581e-01
8.078607739356348516e-02
-1.199717338317886697e-02
-8.228751371191550534e-02
-1.081001011905934894e-01
-6.349539082526874101e-02
4.454907838716558321e-02
1.608779576166146641e-01
2.240171090885877125e-01
1.996475570177031755e-01
7.832168073410879228e-02
-1.010690650334985924e-01
-2.485781347535714891e-01
-3.075710246746179988e-01
-3.004068672681870500e-01
-2.559734781099376466e-01
-1.643990020152643339e-01
-3.233700920788906696e-02
8.533011789670638669e-02
1.351808956058676847e-01
9.883287772474806665e-02
-2.349493254647936832e-02
-1.961498386650668280e-01
-3.222597971432586417e-01
-3.164860356377455775e-01
-1.951737844754402595e-01
-4.024731774471259488e-02
8.729156190299783291e-02
1.595817328533610246e-01
1.617830798674325110e-01
1.065870659465734949e-01
3.899166384258477558e-02
-1.516944138184924025e-02
-8.542419607979327700e-02
-1.934650315863486736e-01
-2.734873030937072236e-01
-2.302225384148281762e-01
-7.734537877184512189e-02
5.873200905008184314e-02
8.209535639170087440e-02
1.263006824846151822e-02
-7.160318190729104970e-02
-1.262794815344078503e-01
-1.692158186709857570e-01
-2.339710345348252341e-01
-2.988826849627829740e-01
-2.904812418721778311e-01
-1.792125413837831749e-01
-3.272517571390604063e-02
5.133648622440716014e-02
3.599211695698562030e-02
-3.835609766519976205e-02
-1.089497693468546441e-01
-1.545399051160880055e-01
-2.009403418600202440e-01
-2.855733744635868265e-01
-4.110414176284611920e-01
-4.470748773496900363e-01
-1.121046658809983498e-01
6.876604641923989014e-01
1.443231384793423722e+00
1.396291618856045913e+00
5.351416256261790627e-01
-2.507704773067638282e-01
-2.781544092368214982e-01
1.922504790133520158e-01
5.358395674316991375e-01
5.449035921960967421e-01
4.019588381097123908e-01
2.713304232555886486e-01
1.759160763067944555e-01
1.134304013767922226e-01
8.632552493361546342e-02
3.888255627969785383e-02
-9.433055781441507248e-02
-2.647508363351291361e-01
-3.360025177595499790e-01
-2.431922832006045421e-01
-6.361987060364668323e-02
6.591824017341407771e-02
6.717174127143052398e-02
-3.617509838618179069e-02
-1.673598396866623483e-01
-2.689694469582343817e-01
-3.239380188038571973e-01
-3.333298330239967688e-01
-3.012235614435746500e-01
-2.368381016822564133e-01
-1.566636005604813420e-01
-8.393192947331702680e-02
-4.900994707338061224e-02
-7.189215731434954459e-02
-1.273296113035627675e-01
-1.592609146554498645e-01
-1.528104661696974842e-01
-1.422132212424725151e-01
-1.319980864507861729e-01
-8.415067381469022723e-02
-1.611486655480201015e-03
4.885950948897044982e-02
1.998287486785265202e-02
-5.954685919756948220e-02
-1.255076478265780004e-01
-1.471036957544351320e-01
-1.533961096003576274e-01
-1.955007701007785981e-01
-2.731657586715389163e-01
-3.136276248890061957e-01
-2.453213745587869976e-01
-8.311353681855943032e-02
7.455813242659330153e-02
1.277852726947500961e-01
5.192559840051078762e-02
-9.443295521732485154e-02
-2.288964513664864531e-01
-3.118189227768458083e-01
-3.542189067878477315e-01
-3.695849824019684648e-01
-3.404303070859227565e-01
-2.469352411026665972e-01
-1.197065945786658647e-01
-4.408522126021946486e-02
-7.867980404656128857e-02
-1.474331434732780166e-01
-9.534923396117109262e-02
5.085043474441122702e-02
2.541912009787149901e-02
-2.496979498941461761e-01
-3.374427568166618041e-01
2.493448150017081588e-01
1.258654452141127589e+00
1.766964310675992689e+00
1.253835905789100647e+00
2.923896993767384211e-01
-1.662580881906766117e-01
9.768888766490446685e-02
5.491235767179220018e-01
7.023852160725906346e-01
5.604724277692114676e-01
3.777429640635027175e-01
2.935486818684537869e-01
2.661874764838208507e-01
2.276713262301252316e-01
1.715345249589018961e-01
9.312749150733035108e-02
-5.328854667512586407e-02
-2.681021080471523432e-01
-4.330271158702576617e-01
-4.200336694328415388e-01
-2.469065074038232499e-01
-4.847719562460631182e-02
7.225220374302775139e-02
1.068869068508724735e-01
8.879982971210517717e-02
3.309220167741535462e-02
-5.918980335207327942e-02
-1.655918874507545380e-01
-2.400173311650397046e-01
-2.428219728857966553e-01
-1.708037352057656943e-01
-6.344731217101633181e-02
3.017038398691835460e-02
8.429475383822092327e-02
8.639627657814834272e-02
3.170022609641480471e-02
-4.372653546323419099e-02
-6.988379322070790989e-02
-2.845521827416840413e-02
1.140210524976239398e-02
-5.107854588208356368e-03
-2.854974395252142180e-02
2.084025628471417382e-02
1.167796048728917402e-01
1.289203749335288418e-01
-1.470026629958266426e-02
-2.206412072390388224e-01
-3.440078737315863111e-01
-3.464698716362765718e-01
-2.767721827552775959e-01
-1.813459026220845538e-01
-9.571639766128295368e-02
-4.818123308403382543e-02
-3.046665840926084806e-02
-9.167443669943174667e-03
1.890469932739314435e-02
9.969605472519489989e-03
-7.794092959789333808e-02
-2.235209093002561709e-01
-3.323549575157319635e-01
-3.097937362690265095e-01
-1.640373751920905232e-01
-1.244780600538476778e-02
4.241461282582484338e-02
1.872952296411241335e-02
3.458856218157268028e-03
2.958473174557959759e-03
-1.029707634970708219e-01
-3.829081617841399443e-01
-6.156058005477231809e-01
-3.780811861148072328e-01
4.305233720264077801e-01
1.229896761400669059e+00
1.271298146513461846e+00
5.589656288806648110e-01
-1.240294187560240513e-01
-1.613256723341076893e-01
3.138357292961695411e-01
7.617512466316153086e-01
8.055842550238737632e-01
4.793717850540750169e-01
1.078712504522309212e-01
-4.783036215998352075e-02
-1.160539307680636192e-02
4.035396353247235057e-02
5.308440045594709639e-03
-1.003125924528430191e-01
-2.157104988956428937e-01
-2.959729345840933501e-01
-3.334970621488186904e-01
-3.430548244122519908e-01
-3.252514832033764347e-01
-2.653198522812593163e-01
-1.732107159938280627e-01
-9.166406005591391792e-02
-5.405780713236674195e-02
-6.046269505767085106e-02
-1.004066103233554053e-01
-1.752335529081351095e-01
-2.824007639233666045e-01
-3.820799899773152375e-01
-4.036004579211725507e-01
-3.144124748696840999e-01
-1.709127282992700669e-01
-5.996888913899854623e-02
-1.339624062993887647e-03
4.268184914546527264e-02
7.726735557267490340e-02
6.050105549213483092e-02
-1.999103708344121197e-02
-1.094526855861069903e-01
-1.389171241592008776e-01
-9.261234732595334529e-02
-1.687659708665117594e-02
2.518150903414907021e-02
3.238336586962226732e-03
-6.150220710578686856e-02
-1.164439894234120809e-01
-1.324080049119286395e-01
-1.474945720693980056e-01
-2.240200724962186085e-01
-3.424072574468326469e-01
-3.848741854415554942e-01
-2.653947950518941723e-01
-4.277899152830719198e-02
1.308456734538959443e-01
1.552650762679758378e-01
5.797668232612722405e-02
-6.332627670153037625e-02
-1.528822190540049253e-01
-2.259642273225828391e-01
-2.908154041152414826e-01
-2.956531548358796169e-01
-1.907884449211252886e-01
-1.951694625892637022e-02
1.030998971418944227e-01
1.154820450960948458e-01
6.444632128955357642e-02
-2.571064046071731141e-03
-1.385439352948330261e-01
-3.705482266229534472e-01
-4.672245405388466555e-01
-6.488211076124437982e-02
7.615835269087232184e-01
1.301781465843634411e+00
1.003139170711258021e+00
2.632745330111806448e-01
-6.639055729528837990e-02
2.400603515830182777e-01
6.914100501337188120e-01
8.355163036886288364e-01
6.485408085997413918e-01
3.272723703515909577e-01
6.264447754286095460e-02
-2.347698872680710480e-02
6.291700646557359111e-02
1.920257788140211364e-01
2.454092049380999230e-01
2.025434416815299066e-01
8.551400000931123901e-02
-8.983863747462873806e-02
-2.732959071475014046e-01
-3.669163269607145783e-01
-3.175975114952598322e-01
-1.861779426697213469e-01
-6.977973275744038528e-02
7.707251464360503207e-03
7.250835671881977751e-02
1.086872645353692823e-01
6.384910172429880681e-02
-6.309518493763371927e-02
-1.986806452601931894e-01
-2.606450728163234309e-01
-2.170503906327162780e-01
-9.579651755317400430e-02
3.339023137529667506e-02
1.014957844153138722e-01
1.012998221039383417e-01
1.002821746364303823e-01
1.568978040076362546e-01
2.317738994265296781e-01
2.251610001174918219e-01
1.017954341227230303e-01
-5.734412678604658420e-02
-1.361455696467161192e-01
-9.651181968659416910e-02
-1.315124562163094701e-03
5.570832046924951986e-02
2.963532341440033163e-02
-4.953917209924091347e-02
-1.247952838854771013e-01
-1.864394246795811061e-01
-2.672023431408532268e-01
-3.518241611249948164e-01
-3.495779724553944035e-01
-2.057365955928717183e-01
-3.267730511436847674e-03
1.027858579488388768e-01
4.472398454697267683e-02
-1.002182284655018796e-01
-2.135553277268641970e-01
-2.586409765797012539e-01
-2.728417912326026040e-01
-2.787483375152163267e-01
-2.610188463419259031e-01
-2.078915945968023427e-01
-1.248335591808528988e-01
-3.033785339528846312e-02
1.833389917285601495e-02
-6.154689467623111060e-02
-2.406082687846313739e-01
-2.509097858398907643e-01
2.178144442001278824e-01
1.019084362643767783e+00
1.445282913958331417e+00
1.003244215265588046e+00
1.512609667162511107e-01
-2.063157838736410232e-01
1.734078796676792322e-01
7.240473288922575357e-01
8.800913694989064284e-01
6.130942506357099919e-01
2.244990800234294703e-01
-5.254169913510298162e-02
-1.645966237563838419e-01
-1.438863677172431410e-01
-4.628140830901678049e-02
5.155059719968160120e-02
7.940388289054949034e-02
2.371989591825534802e-02
-7.173335581956852280e-02
-1.660302893348929998e-01
-2.596289057268683642e-01
-3.567121935092154583e-01
-4.145626586435691152e-01
-3.735707207881926450e-01
-2.392199910008028507e-01
-9.209854574911791047e-02
-3.923745087003199100e-03
2.380590444880073195e-02
2.642699647152317588e-02
1.159310988895023882e-02
-4.688896939294420058e-02
-1.566894488652895434e-01
-2.642849536797120535e-01
-2.817050134715352039e-01
-1.737399424180171847e-01
-6.533560260854373580e-03
1.161216407078427271e-01
1.519569368590039105e-01
1.338158354547704376e-01
1.035683212630439665e-01
6.123938947540190358e-02
-2.228842860505843987e-02
-1.507651680350173551e-01
-2.638122737224090075e-01
-2.766991082274499747e-01
-1.758007163650041893e-01
-4.329582658837433096e-02
3.309111422257755841e-02
3.240956646298654570e-02
-3.289796833086672256e-02
-1.545953261953542379e-01
-2.987416250940861939e-01
-3.915592224170194591e-01
-3.706267946318222983e-01
-2.429608372968981578e-01
-9.120370037931042895e-02
-9.290976171016434790e-03
-1.264236884102796360e-02
-3.103101217032118789e-02
-1.225985860134020181e-02
1.962348120274180416e-03
-5.797318205560884202e-02
-1.816450543646146165e-01
-2.789446853501562074e-01
-2.647961292242264064e-01
-1.281697344795587890e-01
3.975874326733517400e-02
8.232844234371766712e-02
-6.012197628296648416e-02
-1.679583221309605690e-01
1.223899413334827990e-01
7.998537975329778060e-01
1.247269118723602466e+00
9.086201038889897275e-01
1.007501285866531926e-01
-3.176382995845679069e-01
-2.074932210663164162e-02
5.211745876046186554e-01
7.665601703607820561e-01
6.456649112947873137e-01
3.968833510599334424e-01
1.906626943364562732e-01
2.746210941378388753e-02
-1.223077925391794774e-01
-2.189949721756264123e-01
-2.119368091545703603e-01
-1.269867543577347935e-01
-5.479934210711670528e-02
-6.371088468033464514e-02
-1.426618860607994921e-01
-2.385154083906932398e-01
-3.261660190445369589e-01
-3.994664572692974147e-01
-4.190600121656428700e-01
-3.491807670147941134e-01
-2.345548442321093441e-01
-1.538265843944851274e-01
-1.096871535933290204e-01
-4.871839333934877697e-02
