2.611089732412310016e-01
5.610717380187971864e-02
-2.167695373637422984e-01
-1.737425786302960184e-01
1.569188349922712167e-01
4.444147089257706740e-01
4.974898118178167072e-01
3.852401497328631352e-01
2.480815821316841863e-01
1.494822417589077579e-01
8.544022524253339079e-02
4.514924507856338254e-02
2.842054534973996460e-02
3.383246220567780183e-02
5.691825363503673352e-02
8.891568884490760882e-02
1.065755044976494231e-01
8.298226086076017360e-02
2.359827886657025336e-02
-2.802011349219857977e-02
-3.611615737967485695e-02
-8.061061353721964487e-03
2.478603484418430425e-02
4.522367712840563020e-02
6.085578611307270597e-02
8.304487453782585793e-02
1.036077822135626214e-01
9.909496795534306068e-02
5.695587409761489889e-02
-1.639020806113245746e-03
-2.180369470985220673e-02
3.875557737049863116e-02
1.428070261885410752e-01
1.912056237181369855e-01
1.412226366490327012e-01
6.116584759735238519e-02
3.259249186880577853e-02
5.145989666777907312e-02
5.987783388260162210e-02
2.679461392681014437e-02
-3.631917977816866150e-02
-1.043292301920403092e-01
-1.472174933082946446e-01
-1.343844894493231579e-01
-6.937574031221425963e-02
-3.524657736755639620e-03
1.566675426091555801e-02
-7.455709454495236185e-03
-3.548158077310473862e-02
-4.455175198160842703e-02
-4.092445849660392154e-02
-4.029486814628069347e-02
-4.399999026119065515e-02
-4.815496593043081669e-02
-6.956175859218728663e-02
-1.270528659656449955e-01
-1.681068712339822135e-01
-6.845039765556074074e-02
1.740922909994583323e-01
3.005220137516610990e-01
9.235202645686076128e-02
-2.371851747657059972e-01
-2.811081819510456992e-01
7.991258933768327632e-03
3.194654669822755144e-01
4.202936066603030207e-01
3.384979623096924239e-01
2.146722637653218357e-01
1.358991529119689123e-01
9.574362951033529856e-02
5.463808933477731083e-02
5.546874774907252330e-03
-3.211014692029755258e-02
-5.152162060668594168e-02
-6.087637466052674140e-02
-6.476426320639246115e-02
-6.114577083205399721e-02
-4.751161174517114227e-02
-3.249233296129336312e-02
-4.626551896274290476e-02
-1.148215458692884161e-01
-2.089593710688930073e-01
-2.527517775728344018e-01
-2.074409661889256851e-01
-1.104136205639449642e-01
-1.728974478668853648e-02
3.959545505377495833e-02
3.131849924080973291e-02
-5.264353276380479008e-02
-1.498907941053009285e-01
-1.585184549225632511e-01
-6.473764424428338216e-02
2.381187532013820385e-02
1.567070922687534978e-02
-5.430009783658852618e-02
-9.178870947198489172e-02
-5.882164480031940035e-02
1.410745104592418461e-02
7.987946212093093024e-02
1.024933959843990772e-01
6.673797448056052739e-02
-8.175588326194502958e-03
-7.665043624315830140e-02
-1.026598337586478171e-01
-8.260717557205227157e-02
-3.533829921852920525e-02
1.292043091989886205e-02
3.469726631615598772e-02
1.545048179512156609e-02
-3.009649530345607713e-02
-6.338296323201915439e-02
-5.035119298652334513e-02
-9.398281355643819598e-05
1.975422256525267983e-02
-5.739169943801974288e-02
-1.870553069492061071e-01
-1.971125204321347579e-01
2.421961334946363953e-02
3.123690366699098386e-01
3.615033374463439420e-01
1.370270074822318995e-01
-5.970452753762164194e-02
-2.645328415298713997e-03
2.108377174962149381e-01
3.607564444174727325e-01
3.582338263629940567e-01
2.644389180891008606e-01
1.729563325081085179e-01
1.193619225251593141e-01
8.128863578434589177e-02
3.442009510378964826e-02
-1.927204616445642171e-02
-7.185223300834958637e-02
-1.205160613340605646e-01
-1.542086225432835189e-01
-1.578504915146042575e-01
-1.332787470255137885e-01
-1.006543055892074462e-01
-7.839583998519533692e-02
-6.763569067293406789e-02
-6.203407911026712768e-02
-6.988794035471697363e-02
-1.000617104475716723e-01
-1.149245700432898476e-01
-4.521183427308108488e-02
1.034792838458125919e-01
2.075570951105747963e-01
1.631016439089917613e-01
2.717984996866044597e-02
-5.942618091391828339e-02
-4.980128770362780150e-02
-1.393272494293316434e-02
-2.344014672772865709e-02
-8.116490955343175218e-02
-1.410981260287698102e-01
-1.523621158182492108e-01
-9.706039851254985584e-02
-9.744850792822225619e-03
4.841517164313106220e-02
4.535457470550866010e-02
-1.887344575398491875e-06
-5.105484735964747889e-02
-8.848499240093640750e-02
-1.090730782291811224e-01
-1.135949093020864747e-01
-1.066606794820641468e-01
-9.657133271289278231e-02
-8.880941213878307261e-02
-8.490183348473458180e-02
-8.582722284682745006e-02
-8.628564457921579500e-02
-7.518961549726363436e-02
-6.767228760169072266e-02
-1.178310394190446031e-01
-2.358117002387643268e-01
-2.992853889167056969e-01
-1.745785406019621788e-01
3.206067063674805651e-02
5.047076546630864524e-02
-1.263942546376718434e-01
-1.727395290772444358e-01
8.470097584732901030e-02
4.135558801578768096e-01
5.183400976533829585e-01
3.832182412336480049e-01
1.930071580879275106e-01
8.504051713548085867e-02
5.929971015656521766e-02
5.662521056178049933e-02
4.872197353867342012e-02
4.675800534256818741e-02
5.891190901169873761e-02
6.690170875770362624e-02
4.190221311059274395e-02
-2.116621218328882878e-02
-8.434134929045299101e-02
-9.525416025486420357e-02
-4.167089430960030372e-02
3.622290875376034391e-02
8.491255319088043818e-02
7.734910149897594733e-02
2.982439521840480473e-02
-1.137496988518544791e-02
-1.851856833574062888e-02
-1.233228268848717175e-02
-2.396425958724380384e-02
-4.684169473806788081e-02
-4.478258386394536744e-02
7.403015806861636301e-03
9.231634307333086431e-02
1.527746906018539463e-01
1.450488285134691191e-01
9.002126561509811442e-02
4.748755057779457250e-02
4.508824291598355349e-02
5.559910317800086099e-02
4.154191669605679371e-02
1.795729116241776436e-03
-3.488041976447478487e-02
-4.768071773381869771e-02
-3.898392620057300473e-02
-2.178311827598621020e-02
-8.183579511834702946e-03
-8.473536346877275430e-03
-3.020774037504120671e-02
-6.983660825614976253e-02
-1.085428320588938816e-01
-1.257203738440857976e-01
-1.125475551997744267e-01
-6.855724402251342497e-02
-4.497706484755253920e-03
3.818119501059265286e-02
-4.148825435042058016e-03
-1.436992527247631379e-01
-2.551325877611811954e-01
-1.369721704989736999e-01
2.130186439314402380e-01
4.546808844100853619e-01
2.860628439180522009e-01
-8.991358969104359944e-02
-1.995643290187581465e-01
7.052858820516107186e-02
3.972948484423003412e-01
4.894426122359882836e-01
3.602048367241923454e-01
1.845110170193036414e-01
7.942661240491558083e-02
4.904200055416403636e-02
4.897526078841613756e-02
4.436193789071422866e-02
2.074610540683785240e-02
-1.906234640057186819e-02
-5.767730810480302395e-02
-8.102672396724840131e-02
-9.454724872768635602e-02
-1.083565342971006679e-01
-1.170547062475610911e-01
-1.106193387847553278e-01
-9.545155380845421478e-02
-8.757405984982205571e-02
-8.780404797845302312e-02
-8.147504352696316454e-02
-6.578293629470866044e-02
-5.787520433721245888e-02
-7.098175895415692604e-02
-9.908056080555797951e-02
-1.234460688577836418e-01
-1.209721631970893663e-01
-7.880897769032925437e-02
-1.739775517957127537e-02
1.973128404342611858e-02
1.588420964170965746e-02
-3.424971751616925561e-03
-1.415832527385614548e-02
-1.960030377025613266e-02
-2.776686079484588093e-02
-3.448809770694429011e-02
-3.384878434598299901e-02
-2.616004675453516976e-02
-1.057038068910979775e-02
1.842514884293752070e-02
5.742534742280950427e-02
8.298075584203037924e-02
6.827722082975803963e-02
1.626450717563599283e-02
-3.574508299448258403e-02
-5.768480676338536006e-02
-5.881474140356014041e-02
-6.151130656060547347e-02
-6.738859854917483849e-02
-7.421025062464449429e-02
-1.048205999262751265e-01
-1.789514202131002041e-01
-2.362839292329729501e-01
-1.482004113494248265e-01
8.036936894034667211e-02
1.976518587250648828e-01
2.537408764055117116e-02
-1.997403299317320469e-01
-1.202209539509975500e-01
2.216886640984133683e-01
4.757265997557406645e-01
4.597123445644677453e-01
2.837730128142246233e-01
1.168609341253371292e-01
2.089066779041743455e-02
-2.729372745405873185e-02
-6.107448217068373042e-02
-9.001423070249019165e-02
-1.062580164229898483e-01
-1.034105731892902141e-01
-9.010614345309082840e-02
-8.632986802442382812e-02
-1.024253624812012653e-01
-1.258658101575404475e-01
-1.363387102248067029e-01
-1.309258286107427560e-01
-1.235647101407122972e-01
-1.205479662119797318e-01
-1.137199760899060968e-01
-9.863571590242002640e-02
-7.876635891337838147e-02
-5.323496177274163882e-02
-2.399080124503771144e-02
-1.072132578283223163e-02
-2.861988875760721959e-02
-5.462494639050745338e-02
-4.929243563651775073e-02
-1.187391466701046526e-02
1.610328980426862025e-02
3.999278144398349388e-03
-3.291214080027683037e-02
-5.362313571200699042e-02
-3.408661635270000823e-02
8.409240241093178525e-03
3.063118929135238977e-02
1.487868213929880931e-02
-2.022170482073136835e-03
1.835344220661980913e-02
4.897336259323495367e-02
3.597378660280852597e-02
-1.327180997083605117e-02
-4.350636821364943507e-02
-3.591392698348978146e-02
-2.401807929319670076e-02
-3.972277914687278449e-02
-8.153900974713544636e-02
-1.247264690543412186e-01
-1.408839322168189967e-01
-1.211461081711451421e-01
-9.765786155570933824e-02
-1.245820282050201649e-01
-1.972894656232846988e-01
-1.965381921046215341e-01
-1.373109036356504054e-02
2.309535288730316105e-01
2.721498138659487198e-01
8.453493908305614868e-02
-4.867125374133234733e-02
6.330524895861715240e-02
2.986120102457356373e-01
4.513924513327499666e-01
4.602622147176080314e-01
3.807953260830065911e-01
2.800329453338257779e-01
1.922174532708968708e-01
1.197097490575897843e-01
5.132801731225469788e-02
-1.571476756048721668e-02
-6.116527681900620073e-02
-5.427181435020847489e-02
-2.115706064795235333e-03
3.307876970704704683e-02
3.949200832095523493e-03
-6.036268963730883480e-02
-1.041446303247428179e-01
-1.181354917616480316e-01
-1.212259455309199763e-01
-1.128652781482275547e-01
-8.750914456597944091e-02
-6.411248475793944468e-02
-5.645123691610677563e-02
-3.518953256069575625e-02
2.469832564668835231e-02
6.549428200891636853e-02
-2.091930666587002701e-03
-1.370688821400753710e-01
-1.650712650031154749e-01
-1.889968616662705825e-02
1.416982883925538284e-01
1.545870764318513502e-01
6.761580380848167260e-02
2.790039093554850386e-02
7.535533857484598419e-02
1.379876834493150850e-01
1.599779471475837322e-01
1.479580899127529992e-01
1.179098925721802499e-01
7.125786878417611492e-02
2.115501935029251435e-02
-1.043086001061997205e-02
-2.057917934119485315e-02
-1.854106904693744728e-02
-5.543127362996384810e-03
1.197076516561696238e-02
1.307477314313780503e-02
-3.936564307425135731e-03
-6.063869211171950963e-03
2.329561040551133416e-02
4.011771400475690197e-02
-2.065793008805714981e-02
-1.480860171667309766e-01
-1.996672875421581506e-01
-3.161829738158186687e-02
2.312441692340663491e-01
2.411747717358290743e-01
-6.622227776068830007e-02
-2.871868484766275098e-01
-1.147674716972450631e-01
2.429245291619552272e-01
4.250250178171191551e-01
3.718769100306343889e-01
2.527115459166601741e-01
1.869664461469002503e-01
1.696356842494752826e-01
1.540101938719457830e-01
1.176899903330906189e-01
6.891920180001369356e-02
2.653326739992933891e-02
3.223682514749585254e-03
-9.618335898841801762e-04
5.156116802570573018e-03
1.560368573508568585e-02
2.745732849639734990e-02
2.907902831396419821e-02
9.120751692402308958e-03
-2.192677653743370716e-02
-4.274744623427038925e-02
-5.376093318537980559e-02
-7.691147395695949185e-02
-1.194714868650354617e-01
-1.584661544077876905e-01
-1.708612373679152530e-01
-1.588266416726955566e-01
-1.311307834866081157e-01
-8.399037438929804478e-02
-2.387259278489910555e-02
1.111810329376979739e-02
-1.745583355143746906e-02
-1.011255302684539725e-01
-1.871718737736393079e-01
-2.276140729272010665e-01
-2.164905937557737858e-01
-1.806935779924227214e-01
-1.454379079879362657e-01
-1.161942535367239959e-01
-9.057148217043012317e-02
-7.601916965738203524e-02
-8.534187589532708784e-02
-1.171825487513961095e-01
-1.526681096848161168e-01
-1.731402282469977072e-01
-1.733211564358977386e-01
-1.600955180295512148e-01
-1.488089651779479494e-01
-1.538899126999231648e-01
-1.690030001523167846e-01
-1.680313914970854305e-01
-1.500619011279009374e-01
-1.701431629670181189e-01
-2.680086116364751581e-01
-3.451347094444038865e-01
-2.071821422338867846e-01
1.589185540852781631e-01
4.401657611838755146e-01
3.395552301050821509e-01
3.986393564449894344e-03
-1.433878351593927680e-01
5.560729440380927924e-02
3.640347404021961331e-01
5.014223191188464934e-01
4.197817275403932236e-01
2.501946613194711566e-01
1.177786860857120144e-01
5.289239815510989040e-02
2.804916465853217120e-02
1.857573717700353871e-02
1.679399515505120705e-02
1.715013394118099221e-02
9.263233396007021503e-03
-1.547765372126405289e-02
-5.506996904901706458e-02
-9.431212334911705242e-02
-1.125622289065866671e-01
-9.852826804270199690e-02
-5.864997953939957848e-02
-1.123765683165044681e-02
2.465207351996917887e-02
3.869139191660157101e-02
3.479686203149502666e-02
2.173264201034989795e-02
-3.429886785221104330e-03
-4.629768716279943769e-02
-8.413973652524427138e-02
-7.006059494374554386e-02
6.390488735049418625e-03
8.544234796544621091e-02
1.018969204543504897e-01
6.190394643515895190e-02
1.853308245522000686e-02
7.530668527468346689e-04
1.072977923116176296e-03
6.665105218111426651e-03
1.310083920368859331e-02
1.974295517750065607e-02
2.961682138978018186e-02
4.810214305515162631e-02
7.212390654264796974e-02
8.713769414821896653e-02
7.915913032099876345e-02
4.347902870562847522e-02
-1.241288048387267223e-02
-6.441492473116110229e-02
-8.274367590902467762e-02
-6.079774177226726639e-02
-2.268257224119076335e-02
6.631506409018948604e-03
2.092612283833652359e-02
8.924415598693405394e-03
-5.081332849950467856e-02
-1.169980384113301769e-01
-6.453625330730985987e-02
1.271931192294309121e-01
2.308801751269756730e-01
5.314706952519828581e-02
-2.117037778448011554e-01
-2.065338799501290068e-01
9.409878393871454194e-02
3.879523774437170225e-01
4.482058679354492536e-01
3.138015185627655024e-01
1.438625397111463478e-01
3.440895633608796744e-02
-1.250903549250319269e-02
-2.472010178114956644e-02
-1.947641616409166374e-02
-8.522079979270767019e-03
-6.932816126794754882e-03
-2.455544634192838999e-02
-5.406356542135834498e-02
-7.724054218042666897e-02
-8.533098216433820937e-02
-8.547594740321425022e-02
-8.618137706791054176e-02
-8.675022165854968936e-02
-8.404205879489218267e-02
-8.184568397915654991e-02
-8.618392281395929888e-02
-9.012355381130472687e-02
-7.613595672568858330e-02
-4.728055465105610727e-02
-3.918616827818230397e-02
-7.435849265343011383e-02
-1.173899606474595181e-01
-1.099801774462826481e-01
-4.774389622611543982e-02
1.217768324895491736e-02
2.284261378884812344e-02
-5.250679461631512814e-03
-3.279121264188152723e-02
-3.811250686712462643e-02
-2.512015356282732911e-02
-5.736962679377731120e-03
9.366940354111230604e-03
1.112365868211109832e-02
-2.719113566255074946e-03
-2.388854261385760236e-02
-4.137592186059824845e-02
-5.103353042210082707e-02
-5.514982214787160497e-02
-5.894064365599312183e-02
-7.204530673638549765e-02
-1.046304436184364584e-01
-1.524762468483837619e-01
-1.895488165512650147e-01
-1.841152870359973326e-01
-1.292269663102298405e-01
-6.815219122525298379e-02
-7.990124309730747831e-02
-1.813809641127377692e-01
-2.364787522745418202e-01
-9.177267640985373176e-02
1.529000905966025892e-01
2.166553553840039337e-01
5.741765774491124769e-02
-5.186220291107893759e-02
5.661817404742363474e-02
2.491741765234131989e-01
3.579356152490126841e-01
3.652060456699928181e-01
3.075193594325832946e-01
2.078499935404192200e-01
1.090124151873870934e-01
5.547660704812809596e-02
4.608169614326634161e-02
5.289259874733975852e-02
6.397392071838388372e-02
7.920498232902448144e-02
8.815564000212493256e-02
7.793500974280888338e-02
4.837400918835745023e-02
5.742065192721109226e-03
-4.342870879677335899e-02
-8.464163290289830610e-02
-9.618171327604567444e-02
-6.953806604037010564e-02
-2.511263432216747499e-02
5.184988937456816785e-03
1.247015203886371430e-02
1.379513096797274282e-02
1.740537956290806251e-02
8.911179564806605974e-03
-1.292589325530317176e-02
-1.601765889105689553e-02
2.160490165148877539e-02
6.918622558091103159e-02
7.023557353336870590e-02
7.651004020376228794e-03
-6.688301922399537969e-02
-7.688090946251031899e-02
-8.001902351311826825e-03
6.444392662231829272e-02
6.361612151970072460e-02
2.483802526958575965e-04
-6.311038021374532070e-02
-9.706886866511674206e-02
-1.083773539252211732e-01
-9.530765358632539708e-02
-5.199978548962936459e-02
-1.813699799150842937e-03
1.516044014271356738e-02
-1.167736774277712032e-02
-5.493512991576634391e-02
-8.278682820665392295e-02
-7.819422561752022161e-02
-4.047218713199600415e-02
-5.178317620753698433e-03
-4.358319600928353688e-02
-1.669153592831297273e-01
-2.190593051862510243e-01
-9.030549159188279440e-03
3.385496311954509507e-01
3.868129287947821293e-01
-1.302423437999079142e-02
-4.031279645504618481e-01
-3.206837137899687940e-01
9.301988176697656430e-02
3.801718699186747985e-01
3.602648796331206493e-01
1.954443961800299556e-01
8.010352425248519481e-02
5.933337745069033886e-02
7.557562710140175444e-02
7.239511227509658198e-02
3.573833086216199328e-02
-2.291254289821428175e-02
-8.195045842756233656e-02
-1.107529761417582748e-01
-9.316560146441721368e-02
-6.009114451174393801e-02
-6.861797062865954144e-02
-1.262906354792433239e-01
-1.517606838341361841e-01
-5.606155673995171645e-02
1.166738965936968131e-01
1.955331812693561488e-01
9.145156689804992411e-02
-7.990464071984333672e-02
-1.584249501541263871e-01
-1.287823577305761413e-01
-7.785262582725485658e-02
-4.687140963923636799e-02
-2.375522405781204348e-03
7.059699995819880558e-02
1.135155975944205226e-01
6.836551870384065255e-02
-3.306723118481810775e-02
-1.055076836446886962e-01
-1.114154773770104773e-01
-8.306950924613250298e-02
-6.244196609731181291e-02
-5.501155825102545943e-02
-4.104120226631044477e-02
-1.373557244782569985e-02
5.499249953888400017e-03
-7.757146585093354328e-03
-5.138587536450893445e-02
-9.653287923448440611e-02
-1.067720737104987661e-01
-6.471467668373775961e-02
4.290375687998171372e-03
4.453098402486643792e-02
2.267330245213117906e-02
-3.360838513134811051e-02
-5.881389565138925996e-02
-2.414303440575052417e-02
9.169486671337410272e-03
-4.302797506661248939e-02
-1.309640762967470839e-01
-7.033998039663731661e-02
1.909605550870109858e-01
4.096660252226939081e-01
3.322465517872187357e-01
5.359942270306489176e-02
-1.056910290615807463e-01
7.823745647803012626e-04
2.340811868307911270e-01
3.850068904071367037e-01
3.718822570268616179e-01
2.546912827202398866e-01
1.362731593429113153e-01
7.523343152332570560e-02
6.837305999834827896e-02
7.701001786784812675e-02
6.490347649488195647e-02
2.868854139984109222e-02
-9.733426844571275646e-03
-3.900457282312508323e-02
-6.776447350080595788e-02
-9.726791791567956924e-02
-1.048633684488302492e-01
-7.085018130317738416e-02
-1.394189363431966311e-02
2.277786219078211175e-02
2.039277602575931617e-02
1.085955776749828947e-04
-6.608760378573174527e-03
8.906934755470066745e-03
2.740436325621967151e-02
2.443969143807205383e-02
-1.760108611568518729e-04
-1.695602013486008711e-02
3.415916204627631424e-03
5.510003526517175815e-02
9.724947919575692434e-02
9.152612018726982712e-02
3.987634567812052555e-02
-1.554801971227867154e-02
-3.326512626617517815e-02
-1.233995339542661232e-02
1.574238262950040934e-02
2.982956623132251503e-02
3.865797652938398471e-02
5.752788819240222534e-02
7.627761342750509488e-02
6.402719145204317786e-02
1.149873893064706255e-02
-5.010290189749733863e-02
-8.344527090236134037e-02
-8.139380772985685408e-02
-6.389074969632413392e-02
-5.174317288082982969e-02
-4.563683901246333441e-02
-2.752848623297504682e-02
5.865363722315570377e-03
5.284940398669835983e-03
-9.329277203254249251e-02
-2.442694443735499987e-01
-2.708854397456936236e-01
-1.044198844765930889e-01
2.643542496743950948e-02
-1.062433992349311879e-01
-3.232072586018318594e-01
-2.657199259865316576e-01
7.300307075963810566e-02
3.747752927214474394e-01
4.259525437272775328e-01
2.717827552153225801e-01
6.268394952735861780e-02
-9.046887845719653320e-02
-1.546018193967034771e-01
-1.488092165062532835e-01
-1.068790253361887044e-01
-6.275277384776804801e-02
-4.359408258501309280e-02
-5.703935221197591054e-02
-9.633449751268970129e-02
-1.579590348174611247e-01
-2.325812984737677114e-01
-2.859426237924383996e-01
-2.816282767042386226e-01
-2.246861856126979862e-01
-1.623343141671109435e-01
-1.382089941881289863e-01
-1.519636616277605379e-01
-1.641549605579220583e-01
-1.363326218043647564e-01
-6.627903345063686225e-02
9.529151989557827634e-03
5.126256191875001866e-02
6.115001004738067347e-02
8.296456072256699898e-02
1.434524666753923261e-01
2.102706506999782454e-01
2.303892430333764341e-01
1.954816970962236222e-01
1.433481554081783016e-01
1.114463979453929193e-01
1.126987108445749730e-01
1.339945328616586051e-01
1.423742346145896731e-01
1.166582439917358271e-01
7.061961549173409458e-02
2.321577644161130355e-02
-3.060119874588298344e-02
-9.439751591227239780e-02
-1.440778171524219609e-01
-1.560773190150112066e-01
-1.428967706276489391e-01
-1.363596764479162449e-01
-1.503112208678004103e-01
-1.734306614408278879e-01
-1.791954992472601371e-01
-1.472343547908610828e-01
-1.078075082233796583e-01
-1.416061797798727206e-01
-2.644353459109737292e-01
-3.180979882850789586e-01
-1.119393537685660911e-01
2.481977593027632212e-01
3.695672801587083778e-01
9.799329569106995930e-02
-2.020568997022537117e-01
-1.336288806872070190e-01
2.187527800188634741e-01
4.833910176422706595e-01
4.774548689302355875e-01
3.080897629643979396e-01
1.544633970735914408e-01
9.320328596612273420e-02
9.354417705782042125e-02
9.880623818148763504e-02
8.832195493547109755e-02
7.650849519988031644e-02
7.641517833044851604e-02
7.907438555813305070e-02
6.823071551051441974e-02
4.382810542839347262e-02
1.719134261429993912e-02
-9.999844572459590936e-03
-4.213547555195402972e-02
-7.219303116823562461e-02
-8.413179244357954500e-02
-6.608422836172253567e-02
-1.777688832879324721e-02
4.421537924596386643e-02
8.731181400788111391e-02
8.062334272365659360e-02
2.577400804350274757e-02
-2.992840109895644404e-02
-3.288142482130800709e-02
1.488110534910908056e-02
5.508995811068546911e-02
4.384214572290268119e-02
-7.421496367138293374e-04
-3.285134617054578238e-02
-3.700517428100098122e-02
-3.222670172167593772e-02
-3.573219752950426709e-02
-4.732978458515309239e-02
-6.276717566211864607e-02
-7.914973696574273410e-02
-8.661465446423312342e-02
-7.416535027495597954e-02
-4.882952319778898626e-02
-3.355861238340895197e-02
-3.788890052899971522e-02
-4.397218904968448056e-02
-3.677450044391513545e-02
-3.839179165531261123e-02
-8.640812602120670483e-02
-1.728437697258086159e-01
-2.299647981523705309e-01
-2.066177163099218728e-01
-1.516031944034910428e-01
-1.569481883183360404e-01
-1.875108261140959742e-01
-8.745421280756696114e-02
1.282107293628291511e-01
1.694609912411096930e-01
-1.076251864044642792e-01
-3.889141203031664107e-01
-3.078597704955130521e-01
5.668349475922102726e-02
3.446759901653063118e-01
3.669114209621540112e-01
2.066383603038543237e-01
2.691472812299177536e-02
-8.109657688484435412e-02
-1.150900945197005643e-01
-1.128710805340608775e-01
-1.039983641091337258e-01
-9.773950580120402409e-02
-9.808491285628159750e-02
-1.077931223618969619e-01
-1.159612564442305815e-01
-1.012369277065648249e-01
-5.719982317745402750e-02
-9.420559732117184809e-04
5.043948202555759153e-02
9.555488114380676634e-02
1.362506528814629303e-01
1.689007027994653687e-01
1.927329873257459802e-01
2.098019233617409440e-01
2.148021509061126821e-01
1.993887334383373788e-01
1.697136770088869262e-01
1.498615949222965593e-01
1.596497478771456702e-01
1.891645392183990415e-01
2.026920893606135310e-01
1.769687461353006974e-01
1.330736271004345495e-01
1.131047602003863034e-01
1.264035230309602242e-01
1.432758890170718058e-01
1.376557334532387544e-01
1.096561683433603801e-01
7.248600124651377596e-02
3.953121632172312827e-02
2.214573692691978318e-02
2.747873837870950728e-02
5.337833946936360041e-02
8.534548213994302968e-02
1.046200881721872644e-01
1.031191578299201494e-01
8.420891101525324052e-02
4.993960950922068237e-02
-5.820190881109330722e-04
-5.848757956624378584e-02
-1.001054020084886226e-01
-1.107754137026386032e-01
-1.229554243546245040e-01
-1.884343464422535974e-01
-2.642462366296911558e-01
-1.976032351235892659e-01
5.512102613504308440e-02
2.650794789512526117e-01
1.810630534047276696e-01
-1.035722074059110820e-01
-2.529931301293559809e-01
-1.150463442442779538e-01
1.467587598217721667e-01
2.988690694210311971e-01
2.678533355860836518e-01
1.412604643874211252e-01
3.239177574690066397e-02
-1.799604799688490908e-02
-3.322521463895088817e-02
-4.531451778615727677e-02
-6.535287010909332506e-02
-8.446978243514322027e-02
-8.524055765849564148e-02
-6.129516936888621675e-02
-3.171983641431309897e-02
-2.306359509731125551e-02
-3.667719858883976281e-02
-5.158053396752973474e-02
-5.865341498119936575e-02
-7.261572822592832210e-02
-1.065744565641807973e-01
-1.485777798866226851e-01
-1.698861424667141851e-01
-1.524713072936696723e-01
-1.101534486634749982e-01
-8.091781067266866356e-02
-8.254114612381258098e-02
-8.178386502676152081e-02
-4.075487537362737500e-02
1.479649651399569249e-02
2.184265119096672966e-02
-3.243594126857060611e-02
-9.677110651582170042e-02
-1.212623395525957853e-01
-1.020082649321775586e-01
-6.838422110049988123e-02
-4.939256059930213771e-02
-5.357567016896788714e-02
-6.981183335548517277e-02
-8.081684956975949963e-02
-7.972499187831336154e-02
-7.653595359026839351e-02
-8.428150521614406754e-02
-9.984751840052237537e-02
-1.044375261960785312e-01
-8.269961525166406868e-02
-4.014966553510617570e-02
-4.127868635671240287e-03
-1.665415736567888230e-03
-2.785729091843704500e-02
-5.209352874728526150e-02
-7.583187259032592165e-02
-1.476264979054902338e-01
-2.561029201548082890e-01
-2.514437919931533094e-01
-3.514572805008543688e-02
1.787564079466230360e-01
7.679884807648749978e-02
-2.370873031774350381e-01
-3.140167491376880671e-01
1.349670519458948809e-03
3.865244861938443299e-01
5.086624393298814217e-01
3.661381023728213502e-01
1.619781872226874475e-01
4.567003356096249744e-02
2.446690443455668343e-02
3.600041490137335931e-02
4.206158661729995224e-02
5.135610650788408754e-02
7.465091169889512268e-02
8.597447487076820272e-02
5.490806980680654897e-02
4.754883902867511336e-03
-7.111740210880796408e-03
3.004928984560011757e-02
6.680193000796559588e-02
7.025126589964869606e-02
6.430898085464130387e-02
7.616077607763706292e-02
8.923375928629558029e-02
7.489630508085577676e-02
4.101300097730480043e-02
2.164926261308124794e-02
2.780575046410669812e-02
3.544141781565764149e-02
3.181391843861568203e-02
4.638371659661347235e-02
1.064344783249464854e-01
1.784362143527491174e-01
1.918032557756828016e-01
1.227270766104445743e-01
2.442821083002569629e-02
-3.602717095610848130e-02
-4.656614025889899144e-02
-3.876244509773753288e-02
-3.214257174151420593e-02
-2.070860518701257355e-02
-1.712668107320508906e-03
1.340286959559276736e-02
1.408289897882977933e-02
-2.567023034303322643e-03
-3.364300048311597707e-02
-6.225833407160591415e-02
-6.167157102406180258e-02
-3.211683539592825182e-02
-1.485269464462841277e-02
-3.754627230366362756e-02
-6.544607849930797472e-02
-4.572213249271033647e-02
1.654140441160929960e-03
-2.765132058760371575e-02
-1.903013628487965903e-01
-3.373926505596684389e-01
-2.120711934738601645e-01
1.713454186765769049e-01
4.113004053035488328e-01
2.217368320454935482e-01
-1.314368123236503427e-01
-1.939301678081867819e-01
7.617428410373702774e-02
3.566214977128864816e-01
4.169527613003234379e-01
2.928168577420573460e-01
1.317687220912342749e-01
2.961527547828326362e-02
-6.329571527536398227e-03
-1.089776338273204005e-02
-9.633317285584128142e-03
-7.342674696625383669e-03
-5.806261629681683592e-03
-1.744646116794325991e-02
-5.796749421390832296e-02
-1.229641265957603508e-01
-1.801231772134962716e-01
-1.993868163716358277e-01
-1.805510901659642953e-01
-1.399284072112423061e-01
-9.384607162034708239e-02
-6.378009008037235916e-02
-6.523308176829156757e-02
-8.443062293306975719e-02
-9.346206121183364690e-02
-8.829917785319771339e-02
-8.665971931507820969e-02
-9.099846553163971896e-02
-8.166329787202201984e-02
-5.027629114621379181e-02
-1.553772867242174220e-02
2.153894641814115690e-03
6.136534158830547585e-03
1.581092832260833775e-02
4.344718690867397509e-02
8.351296120063729511e-02
1.139187868166552792e-01
1.061741993863894867e-01
5.440060194566454649e-02
-4.491052120055797486e-04
-1.979997029656026600e-03
5.693496075709282567e-02
1.251339606771202095e-01
1.502638672953934829e-01
1.252307827602320289e-01
8.411895060070623265e-02
6.433126040561853998e-02
6.940639463988332314e-02
7.314742877680209532e-02
6.557384953158174046e-02
7.406839207391452407e-02
1.120031830754648211e-01
1.264496379592921216e-01
6.053186679991968272e-02
-1.983397339975689205e-02
3.456691858604542256e-02
2.064233801523643608e-01
2.440679408759792446e-01
1.846166388071178097e-02
-2.188105989700188658e-01
-1.597633018922338666e-01
1.461245848983723505e-01
4.009869153447210843e-01
4.290555828459958754e-01
2.892336537027995758e-01
1.232081729660221281e-01
1.083227107930628298e-02
-4.680652996136255156e-02
-7.438065344361238784e-02
-8.448594406092126141e-02
-7.949213139676399031e-02
-6.466236625911059299e-02
-4.971502124605995526e-02
-4.716150130302242810e-02
-7.028447099038331869e-02
-1.205574445250864463e-01
-1.766091847719968022e-01
-2.066780919448197307e-01
-1.971970397559552612e-01
-1.660823912257039792e-01
-1.417458680465268350e-01
-1.311978845247702696e-01
-1.204567089703211663e-01
-1.046474113853695098e-01
-1.018023736489210573e-01
-1.305396939084210173e-01
-1.774868591183130229e-01
-1.976073493881395360e-01
-1.635958477478600404e-01
-1.074800300540774689e-01
-8.510870102419321181e-02
-1.056420417605905271e-01
-1.266314228807985109e-01
-1.118969387561521700e-01
-7.052190507965354349e-02
-4.495565272567261100e-02
-6.974735357189765228e-02
-1.330340553333002329e-01
-1.801047831870022931e-01
-1.697206661820761520e-01
-1.248469507078966562e-01
-1.077881806279507304e-01
-1.430085838296556167e-01
-1.913160314087385960e-01
-2.086070748814456421e-01
-1.963842978055621580e-01
-1.824066669892254189e-01
-1.860112122657497924e-01
-2.110108035222503509e-01
-2.426567102819935928e-01
-2.519346991178167960e-01
-2.352732826451792436e-01
-2.375375988851511078e-01
-2.735154654866974733e-01
-2.429765176007266103e-01
-5.517223600921654370e-02
1.535921969760907224e-01
1.403127544736467724e-01
-6.289302031048127350e-02
-1.521411441481293758e-01
1.833899798934298872e-02
2.730845331815720534e-01
3.948172288795456786e-01
3.470939348428219717e-01
2.188994740405430517e-01
1.011621485578398094e-01
3.701019322952570079e-02
1.937483720502263668e-02
1.598371531956342337e-02
1.018430926915442174e-02
1.189202720735057887e-02
3.192222169052973818e-02
6.194191153695461499e-02
7.921525921116502611e-02
6.764948362453011843e-02
4.063571777147525349e-02
3.609224920260832581e-02
6.600051541594109672e-02
8.356439255523155640e-02
4.395237889169681389e-02
-2.321621570738333779e-02
-5.419448065437831863e-02
-3.216289225839844695e-02
1.453607512942320032e-02
5.993451579313788941e-02
1.009077509275679435e-01
1.541114041683132041e-01
2.370977947714018597e-01
3.359191699666130848e-01
4.000549856844187735e-01
3.915287227985504437e-01
3.320541028228068403e-01
2.757440822116694057e-01
2.407216478128404724e-01
2.002129107485980941e-01
1.407936234687805765e-01
8.939074691426651675e-02
6.947355753334465145e-02
6.384982337572843447e-02
3.997646216879444103e-02
-7.108938323439719861e-03
-5.184603095696637548e-02
-6.770800518440350801e-02
-4.928693795176609244e-02
-1.272104723081885283e-02
1.379817701071252636e-02
5.305239879533258512e-03
-3.762393775793017314e-02
-7.898437344297237761e-02
-7.564342786061328816e-02
-3.444697092248942549e-02
-2.997572296000557135e-02
-1.043260615851384909e-01
-1.335271668636163200e-01
6.143639601858810750e-02
3.686898667439021393e-01
3.928152628679182912e-01
2.709495820752330988e-02
-2.932328601338862195e-01
-1.805671541658367962e-01
2.018753528773707950e-01
4.548957152144347815e-01
4.416049023303616483e-01
2.973585844430182146e-01
1.732729921290772912e-01
1.159748747489224990e-01
1.027777248547332156e-01
9.652778056786881500e-02
7.717752894292854993e-02
5.244988564111724427e-02
3.591285356622281322e-02
1.818268673725344925e-02
-1.788428848148506875e-02
-5.687619224604243545e-02
-5.908153967691689989e-02
-1.600746943870385436e-02
3.406238644351504419e-02
5.400505891005155656e-02
4.040429499919990369e-02
4.532007233659000357e-03
-4.278497728477010514e-02
-8.000965122358480452e-02
-8.263165888223092392e-02
-5.347788493796708231e-02
-2.237608203278813532e-02
-5.661266925229377356e-03
1.510628599313851295e-02
5.643116342389289247e-02
9.129584737918769455e-02
7.742088699641583305e-02
2.161018322933331431e-02
-2.440346075820112523e-02
-3.503585427055039281e-02
-3.407624405425195568e-02
-4.007391102025482932e-02
-3.701752808559567037e-02
-1.646352686561976253e-02
-7.102528044455568880e-03
-3.835578651625256436e-02
-9.996476095537755457e-02
-1.566961836792988561e-01
-1.846895780643396934e-01
-1.797368977882830843e-01
-1.514266498477618850e-01
-1.223902441918643808e-01
-1.122703231348267383e-01
-1.136104852867409337e-01
-9.805456233757461892e-02
-5.191220501173014756e-02
-8.411694202209760163e-03
-3.836110856288239140e-02
-1.645268815141747165e-01
-2.636731136561059619e-01
-1.454771690485967828e-01
1.728369489916728174e-01
3.804468186877332236e-01
2.403261669948402179e-01
-6.637591127768568966e-02
-1.764266945195015202e-01
-7.640530298795042072e-03
2.164539129896810299e-01
2.934543841551198740e-01
2.229558025651272590e-01
1.181391321494965618e-01
5.647630582106329122e-02
3.267642856419734898e-02
8.509367403483996534e-03
-3.186034459037254130e-02
-7.612459880852527616e-02
-1.075235274393211565e-01
-1.200492619942796074e-01
-1.225019629539996768e-01
-1.405355467553765225e-01
-1.976629737361026984e-01
-2.716905271289977719e-01
-2.961972727581184128e-01
-2.399421580872946325e-01
-1.484728290640215942e-01
-7.802435815790502438e-02
-3.831246296753626490e-02
-1.632426666848517741e-02
-9.931050439726031923e-03
-2.709277129747116042e-02
-6.630435835782400034e-02
-1.003317342440933624e-01
-9.057312709854530020e-02
-2.906786538006372184e-02
4.071432057647454000e-02
5.961692992226134274e-02
1.411242815101037412e-02
-4.985615704732605791e-02
-8.298434197886975228e-02
-8.606911495997010553e-02
-9.165086262433108644e-02
-1.118344640649747562e-01
-1.290094850230606438e-01
-1.259886706497510833e-01
-1.050037218947036943e-01
-8.492253662327428620e-02
-8.833360415699986756e-02
-1.203609630330483710e-01
-1.580650122516230882e-01
-1.744632039523952294e-01
-1.713146467465918588e-01
-1.705397341735647998e-01
-1.738508385125825395e-01
-1.503488694168971240e-01
-7.808740663987423503e-02
2.580269797909616903e-03
-7.690949978636368867e-04
-1.307057960608610514e-01
-2.740909515562713339e-01
-2.257844888755011215e-01
3.645550203239468490e-02
2.168459370177894530e-01
6.592222357218713302e-02
-2.050574023122403999e-01
-1.885042222911786913e-01
1.463256056274357952e-01
4.612362636305551433e-01
5.109773434171129836e-01
3.497208321357938021e-01
1.648109366053510383e-01
7.096636683344725860e-02
5.847089580320760649e-02
6.391963491159624589e-02
5.112659784810424934e-02
2.756743287760195921e-02
1.080344466837490983e-02
1.935631256343462022e-03
-9.112969724280764114e-03
-2.503172748616037599e-02
-3.797709489153195533e-02
-4.463567454653509514e-02
-5.087223618247137258e-02
-5.720351290445143538e-02
-5.344630538214596716e-02
-2.869525228775400560e-02
2.326336120293548415e-02
8.935321659925321569e-02
1.047643376901433859e-01
-1.879102892131196204e-02
-2.592864229900501694e-01
-4.257129533798548193e-01
-3.503171741325207256e-01
-1.039658133139141905e-01
9.210908440773274419e-02
1.211344916909663505e-01
4.658902879041797174e-02
-1.626782521448402047e-02
-2.193981212467691760e-02
4.248018855038217419e-03
2.758091585287463995e-02
3.667157013380585584e-02
3.308285991022300032e-02
1.649419202093881098e-02
-8.526114951523486307e-03
-2.235542012895126024e-02
-8.332281326768595231e-03
2.045418520215092073e-02
3.195145037926989950e-02
1.162172783916279838e-02
-2.904039776211442270e-02
-7.473608404366190172e-02
-1.147664636069150867e-01
-1.287978615243451086e-01
-8.401896254653926088e-02
2.899433530972801709e-02
1.420206255396257167e-01
1.325796082960961075e-01
-1.821949460037678575e-02
-1.150313781258273937e-01
4.444524241849375640e-02
3.193583508719891051e-01
3.348018850093557042e-01
4.218883218254714657e-02
-1.554132203466112860e-01
2.622953320175651012e-02
3.910370603805328193e-01
5.866065142829732793e-01
5.137254181303219092e-01
3.210378626211027320e-01
1.678343612759447823e-01
9.117129122127089202e-02
5.177887742916665453e-02
2.397054855911771865e-02
1.166970125035165368e-02
1.424253245451978858e-02
1.562909828633462020e-02
3.099695062755147834e-03
-1.848417638207790897e-02
-3.420379352492407959e-02
-3.979279334221109965e-02
-4.685944252040250002e-02
-6.380938565812631358e-02
-8.218582101178828481e-02
-8.444818401326542601e-02
-5.675701906936531094e-02
1.579415058308875769e-03
7.085689955877316759e-02
1.196211109277361406e-01
1.300866421286885899e-01
1.113689208132701836e-01
8.955004395782444060e-02
8.941607978090131137e-02
1.128355089545949874e-01
1.297787153114600966e-01
1.082470553408376446e-01
5.572508480390761521e-02
1.566744484062133208e-02
2.162613451208181270e-02
6.171662824905946310e-02
9.007596456016057906e-02
7.419160292515428190e-02
2.717739194250688717e-02
-1.185988471849208289e-02
-2.379113487597930843e-02
-2.359689401173372184e-02
-2.801943180691649285e-02
-2.870204240974508561e-02
-1.115954304657474153e-02
1.708536787914442800e-02
3.366054994080215634e-02
2.336516940084883837e-02
-1.103305341791991148e-02
-4.079789379881804123e-02
-2.516538991976092696e-02
2.800352308518054556e-02
3.067324951347415868e-02
-7.659523316556293704e-02
-1.643461696460249144e-01
-7.770581356767756326e-03
3.386806158793746468e-01
4.700374710102375730e-01
1.795331595703231475e-01
-1.750995397092656725e-01
-1.589883113750744370e-01
1.624732096485439203e-01
4.108105784906576630e-01
4.012188560626356315e-01
2.424410623116759755e-01
1.047356250562016255e-01
5.456943721323406077e-02
6.148602133629384181e-02
6.996140291207568473e-02
5.129988833916575286e-02
1.191517357653164993e-02
-3.011636673757368821e-02
-6.281205111617568781e-02
-7.807662167582932189e-02
-7.356352134655036457e-02
-6.109973251146235546e-02
-6.074930810854666657e-02
-8.254841469352929006e-02
-1.149571879617199976e-01
-1.353424486199248378e-01
-1.348995013836243595e-01
-1.245721478972686425e-01
-1.158067288713057613e-01
-1.102533559256688861e-01
-1.072538439636356172e-01
-1.053943684611280268e-01
-9.961249194930049677e-02
-9.007956138377913591e-02
-8.893118279172237961e-02
-1.080282391862655567e-01
-1.418077869004515934e-01
-1.663544760614086571e-01
-1.585056448283705954e-01
-1.191873510424556054e-01
-7.765201602646738810e-02
-6.829250653162916018e-02
-9.916827059617841500e-02
-1.498366226519626532e-01
-2.013288210159764058e-01
-2.454571532878478124e-01
-2.644066732263460340e-01
-2.402189469857535231e-01
-1.891084542918995415e-01
-1.510286177452308531e-01
-1.428841148083300483e-01
-1.473443666291846532e-01
-1.466698024224310781e-01
-1.441398900592396060e-01
-1.456067718829865409e-01
-1.403799847310480131e-01
-1.202194665956980435e-01
-1.099710779668064825e-01
-1.393246409753079729e-01
-1.531556425965635293e-01
-2.140486230366563103e-02
2.530948352377959121e-01
4.276182122529475493e-01
3.042614246364706565e-01
3.011448636651842259e-02
-8.488087562826027166e-02
4.864283919924995703e-02
2.619980438725949545e-01
3.729130696232238473e-01
3.364236166720894761e-01
2.152723545069453737e-01
9.833987294069895801e-02
4.039413618442456999e-02
3.308532877209205414e-02
2.594536874215241234e-02
-1.171509345512664405e-02
-5.719197214178182997e-02
-7.237176116369418988e-02
-5.864449799642337119e-02
-5.201376872726160699e-02
-7.051823463007358961e-02
-9.140493939065040541e-02
-8.610570817420190592e-02
-5.988696524119293402e-02
-4.271023547699970280e-02
-4.362588730947919435e-02
-3.587718206066232984e-02
-6.428811061716823046e-03
1.006423623666889700e-02
-1.691193566129618742e-02
-6.597606140381664930e-02
-9.929917613166518164e-02
-1.006883234117463555e-01
-7.162842370390311297e-02
-3.640922811483262439e-02
-3.175855046128436832e-02
-5.567031271027576833e-02
-6.529824433718017795e-02
-4.535847500516976272e-02
-3.150638401267373545e-02
-5.224718415619338668e-02
-8.344016624013164685e-02
-6.853538024673840046e-02
2.426571571334882813e-02
1.465536993599751148e-01
1.862593716896895901e-01
9.152681863595060752e-02
-5.188511372780539588e-02
-1.268543935769292363e-01
-1.196371489684579098e-01
-9.671616251008940957e-02
-9.775439114187695067e-02
-9.064174880649895905e-02
-1.781794904851721068e-02
1.101004092522513828e-01
1.802598744392209240e-01
8.526594941449487652e-02
-1.392082253019611415e-01
-3.128823025364712018e-01
-2.600632093570919290e-01
-2.340495321358307054e-02
1.044697533109784221e-01
-5.427658761894314787e-02
-2.451200201880368579e-01
-1.131337281259840039e-01
2.762079604991705684e-01
5.544728529193775346e-01
5.368484936424420262e-01
3.434657798937678086e-01
1.631844201707265685e-01
7.569405427708469913e-02
5.996319934429517051e-02
7.059427189621302057e-02
8.056892297080754661e-02
7.962872814348771755e-02
6.283307939607615800e-02
3.174293920203739156e-02
-1.380577843676417376e-03
-2.295778621771210615e-02
-3.034789273739213131e-02
-2.665374814439017831e-02
-1.081421004738970446e-02
1.447344264205956653e-02
3.348439466748043269e-02
3.113155256562332579e-02
1.132292223304715365e-02
-6.417052448565348406e-03
-5.363346852501491013e-03
1.147948079876326410e-02
1.930002842148441713e-02
-2.334457819500014575e-03
-3.431591445069966106e-02
-2.586762857239048238e-02
4.767300043608749954e-02
1.456899984322224118e-01
1.932696499577414295e-01
1.522944478636062138e-01
6.331714273877539489e-02
5.175395485918474030e-03
8.132844207723154834e-03
3.730430543488157114e-02
5.909284926402705307e-02
6.652063363433673160e-02
3.339404949766465458e-02
-7.955385200933332013e-02
-2.326330791777427298e-01
-2.996635794194894564e-01
-2.215160451193406432e-01
-9.124501308132870747e-02
-2.616630768166092191e-02
-4.107987940895682644e-02
-8.252742634648294051e-02
-1.054760012965920701e-01
-9.637284739589360716e-02
-7.124564298409255536e-02
-6.854732985892705854e-02
-1.298256061926805205e-01
-2.441141285264364913e-01
-2.753163430193218408e-01
-5.484325378181620358e-02
3.168845376930617408e-01
4.461782359993134439e-01
1.681322659744036441e-01
-1.488769315453702113e-01
-1.022342393885539852e-01
2.169505258425818983e-01
4.394193811765939039e-01
4.032232276063958953e-01
2.305879353433831214e-01
8.797833968486241940e-02
2.320791170791813851e-02
-1.182222667862086081e-03
-1.343719329121890668e-02
-1.016860812149118949e-02
6.754949507611674592e-03
1.490216449892032072e-02
-2.985263051968691655e-03
-3.896927925183209240e-02
-7.325070872012030831e-02
-9.325453002258252133e-02
-9.598335179606010126e-02
-8.470419734129326639e-02
-6.585796969864234074e-02
-4.510262446090176902e-02
-2.905092494640865858e-02
-2.961182157123252306e-02
-5.685404304214389942e-02
-1.046062901533014594e-01
-1.534122946817093325e-01
-1.878002592875358256e-01
-1.966129884632997760e-01
-1.675365740732500941e-01
-1.056888144645941191e-01
-4.492111301135728874e-02
-1.832572930799771307e-02
-2.325444125856295299e-02
-2.774328169001061273e-02
-1.396029708531071160e-02
-2.195906682479422875e-03
-1.775929294449116180e-02
-5.021491829732145640e-02
-6.625135628462844317e-02
-5.169779277070383344e-02
-2.122046331379377412e-02
7.592329378706335480e-03
2.788614010345967509e-02
3.314250447117790543e-02
1.825554718366018125e-02
-7.246673424346168797e-03
-2.670664288512629436e-02
-3.507872352605524019e-02
-3.578296467566253330e-02
-2.443419726599969227e-02
7.796294004555314079e-03
4.550058280370131158e-02
3.599388363012737818e-02
-4.535713005406512982e-02
-9.892560628132324174e-02
1.652526842947384805e-02
2.224031111982114894e-01
2.278458039989968986e-01
-4.478708497332432870e-02
-2.789679563504897097e-01
-1.876407297015542375e-01
1.273090138986087694e-01
3.751768528582618556e-01
4.172668964881933729e-01
3.096431743795404756e-01
1.630331036319489224e-01
6.048605351624415649e-02
4.566435803002449889e-02
1.007876311465790709e-01
1.458453751173455770e-01
1.196161263107960310e-01
5.228268026938983487e-02
1.932625611295937448e-02
4.601910194369278340e-02
8.640382582016503665e-02
8.561498588256484521e-02
4.481405675228854885e-02
8.284219013351051819e-03
-3.238305891536446580e-03
-8.086213348719086674e-03
-1.645389398482249160e-02
-9.064321020476159146e-03
2.784362193979264544e-02
6.986238484386313174e-02
7.550437579817699529e-02
3.650486529158303989e-02
-1.104551686063363035e-02
-2.791120692593723751e-02
-9.828683800395114287e-03
1.415953391096325294e-02
1.325165037657108705e-02
-1.125368554965680556e-02
-2.821949768533344241e-02
-2.030926426801415996e-02
-8.635411136327979242e-03
-2.198365244776427987e-02
-5.974691794437551884e-02
-9.793255786346510838e-02
-1.182087128494907768e-01
-1.191056117481772980e-01
-1.089573795777195875e-01
-1.000151182009946654e-01
-1.007178629619993604e-01
-1.035330886180304277e-01
-9.202538264573925653e-02
-7.114049082464428408e-02
-7.370724009979373603e-02
-1.190897695494807784e-01
-1.796514476901701352e-01
-2.044884491391062709e-01
-1.728636001345128237e-01
-1.234305693470496568e-01
-1.154253783616132623e-01
-1.307818925299792101e-01
-5.749642413137979330e-02
1.372811064220512134e-01
2.768843909639507328e-01
1.892670866635410565e-01
-5.703018781028322548e-03
-3.636977200848838521e-02
1.536578500118978285e-01
3.725382656689593119e-01
4.439170843159483959e-01
3.556776436453694679e-01
1.985237693906808376e-01
6.161316713132390654e-02
-1.565734510320303252e-02
-4.313908929452499319e-02
-5.427296168593737091e-02
-7.482585317750900522e-02
-1.058521155447944007e-01
-1.259952303529610351e-01
-1.114914073200197614e-01
-6.462810038237358501e-02
-1.866673992055017939e-02
-6.772030890232116386e-03
-3.304675806422151252e-02
-7.605564888208315999e-02
-1.086951316999808376e-01
-1.091953737162264793e-01
-6.443404752258760637e-02
1.169009031504571021e-02
5.048193063497077165e-02
-3.704288419836046509e-02
-2.415705690964576602e-01
-4.124068571020681473e-01
-4.089844036174346553e-01
-2.568429678340986566e-01
-9.599151897000102185e-02
-2.675386449037269951e-02
-4.620876893450565071e-02
-9.074588025813150327e-02
-1.044591370958797005e-01
-7.374245063438240877e-02
-1.966045438143266058e-02
2.235840708763237386e-02
2.420228545063002334e-02
-1.062066466683207581e-02
-5.239798037749476139e-02
-8.403707678598036634e-02
-1.089425036187882945e-01
-1.174235484770065063e-01
-8.496531371962331991e-02
-1.403091253429133468e-02
5.156467288123554177e-02
6.571980472681306085e-02
2.479274388493819814e-02
-2.945393432467457301e-02
-5.032701970845148559e-02
-3.301628761223244363e-02
-2.941496806999960301e-02
-1.039317092124610736e-01
-2.256287491967952918e-01
-2.219562614395494682e-01
1.156180798273673260e-02
2.495915196071763764e-01
1.671969234218124711e-01
-1.339910682860682156e-01
-2.161134697598026677e-01
6.232278645809975759e-02
4.091875115842126820e-01
5.555419605203044675e-01
5.090841162475676640e-01
4.054039969291544088e-01
3.346109432768434866e-01
3.041524678085020805e-01
2.726329470335094873e-01
2.056586479509068810e-01
1.123759705566900052e-01
2.826426134496154430e-02
-2.650436074037796491e-02
-5.922351081930854466e-02
-8.646632096378457921e-02
-1.173658216018464290e-01
-1.474446219316752349e-01
-1.591203848358382911e-01
-1.343341626379088438e-01
-7.611585219413737058e-02
-1.425604111573474178e-02
2.066087094226685267e-02
2.960925562744422257e-02
4.109042304778193211e-02
7.135135128349262557e-02
1.050022468238454437e-01
1.253490532354201437e-01
1.430221771841141409e-01
1.774310538832668538e-01
2.251039405075092037e-01
2.570770695700441699e-01
2.384259087166013258e-01
1.598066488726921086e-01
6.270592662566283615e-02
7.160290470218972844e-03
4.453447009904467138e-03
1.758197045653184590e-02
1.948308111738940307e-02
8.991497015636288476e-03
-8.587211299654617935e-03
-2.489653415055802926e-02
-3.615190448164476433e-02
-5.316437473875305214e-02
-8.098510894747368294e-02
-1.032487113668235090e-01
-1.060681366442606383e-01
-9.715314954927023461e-02
-8.805737016234173320e-02
-7.352627650381349245e-02
-4.051132184897579536e-02
2.830602927869005359e-03
1.021183044339914886e-02
-7.495441879697471721e-02
-2.297252844733550237e-01
-2.762012760551448287e-01
-2.555241225069689731e-02
3.780487190476745640e-01
4.598566435387069773e-01
3.003743068709306685e-02
-4.434369611383204290e-01
-4.226599998886482190e-01
8.014589367878202641e-03
3.603743199329733082e-01
3.759437797747214871e-01
1.743473435200245392e-01
-2.632087165010001811e-02
-1.230169269151605294e-01
-1.291150211563185102e-01
-9.838276898107446711e-02
-7.694759271174012039e-02
-8.685463086444572545e-02
-1.238308835277433517e-01
-1.702149913744853138e-01
-2.155652949993034084e-01
-2.555945264199968037e-01
-2.615554411678562841e-01
-1.838751782065689011e-01
-3.565356250237168567e-02
6.701708548283905054e-02
3.036223775236199587e-02
-9.124604147071306570e-02
-1.726409635331499770e-01
-1.702346985692247960e-01
-1.364237266881448973e-01
-1.281513285426572890e-01
-1.475296807422556977e-01
-1.540443193454294479e-01
-1.106615160490439093e-01
-2.605549001163487768e-02
4.027007945307244097e-02
3.346892728587062132e-02
-2.807382718039061476e-02
-6.374348297081991466e-02
-1.959374779675267242e-02
7.425458526645578594e-02
1.420514027203120255e-01
1.406234528065281875e-01
9.097434154456332522e-02
4.466356086249178431e-02
3.039572949889272901e-02
3.557899989825721865e-02
3.458340363030135145e-02
1.985496826299743001e-02
-1.696822787678410951e-03
-2.722109301207991522e-02
-5.607540928075183811e-02
-7.470506022839724924e-02
-6.083497601847764197e-02
-8.604329009724456453e-03
5.970972816277649031e-02
1.077405718998434292e-01
1.018398901962895842e-01
3.870251202400040724e-02
-8.263136103749799469e-03
6.346069601096236690e-02
1.986425129530861589e-01
1.749885544980039065e-01
-5.031662767352544641e-02
-1.809140843055560555e-01
1.788349168614498247e-02
3.768991491652213255e-01
5.653721161378441051e-01
4.843800180130715671e-01
2.876624882794559523e-01
1.400077141556289040e-01
7.247406936203908134e-02
3.828319371318628095e-02
1.255519657652316191e-02
4.412021157879843225e-03
1.553563766180386663e-02
2.541379660194563461e-02
1.357476003045508806e-02
-1.847680626812199522e-02
-5.075041017953097616e-02
-6.584840971956662514e-02
-6.282773291544019312e-02
-5.107948877239293362e-02
-3.798830783530850880e-02
-2.838090275141685881e-02
-2.548423651813876839e-02
-2.077310073823153413e-02
1.357918329044192560e-03
3.209400373205366364e-02
3.291953039603524866e-02
-1.404947051778404621e-02
-6.692051031302546915e-02
-6.223640494085584673e-02
6.690995765844240384e-03
7.231561921366409795e-02
7.206963512835153074e-02
2.434195445820135778e-02
-5.006016123102429577e-03
8.286492206719002496e-03
2.776601618863139623e-02
1.462448817608899554e-02
-2.736686200094751859e-02
-6.678350134306773600e-02
-8.261244393218851456e-02
-7.773577799287151313e-02
-6.431561270454604073e-02
-4.524967229666094354e-02
-1.467268900657374940e-02
1.994137846847311712e-02
2.885617318608030973e-02
-8.711452372849605094e-03
-7.440124531944317110e-02
-1.308157313809937550e-01
-1.589513050543389650e-01
-1.589814174178216799e-01
-1.384681182892894269e-01
-1.266353031788644279e-01
-1.673361962418519755e-01
-2.384019187969070308e-01
-2.064329898946152819e-01
1.103657794501059983e-02
2.409524665164964052e-01
2.236729311594716219e-01
1.088616444460763222e-02
-7.148173828322725021e-02
1.202115983331563526e-01
3.880862872777588457e-01
4.901228919775930670e-01
3.922506433053309371e-01
2.208819075181384650e-01
9.371941622500566671e-02
3.650931732727220880e-02
1.984471003114797807e-02
1.947653245587005824e-02
2.518035514814572634e-02
2.736732025853853140e-02
2.216042971344920481e-02
1.491053997839214204e-02
6.177231775967321689e-03
-1.210581611229457136e-02
-3.868151244393808891e-02
-5.845831978836731752e-02
-6.798462026621635013e-02
-8.431570922337175422e-02
-1.083341517656663811e-01
-1.045233762586255805e-01
-4.912807766461160797e-02
2.482053359400792497e-02
6.423438606447912091e-02
5.356524646421988861e-02
1.333654801763805263e-02
-2.405515902125602082e-02
-2.594013448704931418e-02
1.156825876825314653e-02
4.367555486023533967e-02
2.517066357849551822e-02
-2.762965834974090429e-02
-6.002924657504537381e-02
-5.324341335485027055e-02
-3.498672454044492175e-02
-2.510210310694188998e-02
-2.027038318440919917e-02
-2.986944035737262859e-02
-7.208319458917626654e-02
-1.322059808081375298e-01
-1.699209819554000078e-01
-1.660147581016127583e-01
-1.357055302691630161e-01
-1.059972906605514409e-01
-9.358548234666781707e-02
-9.962615182112677381e-02
-1.212258106879245956e-01
-1.555852698755333663e-01
-1.835815259268596400e-01
-1.772884696416424377e-01
-1.535115894630155742e-01
-1.840303839529846830e-01
-2.796131424258526121e-01
-2.834880867648788549e-01
-4.259032321486741490e-02
2.590027747632340782e-01
2.124073308621999279e-01
-2.044953819023009323e-01
-4.864043137054119836e-01
-2.905124078087223394e-01
1.214181030226804958e-01
3.212628313621159193e-01
2.348247967032815464e-01
6.790635559776352081e-02
-2.437453128319628723e-02
-4.540078933550667495e-02
-5.561395526709313891e-02
-7.981640248733519460e-02
-1.044593143153415005e-01
-1.169258604077734881e-01
-1.252738935923311536e-01
-1.408862041332326065e-01
-1.547515985877865041e-01
-1.432391388274075472e-01
-9.711157264960956770e-02
-3.708598746100634502e-02
2.728996438841046861e-03
3.786419732931360638e-03
-2.473138678418324715e-02
-5.556186925876915178e-02
-6.277294589155227311e-02
-3.732269170696037724e-02
1.032906177225189487e-02
5.737373239140058229e-02
8.362017945796365592e-02
9.195788984239321173e-02
1.045558906901093710e-01
1.248098878533891593e-01
1.247055809931721104e-01
8.648617184677225012e-02
3.035261671896729435e-02
-1.161926186537761904e-02
-2.404149549195100030e-02
-7.106037172249977246e-03
2.687147025906091308e-02
5.053500500091578224e-02
3.439914622849820497e-02
-1.970058894758005413e-02
-5.021155385942953353e-02
2.506707050890593161e-02
1.864578687046489491e-01
2.754898433001064517e-01
1.782779208691584738e-01
-7.175794828843774092e-03
-8.901597321372729799e-02
-9.686662916855381944e-03
1.196282312528360869e-01
1.694980149989556428e-01
1.222466401526397239e-01
4.292068163079224008e-02
-3.888564140814451675e-02
-1.334673604628121291e-01
-1.695876960058495808e-01
-1.149680763030237578e-02
2.968856789669688245e-01
4.563775358977457675e-01
2.707139705426003240e-01
-5.475901117462549095e-02
-1.709208264638771013e-01
-9.404881269294854129e-03
2.143420534883828388e-01
3.046878587464134092e-01
2.554043898859694184e-01
1.678871436734817868e-01
1.026960674309310428e-01
4.349234568884603053e-02
-2.386035815524489845e-02
-5.829307339576203506e-02
-2.571950252541358936e-02
2.870815257067435219e-02
2.945493366483541153e-02
-3.352960854214402653e-02
-1.042068423460376370e-01
-1.313657098519975530e-01
-1.089668800707312979e-01
-6.631548342844335864e-02
-3.888265430773025361e-02
-3.874403743721227533e-02
-4.658001606649260495e-02
-4.089546107750920839e-02
-2.885916772255560023e-02
-3.196521548858147904e-02
-5.098215837752068103e-02
-6.325598542393078005e-02
-4.617720785615096746e-02
5.744731309167647529e-03
7.377733123752536204e-02
1.194160811816252360e-01
1.114131630319059041e-01
5.813831899526195057e-02
4.294784365816766911e-03
-1.363511095033766336e-02
-2.079846144840016495e-03
7.186017503660395780e-03
2.771999949618287468e-04
-5.581192693884068703e-03
8.639657503265750493e-03
3.035014985732521764e-02
2.416537084024492077e-02
-1.996538901614741679e-02
-6.526858142488703440e-02
-7.116543366633931722e-02
-4.134545372982249833e-02
-1.254108868750821761e-02
-1.105531240315142834e-02
-3.236556137547181439e-02
-4.755895615174275670e-02
-2.666142697592753172e-02
1.885109105499268786e-02
1.937650536822765890e-02
-7.387300467125623715e-02
-1.714507659756184799e-01
-1.015515110784711156e-01
1.167763349482704299e-01
1.946289320673787460e-01
-1.779232202449814587e-02
-2.197173944907443166e-01
-5.728631712207189752e-02
3.613499134623500142e-01
6.411322556298878483e-01
6.074460247776866106e-01
4.113712210155193727e-01
2.580216598369847181e-01
2.041089318933663743e-01
1.992156200949433686e-01
2.104933804391695695e-01
2.438026112777750554e-01
2.817937586593705079e-01
2.767785486098632286e-01
2.121180538400424531e-01
1.235488400508441137e-01
5.242810127865904501e-02
8.551502374209183494e-03
-2.170001950318323214e-02
-5.076884515971839817e-02
-7.550178661490614118e-02
-8.673802206092316724e-02
-8.818841342791339244e-02
-9.215728598777206404e-02
-1.045347089817477426e-01
-1.300417180805275574e-01
-1.789154727305660442e-01
-2.473308299821446454e-01
-2.968468219902409277e-01
-2.759836512434001854e-01
-1.773155837801419776e-01
-6.656168089380953834e-02
-3.329014772636657016e-02
-1.022457827123187946e-01
-2.057002821447924401e-01
-2.555022840308974197e-01
-2.309859019353173726e-01
-1.818417052861752703e-01
-1.609263701370887423e-01
-1.780539880286037269e-01
-2.084885831499909137e-01
-2.181976487204128623e-01
-1.841084496942590742e-01
-1.195257927034794609e-01
-7.872128517745544118e-02
-1.027621969193519003e-01
-1.634104050148151299e-01
-1.967960990788548969e-01
-1.842007862635932358e-01
-1.595010521791706548e-01
-1.461477634264567449e-01
-1.286468211148903695e-01
-9.150980421537500964e-02
-6.856745221866211715e-02
-1.318254056279925257e-01
-2.800556018052405283e-01
-3.413710628902604793e-01
-1.366268471663356632e-01
1.929384192572276557e-01
2.629571673680925481e-01
-6.341700305287259476e-03
-2.239704348323394156e-01
-7.714429482739600108e-02
2.741598370533759876e-01
4.908095708898266851e-01
4.624490453853971617e-01
3.085202796016826010e-01
1.625670409780261283e-01
7.100292027460441968e-02
2.729775444328370534e-02
1.063979045684967234e-02
-1.807701906752157833e-03
-1.992180773019990719e-02
-3.845380353737656159e-02
-4.865472597989980302e-02
-4.419993861378588434e-02
-3.292176317766749849e-02
-3.755138762673842362e-02
-5.760525040069925523e-02
-5.409344287936127676e-02
-7.421319700412532666e-03
4.128999037993110605e-02
4.255925681226397500e-02
1.874340923275721882e-03
-3.681174629097150319e-02
-4.696861873927363207e-02
-4.074620844395381025e-02
-4.225023334212523601e-02
-4.677981711783783109e-02
-1.972468304533027406e-02
5.156151481577853080e-02
1.213209827884100117e-01
1.275904418337535651e-01
6.518201680332749715e-02
-8.944197245650098438e-03
-4.112649741101522677e-02
-3.074496780869549750e-02
-1.660904458278006715e-02
-2.902458837681928111e-02
-5.604690516082514590e-02
-5.629799699861298690e-02
-1.101444206559746078e-02
4.706837193200950203e-02
7.192851333642619194e-02
5.596007610897439644e-02
2.677342263949274159e-02
9.582228370927479630e-03
5.830125515491269700e-03
-6.704715667842674805e-04
-2.000416172226223213e-02
-3.852527177882458104e-02
-3.559069225087672927e-02
-2.624950421339260209e-02
-6.956671482416580676e-02
-1.801961746453885627e-01
-2.200785867718104138e-01
-1.621739954490413263e-02
3.109956296861440816e-01
3.628117891127093930e-01
1.719541994702819543e-02
-3.141517670267356399e-01
-2.336992094341644177e-01
1.394027700975479789e-01
4.197265946260808622e-01
4.326885019129491083e-01
2.846178770504803612e-01
1.397724516654196281e-01
6.263599990240455162e-02
3.174790852947068087e-02
1.968270667906918750e-02
2.174699332674866897e-02
3.155328447932087554e-02
3.277213055034058214e-02
1.924790300672599846e-02
-2.002171167588447098e-04
-1.792781790431678679e-02
-3.316106465870571895e-02
-4.479279902296938454e-02
-5.233123418627444456e-02
-6.080395158753213597e-02
-7.097118507842524460e-02
-6.748771513994328286e-02
-3.363264008594616522e-02
1.983012857555645908e-02
5.716059644270271578e-02
5.525878609426546073e-02
2.664487287988319408e-02
5.223825510563889427e-03
1.658761726623134841e-02
4.970609118180299713e-02
6.025208698612993796e-02
2.619123473387358070e-02
-1.442314060752911652e-02
-1.146030543461858120e-02
3.067744854494858925e-02
6.369478636918919634e-02
5.632385301928603122e-02
1.961289716546669309e-02
-1.844492792707991616e-02
-4.242674436266010568e-02
-5.248155369113308849e-02
-5.062678652025122406e-02
-3.623236678650356563e-02
-1.576611759046590844e-02
-5.979169864910641695e-03
-1.882013821737792136e-02
-4.450068605592588655e-02
-5.857229576202491184e-02
-5.099328217745516256e-02
-3.568839337827416081e-02
-2.698765317141984393e-02
-3.621335392608982656e-02
-9.303333032703159367e-02
-2.008413104708481056e-01
-2.481255697586207398e-01
-8.458970816131702875e-02
2.253259580960471631e-01
3.727596358865117865e-01
1.851565430619006580e-01
-1.128917822185252218e-01
-1.905807343395670983e-01
-1.140325838928051352e-02
2.055987784353717207e-01
2.845636987182006972e-01
2.220807289124552275e-01
1.080795540639748614e-01
2.365607717739008631e-02
-8.133539500790732193e-03
-1.850700034907036551e-02
-3.858607418417044077e-02
-5.728870724486029992e-02
-5.100088020332087940e-02
-3.129160958043488566e-02
-3.161385774858897074e-02
-5.672643789433094025e-02
-7.409862678943346381e-02
-5.899511749707982838e-02
-2.471303593991932071e-02
1.203456141209276360e-03
7.361726763107879698e-03
-4.876854526154196512e-03
-3.089534450106039276e-02
-5.853751006880843211e-02
-7.079472979918388642e-02
-6.229649183425061548e-02
-4.695783365984938090e-02
-3.881245176853958395e-02
-2.985275907234090711e-02
-6.863020842892525800e-03
1.327953600571853306e-02
-5.747185145184866006e-03
-6.802555027847832780e-02
-1.260417034639704781e-01
-1.239492787362026505e-01
-5.561717061721725003e-02
2.564823203526077691e-02
5.797654507724980810e-02
2.741008671191894064e-02
-2.925910718303962460e-02
-6.628591242525705418e-02
-6.408261346234311873e-02
-3.311642636359161257e-02
9.079999663063951891e-04
1.565901275362971065e-02
8.497555272237049262e-03
-3.540926543837574596e-03
-4.344826274975300759e-03
7.262689713825569091e-03
2.770458923326970038e-02
5.699645833062007283e-02
7.774883261121952327e-02
3.887787280791327876e-02
-8.625060886060896548e-02
-1.986114640509086537e-01
-1.236295711630748945e-01
1.167794384666119289e-01
2.098817785050522688e-01
-2.742814440750248467e-02
-2.939149326487555669e-01
-1.951698654478638550e-01
1.955834963030252116e-01
4.832304847012371396e-01
4.691080404320230879e-01
2.772811975218034686e-01
1.076709988363986348e-01
4.114279215484972774e-02
3.966454581843520399e-02
3.910782464498649413e-02
1.688481772260225916e-02
-1.158458319602346902e-02
-3.158883634331277612e-02
-4.632426033208827260e-02
-6.046551526055909259e-02
-6.362351866662774302e-02
-4.437690226515791925e-02
-1.352876730101926564e-02
3.360228908445429818e-03
-6.358305055603990022e-03
-3.124338260291904118e-02
-4.906437436906345428e-02
-4.941433589461610709e-02
-4.123406904233187231e-02
-3.462443320689004983e-02
-2.810931364106441024e-02
-2.174184339231904212e-02
-2.006166783999651509e-02
-1.082693720389252615e-02
3.029294048993770930e-02
9.580031258778518022e-02
1.335420362555345408e-01
1.010081703708734790e-01
1.610592360217270869e-02
-6.310197358200884954e-02
-9.817997853094831417e-02
-9.808903385251370455e-02
-9.150403486775574025e-02
-8.536171809210382766e-02
-6.500121624287584499e-02
-2.897504447426610397e-02
1.063851235361462297e-03
8.468396760202431817e-03
-3.445594764015673817e-03
-2.775071010774283337e-02
-6.264070310851865830e-02
-1.006072492582367611e-01
-1.287758189389058838e-01
-1.421347200365054575e-01
-1.392814570379696248e-01
-1.090919711556267852e-01
-5.161829488636861252e-02
-2.077815432841852161e-02
-9.729282179894666038e-02
-2.510791331323801723e-01
-2.676505820974450223e-01
1.308741809850068327e-02
3.562211146573953102e-01
3.276629137500347566e-01
-6.160612509950227217e-02
-2.980109468191237121e-01
-8.405199703233176556e-02
3.042743030505637991e-01
4.776759395889519366e-01
3.796489016859330712e-01
1.912656857993661474e-01
5.067275532476644972e-02
-2.741873414345321822e-02
-6.705153653445936057e-02
-7.168797710910865262e-02
-4.592067890168308880e-02
-1.718202405875025179e-02
-1.094120723803320566e-02
-2.783995708117084633e-02
-5.651581258030642652e-02
-8.847649807727975269e-02
-1.137975982798144770e-01
-1.209336227092942251e-01
-1.076888544087600402e-01
-8.269371212706479179e-02
-5.457606403302599218e-02
-2.429556887844069174e-02
1.218031153793969895e-02
5.056747799602752391e-02
6.829330098345430533e-02
4.519646496731507396e-02
3.997672972609091213e-05
-1.692822000627895729e-02
1.705431525878100402e-02
6.510769921605055743e-02
7.650616168996692001e-02
4.641801647260693220e-02
1.094495584343749967e-02
8.139504089525084925e-04
1.555416718424752244e-02
3.090293909380292109e-02
2.258023774989137422e-02
-1.058480690489544546e-02
-4.164549845858405569e-02
-3.961657939105193982e-02
-5.486288979772741860e-03
2.416693793552629130e-02
1.809361286582866074e-02
-1.563662570315163883e-02
-4.494382949846312952e-02
-5.140880326937916078e-02
-4.259926981908915278e-02
-3.433255427100968815e-02
-2.902288098677266101e-02
-9.407844170086838986e-03
4.007027988155252574e-02
8.856750388883577463e-02
5.660142083549798975e-02
-7.239058419320497373e-02
-1.426041720094728960e-01
2.027071791272977777e-02
2.889348795495322864e-01
3.081683754950718668e-01
1.164542254454507819e-02
-2.347883390367395962e-01
-1.410404402177327654e-01
1.623494672831892749e-01
3.833933695240113737e-01
4.122109306503735637e-01
3.227004830835492055e-01
1.987327811983241876e-01
6.651185042580233520e-02
-4.929821648710119159e-02
-1.024170949893585397e-01
-8.092479890391965358e-02
-3.068167569551913734e-02
-1.290202671638386242e-03
-1.757567465595981718e-03
-1.934419282453186256e-02
-5.289146900418744551e-02
-1.055879018543004200e-01
-1.591296711734024316e-01
-1.832409789706018199e-01
-1.684531318331479455e-01
-1.304852561830559532e-01
-8.783702337234799984e-02
-4.895483932358594276e-02
-1.730341874430824101e-02
1.734608057847050397e-03
3.519624705109126311e-03
-8.226270873490232338e-03
-1.943745176318390985e-02
-1.562819822560194277e-02
9.319998490683138997e-04
1.185553519762630459e-02
8.939154260017321413e-03
3.972706314779462372e-03
3.847346228123557123e-03
-3.425115917148160213e-04
-1.161833834169742619e-02
-2.096127005966852072e-02
-2.786683309157171606e-02
-4.007644760672508105e-02
-4.836751584046831975e-02
-3.005110279721842984e-02
9.334639314756950149e-03
2.691436727139039087e-02
1.443642068005593967e-03
-3.078950168209642138e-02
-3.252191282420840990e-02
-2.253468112529560460e-02
-4.602388459904095674e-02
-1.112201896292036446e-01
-1.704834371474827082e-01
-1.671255588852018914e-01
-1.105597277327408923e-01
-8.776220150151213539e-02
-1.596697447674045311e-01
-2.420758537738804117e-01
-1.667767613456284104e-01
6.858997352867580999e-02
2.208357917846851814e-01
1.197185492009425062e-01
-6.468026825544059832e-02
-6.290211393657998973e-02
1.288126268521409268e-01
3.045104347589080995e-01
3.356896071032905438e-01
2.577783489320330523e-01
1.601286927214385369e-01
9.222122337284610616e-02
4.965061741501811121e-02
5.376790761757940795e-03
-4.941217358742849841e-02
-9.593072568850130599e-02
-1.137671092418429813e-01
-1.007944092584772133e-01
-7.429489185708833265e-02
-6.173584507586539483e-02
-7.250789954769509826e-02
-7.528570767974186728e-02
-2.836975111234670693e-02
6.282942251047485271e-02
1.361100294656549803e-01
1.298442746491957345e-01
5.170601945797206889e-02
-2.385199128956255743e-02
-4.140415828928091513e-02
-2.356008228909281521e-02
-2.449141797225050030e-02
-5.487816069357309007e-02
-7.449197966508733226e-02
-4.617224853958890735e-02
1.154812550590016314e-02
3.647346286367086216e-02
-3.817799671753937824e-03
-7.381627217934276508e-02
-1.175734743961307505e-01
-1.156090378476632569e-01
-8.478741588350317826e-02
-4.996570075681524420e-02
-3.041466946310325895e-02
-3.689739980166650835e-02
-6.602524725324619703e-02
-1.047487691468244053e-01
-1.438633432631792330e-01
-1.713607816522540184e-01
-1.581330838686042795e-01
-8.378888559412220327e-02
1.876531406970439325e-02
7.816879274938449973e-02
5.687472949512227538e-02
-1.320538878796050954e-02
-7.062543436814552877e-02
-8.649681848031133546e-02
-9.681294253036498709e-02
-1.562886619661586485e-01
-2.159696050370130682e-01
-1.215190210203612731e-01
1.286094232491719058e-01
2.401193746166965792e-01
9.303676847356567164e-03
-2.777369081126618844e-01
-1.977884839259930472e-01
2.004071244485586822e-01
5.019873311612181865e-01
4.887350251577812221e-01
3.023874464300379539e-01
1.589176414898272882e-01
1.184287344155300209e-01
1.184210839327342335e-01
1.013361305035232335e-01
6.513062368695571314e-02
3.750124230408703740e-02
3.608913418376188953e-02
4.770053848481765890e-02
4.772163329334484783e-02
3.951029839045876874e-02
4.719901915189911312e-02
6.733344951260047950e-02
6.627283338772624321e-02
3.315658184912452511e-02
7.113687291027896275e-04
4.374221292721179946e-04
2.123664824943844592e-02
3.157501389336073161e-02
2.602306922349579762e-02
2.204890431191940114e-02
2.292942830404656046e-02
1.904111405572042615e-02
2.085224953691103625e-02
5.094465218427999403e-02
9.489196037519058435e-02
9.971171663766442705e-02
3.954678365831434256e-02
-4.838701724410209709e-02
-1.047954409769982637e-01
-1.034479214326150393e-01
-6.443851194579292008e-02
-2.559734503208006481e-02
-5.924890964492665786e-03
-1.902971257590001242e-03
-9.426529607004307393e-03
-2.929970796204268979e-02
-5.730734985471333531e-02
-8.587216504145039897e-02
-1.117329024116913150e-01
-1.345962965434791825e-01
-1.517544029918153903e-01
-1.582532917647563597e-01
-1.540515311529362941e-01
-1.460405311667650752e-01
-1.355041870537162518e-01
-1.197675520836407603e-01
-1.289555584314241166e-01
-2.215947397045169576e-01
-3.638638810076532670e-01
-3.466246890721758067e-01
-3.779431641585138946e-03
4.450502809786031078e-01
5.374301259874314507e-01
1.800561026747901083e-01
-1.802473420255934489e-01
-1.266963137635185310e-01
2.759542338607984813e-01
6.781020558094805750e-01
8.469482208597283179e-01
8.016324994288541728e-01
6.888426829166015564e-01
6.141391496749574186e-01
5.859980033647672615e-01
5.629894916735155297e-01
5.029241693798857105e-01
3.817407206086162463e-01
2.106696553354347468e-01
4.151423069352295353e-02
-7.086400710776358247e-02
-1.225717638505502416e-01
-1.580285349783823734e-01
-2.035558515421608539e-01
-2.332730534660984456e-01
-2.170545094061731572e-01
-1.719257292560600614e-01
-1.447837865150621850e-01
-1.575429126612199748e-01
-1.859095485397075920e-01
-1.962379907930176803e-01
-1.877165910244176783e-01
-1.778027192662659517e-01
-1.611774643759789905e-01
-1.197122094070714321e-01
-7.065490937242253910e-02
-6.366786137631258446e-02
-1.170790586787240767e-01
-1.889781979937844858e-01
-2.254598799934605380e-01
-2.142752814325604438e-01
-1.814341219855750698e-01
-1.573005775170061016e-01
-1.595870535280655977e-01
-1.886585692029187356e-01
-2.232545574720960213e-01
-2.356550224581308306e-01
-2.156070955170532599e-01
-1.698612901754390225e-01
-1.114777744405987397e-01
-6.004107752836488482e-02
-3.557371974530010306e-02
-4.214725534305227561e-02
-6.361358259614689759e-02
-7.464270840350271941e-02
-5.231260362093013982e-02
6.445339109621122525e-03
5.592861192803429138e-02
1.631040660700799547e-02
-1.136258279739281174e-01
-1.700631350321024915e-01
3.147192780366953394e-03
2.593618818183978103e-01
2.675215474010508299e-01
9.615595080847305631e-03
-1.525362557850464817e-01
7.274435356898365998e-03
3.147734527176827557e-01
4.900429797445677305e-01
4.496313729479862742e-01
2.902792445564543744e-01
1.369224923634688729e-01
5.143215696565695688e-02
2.698000313848205114e-02
2.265202132716609765e-02
1.659368527102050850e-03
-4.281410153181675754e-02
-8.919755631422110476e-02
-1.174974274545993042e-01
-1.324525214996729316e-01
-1.496091089443557787e-01
-1.695506014024107388e-01
-1.852836329689227512e-01
-2.051408663096287999e-01
-2.361942994589067701e-01
-2.534232015808332572e-01
-2.262531987347928542e-01
-1.677313413437672707e-01
-1.200981384433486704e-01
-1.055961770171245651e-01
-1.194153381024050525e-01
-1.454913741414391171e-01
-1.507285072235493573e-01
-9.708477054349883006e-02
4.778253762840797142e-04
5.990931322562041000e-02
2.311550178620488255e-02
-6.573877557221927126e-02
-1.150758242172780083e-01
-9.497618803006720178e-02
-5.633992727083599744e-02
-5.581018693860106961e-02
-9.098962687458179988e-02
-1.152517162027302811e-01
-1.019385980836571698e-01
-7.600837041625053969e-02
-7.719728772238686199e-02
-1.064630981523642383e-01
-1.288711442092982107e-01
-1.272654949443336736e-01
-1.251417240260467578e-01
-1.438701790129469082e-01
-1.583568744274644335e-01
-1.187755711072604609e-01
-2.373188172110500538e-02
4.989506508888086334e-02
1.949282328324335872e-02
-1.182987717439269310e-01
-2.817186705616663289e-01
-3.399023098610228222e-01
-2.003786132203409509e-01
4.280801413445439046e-02
1.404254393667675460e-01
3.931879722668580462e-03
-1.403481072523400930e-01
-5.332835416646008325e-02
2.106993826135869774e-01
4.131895650027809230e-01
4.140225534192288337e-01
2.662109286127828933e-01
1.135212806540575048e-01
5.421428199761507694e-02
8.059875190123563793e-02
1.164470875163270552e-01
1.044054157196375454e-01
5.629816545333242439e-02
1.805801384096442086e-02
4.764296378602293942e-03
-5.003174146426796892e-03
-2.229335524688114828e-02
-3.241463301153028193e-02
-2.947698300246525543e-02
-3.324883692344996616e-02
-6.103555430145640032e-02
-9.897266399909282475e-02
-1.088728921753644441e-01
-6.786709129557315368e-02
-1.440880063290081795e-03
3.806941581110270811e-02
2.836690199745333166e-02
-5.716106621462784323e-03
-2.858695092744087743e-02
-2.143053598173806640e-02
1.656638205059805802e-02
6.043696005726326842e-02
6.877064510683324194e-02
3.228151458402094692e-02
-9.355551134240698563e-03
-1.864241196836404629e-02
-2.601914894913683399e-03
6.646470659429488254e-03
-6.634349002582127543e-03
-2.933947801136731898e-02
-4.073747003992330556e-02
-3.929454204113745630e-02
-4.360557959137967982e-02
-6.223594161730201801e-02
-7.451556185894843420e-02
-5.998115834316040257e-02
-3.461428105686940176e-02
-3.054869892781363755e-02
-4.684767233691275456e-02
-4.531499062907334840e-02
8.942691427166499230e-03
1.160630280885883714e-01
2.321901505061413351e-01
2.805840692939752801e-01
2.224078402185322156e-01
1.615699685686289300e-01
2.884402936399184658e-01
5.752235682240334214e-01
6.516039367423823725e-01
2.837269635217669062e-01
-1.630232849286326613e-01
-1.548545717990892912e-01
2.803842167269597341e-01
6.668580649774603630e-01
7.321701547487248218e-01
5.999777771326878506e-01
4.796909475867310313e-01
4.274895081002691444e-01
3.902726425599711280e-01
3.319646234212643154e-01
2.633883074452056383e-01
2.033602034997268049e-01
1.569051563679335071e-01
1.210764820682872223e-01
9.451921433113119608e-02
7.822964986441147128e-02
6.635047651301707872e-02
4.255850129280657618e-02
-8.710082537225674604e-03
-8.688497315025425771e-02
-1.677086528454550807e-01
-2.165481365723932183e-01
-2.195918586147874718e-01
-1.961236502039077345e-01
-1.730835908391999134e-01
-1.593500389170444953e-01
-1.512045903362534416e-01
-1.421251050089820112e-01
-1.202419229877973034e-01
-8.679153156727213714e-02
-7.916716938441134555e-02
-1.317561673809711786e-01
-2.108522185316091813e-01
-2.346016462022420535e-01
-1.670326159866836468e-01
-6.197114522128883973e-02
-7.252353943591506591e-03
-4.075825966030391379e-02
-1.210615138220454967e-01
-1.753698969782251926e-01
-1.770758350148798066e-01
-1.623999691900797349e-01
-1.669510223828565287e-01
-1.803147134020484654e-01
-1.793345083254744843e-01
-1.711008503875302289e-01
-1.777139377409369114e-01
-1.966714345977303713e-01
-2.005878961260007531e-01
-1.746816246423195385e-01
-1.345273841454686925e-01
-1.058341284156785744e-01
-1.137321969188529736e-01
-1.802466419223716088e-01
-2.649179228470859848e-01
-2.147793016987459003e-01
9.083546525867371157e-02
4.963971348028781150e-01
6.450571795868239589e-01
4.071433995185377297e-01
6.729263516685757285e-02
-3.533324580004237880e-02
1.036541707317585465e-01
2.379640532564588074e-01
2.114439579437705496e-01
9.001349447828851935e-02
9.703425190374748849e-03
4.565979774857236925e-03
1.178121691659349268e-02
-1.449029757029933300e-02
-5.691143789465263891e-02
-8.993582386844202470e-02
-1.209126831298697191e-01
-1.577229477514783262e-01
-1.788820376403930934e-01
-1.645547629867887829e-01
-1.289590322829156643e-01
-1.000001839127577785e-01
-8.555070799107461488e-02
-7.021911206041943354e-02
-4.029036505026198367e-02
-1.016699889042312066e-02
-7.174125798012138955e-03
-2.524543421757979161e-02
-2.806969405509706500e-02
-6.704428792683598572e-03
3.297435389119302354e-03
-3.038700351900829044e-02
-9.760668910285857924e-02
-1.522483500847753024e-01
-1.502879710739019048e-01
-9.546026680779030882e-02
-4.002818634248026669e-02
-2.418688029149398261e-02
