-5.841267623024760935e-02
-2.412325803471152691e-02
4.968945162527626386e-02
1.403722233004283115e-01
1.863551628807510741e-01
1.576247529963510363e-01
8.239798997358369070e-02
1.201293357467312153e-02
-2.488434410528496399e-02
-3.354803450263399434e-02
-2.580895986456248348e-02
6.114867760094016766e-03
6.516030431811439816e-02
1.006145690813494697e-01
4.780679311925781910e-02
-2.383607725521908263e-02
1.125862533198706827e-01
5.281422518814354872e-01
8.550798957919509835e-01
6.552421505400554125e-01
6.683851555671854738e-02
-3.285019034176448471e-01
-2.501355953445029701e-01
7.404427672039479158e-02
3.407257509206531032e-01
4.523733174683664537e-01
4.351378773495231389e-01
3.270287883616875835e-01
1.734852383915029272e-01
3.678606889817319370e-02
-3.537794266561356676e-02
-4.182589886231807136e-02
-1.601601418368221730e-02
1.096959585385541905e-02
2.806521319022513630e-02
3.598456218758806779e-02
3.347794395302981785e-02
1.350997213608336536e-02
-2.808163030095014306e-02
-8.367506206647408462e-02
-1.332873501331449662e-01
-1.515392153229462857e-01
-1.230238862141297962e-01
-5.495882538485281910e-02
2.886988516770344626e-02
1.063386430991992426e-01
1.672878234197509306e-01
2.023529848377872975e-01
1.871118703627530633e-01
1.036886417760709694e-01
-1.779344252137314564e-02
-1.120528186622805483e-01
-1.370320783386893282e-01
-9.957030243770371991e-02
-3.592648930146182668e-02
1.475201794256035016e-02
2.553955121263352598e-02
-1.248464661354419317e-02
-8.453178577096237545e-02
-1.567061160699408096e-01
-2.016812250957022434e-01
-2.098727683898746199e-01
-1.709130397073755359e-01
-8.116296987640224392e-02
1.763912471043908164e-02
5.519271309507360612e-02
1.214445336550130233e-02
-5.093244565503028676e-02
-6.597184319523485829e-02
-5.151080857801544621e-02
-1.115538219354775679e-01
-2.774856706952517071e-01
-3.326017820052893370e-01
2.938421713318956074e-02
6.959468186459799588e-01
1.028324842390405669e+00
6.158528049835122475e-01
-1.196007723250095273e-01
-4.759702628852283124e-01
-3.225887950335882270e-01
-3.594742866385022828e-02
9.878777508817174202e-02
9.975283526823275349e-02
8.851723011509213257e-02
1.117072910600496044e-01
1.396874906340148381e-01
1.395483219736380065e-01
1.088821236980432872e-01
5.339466653372324650e-02
-3.640114751720958247e-02
-1.558120553947059395e-01
-2.317893292110324854e-01
-1.611837647091913794e-01
3.885279825199755566e-02
1.879245694298464220e-01
1.483319312602283391e-01
-2.674059076934534596e-04
-9.430051156111174393e-02
-1.017558577849130841e-01
-1.083878116681477322e-01
-1.610433790902197071e-01
-2.028560322261174775e-01
-1.518292896529065683e-01
-8.419605134710669847e-03
1.330355547384812764e-01
1.779534148891838419e-01
1.187859840964700514e-01
1.692354569043654638e-02
-8.039996967349800905e-02
-1.685974666676621214e-01
-2.432311412578640197e-01
-2.809816098138204210e-01
-2.711172716844101327e-01
-2.277774091487032859e-01
-1.684335785922860262e-01
-1.069975861789871918e-01
-5.865386082247762978e-02
-3.125866509554583311e-02
-2.228891049484856002e-02
-3.050331933729034245e-02
-5.553924078910919132e-02
-8.399141150797614919e-02
-9.181343372590478058e-02
-6.213581711829153226e-02
5.937349415730854875e-03
8.715697677364012130e-02
1.130656110149265148e-01
1.915492548057487129e-02
-1.099595026740084608e-01
-4.506979917369089914e-03
4.669355385386096402e-01
9.316356545877505502e-01
8.168477021591729059e-01
1.190923161971782634e-01
-5.207293108172827978e-01
-5.967529159116040649e-01
-2.164605747600985564e-01
2.077825451419929026e-01
4.036581855707287447e-01
3.509089472028226742e-01
1.735890037130482233e-01
6.153488679826023960e-03
-8.918516366958371966e-02
-1.256211342943179543e-01
-1.358639273082407062e-01
-1.295067339904200088e-01
-1.049408603923619593e-01
-7.732672083663456875e-02
-7.363230043492012544e-02
-1.049893676478910187e-01
-1.576060584625155747e-01
-2.075296406316568809e-01
-2.324806854287156666e-01
-2.150941189050545321e-01
-1.522033510190277938e-01
-6.843265318066873992e-02
-7.911249440447463629e-03
1.117378677527058883e-02
2.958544701246788519e-02
9.786277631551232314e-02
1.914088005706901796e-01
2.215850401332114250e-01
1.447970363304016406e-01
1.775250283283382607e-02
-7.387623097159720653e-02
-1.060673227264654350e-01
-1.034586412551830037e-01
-5.638230629969114005e-02
7.822433617461735378e-02
2.555283934318232641e-01
3.115360243604371471e-01
1.529460800756579086e-01
-9.688151793173842286e-02
-2.405781628540240302e-01
-2.201758956054057637e-01
-1.205197417945252092e-01
-3.662594449311785266e-02
3.606609577843250015e-04
3.549476217635199118e-03
-6.338273515974633850e-03
-1.218020042693983285e-02
-1.231903985716582654e-02
-4.811922283963690483e-02
-1.865445283115699793e-01
-3.907475981197002790e-01
-4.042610536231122653e-01
4.206463219897212114e-02
7.604577585374435733e-01
1.098400806598748947e+00
6.909479305287049566e-01
-3.988955621566003806e-02
-4.287521296078136701e-01
-3.078499594293803154e-01
2.450357569822995962e-02
2.640545904375796726e-01
3.204290658679104786e-01
2.610339519063905045e-01
1.926951930807163649e-01
1.677076088332503101e-01
1.564993089149672445e-01
1.031383229143698066e-01
-4.560876223862497282e-03
-1.260408754538845100e-01
-2.095504517789459342e-01
-2.273763490667145004e-01
-1.822469139803003235e-01
-1.006757724393383402e-01
-2.355323092312861313e-02
1.162186843781116974e-02
-5.670521132586299126e-03
-5.009278999759903678e-02
-8.464548953841953549e-02
-9.942019030842796923e-02
-1.143122924290644604e-01
-1.327882759180116223e-01
-1.122084106681954380e-01
-9.687709704053601087e-03
1.489034851125490833e-01
2.730985588335476666e-01
2.826090857140506341e-01
1.703511238577134490e-01
2.731947812748127674e-03
-1.316794892930129024e-01
-1.819100771181439147e-01
-1.617876888150594772e-01
-1.263785350585504841e-01
-1.151807422147692189e-01
-1.196064844557040707e-01
-1.122491436974917822e-01
-9.099110216587630307e-02
-7.379414232686558328e-02
-6.621800731804113049e-02
-6.222112784958640230e-02
-6.691240814657778424e-02
-9.074976165853190779e-02
-1.228009442191158457e-01
-1.259972919692744775e-01
-6.692747676697412273e-02
3.602421480599148074e-02
8.667186553108116587e-02
-2.202963582203832163e-02
-2.335660788166686597e-01
-2.439746509415942899e-01
1.950742794405016522e-01
7.905426285143899445e-01
8.668770347933330012e-01
2.574872593544673682e-01
-3.873701010189732896e-01
-4.603530403013692540e-01
-8.666811272324913273e-02
2.598317560146833904e-01
3.637580922823676621e-01
2.986986989721633901e-01
1.727702717518990183e-01
3.458085838224524144e-02
-8.166560767920563735e-02
-1.371850639482941336e-01
-1.174213782566402436e-01
-5.403181114826953457e-02
-9.216350783032520658e-03
-2.709716830168338794e-02
-9.455795710956807487e-02
-1.601374824077005099e-01
-1.933627427353742934e-01
-2.072074028120647338e-01
-2.174922187030946530e-01
-2.080045574423570465e-01
-1.561076895669651632e-01
-7.592507973283738054e-02
-1.220950415843279763e-02
8.698918026621638849e-03
7.568337028353489329e-03
2.333412812033189634e-02
6.150715564834392107e-02
8.552822373989503457e-02
6.114041841364750707e-02
-4.838462046538616682e-03
-7.734190473503740892e-02
-1.305746164131845188e-01
-1.567914913667416421e-01
-1.519562272881360698e-01
-1.210836151000298094e-01
-9.096930711258689739e-02
-8.891807879609421594e-02
-1.103709679512158287e-01
-1.282088813278250139e-01
-1.300489492458017649e-01
-1.228469482711308236e-01
-1.029502362164277651e-01
-5.645595032403818991e-02
3.394626351479825693e-03
3.386122400733621723e-02
1.110823472886611658e-02
-3.755196759587535460e-02
-6.348812618136735753e-02
-6.422658578767002913e-02
-1.056810634440888269e-01
-2.198027722430478115e-01
-2.513024791990269291e-01
6.420983100909063990e-02
6.863405774143505056e-01
1.073621742839922844e+00
7.563954378494421871e-01
-2.900426159673369364e-04
-5.073892290268008365e-01
-4.733527694661641694e-01
-1.495704851127808988e-01
1.390506977045969372e-01
2.798879581235605429e-01
3.039886212885485328e-01
2.602601312800204014e-01
1.796266633904192722e-01
8.744662113408496751e-02
7.390176491940514403e-03
-4.843963494100662903e-02
-8.554747923233857465e-02
-1.199637137516257057e-01
-1.576905988445876927e-01
-1.783821405316085573e-01
-1.535361883531297655e-01
-8.855417310697427657e-02
-2.782746419829960904e-02
-5.855274125460357103e-03
-1.233038480561804949e-02
-1.934105768723964197e-02
-2.613450853849050640e-02
-5.206037725123607157e-02
-8.285536655570086007e-02
-5.770003947479618311e-02
5.791151780150823047e-02
2.067877919704459166e-01
2.841021352116944176e-01
2.364386919787249408e-01
9.415056956618406137e-02
-6.995912401950028781e-02
-1.780986725361245193e-01
-1.722828572563505078e-01
-6.726375907475576343e-02
3.244832476104533153e-02
3.729665496912532713e-02
-2.341557427575280403e-02
-6.233907500059590601e-02
-6.000060771988847269e-02
-6.744376626056965141e-02
-1.031391252359405569e-01
-1.019651497462321227e-01
8.074701530828504517e-04
1.494233038860397766e-01
2.008145068572861902e-01
1.133951763234850724e-01
1.884058031350286863e-02
3.582839830568272654e-02
9.272730150259425597e-02
3.017105923704319417e-02
-1.268754148555178152e-01
-8.793807652854492007e-02
3.464647228628824349e-01
8.450041279915688763e-01
8.067960574811625651e-01
1.776975886841834495e-01
-4.222004243900661091e-01
-4.980706867645521840e-01
-1.694924003865894702e-01
1.775984883504507783e-01
3.322360724751065031e-01
3.022437810452223705e-01
1.738947657486212273e-01
2.879713779878798063e-02
-7.621189865132360630e-02
-1.184935745865492301e-01
-1.105485174422761591e-01
-8.242844568987542364e-02
-6.105412458252622299e-02
-6.422511419484479289e-02
-1.007044502119959495e-01
-1.613075387685327100e-01
-2.164127998084532656e-01
-2.390880665307409669e-01
-2.270749866586907473e-01
-1.905060966720508453e-01
-1.329513366219229886e-01
-6.767254779327848413e-02
-3.273206588673001349e-02
-4.574544030445139992e-02
-5.680507944085180089e-02
-1.862031684778373214e-03
1.041207853573649089e-01
1.777281693185351896e-01
1.640848220010707181e-01
8.719530626799021356e-02
9.394495359548782343e-03
-3.362463511973328573e-02
-5.038829487336577567e-02
-6.017118207826816639e-02
-6.616250849832228109e-02
-7.030441614154876728e-02
-8.903277286260974366e-02
-1.284964527032526338e-01
-1.617383411310803210e-01
-1.596627629501081169e-01
-1.281402495998711921e-01
-8.892438334373183040e-02
-4.918727083732255673e-02
-1.542068058496628286e-02
-9.738794849049874081e-03
-4.513012138787459576e-02
-9.726123077228249203e-02
-1.236528895658303567e-01
-1.226793345603816726e-01
-1.573089498511425766e-01
-2.627276967432640165e-01
-3.021285159170559176e-01
-3.054885050100615215e-02
5.328452164347095010e-01
9.163847475843238666e-01
6.941283178983321811e-01
7.832368434513353739e-02
-3.415780087963439238e-01
-3.113244184959030325e-01
-3.590620704816304548e-02
2.161178352775030009e-01
3.392797987687519723e-01
3.432432998198184371e-01
2.789252725743628925e-01
2.000035030676866332e-01
1.289242978377498072e-01
5.457678921289006030e-02
-2.999063182072862072e-02
-1.032629094646579510e-01
-1.401902596212040719e-01
-1.436478235989669949e-01
-1.301660195722579016e-01
-1.005872697957768819e-01
-5.293990123597897696e-02
-1.315860467927509186e-02
-1.982478194494439669e-02
-7.643024593108055376e-02
-1.452834172795659240e-01
-1.947341124130707590e-01
-2.246765127828335984e-01
-2.317978861487478837e-01
-1.801009664549347578e-01
-3.466275630746167014e-02
1.802890393297900962e-01
3.656232604010984377e-01
4.054217498715808055e-01
2.701432152950321020e-01
5.198470881527756521e-02
-1.242201208466245793e-01
-1.979140414975223694e-01
-1.805086704643808215e-01
-1.214294575000163245e-01
-7.255464046775253473e-02
-5.018767747575250682e-02
-3.443224006255862779e-02
-1.362254781104599646e-02
-6.924226698962476778e-03
-3.783147199114968162e-02
-1.030082572522818957e-01
-1.719371665803211546e-01
-2.106947710504566418e-01
-2.018059694496144307e-01
-1.465510805179117970e-01
-6.078364287421869627e-02
2.533898863892702566e-02
5.925944857893290091e-02
-2.522994203298851990e-02
-2.126132411785069953e-01
-2.787477659429997701e-01
6.406128145601143464e-02
6.929517755453105110e-01
9.794558684259196957e-01
5.415444920646700355e-01
-1.713292303031369035e-01
-4.623231870354212458e-01
-2.338675129936861885e-01
1.136571174110224680e-01
2.810802178874767798e-01
2.582256481492675171e-01
1.484741062648206045e-01
3.900410802254082598e-02
-2.108510783093266519e-02
-2.509505808896543913e-02
-2.753060172593435953e-03
6.526255631070227228e-03
-1.964092731040773671e-02
-7.229959541908284604e-02
-1.183662393066087642e-01
-1.366918982457977771e-01
-1.425045323280750287e-01
-1.584039660169403452e-01
-1.757658506789364083e-01
-1.649542993756545062e-01
-1.115282963228534513e-01
-3.466319224945311334e-02
2.212564691586791504e-02
2.945923868553758720e-02
1.011740111105596807e-02
1.786543975735174067e-02
6.720691210601952015e-02
1.065137443107801313e-01
8.127863101494534059e-02
1.047780926783990416e-02
-3.066059801833153492e-02
-4.683997362556262430e-03
4.636236850678255444e-02
6.252156275532885776e-02
2.974642152619944718e-02
-3.235315935939241799e-02
-1.040726465544084406e-01
-1.643249017032474002e-01
-1.859288252392818641e-01
-1.563035485802655167e-01
-9.818510445224232219e-02
-5.615370751593876109e-02
-4.976644900778597058e-02
-5.101928476570002924e-02
-3.095355138260722644e-02
-9.006635844218045112e-03
-1.912963029736041570e-02
-4.639823758914302099e-02
-5.469024170790241085e-02
-7.355713166682313620e-02
-1.645530810973561409e-01
-2.433574196906568288e-01
-4.888152922804671341e-02
5.073466362031228138e-01
1.001452232661596664e+00
8.609229942437064409e-01
1.347059849970440593e-01
-5.083585886164044831e-01
-5.949045580982181836e-01
-2.556591524747390265e-01
1.352079222427658434e-01
3.539216321657428499e-01
3.787596510717424203e-01
2.911710987407213902e-01
1.811745743450348667e-01
8.812035700318235354e-02
-5.611027985071934815e-04
-1.028723759362136364e-01
-2.018364267104962861e-01
-2.538919091765240998e-01
-2.359586095629951918e-01
-1.770735998507260711e-01
-1.323684604360198802e-01
-1.259412178101930735e-01
-1.338475438307565046e-01
-1.262523610224485227e-01
-1.064007415039663756e-01
-9.700887884162490149e-02
-1.058725677650774188e-01
-1.196654325042117856e-01
-1.153115262873762870e-01
-6.295256168116591944e-02
5.404109650062134673e-02
1.944027748994677229e-01
2.654244061968981105e-01
2.103066618551861777e-01
6.717868908121216176e-02
-7.990627449683271322e-02
-1.774009391160125404e-01
-2.148692533108360614e-01
-2.014930441002710793e-01
-1.543502177424085908e-01
-9.243652270946013660e-02
-3.351748188865363853e-02
3.176184920663017476e-04
-1.325078076575947165e-02
-7.329624439520250612e-02
-1.399911667240884283e-01
-1.591227133271957972e-01
-1.153415280129550802e-01
-5.083859367830256826e-02
-1.215632174282717769e-02
9.021356345146273881e-03
5.513063436276390006e-02
1.283398736885474345e-01
1.566029141265898317e-01
5.371121555661712704e-02
-1.394933643121432920e-01
-1.719221673893067404e-01
2.008153150546706789e-01
7.906771747157739227e-01
1.007092580143670979e+00
5.680978494495443343e-01
-9.235999918304003964e-02
-3.834844946578370162e-01
-2.078550503326585530e-01
1.295806991979790712e-01
3.474894993851897484e-01
3.655236148388618100e-01
2.465260990777509154e-01
1.001809561866026377e-01
1.181953866150989643e-02
1.852786166953770616e-03
3.137151055384153342e-02
4.862971846284447341e-02
3.067518800009538804e-02
-1.567005790635885368e-02
-7.746571483464735619e-02
-1.471368367695805035e-01
-2.145421626475083055e-01
-2.598834821903326930e-01
-2.606285466998664591e-01
-2.080195037338418984e-01
-1.193353618232458890e-01
-3.254731431809479436e-02
1.637482206852441946e-02
1.759672879582709071e-02
-5.300273682664534587e-03
-1.302658329523975235e-02
1.594115053131205106e-02
6.485296690360063676e-02
9.492020157206912390e-02
8.398046559558150492e-02
4.739901277206196029e-02
1.804970826890005958e-02
8.654480563820957789e-03
2.861409328979778836e-03
-2.008069254251118249e-02
-6.376981796011607639e-02
-1.151704149586679632e-01
-1.580750530514614671e-01
-1.835067665287437033e-01
-1.847708205341544452e-01
-1.483511729905458154e-01
-6.649035211219146702e-02
3.504650450787963334e-02
9.487357876576543725e-02
6.183856996778838017e-02
-4.885234332510209054e-02
-1.569474693739133231e-01
-1.881510445900188289e-01
-1.505207924182919155e-01
-1.347576633060632023e-01
-2.053375968006778407e-01
-2.599448242224867700e-01
-5.554928308098835976e-02
4.746095645651975392e-01
9.457252444632614496e-01
8.558977522110425840e-01
2.464272712542397992e-01
-3.317484915999989181e-01
-5.115340305890776484e-01
-3.729145609413847540e-01
-1.080159143506065345e-01
1.680782665294559830e-01
3.482471607132713309e-01
3.642261832210912376e-01
2.606806332535713255e-01
1.347675651951259768e-01
4.309096240552127977e-02
-1.279344345104022930e-02
-5.387059253719338192e-02
-9.185642776237308571e-02
-1.187918417265808324e-01
-1.168152264718475275e-01
-7.498177873292038997e-02
-1.062591193062835046e-02
2.355654586136447098e-02
-2.148079732053212454e-02
-1.297452096370291519e-01
-2.183373486278912812e-01
-2.234185303430322733e-01
-1.693459774806861662e-01
-1.185299973438499743e-01
-7.704269270810305825e-02
3.764209964243037977e-03
1.393682606988718986e-01
2.636780125401995689e-01
2.839654127933458061e-01
1.745009302159620801e-01
2.898872075578186325e-03
-1.331858285458986102e-01
-1.828274413807015608e-01
-1.596851635726304897e-01
-1.084434293620030187e-01
-6.776615320187516500e-02
-5.020194356200345653e-02
-4.331568602174643012e-02
-3.432327428693116717e-02
-3.043609380308266721e-02
-4.889311804757121710e-02
-9.225904082164905484e-02
-1.344574305927707103e-01
-1.366450895147760247e-01
-8.986465872664464727e-02
-2.837002206780217875e-02
1.764156438524014728e-02
5.461734263763399350e-02
7.527398185794893781e-02
7.517533940180967655e-03
-1.926296726154098082e-01
-3.551771082225483323e-01
-1.505111796601331375e-01
4.519448170503829743e-01
9.073821042526042380e-01
6.752426040756033254e-01
-1.423152327003288087e-02
-4.416747617764018585e-01
-3.152739374050236298e-01
4.464917720956113056e-02
2.609768237282826253e-01
2.586630526955170928e-01
1.673174331697510897e-01
1.081400537831859604e-01
1.009330417505316380e-01
1.017865544642404668e-01
8.080809624642368294e-02
5.263850563853179898e-02
3.949332496572116602e-02
2.655728447088178193e-02
-2.057639880200076710e-02
-1.003088956409859955e-01
-1.652983989935008224e-01
-1.737605252166668224e-01
-1.289728452988571639e-01
-6.029161517600267750e-02
7.824084610891153882e-03
5.215519454758315437e-02
4.771529477785142054e-02
-4.507851224674626345e-03
-6.232345446217417428e-02
-7.246355606972088026e-02
-1.785107857225309846e-02
6.206366969104155223e-02
1.049288388999221472e-01
8.859143042399582335e-02
4.831217038012956821e-02
2.572756831048161885e-02
2.182718289896863270e-02
8.919874113552835049e-03
-3.044511545497357793e-02
-8.797745653889819939e-02
-1.407651407847256841e-01
-1.687355561739381782e-01
-1.658414779606883493e-01
-1.375634484452017137e-01
-9.231290160320214377e-02
-4.214100435533491007e-02
-5.487493790569650080e-03
2.892166112395079623e-03
-1.146658461472734730e-02
-2.095119414847269185e-02
-2.608957781576735045e-03
3.326877797834108114e-02
5.243897012685638098e-02
2.156156132529344488e-02
-7.401368016786938342e-02
-1.653249365018372441e-01
-4.595469122268534129e-02
4.215592872092936427e-01
9.370938713176205637e-01
9.155112748977265458e-01
2.447831591834840337e-01
-4.759343885855742973e-01
-6.803473261663837146e-01
-4.141680525677505220e-01
-4.569627831089946579e-02
1.971205918556526160e-01
2.827115065250008774e-01
2.399883977515610833e-01
1.118213645997838540e-01
-3.109734091356059632e-02
-1.217785358022137332e-01
-1.506448083502398005e-01
-1.561068255695368390e-01
-1.629921494409135863e-01
-1.584717210868125670e-01
-1.284580939961750268e-01
-8.987179334130521169e-02
-7.635187117505892740e-02
-1.033734367254204728e-01
-1.527419624812304255e-01
-1.882568033712705979e-01
-1.886816096842900137e-01
-1.656214099009864493e-01
-1.418840800728454199e-01
-1.144188169467583033e-01
-5.150032950805740611e-02
6.706963911194480099e-02
2.078157892315035948e-01
2.886529021111219340e-01
2.431784294394386259e-01
8.760674311109900581e-02
-8.843646712187082370e-02
-2.010104810723205848e-01
-2.280947201883456454e-01
-1.935989812025521728e-01
-1.276313453022940858e-01
-5.580377108617649851e-02
-7.589376008146238133e-03
-9.239539092679320553e-03
-5.931439158533923645e-02
-1.232430095956942306e-01
-1.628076642976024335e-01
-1.643615361839677047e-01
-1.379102261318150835e-01
-1.018357753524248843e-01
-7.062793612980573787e-02
-4.747186549532144556e-02
-2.249495487962583154e-02
1.591487218170088702e-02
4.848480916459622925e-02
1.848932526887999556e-03
-1.773378348037075170e-01
-3.510351616575799194e-01
-1.891446193134354581e-01
4.230934734736489511e-01
1.016813579587569905e+00
9.633516381918653115e-01
2.968862348831922127e-01
-3.189087561486543265e-01
-4.295246065656349033e-01
-1.640474522081252218e-01
1.391214123951607928e-01
2.932396241211547294e-01
2.892675892821033323e-01
2.006990062251484130e-01
1.060853749717651645e-01
4.562945278764202195e-02
1.757335214436278603e-02
-8.049253982142941764e-04
-3.219837649589060019e-02
-8.604001860668204771e-02
-1.534043304173239308e-01
-2.133313603711312623e-01
-2.477547701516961687e-01
-2.522169896627788344e-01
-2.311784374823363519e-01
-1.876073228803758486e-01
-1.265355387870680248e-01
-6.436150356737078970e-02
-2.465483486989550332e-02
-2.659232141764299520e-02
-6.740319142379647133e-02
-1.012016714820741792e-01
-6.487007492363797145e-02
4.359445791292838185e-02
1.482373792589849748e-01
1.834411156897018669e-01
1.558804106610319762e-01
1.041641958893940734e-01
4.699654622325839803e-02
-1.537268094834573842e-02
-8.411441368476542391e-02
-1.524302105512546635e-01
-1.973396508828616502e-01
-1.899983950406363142e-01
-1.245784020431280475e-01
-2.933613078577727157e-02
5.089493007135434399e-02
8.052958950161442919e-02
5.334401522318663047e-02
-4.932881072534610334e-03
-5.980805245667605158e-02
-9.686068637737164921e-02
-1.202518781265084352e-01
-1.247024337715546133e-01
-9.426999122730501945e-02
-5.062300586631759969e-02
-7.299023114927151445e-02
-1.881060334743578366e-01
-2.198674746836488669e-01
8.845118600802553965e-02
6.445628183867379013e-01
9.078570246092744211e-01
5.270818176209469685e-01
-1.350934083094654792e-01
-4.568115375202960737e-01
-2.897573741589552498e-01
5.656379285827889403e-02
2.947838352732485845e-01
3.624427282279257256e-01
3.149545256759379575e-01
2.166680964656544917e-01
1.114939758821262422e-01
1.990162967585971249e-02
-5.328295715067310478e-02
-1.057841065838296124e-01
-1.260819633852992838e-01
-7.862603795200960588e-02
7.424990202901129988e-02
2.828542306119249394e-01
3.857209709328799363e-01
2.734776940748046559e-01
3.739239774270343430e-02
-1.385289475569484174e-01
-1.795336336590769855e-01
-1.455093487881512493e-01
-1.145178177090503679e-01
-1.020156666614520369e-01
-7.153187128640547954e-02
1.312985866370734722e-02
1.448329862434522830e-01
2.630395012916871833e-01
2.876667413544979346e-01
1.851865563626380884e-01
1.096934258833661378e-02
-1.310785615206368215e-01
-1.793200919651625758e-01
-1.524558790882181991e-01
-1.031438915279277030e-01
-6.222716796552529850e-02
-3.505369508863709349e-02
-2.563122514750995271e-02
-4.401334405834698982e-02
-9.459478751061434210e-02
-1.630397371160328401e-01
-2.136139220167107000e-01
-2.066941124519385831e-01
-1.351116912402669790e-01
-4.394743328757173828e-02
7.274401318157685745e-03
9.076072732182518740e-03
7.814826628865146133e-03
3.113317924789994057e-02
1.895104721699860870e-02
-1.203217896314135726e-01
-3.220644772047285831e-01
-2.855223491064204366e-01
2.029787723309361136e-01
8.074830762791863625e-01
8.669879114865343128e-01
2.743873377027862825e-01
-3.242337997465135624e-01
-4.027606830326764253e-01
-1.185812594640696799e-01
1.202660189576924554e-01
1.723123671181654160e-01
1.312844734167593619e-01
9.226693166200657104e-02
7.747236919908560837e-02
7.476945646516044985e-02
6.301790483915341301e-02
2.263845308442838378e-02
-4.313614318298190919e-02
-1.060496143757514026e-01
-1.444687816210110665e-01
-1.628187543330442688e-01
-1.733343827205769960e-01
-1.749695452585002253e-01
-1.553597318421921780e-01
-1.060446704081052238e-01
-3.738737822637258623e-02
2.046419237561380652e-02
3.607431178984464581e-02
-2.738540940268109278e-03
-7.568704075490668981e-02
-1.260725063651400857e-01
-9.428959890341596928e-02
1.871238921416818260e-02
1.379683376342159262e-01
1.823724870307018853e-01
1.359696806842484729e-01
4.692061491074968338e-02
-2.890992474673827889e-02
-6.988602949304678624e-02
-8.562786551916282130e-02
-9.610447015633728773e-02
-1.143002917512207922e-01
-1.324498909264487656e-01
-1.244191421347088378e-01
-7.332242551713814838e-02
2.734012400467192468e-03
6.299404656214314946e-02
8.359142487194687332e-02
7.175550188146062602e-02
4.126060052571548648e-02
-4.777759112577098163e-03
-5.969045971556187491e-02
-9.564334920146949637e-02
-7.814307771119469170e-02
-1.977748826504085317e-02
-7.213277416691654849e-03
-9.534167314428924900e-02
-1.333651332233642961e-01
1.580291917692957793e-01
7.492711628454343797e-01
1.100447382765235238e+00
7.449645051226316816e-01
-5.037261325362396569e-02
-5.877461166718551677e-01
-5.453894471574078917e-01
-1.583846051009891176e-01
2.045240688339353130e-01
3.572432772002469559e-01
3.079627771268906855e-01
1.596351579226862605e-01
1.264440011402242006e-02
-9.014936081013144586e-02
-1.512325088297092057e-01
-1.794421814124133319e-01
-1.786053178786942974e-01
-1.545196332566197983e-01
-1.161483406260952062e-01
-7.750817103488820414e-02
-5.898217334557048774e-02
-7.640334883237553942e-02
-1.260234728456070541e-01
-1.812222681046976036e-01
-2.065863683455738675e-01
-1.853539633372467132e-01
-1.362262517308536480e-01
-8.863395901422113643e-02
-3.815990879419006027e-02
4.917737770517314339e-02
1.691208624906748170e-01
2.273583239843152137e-01
1.057899631760385178e-01
-1.703224545942997048e-01
-3.894640531888476365e-01
-3.751084766833722162e-01
-1.875447463767630218e-01
-1.388384575999422957e-02
5.216714945851266827e-02
4.152687807706870182e-02
1.053472804467887880e-02
-1.579812106495635457e-02
-4.032723154515124864e-02
-7.465957263125079513e-02
-1.176686577486172613e-01
-1.477499112189337716e-01
-1.396623358617576083e-01
-8.691890935549664854e-02
-1.393744889015951539e-02
3.556648967912037079e-02
4.064052741545175207e-02
2.438047246863851367e-02
6.071473566750170206e-03
-5.143104339504636635e-02
-1.909309277132207328e-01
-3.232734661596163295e-01
-2.025936361271526154e-01
2.904420972037571325e-01
8.154366569968460876e-01
8.264550923069928778e-01
2.862053148280900849e-01
-2.420650443451289602e-01
-3.230262515762387654e-01
-7.820503015402430202e-02
1.500445272387473661e-01
2.130753739118924905e-01
1.823402263902071663e-01
1.629242838826265305e-01
1.749020996709372000e-01
1.813919458235509485e-01
1.612088741805111636e-01
1.232834849419078005e-01
7.489090718979685146e-02
9.084877974291114683e-03
-7.180455702232338422e-02
-1.410251079719067602e-01
-1.684088497540450757e-01
-1.492175609622979626e-01
-1.051883497268862322e-01
-5.831284542585181419e-02
-1.374982259107558266e-02
2.150119589351347574e-02
2.067677852477501493e-02
-3.456971016475785669e-02
-1.146170340673782623e-01
-1.524055937295294982e-01
-9.986347503621635646e-02
2.315900921723085260e-02
1.371717456883612130e-01
1.726004730940581544e-01
1.303220475535891709e-01
6.310369760978942755e-02
1.240188408000375900e-02
-2.206753185374438903e-02
-6.426958638435725790e-02
-1.227861516554735466e-01
-1.714966096139764473e-01
-1.762556455656617560e-01
-1.326215485809904282e-01
-6.583928883361414575e-02
-5.624049805423612242e-03
2.797150461469802632e-02
2.964690554201569392e-02
1.161246030405715772e-02
-1.248843539258221585e-02
-4.550746045729154449e-02
-8.521254808104911094e-02
-9.453372158939665759e-02
-3.928131351871130827e-02
3.659865189636148791e-02
2.490748466140138562e-02
-1.075237423136685549e-01
-1.904739666306777268e-01
3.876664340785408031e-02
5.439408547561968010e-01
8.245923545296355295e-01
4.729079069441280980e-01
-2.106502935448092417e-01
-5.662927808124844642e-01
-3.881063430262197134e-01
-2.692485089356766448e-03
2.620750403213705226e-01
3.445322621422040599e-01
3.146308261104360238e-01
2.226717967565143286e-01
9.200993307631345763e-02
-4.144295718438330278e-02
-1.344670151347375775e-01
-1.658740365943021378e-01
-1.393965616488259673e-01
-7.583505071643359408e-02
-1.629047681896759678e-02
-2.973019370547539189e-03
-4.010428126434261581e-02
-9.418175571874236318e-02
-1.338010884963447555e-01
-1.524127308586549212e-01
-1.568884658336660853e-01
-1.495858693006318074e-01
-1.271196601775340662e-01
-8.848865940187436441e-02
-3.276581807752566161e-02
4.596789029308418623e-02
1.433866303488087746e-01
2.212118039295328242e-01
2.188677168669254935e-01
1.107839671629202022e-01
-4.975737102068847340e-02
-1.637762031999935586e-01
-1.736686011700737664e-01
-1.104607959009265283e-01
-4.937343789385259529e-02
-3.076956617904000324e-02
-4.145074663762794709e-02
-6.177547498742979454e-02
-9.454172115216448458e-02
-1.389229708453330048e-01
-1.689478093535372871e-01
-1.582515037161893179e-01
-1.118789258736899439e-01
-6.125462733042938424e-02
-3.291722796725387451e-02
-2.798763103697384999e-02
-2.917467643759266704e-02
-1.954507289459285133e-02
-8.241039072354322537e-04
-1.557373119828373530e-02
-1.283759791577459008e-01
-2.986915055072500991e-01
-2.708122709607908019e-01
2.024441138834142118e-01
8.869709551067038733e-01
1.118269436072568457e+00
6.159676837431138363e-01
-9.381343295524374737e-02
-3.688262095870249446e-01
-1.726662678823271124e-01
1.209433838695557484e-01
2.611450573487918980e-01
2.538614643706726959e-01
1.962892988045460696e-01
1.470544176682443416e-01
1.112989976884465326e-01
7.582444791723345900e-02
3.125871700395622954e-02
-3.157106069742308951e-02
-1.152695435883963615e-01
-1.961479056719271641e-01
-2.361022639052995364e-01
-2.227087386478692199e-01
-1.799187255944588448e-01
-1.368172376976829474e-01
-1.032477900461977738e-01
-7.707820928299144447e-02
-5.630701156093352588e-02
-4.350888305021161084e-02
-5.147583963388568939e-02
-8.861209557563835826e-02
-1.230785943886367334e-01
-9.407091364975020409e-02
1.510530154185741464e-02
1.414228159882530145e-01
2.002987689401492521e-01
1.660353013951761381e-01
8.123583712237850141e-02
-6.639828339641155874e-03
-8.968009248612927864e-02
-1.677750419405543147e-01
-2.120190557215537175e-01
-1.963120777551765617e-01
-1.398934732906569611e-01
-8.583029336023975664e-02
-5.270454134440270832e-02
-2.743367627956002155e-02
4.042463805723413815e-03
3.071358853821205132e-02
2.459478852008995658e-02
-2.356266546754104407e-02
-8.680490872827960336e-02
-1.231410699727397556e-01
-1.013508271358406904e-01
-1.877009752663531122e-02
7.754850987268378792e-02
9.947554367686319010e-02
3.049001202893159707e-03
-9.283964931898440465e-02
5.579863682082776555e-02
4.980527338662579795e-01
8.462272264962674706e-01
6.466266632228850897e-01
3.089452258637839788e-03
-5.067266645591584906e-01
-5.216300898111125850e-01
-1.828649719146374086e-01
1.863673273690243104e-01
3.884491647439224371e-01
3.841284606111807221e-01
2.288659116171951058e-01
2.462960615273052101e-02
-1.196089649248910786e-01
-1.357939707298480014e-01
-5.132977997978597356e-02
2.061829042206904036e-02
-7.321242809608967048e-04
-7.875358245569494264e-02
-1.353304782992910960e-01
-1.565490922396935991e-01
-1.755951245590937349e-01
-2.041699220214028831e-01
-2.230888562638475292e-01
-2.129669993089874092e-01
-1.713352649222767699e-01
-1.113276128297852052e-01
-5.356885298379278348e-02
-9.380680385911928029e-03
3.420314844729397535e-02
9.326342917910891706e-02
1.437563507262945850e-01
1.341588678038216353e-01
5.546945812468070947e-02
-3.915637016814235705e-02
-9.666789956405137663e-02
-1.102853606872970932e-01
-9.837596364743976529e-02
-7.414969267347620852e-02
-4.900960054727021564e-02
-4.210489061922163823e-02
-6.878573751114844259e-02
-1.225936966842309656e-01
-1.753412939624921230e-01
-1.966431431405448182e-01
-1.734493773077220025e-01
-1.139509119627683531e-01
-4.064815722125551811e-02
1.575169776665291330e-02
2.684968218884127567e-02
-8.912263017110334112e-03
-5.433926487658218701e-02
-7.569938114081659064e-02
-1.070208051603285110e-01
-2.238886172669121433e-01
-3.841908286481425794e-01
-3.313499270284132048e-01
1.456824812249475631e-01
7.780277478530435165e-01
9.518840385347377975e-01
4.801757220123367143e-01
-1.206966698622736062e-01
-3.173899006529304900e-01
-1.241887535609470516e-01
1.387525685838497114e-01
2.733213689743800301e-01
2.784531209091128945e-01
2.263882000061921695e-01
1.714470852609582541e-01
1.271718858190699908e-01
8.569570682502525294e-02
4.257941773802744606e-02
-3.098194209468172703e-03
-5.770619141313165085e-02
-1.206357139663011002e-01
-1.680795239561752863e-01
-1.706918596482542294e-01
-1.279903362588039606e-01
-6.773810494192039622e-02
-1.394282324574908083e-02
2.089872204205093023e-02
1.766874903264227872e-02
-3.302702089562940813e-02
-8.529851350543615762e-02
-5.739032157525451178e-02
6.565103371094446749e-02
1.953513967676820950e-01
2.544504439973371279e-01
2.610881204204614781e-01
2.518195250374531402e-01
2.106472319681970684e-01
1.167301128678199934e-01
-6.579729546063189764e-03
-1.148904980757847610e-01
-1.820162416106917980e-01
-2.047467586460414157e-01
-1.868627757974828663e-01
-1.381717050471499286e-01
-7.984995034571976125e-02
-3.033408678964792660e-02
5.956596222641355638e-03
2.663471036820311277e-02
2.465912837096070204e-02
-7.088556298123034269e-04
-3.980617234065356169e-02
-7.983357494933099319e-02
-1.074675005785754589e-01
-1.050858871828299623e-01
-5.677848626278048788e-02
2.062164162076606660e-02
5.147088559557408405e-02
-3.741296122166856697e-02
-1.633309525331840539e-01
-6.056101139655604287e-02
3.914738936513476597e-01
8.141077585977756215e-01
6.607572740923836063e-01
-9.378402881898645349e-03
-5.305196802083799179e-01
-4.790173786396578204e-01
-7.443482001344990662e-02
2.622884167269237121e-01
3.532537293195490147e-01
2.658322368730844376e-01
1.304728769690673695e-01
2.369057137965027010e-02
-4.424359512643905035e-02
-8.425711237207680893e-02
-9.262067538502379016e-02
-6.225027892082305586e-02
-1.304586476931427451e-02
1.252877575024043989e-02
-1.477016488680706410e-02
-8.759013357570208380e-02
-1.669371205790629586e-01
-2.088377513699977983e-01
-1.962290250594141139e-01
-1.455486321663686800e-01
-8.300049658490031568e-02
-2.639417054379630811e-02
1.181146341399987032e-02
2.926824277315626457e-02
4.696514786029611782e-02
8.881220019055513504e-02
1.396564502752659087e-01
1.487308768522737357e-01
8.560881520416471768e-02
-1.928044395160545543e-02
-9.898066062258807640e-02
-1.122037390614645663e-01
-7.244615558572661818e-02
-2.013909537522628329e-02
9.677395436609607937e-03
-1.450995638982877610e-02
-1.159344100229681845e-01
-2.620893555939862174e-01
-3.528794176669773353e-01
-3.185817536592322474e-01
-2.032285988400988896e-01
-9.398630032311566795e-02
-1.519457752728260377e-02
4.911915461722758669e-02
8.112867616106270163e-02
5.038609280994431339e-02
-1.314590659091137252e-02
-3.989852972297761036e-02
-2.978069968213351015e-02
-7.815650679424686331e-02
-2.221657302528846634e-01
-2.697395016956308234e-01
5.915447764631571320e-02
6.712692894879038752e-01
9.888163091844380803e-01
6.177267649968581908e-01
-8.799483233820196149e-02
-4.806273811860736211e-01
-3.772186384130198911e-01
-6.559654298531371330e-02
1.671940591638010065e-01
2.503809183677208616e-01
2.380639071254617989e-01
1.935142883796656665e-01
1.489368636615689412e-01
1.058336874180787063e-01
4.878293826420033313e-02
-3.275182354698834980e-02
-1.260725282977889772e-01
-1.997058899284500921e-01
-2.284963483784150928e-01
-2.101919972637614487e-01
-1.596331847366015966e-01
-9.676608042287326850e-02
-4.178998087350829782e-02
-1.462364259821823283e-02
-2.896656106378314721e-02
-7.946697208290519343e-02
-1.400416955229580596e-01
-1.793236139540327068e-01
-1.708999905169071021e-01
-9.693688974554655335e-02
3.541203450744565689e-02
1.809916688730937584e-01
2.744735233776192662e-01
2.662726661919009308e-01
1.534494934344829142e-01
-4.523886309111536247e-03
-1.093918588228521144e-01
-9.894999829004741398e-02
-1.079689550457482369e-02
5.424368750154658081e-02
4.385370614311943221e-02
-1.507833720442062000e-03
-1.955987496660928707e-02
4.995043411366070774e-03
4.031816386832137028e-02
2.827252339611917645e-02
-7.426891850223547864e-02
-2.218156241637370685e-01
-2.850141386756238626e-01
-1.939019946222612090e-01
-2.764498231021804073e-02
9.811488033277281084e-02
1.489930170375301788e-01
1.153882980286898424e-01
-2.969310801642336545e-02
-1.875725102673771183e-01
-7.482560632383616905e-02
4.294016149276456140e-01
9.121783227115802806e-01
7.893334716611986046e-01
9.846940610994080190e-02
-4.963503492971734765e-01
-5.311954942433723126e-01
-1.587779370340181573e-01
2.269120010988783798e-01
4.043746735111826696e-01
3.700693169237709856e-01
2.221449031989074507e-01
6.415980870847526329e-02
-4.364611778925834434e-02
-8.554840841515498617e-02
-7.354211814737225683e-02
-3.940460565908238122e-02
-1.940546205014993461e-02
-2.999087116102727019e-02
-6.439647045456839414e-02
-1.073340205400866998e-01
-1.415868600489796347e-01
-1.539771733478721427e-01
-1.483452666356089855e-01
-1.390324612535112914e-01
-1.267882331081852942e-01
-9.942329502926910978e-02
-5.894163115064386671e-02
-2.801741923298495945e-02
-1.637493002626454891e-02
3.057346241548472045e-03
5.226777784286518180e-02
9.241739419204894612e-02
6.081124273165987998e-02
-3.451209164080689534e-02
-1.103284836582558714e-01
-1.089875667506185197e-01
-6.090514458531998826e-02
-3.609304067678568984e-02
-6.775315355449082477e-02
-1.343502481637663393e-01
-1.917081666467456147e-01
-2.117238702430835617e-01
-2.013271389527482857e-01
-1.869144266549533084e-01
-1.782425540835129163e-01
-1.566305475987285478e-01
-1.019467869167404589e-01
-2.118945813518990570e-02
5.065557673505918096e-02
7.248648654830047722e-02
2.980208142542222979e-02
-4.701388900810582472e-02
-1.199838868062741704e-01
-2.027851964004453722e-01
-3.075781655730536746e-01
-2.929862127237824465e-01
6.144719086366865618e-02
6.455041734405940757e-01
9.128725496145742024e-01
5.275903248338268403e-01
-1.198595490775944405e-01
-4.111085152245058105e-01
-2.385607229540238072e-01
6.442712866741481803e-02
2.396520413059103627e-01
2.831473498585669324e-01
2.814891999709883130e-01
2.647918436304599887e-01
2.109129280640697490e-01
1.181215312164598241e-01
2.564185678823267464e-02
-3.477040333431172942e-02
-7.212633265092073531e-02
-1.100981051362737301e-01
-1.442102431645423122e-01
-1.405292073996831093e-01
-8.436482767723198217e-02
-1.362390100225168571e-02
2.011431950081412484e-02
9.146588880379929315e-03
-1.659392081242596836e-02
-3.961659735427824902e-02
-7.297012439364129743e-02
-1.240086333664104368e-01
-1.543538263703121693e-01
-1.027907360694111372e-01
3.892612221471331707e-02
1.943493738879299992e-01
2.688973874512022300e-01
2.372364189864799022e-01
1.419900048436753270e-01
2.491692862347864509e-02
-9.459982788267998211e-02
-1.839285701457045730e-01
-2.015093378839251381e-01
-1.483815946712300216e-01
-7.357363820134282806e-02
-2.120811505424485127e-02
-1.208337105215617768e-03
-6.684180027375189424e-03
-2.943573250915186915e-02
-5.707469297584080031e-02
-7.558161585011881345e-02
-8.100740579485728177e-02
-8.120779885663653719e-02
-8.709329692721136384e-02
-9.822113938454243853e-02
-8.188461801727120459e-02
-2.231579196891365652e-03
8.091666702748172291e-02
2.104412697778699354e-02
-1.839777088093860757e-01
-2.281498189034623369e-01
1.949705029137178136e-01
8.275577026368452493e-01
9.498614519439849690e-01
3.367514943886684153e-01
-3.337123972191491372e-01
-3.875866183788792552e-01
2.624824770785329220e-02
3.412909749016269645e-01
3.316534261813622875e-01
1.666145932594307599e-01
2.080245032881153713e-02
-6.667118003649599722e-02
-7.953601377968544384e-02
-2.377098831327463524e-02
7.978155751781394744e-03
-5.870471549607665651e-02
-1.476746575899709202e-01
-1.303852907468717182e-01
-3.051929038968892449e-02
-8.551992308416991179e-03
-1.305454022602145214e-01
-2.768206415682845645e-01
-3.223139366493464886e-01
-2.792529505744194562e-01
-2.156674784916339793e-01
-1.613946219701016260e-01
-1.283582385734437503e-01
-1.148471864019863231e-01
-7.977450871152039213e-02
-4.960096596618547744e-03
3.178270560353307905e-02
-4.735228317478950427e-02
-1.678606476789244462e-01
-1.754346646013185129e-01
-5.764685806776812665e-02
4.224518543420435757e-02
4.069939429932550867e-02
3.954230676556005214e-03
-1.081652611647122494e-03
-1.034703659164490537e-02
-7.205565013784925865e-02
-1.543714208015339873e-01
-1.873697286110133919e-01
-1.434050686131743413e-01
-5.520541156380199405e-02
2.178744274400330749e-02
6.306352747454700702e-02
8.974030002456567789e-02
1.014874508659787400e-01
2.572441010882578483e-02
-1.516691154819848342e-01
-1.996123407518033133e-01
1.792142465562704956e-01
8.268107262643268340e-01
1.097545023269934195e+00
6.570223330613483848e-01
-2.092681511186046672e-02
-2.806978310854952863e-01
-4.606537649899000025e-02
3.011268720977394731e-01
4.596183914680807558e-01
4.068800812679766454e-01
2.623496911688130151e-01
1.323641283681308289e-01
5.905341186596415465e-02
3.638067667917531389e-02
4.194826959622638407e-02
5.526011620205076996e-02
5.176419767286374873e-02
-1.801383548485357977e-03
-1.158814044861047332e-01
-2.442930008303556000e-01
-3.160833630429389918e-01
-3.043565388754000955e-01
-2.413750278709571040e-01
-1.721901541814555014e-01
-1.139775426167847494e-01
-6.246454062935936913e-02
-2.173256683392744623e-02
-8.548211873435778568e-03
-2.958434601587551366e-02
-7.318356988425119003e-02
-1.240808239897800980e-01
-1.660950732499903437e-01
-1.688367758713676947e-01
-9.874674436037920999e-02
4.097876919632327530e-02
1.894240064081851860e-01
2.593252660470007909e-01
2.033211604290603436e-01
5.447327949573013695e-02
-1.037202217788629338e-01
-2.026441781415132259e-01
-2.232719250443884751e-01
-1.868913417735239835e-01
-1.284162331007174807e-01
-7.377499418137238585e-02
-3.107343438670169891e-02
2.344141240200449047e-03
2.613104646299912320e-02
3.154394401291826106e-02
9.371835881688833289e-03
-3.659100272889000832e-02
-8.333939163393097593e-02
-1.004449329053276052e-01
-7.028186303279397584e-02
1.968983914554127846e-03
7.663936292882715662e-02
7.397934495633794183e-02
-4.707753766126464984e-02
-1.450185314729550423e-01
5.126752093963813511e-02
5.538511791647938720e-01
8.900869322496539615e-01
6.016477434373591615e-01
-1.010477039291724499e-01
-5.616471724654579223e-01
-4.629016972194555102e-01
-4.913725060702556213e-02
2.995265640783213446e-01
4.140323493187584303e-01
3.300667440172850853e-01
1.549747449023060608e-01
-1.688924300726973513e-02
-1.333464302204336038e-01
-1.843720108555746140e-01
-1.839546832534823262e-01
-1.539730172039309730e-01
-1.234398449362883593e-01
-1.218949619334042944e-01
-1.548307958232962578e-01
-1.953742609265170238e-01
-2.161414234851439797e-01
-2.209434675617901744e-01
-2.269769022525068292e-01
-2.257381650203252321e-01
-1.877350223754950531e-01
-1.061008461804380937e-01
-1.829217450432510383e-02
2.450611775708805284e-02
9.757221728501845603e-03
-2.208608415805667774e-02
-2.071236107512901964e-02
2.275837535439175635e-02
6.912152834290628822e-02
7.023070444179635441e-02
1.942790626181859978e-02
-3.754542559755791320e-02
-5.469060052415681411e-02
-3.755425352833459407e-02
-2.484803531099027615e-02
-3.997109181422629776e-02
-7.855233998355848346e-02
-1.203862130677277181e-01
-1.416318366091471881e-01
-1.303187086893369817e-01
-9.416332226188631194e-02
-5.273213477656175929e-02
-2.725069210568762529e-02
-3.093613423833922738e-02
-5.690794061851080915e-02
-8.194975423973366313e-02
-9.341729433196262200e-02
-9.892753801712801665e-02
-1.024832436766820315e-01
-1.048327002115685552e-01
-1.345167583468085959e-01
-2.081844647948601634e-01
-2.136695635461088039e-01
5.920657338114842377e-02
6.004998834442404343e-01
9.748925395480019240e-01
7.412682188238961523e-01
6.095318235738209078e-02
-4.524511841745745833e-01
-4.527146436815461250e-01
-1.145917946100731694e-01
2.323080700832000633e-01
4.194771782039574681e-01
4.353588872033747337e-01
3.339203673399618877e-01
1.968256294352219715e-01
9.115028788033360807e-02
2.245199358209460858e-02
-3.958315761748541078e-02
-9.672958871614173448e-02
-1.211763992376101162e-01
-1.052998422377183774e-01
-7.444535423310150168e-02
-5.244978429996968727e-02
-4.257836382411357007e-02
-4.389838131822422496e-02
-6.133265186605843522e-02
-9.193481366048866787e-02
-1.177766655461643386e-01
-1.225401270270248810e-01
-1.075201231771293342e-01
-7.969553125195513732e-02
-2.753263324581742971e-02
7.041081633203750967e-02
2.017190251686248326e-01
3.017696198218760562e-01
3.010911990025335050e-01
1.920754131029485112e-01
3.698666528655553121e-02
-8.662587325009524220e-02
-1.355106898626411427e-01
-1.114187916572743631e-01
-5.308509611508727133e-02
-1.426072943750876336e-02
-2.014388573237785307e-02
-3.303946340290708772e-02
1.336809752233786633e-02
1.129526227706456748e-01
1.573447741235299846e-01
7.156939689701848073e-02
-6.918618212904319165e-02
-1.346828887390930651e-01
-9.433867542898645431e-02
-1.106998186236734030e-02
6.389799770810483670e-02
1.217851327735874484e-01
1.336203449636975404e-01
2.756461486098887165e-02
-1.865718474129296478e-01
-2.776231472763414088e-01
2.960482737385745217e-02
5.928014740770957136e-01
8.283102530459467427e-01
4.376472438659040343e-01
-1.444661210330125400e-01
-3.455826410865361353e-01
-1.447346052301833053e-01
1.076194787967424821e-01
2.089400280582668357e-01
1.988018047947114897e-01
1.563225072458762077e-01
1.031116751412876759e-01
4.505587330757052089e-02
1.684456191297415816e-03
-1.524313439304484860e-02
-1.822294691435303801e-02
-2.990080185252363271e-02
-6.067270548349046333e-02
-1.019085753440354541e-01
-1.371049299761909479e-01
-1.556129006184300556e-01
-1.540499951678223900e-01
-1.280544834353292138e-01
-7.822973464049809422e-02
-3.888711078054756659e-02
-6.926195224383963067e-02
-1.692267085769274537e-01
-2.428885043456998627e-01
-2.075798190414557542e-01
-8.992202709670046867e-02
3.347306629264047706e-02
1.202654608349434107e-01
1.518694763245284907e-01
1.133205612914134214e-01
2.384258169297782601e-02
-5.636120062377944495e-02
-8.097982204470829948e-02
-6.035525495257238610e-02
-3.892316003691626697e-02
-4.986801462566928245e-02
-9.637474356794660524e-02
-1.571841153780512146e-01
-2.006121521499290850e-01
-2.008413841216210027e-01
-1.549916523825539127e-01
-9.022469023730975146e-02
-4.047515715625486094e-02
-1.488542895018861272e-02
-9.291748049190036440e-03
-3.457243014082663629e-02
-9.422228588587572284e-02
-1.464002753263523582e-01
-1.414661798563590644e-01
-1.091949969899596723e-01
-1.488690296998107510e-01
-2.539694034334442629e-01
-1.816388501248882015e-01
2.870832698182114728e-01
8.653626971738727081e-01
8.977775215925384300e-01
2.317657631398502560e-01
-4.802967092705543450e-01
-6.194838838476264264e-01
-2.743185998135549419e-01
1.029072211825368677e-01
2.690634389240819657e-01
2.626609693605271856e-01
1.905467811441227954e-01
1.067637736304540841e-01
2.403036274647592924e-02
-5.316226347703011113e-02
-1.179247582586410437e-01
-1.580247542721658627e-01
-1.604188948687889360e-01
-1.266130058066085584e-01
-8.010983477698431499e-02
-5.052104041468916118e-02
-4.825035594690962187e-02
-6.047465416104724767e-02
-7.493415125421065692e-02
-9.558455719899862368e-02
-1.250829995168071529e-01
-1.487569847076335994e-01
-1.501653076095645911e-01
-1.241012486511409718e-01
-6.469784478606116496e-02
3.300537930790363450e-02
1.449576479188005862e-01
2.146763082351970386e-01
1.966481268011331940e-01
9.517968843313906468e-02
-4.014647598633552805e-02
-1.451002540974468125e-01
-1.771196765987755051e-01
-1.417444562056074664e-01
-7.976338218636969124e-02
-2.479351395246513767e-02
1.176735937370085999e-02
2.225251096735949424e-02
5.611451168847630261e-04
-4.307726761601023829e-02
-8.776522962605497191e-02
-1.182938609442369809e-01
-1.277348405792694819e-01
-1.143842504196971727e-01
-7.559246778968325975e-02
-7.748322640958268427e-04
1.115411510238484005e-01
2.208536005806007729e-01
2.418036003906018916e-01
9.488999757546873193e-02
-1.856598862645689740e-01
-3.553677154351796985e-01
-9.774239487452916764e-02
5.435196976253606760e-01
9.928313521449687595e-01
7.463908497219257088e-01
5.132280305059584713e-02
-4.018727741479550253e-01
-3.220162205957802226e-01
1.217910550504625738e-02
2.439475381737077342e-01
2.748242627589628784e-01
2.003226631748500075e-01
1.286173411896682495e-01
9.292258581169243747e-02
7.284168728480343302e-02
4.765189789678943993e-02
1.501884547655538485e-02
-2.137034069888409799e-02
-6.105151952364640949e-02
-1.051941464008448457e-01
-1.532515257230200045e-01
-1.984035708796466901e-01
-2.243438096428299056e-01
-2.119863473328791881e-01
-1.534034317544898385e-01
-6.355010191459123381e-02
1.871737317320266991e-02
5.048247662887001691e-02
1.871482478382867701e-02
-3.933455666489125285e-02
-5.462114663983588803e-02
1.080130492639912697e-02
1.082562275260651741e-01
1.431331465771530365e-01
8.698809521354491925e-02
8.040862403756411300e-03
-2.273539132928092954e-02
-1.043441530634351376e-02
-7.675178333839753966e-03
-4.523396623103841108e-02
-1.098183839099229064e-01
-1.676331454407705146e-01
-1.891263878275813992e-01
-1.630669687013424352e-01
-1.038492205351283088e-01
-4.156583113733636203e-02
-1.849493870252762011e-03
7.535017397358912024e-03
5.483061565727693001e-03
2.221543950054185798e-02
4.786978687711018060e-02
2.981932722888924747e-02
-3.694359069896217124e-02
-7.903140918425892447e-02
-6.652533147968672789e-02
-8.256047577947048244e-02
-1.572494739174006007e-01
-9.144900683797399510e-02
3.261063078095654544e-01
8.608438841883661041e-01
9.304319577495043792e-01
3.684898357387497159e-01
-2.894259270217412472e-01
-4.875542386118242311e-01
-2.254792315015274329e-01
1.562533604895895434e-01
3.962946702248424380e-01
4.301389680387537329e-01
3.205823257733962373e-01
1.685808319649879927e-01
3.874166446026235111e-02
-6.100376091543531498e-02
-1.370966141356181056e-01
-1.763786734201630568e-01
-1.648056738830911416e-01
-1.129467245915901780e-01
-4.943540076298617164e-02
-6.711894276255713984e-03
-9.663260244405317070e-03
-5.528971296566699556e-02
-1.131269422195070595e-01
-1.589021142571244993e-01
-1.869085919916773364e-01
-1.910526793121958833e-01
-1.675553931015422715e-01
-1.275861015164853618e-01
-7.466609577912484974e-02
1.090188071460282751e-02
1.285640883384173982e-01
2.156910870416089698e-01
1.935188192621645209e-01
5.972423375594975575e-02
-9.819242352577885191e-02
-1.897563811694393809e-01
-1.934259174891546640e-01
-1.421761540311182737e-01
-7.616306388407265149e-02
-2.529959786943615160e-02
-1.191317314542334783e-02
-4.289634030332659109e-02
-1.011535861536200370e-01
-1.572277878891880643e-01
-1.873533226824312947e-01
-1.798432390427194549e-01
-1.390397582430417389e-01
-8.856558606936004718e-02
-5.506864293415228429e-02
-4.109524608564962128e-02
-2.522046752563508742e-02
4.267288382832961670e-03
1.435248197195645829e-02
-6.758547720176440177e-02
-2.598816119375355060e-01
-3.887431752187743839e-01
-1.591949344061758809e-01
4.358946128903032902e-01
8.852346379138963384e-01
6.907060232202817396e-01
5.347292450484607274e-02
-3.778100984408322427e-01
-3.245679872374717667e-01
-4.242998855472883413e-02
1.793225948462679187e-01
3.056845504094327648e-01
3.880412238914218714e-01
3.889952309538054487e-01
2.729776273467738879e-01
1.235114514091896765e-01
4.619952727772891343e-02
3.750186206511078174e-02
2.665366376084698716e-02
-2.230335953610711880e-02
-9.207305313223480836e-02
-1.473997482530681191e-01
-1.662297394175090148e-01
-1.516539528168093787e-01
-1.203426280863883480e-01
-8.470467202339519719e-02
-5.117036600693465609e-02
-2.811853948490024985e-02
-2.655259894493591094e-02
-5.062188652964312585e-02
-8.651469243250094199e-02
-1.019337254299268331e-01
-6.585489991643211916e-02
1.780974330715837800e-02
9.747124387431405079e-02
1.134755737552321786e-01
6.082925806930102042e-02
-2.089373206320462723e-03
-2.411876605305653121e-02
-2.406026022145966309e-02
-5.516433774325900374e-02
-1.234981729277812856e-01
-1.774330449177989599e-01
-1.720798896507584053e-01
-1.161763816252939507e-01
-5.189674792661025382e-02
-5.547246613242694073e-03
2.834715725674195885e-02
5.852047939382103853e-02
7.014090718425053383e-02
3.676432918713541664e-02
-4.414587098792374653e-02
-1.307299123064131485e-01
-1.570086392116779583e-01
-9.674725022206075165e-02
-2.234843129331918338e-02
-5.531910163624265131e-02
-1.772349154814215066e-01
-1.198223545003561791e-01
3.432573470639879720e-01
9.173787109204107892e-01
9.541718357037713982e-01
3.143551712642168039e-01
-3.635304656939004619e-01
-4.848375265388792932e-01
-1.361924477452663429e-01
2.453759156791279483e-01
4.136623087183404213e-01
3.902352513136292389e-01
2.795192459509397431e-01
1.552877297098628206e-01
4.825117953627246214e-02
-3.880948904038779984e-02
-1.086593763390452244e-01
-1.517340916622064995e-01
-1.569609824108751384e-01
-1.366876751850336635e-01
-1.195951338407290621e-01
-1.164005122471338527e-01
-1.150130809512429630e-01
-1.082017220621678266e-01
-1.022032248065703197e-01
-1.010925156975542305e-01
-1.017752356315002327e-01
-1.030659136254451214e-01
-1.039101484412688764e-01
-8.686042801151108717e-02
-2.114038542306483776e-02
9.524634357052746969e-02
2.046549356141830200e-01
2.292786844092799814e-01
1.464923034750598430e-01
1.111335144812219261e-02
-9.818517278703593754e-02
-1.454465571919602296e-01
-1.469173373069768695e-01
-1.270495619704641310e-01
-9.030780713163683027e-02
-4.040115328051799293e-02
-2.821570157193417812e-03
-9.273191613845280235e-03
-6.099933050021340980e-02
-1.208211498685883983e-01
-1.496080131505557187e-01
-1.394324719820377034e-01
-1.045820367556313385e-01
-5.980223961717392317e-02
-1.725353921674313215e-02
1.580195617044299894e-02
4.672983050029556190e-02
8.291397890224530554e-02
8.895445497198505025e-02
-9.148866729205016105e-03
-1.997523040398544447e-01
-2.571681687002564942e-01
9.212480329346910135e-02
7.239883019630226624e-01
1.051195405225096025e+00
6.922217462782102038e-01
-1.125877101872396757e-02
-4.374483387372595233e-01
-3.874107276939052769e-01
-1.117926338525785657e-01
1.011859061098823731e-01
1.562846839480626082e-01
1.100960901213043075e-01
5.140962092060876593e-02
2.218670765013640994e-02
1.006424086405032989e-02
-1.160923625527530458e-02
-5.170190023201062801e-02
-1.062484382487273588e-01
-1.768948184133028179e-01
-2.610175862538067215e-01
-3.171109176739713154e-01
-2.794729831595227365e-01
-1.482915839659801061e-01
-2.285366690558317607e-02
1.176134643960970172e-02
-1.940619690012872212e-02
-4.976081284527930637e-02
-6.909911781358392402e-02
-1.011507513353550464e-01
-1.342817167495547748e-01
-1.228606399819765493e-01
-4.667335216290555144e-02
5.429227518337288033e-02
1.099918196805712428e-01
8.466708919424999202e-02
1.039007402399233157e-02
-4.953822129257510337e-02
-7.013918368186497498e-02
-8.459133666901863524e-02
-1.312222053909702923e-01
-2.001255805911409391e-01
-2.459987402523967914e-01
-2.383279887316527845e-01
-1.857352178153278410e-01
-1.210345310301200322e-01
-7.038371732345634346e-02
-3.908624711636832227e-02
-2.744199947497972386e-02
-4.456591078247441190e-02
-9.483162115950555249e-02
-1.591412551932452901e-01
-1.958242241833498543e-01
-1.696839277988776984e-01
-1.043825372301800669e-01
-9.610453629129912800e-02
-2.030900784860551755e-01
-2.834760597722694175e-01
-6.374796827593662285e-02
4.650923032228626020e-01
8.390380636869905207e-01
6.190064963519732455e-01
9.280875700222318558e-03
-3.845980668939135705e-01
-2.965976051131141711e-01
4.364235841820417877e-02
3.301525146389172605e-01
4.508402928895925976e-01
4.368885580892987730e-01
3.497695160566805517e-01
2.301199716239624993e-01
9.735028474587317793e-02
-2.582371108112169189e-02
-1.036938015451957795e-01
-1.123807648920017166e-01
-6.459087826943298027e-02
-1.277867352251743638e-03
3.498815134977494717e-02
2.357599717710073817e-02
-2.231357421256943349e-02
-6.899294133970176879e-02
-9.213477619741458624e-02
-9.179437506643081668e-02
-8.203292361970476732e-02
-6.940928550922080553e-02
-4.634025949062744315e-02
-6.913923411017555698e-03
4.586925090582685133e-02
1.096954255927337224e-01
1.751631040362206793e-01
2.065768673443132697e-01
1.600257610709256428e-01
3.471080166975781811e-02
-1.094811179438860416e-01
-1.979840960534885175e-01
-1.986561928245949848e-01
-1.330793420507571656e-01
-4.410518670760481957e-02
3.767712806648015889e-02
9.094391018054881481e-02
8.835857387113699168e-02
2.173713866997869712e-02
-6.807775728975201668e-02
-1.244698507164317264e-01
-1.296089779606328096e-01
-1.049899804591225422e-01
-7.346352665137802218e-02
-3.973309430933895381e-02
-1.348810137464712122e-03
3.810155629158478580e-02
5.912906871514668483e-02
9.421797115552981230e-03
-1.587741288655717675e-01
-3.424819461490500316e-01
-2.323458450696144484e-01
3.466278756607343303e-01
9.905941292236181139e-01
1.010580561601041039e+00
3.390789030326833431e-01
-3.244286386947697332e-01
-4.262719779598784786e-01
-1.166497897267720907e-01
1.763841628127539585e-01
2.645761069992153547e-01
2.142804269450173937e-01
1.422062303832464236e-01
1.074199723090188130e-01
1.102004666916567704e-01
1.150265291489505487e-01
7.802592279619538496e-02
-8.906408826331806139e-03
-1.027420271889936260e-01
-1.589033079918581448e-01
-1.768329436785128217e-01
-1.781253534132435923e-01
-1.697579372252830676e-01
-1.510122977943637035e-01
-1.256406934967497779e-01
-8.635075593532391680e-02
-2.250064136770994067e-02
3.891361579453080782e-02
4.341621537831106409e-02
-1.530379424834405963e-02
-6.768097184754030826e-02
-4.546290475143124205e-02
3.911742273838799550e-02
1.147150484525454456e-01
1.279321072321884245e-01
8.200773911250960890e-02
1.739419024747874618e-02
-3.367748488230463966e-02
-7.209650417525810540e-02
-1.118186520928830946e-01
-1.516579130639835737e-01
-1.764863699764522009e-01
-1.728267539659822660e-01
-1.436588133995585215e-01
-1.189714365181543526e-01
-1.336556267536600229e-01
-1.735373026693733112e-01
-1.730725393644563792e-01
-1.039902152547867165e-01
-2.938731367960736168e-02
-2.429744446415443154e-02
-7.995255979505301591e-02
-1.218009930251437445e-01
-9.596333736861450969e-02
-3.393542704318457115e-02
-4.135116237326480482e-02
-1.568803851943056382e-01
-1.795967011496825971e-01
1.869338060036787041e-01
8.227275407062942802e-01
1.078592880093893314e+00
5.593999022931686049e-01
-2.548080576795692109e-01
-6.013764452476555444e-01
-3.372719661200653807e-01
1.095354796004989889e-01
3.643521870323405132e-01
3.778288084664759849e-01
2.741632396850097741e-01
1.611103673104953837e-01
7.171974034538713960e-02
-3.953529607504322786e-03
-7.050785162140052464e-02
-1.124614649670223065e-01
-1.176519192892131749e-01
-9.501545467064936856e-02
-6.077896249183804833e-02
-2.417575645762987113e-02
1.417834879216081645e-03
-7.429036581730714787e-03
-5.696545147980061619e-02
-1.157195896270319102e-01
-1.463460649980413142e-01
-1.478271632686475323e-01
-1.382775383150124660e-01
-1.089030803924411761e-01
-2.998925542554214951e-02
9.986596678781310688e-02
2.312923666148382629e-01
2.938869393056350865e-01
2.501895683767719203e-01
1.246669579228393276e-01
-2.060999231386733549e-02
-1.317350223300941259e-01
-1.825871580115249193e-01
-1.702192696990968701e-01
-1.127012403326639184e-01
-4.730974054718092153e-02
-1.051333081110075729e-02
-1.151813569880850985e-02
-3.255519768737267366e-02
-5.651025034325021096e-02
-8.296856784487795233e-02
-1.098599240926736997e-01
-1.163370103707608988e-01
-8.629641856101716302e-02
-3.515493095945648044e-02
1.228911715220956137e-02
5.777543737039481098e-02
1.145070334989945482e-01
1.507172116489400582e-01
7.893133867582441399e-02
-1.266001260107723070e-01
-2.714497848156279258e-01
-4.145641815660641022e-02
5.583551480679547208e-01
1.001455120011581768e+00
7.877345509887884178e-01
9.299385191488351854e-02
-4.531418613069626566e-01
-5.012697848422311697e-01
-2.087757892267677051e-01
9.640351208528222249e-02
2.227790223946701231e-01
1.716160682018554040e-01
5.300602061999505621e-02
-3.349921736873375661e-02
-6.816776416391856497e-02
-8.855512852667515866e-02
-1.286455248992686151e-01
-1.893914747918541974e-01
-2.498270675511433669e-01
-2.899174786391419678e-01
-3.008141652962792456e-01
-2.815967259911607568e-01
-2.362628424347312239e-01
-1.740244128196320739e-01
-1.076189919071285500e-01
-5.060191283956311237e-02
-1.528887027933123997e-02
-1.191865161193385661e-02
-4.287547388535929704e-02
-8.147606535337335865e-02
-6.762636305035941986e-02
3.331983760502299496e-02
1.674322280675840380e-01
2.339272304267583091e-01
1.964029145475182092e-01
1.123120465717302174e-01
4.802610402709590887e-02
1.141416808221542255e-02
-2.177607503098980685e-02
-6.272871143849259590e-02
-1.074926069986386068e-01
-1.470241295398099224e-01
-1.666608802187833360e-01
-1.520630781876695092e-01
-1.014703958750017010e-01
-3.045531451027630454e-02
3.196799936706327949e-02
5.622948352976438885e-02
3.021763408981793450e-02
-3.400483575047261176e-02
-1.087863061847411106e-01
-1.604535266161666862e-01
-1.610905991357418909e-01
-1.202652041229713420e-01
-1.096944055723895611e-01
-1.940092730100062002e-01
-2.715963770800716715e-01
-7.694837648947512598e-02
4.514058581358691424e-01
8.727796175642412724e-01
6.807405898055384208e-01
2.415095807486085377e-02
-4.402378408489934225e-01
-3.714854975430137429e-01
-2.259359670142020715e-03
3.148878831474654083e-01
4.439231010805309574e-01
4.155324484271075702e-01
3.005974597919515712e-01
1.634809234750701501e-01
4.467537816671404011e-02
-4.691871141639338688e-02
-1.131928534953018095e-01
-1.436811221600623467e-01
-1.260917578835104580e-01
-7.112381037188973687e-02
-1.525233598549151012e-02
1.282469954748564553e-03
-3.381180268078856632e-02
-9.026273248928462500e-02
-1.244228342984810276e-01
-1.272026455681850576e-01
-1.284778188651248265e-01
-1.481417106201555201e-01
-1.612386405571079040e-01
-1.266033792183777762e-01
-3.396591941506944823e-02
8.856725837651571731e-02
1.891811839826574582e-01
2.074646167740155644e-01
1.142433162564293198e-01
-4.537643281016988384e-02
-1.783897956331400581e-01
-2.249272157939584960e-01
-1.926151718227785969e-01
-1.206551537216103004e-01
-4.672861697166491579e-02
-4.135358145652454076e-03
-1.246294822738345381e-02
-6.280694481521298389e-02
-1.266291569026933850e-01
-1.755740056952821704e-01
-1.911774962602283134e-01
-1.715882235370447262e-01
-1.313122752561523277e-01
-8.427116456717215209e-02
-3.277014202087669831e-02
2.192577121163829731e-02
7.033927031338996216e-02
9.423867087718254543e-02
5.695158385823271413e-02
-7.919077874967432595e-02
-2.440909681978324086e-01
-1.812043367003850214e-01
3.033698873005740704e-01
9.067399447106917476e-01
9.909546570604288451e-01
4.119743594779259332e-01
-2.287234280770677475e-01
-3.788607278851541249e-01
-1.249002096507605408e-01
1.439678110119647358e-01
2.372941222730570732e-01
2.086455880357284132e-01
1.546168260684413764e-01
1.065178895020947869e-01
6.581076614503213185e-02
4.889586614528822900e-02
6.238074616388499666e-02
7.415193365153317784e-02
4.160149185795378179e-02
-4.088875907287198297e-02
-1.332543987195912161e-01
-1.856805537550467178e-01
-1.836746647049584957e-01
-1.624655308233502737e-01
-1.689434621029403116e-01
-1.972852251899776532e-01
-1.844492279284856984e-01
-9.331901047873272792e-02
3.188783133395022007e-02
1.149079425939785598e-01
1.235001470642342059e-01
9.325054399938957628e-02
8.687690708068306067e-02
1.212805406985471013e-01
1.513680361798735996e-01
1.371847771898646873e-01
9.076235240298079210e-02
3.926952912578408894e-02
-1.914078501363645352e-02
-8.975447681550252632e-02
-1.351853711755236220e-01
-1.033441186317631544e-01
-1.151743330354632402e-02
4.744084883924337692e-02
2.005059461334372795e-02
-3.819590752588593319e-02
-5.114954849664044706e-02
-2.184718604517296020e-02
-4.739374961222801198e-03
-2.381474358061511087e-02
-5.109885159904691693e-02
-5.527096785685450819e-02
-5.754269829376712497e-02
-1.201129394360405528e-01
-2.606607332497919982e-01
-4.087115605241637972e-01
-4.581524515865282865e-01
-2.848152985570339135e-01
2.083923575169191189e-01
8.239133493736888747e-01
1.014848715004910362e+00
5.047596935763574155e-01
-2.378249884247554125e-01
-5.458802717411359584e-01
-3.143908603367643328e-01
8.610339973711247930e-02
3.488226512000235924e-01
4.237998510742498337e-01
3.752275276869052600e-01
2.616689260395296257e-01
1.275879112296539608e-01
1.171924634650555082e-02
-6.827333829123558018e-02
-1.200870232776519303e-01
-1.539798205638797934e-01
-1.618827788566210846e-01
-1.264639621636494959e-01
-5.652151666303793093e-02
-3.249478594032623527e-03
-1.802445450941825636e-02
-9.583369418483815572e-02
-1.802767698504498528e-01
-2.226128827668915622e-01
-2.208502472193989430e-01
-1.975625634814683895e-01
-1.504847945692478206e-01
-4.782778446338858264e-02
1.138265453748203149e-01
2.672304169739165292e-01
3.177001889698587989e-01
2.292423508830084000e-01
5.881867971299544612e-02
-9.458163946861433691e-02
-1.685267484015016415e-01
-1.626991604817240311e-01
-1.094974434794514229e-01
-4.665582316232205762e-02
-4.068354129294629411e-03
9.180332340303605856e-03
1.808943727561517466e-03
-1.748860287573246811e-02
-4.519814805247882039e-02
-7.560724943122507091e-02
-9.697309112742770465e-02
-9.627355752459934579e-02
-7.007001717816327413e-02
-2.675249729146892894e-02
2.692987284431396650e-02
9.353424838968846244e-02
1.638105033397170562e-01
1.822860418672977156e-01
6.717317977115816463e-02
-1.614517358406021841e-01
-2.572496334405243168e-01
8.511896594645858294e-02
7.625013443577023375e-01
1.152698068282409061e+00
7.962387476171843836e-01
1.526035474847779738e-02
-4.803908429591122742e-01
-4.052291581408607457e-01
-5.438197775763385644e-02
1.538373964143108785e-01
8.882297828233108594e-02
-7.460900342757854908e-02
-1.423920395016645413e-01
-1.087561117098994751e-01
-6.255116106126559772e-02
-3.640807567800203454e-02
-2.819305656432419954e-02
-5.665001055076545472e-02
-1.252758396692722764e-01
-1.989738847774858710e-01
-2.501627391310731752e-01
-2.832036664455401809e-01
-3.011017229907644310e-01
-2.840317287074243247e-01
-2.160899524680374995e-01
-1.163880127084630234e-01
-3.221982905093261768e-02
-4.025952869414962942e-03
-3.281734858085760820e-02
-7.234699829628354895e-02
-5.966457614618098787e-02
2.591045697412990012e-02
1.303215492384737495e-01
1.718464023988406364e-01
1.269343492173459209e-01
4.935744001422046751e-02
7.676716026742795573e-04
-1.375798298615169349e-02
-3.261871810418368045e-02
-8.132262179227393861e-02
-1.449017775037104716e-01
-1.884375123769297111e-01
-1.923908028939532167e-01
-1.656876868611301401e-01
-1.289648366157736814e-01
-9.351714050545481549e-02
-6.065262233296833672e-02
-3.435067821256213710e-02
-2.778372660152061968e-02
-5.429751438472933678e-02
-1.072222779501017659e-01
-1.538629402521681788e-01
-1.643863359658085943e-01
-1.522081586927915009e-01
-1.749058931272633177e-01
-2.573107628389650903e-01
-2.757536174167400378e-01
-7.181363542437275288e-03
5.297376810623919408e-01
8.768737109456036238e-01
6.140751025925504925e-01
-2.774924531938274819e-02
-4.179614182522364829e-01
-2.971351761937543468e-01
6.498898133702349367e-02
3.360152778885617808e-01
4.200569806014472496e-01
3.798246021439928288e-01
2.926785039488872808e-01
1.995105680606037990e-01
1.066992218719072516e-01
9.233920065390371565e-03
-7.886719441107621631e-02
-1.252438570201011847e-01
-1.160758522975890716e-01
-7.355529568262948736e-02
-3.070105547818168662e-02
-9.734245208309823261e-03
-2.292086557651307893e-02
-6.476383781107888926e-02
-1.042581061445050361e-01
-1.111766217328396256e-01
-8.998335542836079226e-02
-7.248510446375408534e-02
-7.312947735841512920e-02
-5.841000636620728714e-02
1.955013411341218962e-02
1.520371151683921063e-01
2.595038884596845841e-01
2.623004679301085829e-01
1.557700781802648926e-01
8.018281803989921880e-03
-1.082496566448881009e-01
-1.671663001521549452e-01
-1.763718062619919758e-01
-1.429912000918913961e-01
-7.916133907611848375e-02
-2.238458834648942436e-02
-1.130415098434962504e-02
-4.472836661120924151e-02
-9.075467698315564657e-02
-1.255906497041426872e-01
-1.409029807242742349e-01
-1.292674122242700174e-01
-9.055964490559660629e-02
-4.582821562360298029e-02
-1.959850963164339044e-02
-4.802728554553973087e-03
3.401024407375057013e-02
1.014528044097578741e-01
1.210802375294766364e-01
-1.060248206183905285e-02
-2.584767391853506346e-01
-3.413801752329302941e-01
4.332093243638532321e-02
7.344248350918368695e-01
1.076595100172005992e+00
6.853211780612603610e-01
-2.269750558364747040e-02
-3.896586978729358330e-01
-2.742825886825165926e-01
1.652206231630613115e-02
2.072749243400871244e-01
2.358636936638962844e-01
1.654314201861654121e-01
8.070798231474834994e-02
3.056198112444733980e-02
1.677135774212600711e-02
2.034208324903889059e-02
1.934137061931363172e-02
-1.095584151578073671e-02
-8.122813068103235112e-02
-1.699566956525986328e-01
-2.400830765539076483e-01
-2.663580238614745577e-01
-2.424893084995187464e-01
-1.805012485302165959e-01
-1.071908166219875808e-01
-4.661766244590221514e-02
-6.110263517446264114e-03
1.439785184992589673e-02
1.308580948678014430e-02
-1.495170618275696792e-03
-2.249030692843413670e-03
3.616933674609768695e-02
1.077161245649553706e-01
1.635737414097103437e-01
1.283885496892187006e-01
-3.881007886686431430e-02
-2.590614075014457951e-01
-3.641810643972777650e-01
-2.926381452767002345e-01
-1.759841598218735703e-01
-1.483723267726069772e-01
-1.845610040642731986e-01
-1.947803386647531387e-01
-1.577087911062241832e-01
-1.017387484005307513e-01
-4.238332109398683378e-02
1.418329339395605314e-02
4.837630052346617721e-02
4.054455610849258540e-02
-5.171741816774891309e-03
-6.165521978348719595e-02
-9.594202028876777644e-02
-8.979494376026025959e-02
-7.035431896144757336e-02
-1.126217362355765306e-01
-2.324309320721371364e-01
-2.430235582106930192e-01
1.206898678205348130e-01
7.525278640379560180e-01
1.054508565506518059e+00
6.282885656265566610e-01
-1.205576168976311147e-01
-4.837884719028968661e-01
-2.941512949204351246e-01
9.265048679939873189e-02
3.526695705067719455e-01
4.218165724014967810e-01
3.693189274578814185e-01
2.663397723402983752e-01
1.521005000636158899e-01
4.633301730055094936e-02
-3.576369278730630319e-02
-8.335395338878040516e-02
-9.565298358637860932e-02
-8.198556017007138652e-02
-6.243610156410066281e-02
-6.420648576066394220e-02
-9.755169931315529896e-02
-1.380639726274597578e-01
-1.532755580287469277e-01
-1.403094720299061238e-01
-1.219378588935762786e-01
-1.148263445636504565e-01
-1.114361154873036858e-01
-8.794012141300405760e-02
-2.580661536593423580e-02
6.874235613324768124e-02
1.589662235065510687e-01
1.975731727725465459e-01
1.638695984607086154e-01
7.897299779369268413e-02
-1.730571497558424168e-02
-9.523366367114137476e-02
-1.388856536335504877e-01
-1.377525247666368524e-01
-9.361543994817111969e-02
-3.226124277793280398e-02
1.120538741149548420e-02
2.275885473020096417e-02
1.329996830275492932e-02
-5.908157532548161638e-03
-3.384122777392463421e-02
-6.256063072442355488e-02
-6.817748886828897681e-02
-3.291361359436520417e-02
2.841929163121973897e-02
7.375569855370577022e-02
7.274206387684553632e-02
4.607990929704466887e-02
5.164459822948223866e-02
1.024206525405803869e-01
1.320741683411969236e-01
1.365964262837753296e-01
2.844586702239006448e-01
6.465610692600706200e-01
8.912039685555188662e-01
6.311947422179557954e-01
8.623106530079693854e-03
-4.534412261362398833e-01
-4.733307023799362967e-01
-1.927663255405732412e-01
1.047096251222772445e-01
2.373165275948619923e-01
1.846895411117069064e-01
4.597038569614497749e-02
-5.647690229645031118e-02
-7.051784453007420295e-02
-3.885987684073551052e-02
-4.134107732100919530e-02
-1.059945796193207390e-01
-1.747783657649489841e-01
-1.728305059990204173e-01
-1.130309218012150452e-01
-8.889350433156123499e-02
-1.411221876492850524e-01
-1.944479236555056167e-01
-1.677247625690487243e-01
-8.142681927186000423e-02
-1.708754997433738210e-02
-1.992025321902636537e-02
-6.514853260432150461e-02
-9.080187889390826939e-02
-5.304653567479433729e-02
3.309478151168784854e-02
1.008182591152444185e-01
9.260842918547526614e-02
2.331868608806967474e-02
-3.418483424616339944e-02
-3.921269715741609874e-02
-2.816878319004020859e-02
-4.881742747625828632e-02
-9.503167790926342340e-02
-1.329995700517950241e-01
-1.474330335649196577e-01
-1.431336282753591371e-01
-1.319934573243787268e-01
-1.205958019221583660e-01
-1.004788362412795538e-01
-6.510857601725250632e-02
-2.927166744106625071e-02
-1.481341762403021352e-02
-3.596017468305531817e-02
-1.036863339947554363e-01
-2.078757334735125140e-01
-2.857415850914062361e-01
-2.683760187100570072e-01
-2.035726616280235379e-01
-2.349418895131582252e-01
-3.349302083716042544e-01
-1.975165703428085617e-01
3.303605289103476728e-01
8.258159846039695440e-01
7.185977352729837619e-01
9.319829727773468186e-02
-4.023915098905961329e-01
-3.884024975464617224e-01
-5.394593005713165662e-02
2.666839137153550476e-01
4.299532663552655953e-01
4.477156561653953259e-01
3.726674753811959340e-01
2.527582569798212386e-01
1.184386642288362129e-01
-1.025504180902395666e-02
-1.070052560758258525e-01
-1.453122796386689952e-01
-1.241249972376648331e-01
-7.486555786559920267e-02
-3.578099728566513232e-02
-2.156848017632806425e-02
-2.411797892992356349e-02
-3.987315577403645339e-02
-7.651950534352539024e-02
-1.273127041414792160e-01
-1.645491692845373333e-01
-1.692776236440758364e-01
-1.438216094611321771e-01
-8.527819865706806612e-02
2.440344138261976020e-02
1.773331527015243880e-01
3.062340971491011588e-01
3.245987982690768936e-01
2.087888262731424083e-01
3.066758729799748742e-02
-1.021654420757168863e-01
-1.399929902695477568e-01
-1.162919923525962823e-01
-8.874106980866686145e-02
-8.065661644483833326e-02
-7.904530795597376758e-02
-6.495823705735345732e-02
-3.558861999395009079e-02
-4.036416568073145951e-03
9.882078673089877974e-03
-1.181672446978713001e-02
-6.499520915074308292e-02
-1.123387094307600614e-01
-1.199152574294297252e-01
-9.389133173491411022e-02
-5.014964990589238641e-02
2.340110891362647688e-02
1.188925464901504359e-01
1.402571704444980083e-01
-2.387045994830974682e-02
-2.868932946425354347e-01
-2.996085687861977931e-01
1.755054664937353015e-01
7.836737008017069517e-01
8.384846360060604908e-01
2.274716685854330511e-01
-3.942944684097308139e-01
-4.756674806479286866e-01
-1.445582830259033169e-01
1.734536190441220704e-01
2.643060338016989252e-01
1.765103816085345501e-01
4.738161286703514163e-02
-2.385203038411619000e-02
-2.092295856920623268e-02
1.159962897348979817e-02
2.643484350932374938e-02
7.908784016501753389e-03
-3.577832521596011756e-02
-9.291392051680784359e-02
-1.548723216495464516e-01
-2.039894228531558273e-01
-2.141919892647338175e-01
-1.837263377649989982e-01
-1.435442782723024557e-01
-1.121581416055511538e-01
-7.514281745595166595e-02
-2.716111337005470278e-02
3.279216196841185874e-03
-5.244399307092537446e-03
-2.451025861679652362e-02
-5.267627200519223174e-03
5.265490581742190979e-02
9.217076085881030501e-02
7.474527857979386403e-02
2.926350573770478830e-02
4.951079592063507319e-03
9.881067787106075084e-03
1.614009053226558507e-02
-5.839727606480087790e-03
-7.024322943516525530e-02
-1.575742571530364677e-01
-2.100053311851027560e-01
-1.842284808577626110e-01
-1.041001238332798645e-01
-2.630803575194753594e-02
2.797843331814326220e-02
6.833831214034878643e-02
7.650877202228006935e-02
6.402947053083760456e-03
-1.314349547598204770e-01
-2.320730892916536281e-01
-2.010341476069018585e-01
-7.405470043464887353e-02
7.013043739441260013e-03
-6.873170096505498705e-02
-2.271307522479593666e-01
-1.686130459811114868e-01
3.365559523563213529e-01
9.844387229759758995e-01
1.085276404239996717e+00
4.388042902367817466e-01
-3.245331229291620323e-01
-5.441458009620067093e-01
-2.388762897966368870e-01
1.657574092644481245e-01
3.954127882772859870e-01
4.428827873337892740e-01
3.913648602529111731e-01
2.902939165364051832e-01
1.563783504213314690e-01
1.507375012277613682e-02
-9.506111114380443039e-02
-1.532131155546222478e-01
-1.700232702425266695e-01
-1.661174117087216295e-01
-1.449819503245679819e-01
-9.433042833252738846e-02
-1.798636595404877123e-02
4.472390537608372102e-02
4.598859011776325334e-02
-2.451888103581610981e-02
-1.263410437371034478e-01
-2.027608337120088144e-01
-2.242597779553223702e-01
-1.891975760356584824e-01
-9.190066529135243467e-02
7.469065673921694570e-02
2.681662333731014147e-01
3.807079356495437494e-01
3.211044255726769880e-01
1.183478486354939824e-01
-9.481219022864056933e-02
-2.096676553589389425e-01
-2.166137251305617628e-01
-1.648276356024990230e-01
-1.014014461983923920e-01
-5.158586422667929550e-02
-2.317373195968364108e-02
-1.661986930732295420e-02
-3.062687992074611398e-02
-5.936587269577092013e-02
-9.331976361806190723e-02
-1.257629702408544492e-01
-1.507657132765119201e-01
