2.063843533364645433e-01
2.842471041787536512e-01
2.383683065095811848e-01
8.937196409349819348e-02
-9.538379932038477949e-02
-2.655938589125125815e-01
-4.317067181558041922e-01
-5.697092686578903997e-01
-4.827539183085605146e-01
3.240063938897739387e-02
7.540672256259717265e-01
1.071695163251593863e+00
7.040581110423973499e-01
6.965553485297967806e-02
-2.764704637113867269e-01
-2.351665081382368627e-01
-4.844564863100151580e-02
8.554950527891741485e-02
1.414412970715023254e-01
1.801541865401398157e-01
2.398335417528046909e-01
2.877189917135152819e-01
2.559327129208394114e-01
1.201914370454097020e-01
-6.886646783881560097e-02
-2.328880583498047774e-01
-3.258266602484433117e-01
-3.412612800296342952e-01
-2.807705043061302086e-01
-1.436500502552796599e-01
4.138354180472243043e-02
1.980756109145520028e-01
2.488447454403536485e-01
1.754521850198836885e-01
1.760887688592749356e-02
-1.646827723664373022e-01
-3.041115410022288690e-01
-3.336394212717285757e-01
-2.203787610975154188e-01
4.168146908995203070e-03
2.512283210516408349e-01
4.162230503763351130e-01
4.323075377575671396e-01
3.043057431212483066e-01
9.774252673150009285e-02
-1.081133921042682772e-01
-2.577118774245598098e-01
-3.168152385493564482e-01
-2.619280469283559731e-01
-1.006996742015725949e-01
1.037108548104118538e-01
2.560200418639058118e-01
2.955669729745959429e-01
2.374386259043199943e-01
1.331164670605542166e-01
5.630241193889039611e-03
-1.414431539490144663e-01
-2.683271037506749224e-01
-3.036217354337653607e-01
-2.058181318450084951e-01
-3.384835308797608244e-03
1.982002348614462228e-01
2.494477866419020362e-01
9.198940815731529441e-02
-9.173513285239628945e-02
-2.653341045479257893e-02
2.190932639236545243e-01
2.023096860122054474e-01
-2.304784544612364927e-01
-5.966044603226678955e-01
-4.188933437058495746e-01
1.447865860321811970e-01
5.839701150745372216e-01
6.376963803825275168e-01
4.163965186443539523e-01
1.336135127766016339e-01
-9.440040878609656794e-02
-2.384359772637022756e-01
-2.894665408735764833e-01
-2.460904087619379954e-01
-1.243420296724518509e-01
4.130305074410700605e-02
1.952893669854190717e-01
2.701727078546221072e-01
2.236880977071691035e-01
7.053066612917852085e-02
-1.302448063735908157e-01
-3.103574602475580591e-01
-4.079462969794164229e-01
-3.770271064601921629e-01
-2.187809529369479922e-01
-3.382702909178875866e-03
1.667731766707164776e-01
2.304180385493400096e-01
1.995689125202761427e-01
1.199655385310526012e-01
1.466330120431317413e-02
-1.183481187372586729e-01
-2.553204542381672937e-01
-3.226947227283186725e-01
-2.519984252502854849e-01
-5.658689087920584782e-02
1.618414950048835399e-01
2.884163964519932954e-01
2.716152502848863115e-01
1.312257965473326293e-01
-7.412179345854437440e-02
-2.663379728837176330e-01
-3.713078638189755143e-01
-3.638251572795531130e-01
-2.771012789245607122e-01
-1.480510702783165156e-01
1.171659543223650332e-02
1.638751367524222402e-01
2.232633891902442713e-01
1.438758324876043548e-01
-1.841993389326855232e-02
-1.806183490057403640e-01
-3.387026303641447189e-01
-5.134112012691871563e-01
-5.703053247684348737e-01
-2.617697621895775928e-01
3.685602151840640106e-01
8.088246716084445120e-01
6.405698905792517328e-01
1.077889722072296608e-01
-2.301625345342542817e-01
-2.003953468452475961e-01
-5.116552202239305069e-02
-8.416804285838082322e-05
-2.208663065730213232e-02
5.765821628166026974e-03
1.198117704548620627e-01
2.451958888471113818e-01
2.904125801022588438e-01
2.230041597821686705e-01
6.257060650193049800e-02
-1.514965908803330430e-01
-3.561985540920898918e-01
-4.655213576230669004e-01
-4.235791421692842729e-01
-2.509923071106261450e-01
-2.307444637151566044e-02
1.787247582427944625e-01
2.911393287671401597e-01
2.802238950030758180e-01
1.560265564693853468e-01
-2.522268896609440245e-02
-1.874887527802336085e-01
-2.694997520265084989e-01
-2.381775629900749758e-01
-9.278144204574140241e-02
1.195186121947866414e-01
3.061819354374202273e-01
3.830209084503469197e-01
3.339708209534591465e-01
2.029825562749786871e-01
3.754579627595055341e-02
-1.286418834711926806e-01
-2.488268788629296180e-01
-2.692250217207224350e-01
-1.748316065882345727e-01
-4.242706805794686786e-03
1.802049634170106440e-01
3.167502502859737556e-01
3.541128089416179514e-01
2.736954106772931383e-01
1.067293130231933146e-01
-8.428758542984021718e-02
-2.348691702911422929e-01
-2.879402574107737256e-01
-2.077087121337073405e-01
-1.939443951064103583e-02
1.662855160930893916e-01
2.138621450085295694e-01
1.146396396095145376e-01
5.594182950178354374e-02
1.830632270992383903e-01
2.863916593045491288e-01
2.609794046166544201e-02
-4.792505589972676505e-01
-6.976820210190231020e-01
-3.806387625185052581e-01
1.761874736069067027e-01
5.648732941347560654e-01
6.398225266111029486e-01
4.860952888563806473e-01
2.414401458004076240e-01
-1.131999808773483801e-03
-1.947206833204738752e-01
-3.064706469627912488e-01
-3.054502737885929076e-01
-1.840544451918389446e-01
1.185633506428389675e-02
1.877840142802027490e-01
2.569332849029702381e-01
1.983683934638811319e-01
5.506036063466036856e-02
-1.143394037281173503e-01
-2.651228474525523793e-01
-3.587012383541930971e-01
-3.587573397199824154e-01
-2.560915374375719589e-01
-8.910173374999906526e-02
7.985746392388021198e-02
2.095721848550386457e-01
2.834427263838417699e-01
2.759435958901299557e-01
1.587794436976740498e-01
-4.595707257852491012e-02
-2.483594500060732901e-01
-3.425823490261730164e-01
-2.777248915962596265e-01
-9.160689534466963380e-02
1.180014602274048197e-01
2.616001446880992232e-01
3.004590667932182102e-01
2.369907159712117128e-01
9.456971821351749241e-02
-8.421332929059252570e-02
-2.413875093018972018e-01
-3.237208938245744738e-01
-2.992846760277783624e-01
-1.666869689415947375e-01
2.663149709347409702e-02
1.894801704229220340e-01
2.493520282046961245e-01
2.062308946697107848e-01
9.765373265263216362e-02
-7.863877892569824668e-02
-3.513890010150919063e-01
-6.318305752128616781e-01
-6.423177154767425456e-01
-1.862036390906769701e-01
4.671598955602522807e-01
7.557071607177821004e-01
5.034764654232490866e-01
1.056946073358674548e-01
-4.586453452012342891e-02
2.809994799218626729e-02
1.067623901181665724e-01
8.578541808044991279e-02
1.457725345722375720e-02
-1.683840524364583688e-02
3.676258035372122202e-02
1.508265250393121260e-01
2.549860647447983464e-01
2.811716989305875769e-01
1.964924447716972222e-01
1.789902823705981708e-02
-1.853277260607191501e-01
-3.266168813714742103e-01
-3.539960096303847448e-01
-2.627934238322587879e-01
-8.511553507212826775e-02
1.116584042076414068e-01
2.447502227065218583e-01
2.608452239806708373e-01
1.625363861555015332e-01
-3.845326350936047188e-03
-1.759504757757107130e-01
-2.921992999041241323e-01
-3.014887190190965183e-01
-1.863484513307979984e-01
9.497604377992470426e-03
1.901787621660924743e-01
2.712960559649850167e-01
2.485847420423253906e-01
1.877725697078869160e-01
1.306916946070072194e-01
4.357357989218330063e-02
-1.024337429259555982e-01
-2.401850285396063822e-01
-2.613878358252185174e-01
-1.416817067548044595e-01
3.900091031668791869e-02
1.844491714690555673e-01
2.517884029250541666e-01
2.395600674148900266e-01
1.475361379375640380e-01
-1.995613321426370490e-02
-2.155421827121468403e-01
-3.412126404839729288e-01
-3.072662101931456502e-01
-1.207149788824016107e-01
8.623528470055732975e-02
1.587465269461244277e-01
1.050893869518444018e-01
1.366420176304005973e-01
3.638641170453404960e-01
4.877732084519731393e-01
1.339925628485779119e-01
-4.931404122202410201e-01
-7.617408985785101283e-01
-4.403740667124377284e-01
9.544932221268521977e-02
4.410047767056709533e-01
5.282819609986860732e-01
4.553235383483952847e-01
2.795820691349200082e-01
3.905588282580067794e-02
-1.913935448513362780e-01
-3.411796775943468085e-01
-3.830787729261385111e-01
-3.146749211793586909e-01
-1.505997038555250134e-01
5.719666178659517375e-02
2.249368372698647423e-01
2.791068791438696128e-01
1.960771756368848151e-01
1.466803419081627244e-02
-1.824659839545537399e-01
-3.148706644747983341e-01
-3.446194457973698611e-01
-2.752602289744554009e-01
-1.316512876165822077e-01
4.385731756712364648e-02
2.005356942082953953e-01
3.048339332111543731e-01
3.358620771021006979e-01
2.585624555166729510e-01
5.252231017596335066e-02
-2.196186227920382539e-01
-4.197609681193071873e-01
-4.378132234088893959e-01
-2.770892520425410344e-01
-3.910536802867027595e-02
1.583783574155044060e-01
2.479110544045843301e-01
2.190978211676370135e-01
9.157089780738400520e-02
-9.325327484919293530e-02
-2.654335280160808885e-01
-3.513612839226200601e-01
-3.211301780459802080e-01
-2.025572484205372670e-01
-5.595531756699562154e-02
5.926873855304772010e-02
1.215248459700402628e-01
1.667905023032743017e-01
2.277511157745066850e-01
2.214445648932170940e-01
-5.058274584217991449e-03
-3.919039475619376933e-01
-5.516310932020269675e-01
-2.044338361969265383e-01
3.450621178324146943e-01
5.293624104631791116e-01
2.762862154104409607e-01
2.944556844358854619e-02
6.419120408408210410e-02
2.097593131153773216e-01
2.145702226477681218e-01
5.386976466781888406e-02
-1.275401948780559569e-01
-1.937597881640431841e-01
-1.149230065417233548e-01
3.796962865788324620e-02
1.631005100283181852e-01
2.013006488968767382e-01
1.520952058626254266e-01
3.614262763837121362e-02
-1.288601511184303827e-01
-3.044423309934416455e-01
-4.158283215080095796e-01
-3.978852871166158600e-01
-2.517844431420835360e-01
-4.005543487270818437e-02
1.589312988116817205e-01
2.809476611645032040e-01
2.871915101234708834e-01
1.754168856753200723e-01
-1.073895663372539250e-02
-1.885183160763445331e-01
-2.727746199603244825e-01
-2.288142860871961726e-01
-9.361952743318754933e-02
6.011858591292894988e-02
1.796597317553213224e-01
2.486413861916528800e-01
2.592105348474091353e-01
1.944503085818564125e-01
5.246556583492133219e-02
-1.267192259252510889e-01
-2.729165357211251197e-01
-3.222649359708434358e-01
-2.503487480592089809e-01
-8.799721056632796301e-02
9.431081981668804071e-02
2.255433449619274056e-01
2.641227162343508517e-01
2.045082108297544832e-01
7.036424589817311115e-02
-9.308814777982428457e-02
-2.244882632532375633e-01
-2.675446260522284514e-01
-2.210231187602462455e-01
-1.559688719901000664e-01
-1.093443038097082765e-01
3.591808428603345676e-02
3.868870317540144543e-01
7.018775180678494818e-01
5.381981367387297377e-01
-9.825024431906392852e-02
-6.381092446705576293e-01
-6.499085379569179421e-01
-2.731486589242022589e-01
1.223929394213329608e-01
3.502826817036378548e-01
4.219679590530949209e-01
3.953594233664612934e-01
3.021892094045497412e-01
1.534761963883826130e-01
-2.908144025332139865e-02
-1.989927464697156811e-01
-3.139311265807927520e-01
-3.594309453880830119e-01
-3.250233358023821850e-01
-1.945063410258919545e-01
4.850481889407048247e-03
1.786797638424622858e-01
2.347326786642098539e-01
1.596074682772498921e-01
7.371956165187678461e-03
-1.554800091895427450e-01
-2.707654319496887174e-01
-2.899477629074657670e-01
-1.917004752123260825e-01
3.506561186001157238e-03
2.386113679153851197e-01
4.325193211469756660e-01
5.045372206601926868e-01
4.135919513056025010e-01
1.822993100870596295e-01
-1.026781940225869882e-01
-3.054771753530994838e-01
-3.091340196497465720e-01
-1.241994078897116632e-01
1.084739503143963280e-01
2.669701788308960211e-01
3.440365937001972352e-01
3.654865953612684848e-01
3.033968412660237868e-01
1.245220571558845052e-01
-1.248722370090370182e-01
-3.279097457383561287e-01
-3.919984999495410571e-01
-3.168067619685660530e-01
-1.637654558835529017e-01
9.959973707422395406e-03
1.723869356247575979e-01
2.906485966515023334e-01
2.910705187763301116e-01
8.486525507082980091e-02
-2.781434782490199153e-01
-5.053565933288284295e-01
-3.134485225213549664e-01
1.443229122994435509e-01
3.798875549734032075e-01
2.257015998665236889e-01
4.020124223319856277e-02
1.388975213152268684e-01
3.941362482459269123e-01
4.984063078915649814e-01
3.367020639557009032e-01
2.811281770768541549e-02
-2.377367871923102560e-01
-3.425409068645013377e-01
-2.778572920995703854e-01
-1.074205672659296340e-01
8.157821746114407579e-02
2.076116610459455558e-01
2.182226240447955878e-01
1.129952163741406446e-01
-5.591304540772725623e-02
-2.173131251901767591e-01
-3.196390978358290558e-01
-3.379112936425849867e-01
-2.601268482538937610e-01
-9.250841041040104573e-02
1.187324417504162233e-01
2.891748043840861593e-01
3.354961845236388851e-01
2.267626372842622695e-01
1.214365036372219014e-02
-1.975076674972146007e-01
-2.951804983282007577e-01
-2.559557490280437997e-01
-1.478833883668045357e-01
-4.569419725482677663e-02
4.212798134893836616e-02
1.376219196516442200e-01
2.244022018144303243e-01
2.471132324746494191e-01
1.590168881592371186e-01
-3.538401761594574257e-02
-2.596566590491434234e-01
-3.969914817174316490e-01
-3.767056840959478459e-01
-2.273098920531401168e-01
-3.246358669250110074e-02
1.412720071424664325e-01
2.579395352658327423e-01
2.872168045980434958e-01
2.045618324189461268e-01
2.526802415846824204e-02
-1.725271532560116450e-01
-2.905639467210338056e-01
-3.065230047818464088e-01
-2.939214103551875956e-01
-2.750946457515270338e-01
-1.033570613762317819e-01
3.112920566016259549e-01
6.606243871146583180e-01
4.881868555500162299e-01
-1.259545777732573590e-01
-5.777847753949733045e-01
-5.212388719392185843e-01
-1.927036833318461206e-01
5.653593412919044603e-02
1.624891700191054555e-01
2.480828209507004445e-01
3.592130334665822877e-01
4.060518734316595491e-01
3.100970723634183246e-01
1.092244837485098763e-01
-1.035167959364843848e-01
-2.673892014514600013e-01
-3.490555447449530946e-01
-3.170049711234064205e-01
-1.673417295814429440e-01
4.510617291994795802e-02
2.263980221265892712e-01
2.976134652306380857e-01
2.313931511513817874e-01
5.317517479820534770e-02
-1.703872013628631721e-01
-3.524775081963375523e-01
-4.261616056126349417e-01
-3.747000038867064342e-01
-2.233286625287653482e-01
-1.130162608287232917e-02
2.209096643063308829e-01
4.142513013400922484e-01
4.757352665715673390e-01
3.339834492754731321e-01
4.168879755753623906e-02
-2.301877559039129939e-01
-3.438027194844487933e-01
-2.985378701669992862e-01
-1.704545456636377687e-01
-1.534649954600620855e-02
1.361968586095480549e-01
2.402241316065352461e-01
2.510301964679066411e-01
1.637939367849352845e-01
1.481635395364118424e-02
-1.484087479990332525e-01
-2.752031583004748705e-01
-3.169655509724431108e-01
-2.558224968757329409e-01
-1.179757128085232448e-01
5.006238718098689894e-02
1.957296583048450944e-01
2.402133108244939030e-01
1.059705018530395504e-01
-1.451127002597611126e-01
-2.654603095135422142e-01
-1.125555781576281916e-01
7.122139200486138355e-02
-2.472559355073793846e-02
-2.593916321447254925e-01
-2.226502459974376014e-01
1.520784183304230430e-01
5.217124651240969690e-01
5.894939948645744332e-01
3.627494765058908999e-01
3.226684214226881869e-02
-2.219556450316367280e-01
-3.160133745367103009e-01
-2.595469655175730583e-01
-1.205187339668357810e-01
1.951038555450565135e-02
1.132296285862180452e-01
1.758827736122327845e-01
2.484049689175495679e-01
3.021880931238543067e-01
2.253955233265264591e-01
-2.203954116549075581e-02
-2.957467524162740169e-01
-4.014169040919721154e-01
-2.904489023157977301e-01
-6.402578289443988657e-02
1.512892350697834787e-01
2.793604214058259538e-01
2.934573730749049369e-01
2.063078732312391139e-01
6.666407299250368124e-02
-7.171275411216758433e-02
-1.828720352817276851e-01
-2.526808764089140680e-01
-2.506881277757874171e-01
-1.496131121835063138e-01
3.183046923713746257e-02
2.179659459781989050e-01
3.056434397412888249e-01
2.214524391659407343e-01
-1.275927168684249172e-02
-2.690817580597690273e-01
-4.019038396235042332e-01
-3.564781655204946609e-01
-1.860274996224884070e-01
1.588524215272212048e-02
1.832195957653964535e-01
2.896417951374291033e-01
3.197207733167552468e-01
2.625931466875582876e-01
1.385304403980824328e-01
-9.173440665083784640e-03
-1.688678948933627355e-01
-3.581379157490487963e-01
-5.017458245115550275e-01
-3.680517840506355443e-01
1.632879335558827250e-01
7.356999682822119579e-01
7.705151596524160151e-01
2.284450396701905861e-01
-2.997698835497022984e-01
-3.803335393872639969e-01
-1.702459728469731259e-01
-1.166477358876909579e-02
6.406419710589993100e-03
7.141683734455860078e-03
8.592897523316336827e-02
2.119294106204202000e-01
2.954293592108723221e-01
2.771574832051791337e-01
1.522321334315677455e-01
-4.281362921749391759e-02
-2.432406860179122665e-01
-3.803054953532694626e-01
-4.098009649537596721e-01
-3.222656852288858786e-01
-1.460079823781778585e-01
5.309141092481105273e-02
1.962782095734822985e-01
2.314915897077701457e-01
1.547564785073456683e-01
4.854928807284778630e-03
-1.591246183043247553e-01
-2.805662330470247712e-01
-3.108878705088468641e-01
-2.158517970010535858e-01
-8.949003460128043819e-03
2.257910832549388236e-01
3.745792598765010917e-01
3.710010504425177991e-01
2.346893237627110940e-01
4.060723451432618480e-02
-1.390532058448482322e-01
-2.577412425599043821e-01
-2.868157324972691602e-01
-2.236603016532079935e-01
-9.665845457341268321e-02
6.210665342470285399e-02
2.240705902066372768e-01
3.345144343370279327e-01
3.236434853648335053e-01
1.719094777427612741e-01
-5.967248553815199252e-02
-2.721861991071556908e-01
-3.845024838663972933e-01
-3.537416224391218833e-01
-1.813006058484074035e-01
6.538184472839482508e-02
2.438152749782838691e-01
2.149196191328037742e-01
8.274625181930440193e-03
-1.263097124784685055e-01
8.357685095940330447e-03
2.251899515790710127e-01
1.502313436512195954e-01
-2.017802166449791934e-01
-3.855498567203097804e-01
-1.276615499071151738e-01
3.542796952470227967e-01
6.755941313397232362e-01
6.667782664650721003e-01
4.083321403193337917e-01
7.360287046807956202e-02
-1.938744433717702331e-01
-3.235072806082538999e-01
-3.123541822434243720e-01
-1.968392248929844990e-01
-2.945478928474433780e-02
1.308818017307133985e-01
2.337782863672847322e-01
2.524412834866125999e-01
1.802745572076079050e-01
2.849415232785497409e-02
-1.604311545728676347e-01
-3.147819114144704833e-01
-3.680994750072803523e-01
-2.942744232982014707e-01
-1.157664859291289705e-01
1.051814852498303143e-01
2.846308737116060028e-01
3.559672872927173715e-01
3.103543784011656981e-01
1.896565707049467087e-01
3.714844745364001555e-02
-1.239622702984191915e-01
-2.578395506568285089e-01
-2.984825827960004840e-01
-2.004661112270873236e-01
1.249574594324995291e-03
2.063651996947705736e-01
3.234466504088825412e-01
3.176911795484158030e-01
2.024118630989699685e-01
2.389945601043245299e-02
-1.434441214905478879e-01
-2.316198453017574155e-01
-2.244303157689285233e-01
-1.471530982661437836e-01
-2.305886693229051293e-02
1.238964158763959517e-01
2.369675359349808219e-01
2.486873383033774143e-01
1.476594939803338724e-01
-1.219678874394088119e-02
-1.868815455457856767e-01
-3.805065767569816848e-01
-5.413299720645867730e-01
-4.665740624944375581e-01
-2.052097985641301858e-02
5.011419213031610420e-01
5.742878858546458520e-01
1.630672612926037102e-01
-2.004287048176086050e-01
-1.790391118217137534e-01
8.877338968380631135e-03
5.927612291865357041e-02
-2.266621244057730189e-02
-6.967197531825941592e-02
-2.513095553572339963e-02
2.645956658846878098e-02
1.961968018141323558e-02
-2.312821325521786237e-04
1.096301310973988967e-02
-1.139340261813208931e-02
-1.364718927192002940e-01
-3.094222696781872006e-01
-4.096778951343841291e-01
-3.740316308476753226e-01
-2.235182174288189438e-01
-2.406096831917524381e-02
1.496890808558686836e-01
2.396531127744074285e-01
2.213175482043918119e-01
1.035839128876056281e-01
-7.913352765206847772e-02
-2.638392937222507895e-01
-3.635003793073392497e-01
-3.152740042539509124e-01
-1.405273558046906401e-01
6.499332387675404998e-02
2.084528002171238681e-01
2.529974518736408107e-01
2.080412838972591216e-01
9.816521148325718649e-02
-5.130693319772466204e-02
-2.045307853286961464e-01
-3.077274398971088787e-01
-3.147910160473725294e-01
-2.191752806572719314e-01
-5.254884210547693807e-02
1.335073436062599039e-01
2.782043793302810264e-01
3.238252347253065544e-01
2.409274469689915710e-01
5.441525982763478764e-02
-1.608687293626910320e-01
-3.221129776307085635e-01
-3.724296259135648768e-01
-2.848160381169318467e-01
-8.340675907681099899e-02
1.174321963226219873e-01
1.655616752746275344e-01
5.256942064525901154e-02
-9.152614510029643408e-03
1.400178583348835326e-01
2.968077997852502925e-01
1.354422155451748822e-01
-2.619057031072071773e-01
-4.538744488189216386e-01
-2.139591155828191038e-01
2.389088436382143521e-01
5.601054516580233900e-01
6.089899849227508044e-01
4.624718825190576310e-01
2.469946866275209985e-01
2.737052137597612358e-02
-1.722894540852052958e-01
-3.116361945090520003e-01
-3.375610319919640778e-01
-2.343243929421559568e-01
-5.275311138651744836e-02
1.184943236405531092e-01
2.133340559350230814e-01
2.135135150048503849e-01
1.249437158883916488e-01
-3.188518035118225596e-02
-2.026478409502288913e-01
-3.109674445364100648e-01
-3.066182552302684217e-01
-1.933519288401215619e-01
-1.701875908756647973e-02
1.641353523504005263e-01
3.024505542088980481e-01
3.620812379783431290e-01
3.137190277177354658e-01
1.525006249501734967e-01
-7.172055592804318924e-02
-2.596235565476500140e-01
-3.196886472117693723e-01
-2.294890446498946135e-01
-4.227795191922893714e-02
1.592252746600774926e-01
3.063623717983697814e-01
3.530355828608914281e-01
2.769053898872759767e-01
9.735253059980807089e-02
-1.196641665013787603e-01
-2.912380137006272407e-01
-3.530930333932661980e-01
-2.824064137452076961e-01
-1.112311253037147757e-01
8.784232481065075426e-02
2.476504146930119110e-01
3.368252600863601565e-01
3.398586979238565897e-01
2.196280706594036514e-01
-5.604883385307703192e-02
-3.910460306605540448e-01
-5.060259443383087197e-01
-1.965140939184888136e-01
2.999547327807101649e-01
4.764536013635515821e-01
2.194753278866687918e-01
-5.370421215894836259e-02
-2.526917537689120016e-02
1.537348392625203786e-01
1.979584942328374009e-01
5.598092865892776576e-02
-1.230067454108258740e-01
-1.960116285922770263e-01
-1.319186100777680892e-01
1.311276711985757265e-02
1.592526690996494132e-01
2.418350351959409616e-01
2.267456083049802229e-01
1.182362898955131858e-01
-4.818440095601736473e-02
-2.252192276346735855e-01
-3.605577898240762136e-01
-3.970187738335236860e-01
-2.992764687061630902e-01
-9.722473953358126697e-02
1.069775394953952213e-01
2.001460942460071279e-01
1.505348763081185703e-01
2.753221711081594442e-02
-8.874791520058407379e-02
-1.748464714404270037e-01
-2.202989726216837696e-01
-1.944454013914559964e-01
-9.469790355003064597e-02
3.461919941874448681e-02
1.515739087922933492e-01
2.395433752694700880e-01
2.801850536202713515e-01
2.426540564642373221e-01
1.134772759945309323e-01
-6.987401012567459602e-02
-2.267853902714136727e-01
-2.869088995475723713e-01
-2.333897632324326288e-01
-9.500767301765419837e-02
7.876663428871005790e-02
2.280945923258860530e-01
2.982492596913006166e-01
2.642994587087519887e-01
1.380808212714492167e-01
-4.282295759774567417e-02
-2.195694144279201343e-01
-3.172178109174552119e-01
-2.883524002189614688e-01
-1.764276502943063485e-01
-9.282850601941812496e-02
-6.235118639345484104e-02
7.097963838745154075e-02
4.185303360634154424e-01
7.225441108826320402e-01
5.598188898801951252e-01
-3.665874440176365712e-02
-5.203967179589914505e-01
-4.981910517268678951e-01
-1.117847889059499361e-01
2.812857963937708261e-01
4.941986110178879232e-01
5.350128999656117434e-01
4.609601933269938390e-01
3.040570328642706599e-01
8.706200575531358732e-02
-1.440322535778082169e-01
-3.226318610690558919e-01
-3.919640404490041807e-01
-3.283381338795548499e-01
-1.500618846356635838e-01
8.112488071157411551e-02
2.751579626338432893e-01
3.518384042237229781e-01
2.812448599413555073e-01
9.691322184839080978e-02
-1.198831513296562540e-01
-2.761811505368137465e-01
-3.181524480152848611e-01
-2.556044674568095365e-01
-1.263676968398244893e-01
4.632118424437817877e-02
2.394779734402317506e-01
3.924567117200191135e-01
4.192552061411673470e-01
2.746906630399801319e-01
8.747907371034778501e-03
-2.494083665801719585e-01
-3.763278838554821593e-01
-3.372937209451600804e-01
-1.860883188381272646e-01
3.536388745774995263e-03
1.798326327664859225e-01
2.993243749500006379e-01
3.147674206481541614e-01
1.925622424578732339e-01
-5.473675538379013661e-02
-3.353893285050993378e-01
-5.044143360972563883e-01
-4.777539005791422433e-01
-3.020758847263246838e-01
-8.171647362698437889e-02
1.133444986479091032e-01
2.461980548889426690e-01
2.797509907825616038e-01
1.785575348141008045e-01
-5.636809864056353814e-02
-3.227299558993422246e-01
-4.037505113594265782e-01
-1.798512168556028190e-01
1.077232197714872441e-01
9.372209691753773109e-02
-1.439317148838094029e-01
-1.601604007500103122e-01
1.653988586256673887e-01
4.442248231221311849e-01
3.190789996838939158e-01
-1.159049823941599444e-01
-4.699265391039393336e-01
-4.938925324989117405e-01
-2.814323963281154528e-01
-5.532850238233545659e-02
9.355558826823019702e-02
1.915353335057109474e-01
2.418354178051183578e-01
1.981780040610173210e-01
4.425630915056281284e-02
-1.542681603657092282e-01
-2.984117762160323206e-01
-3.431864777698647728e-01
-3.073256219285065427e-01
-2.107297919229328131e-01
-5.518376886195840159e-02
1.251814394367247174e-01
2.466131000935826434e-01
2.417652842413958447e-01
1.228720431922571132e-01
-3.586889687408734151e-02
-1.603107007093397263e-01
-2.169807137619275406e-01
-2.132457298278132851e-01
-1.653511979466961712e-01
-7.361851650228667943e-02
5.266554211860154100e-02
1.634394573810582230e-01
2.038356001130041117e-01
1.731090846594508792e-01
1.063838062695442455e-01
1.702198545838800800e-02
-9.088259257773337318e-02
-1.724020499774710780e-01
-1.619667823087528047e-01
-4.297092875732857337e-02
1.280479929390713201e-01
2.580215394522379357e-01
2.723548746428707812e-01
1.566049274385864498e-01
-3.400512329973624792e-02
-2.039325257428205862e-01
-2.783899435184503113e-01
-2.674839671916379724e-01
-2.600683635871369193e-01
-2.948381417134449678e-01
-2.299042044913709171e-01
1.297227325979450341e-01
6.614702860486501024e-01
8.645211519781662579e-01
4.373548650900280221e-01
-2.555195685440129760e-01
-6.014359104948753254e-01
-4.357784883483208915e-01
-6.259790315853969167e-02
2.102813771217399430e-01
3.223955298027390004e-01
3.570509768775145809e-01
3.632001028653889518e-01
3.106215852848487335e-01
1.673596631600730578e-01
-3.535015607851912239e-02
-2.251034851140708282e-01
-3.433012038950317701e-01
-3.656833534211221814e-01
-2.926203184268270086e-01
-1.434100790828142791e-01
3.547334244319445828e-02
1.710532242829952976e-01
1.988410931789467984e-01
1.109582356595723712e-01
-3.942534189398740063e-02
-1.843767963465812454e-01
-2.775638790188650340e-01
-2.879091088510609131e-01
-1.896912991268771276e-01
1.365269841795534872e-02
2.544365881358522929e-01
4.105846183076879430e-01
3.869102247291151264e-01
2.027362142022042513e-01
-2.407334961071042057e-02
-1.869839119220001178e-01
-2.608832881660586023e-01
-2.705874383548586004e-01
-2.268469333952896072e-01
-1.133778784071130807e-01
6.354123700429376020e-02
2.352613195791066203e-01
3.104274323207227848e-01
2.505298362859442185e-01
8.934250130874729634e-02
-1.026305742348182365e-01
-2.519351246519791476e-01
-3.058681222477595552e-01
-2.501085470215339002e-01
-1.001262044588481226e-01
1.121299660032822332e-01
3.129224438241242079e-01
3.716447694587795558e-01
2.011119895814560687e-01
-7.035883351040310429e-02
-1.367433646920117596e-01
9.069986821283103351e-02
2.445034648658361565e-01
-1.210406046905568474e-02
-4.071625502338056535e-01
-4.039908536218260737e-01
4.636148889705643539e-02
5.080864428572279268e-01
6.420150643321761441e-01
4.685125378799478435e-01
1.772609425929828619e-01
-8.625257690030260771e-02
-2.549872402898976653e-01
-3.002991204141293169e-01
-2.236814555497957935e-01
-6.747478111824753433e-02
9.759109586816132331e-02
2.051594080444059665e-01
2.157428074656503880e-01
1.232232369848067222e-01
-3.833848686729845329e-02
-1.999195593985603481e-01
-2.953952289921152885e-01
-3.016124459488557785e-01
-2.328794336820022570e-01
-1.056898548661636406e-01
6.420267192793004118e-02
2.305017584764326721e-01
3.191347256821771561e-01
2.835510055244409577e-01
1.458329686754968602e-01
-2.736693195419482097e-02
-1.794648467341342091e-01
-2.782499694378714472e-01
-2.897071484784059514e-01
-1.834994892091054153e-01
1.764268766990512854e-02
2.239023990686913324e-01
3.355709212771941785e-01
3.075708600502456980e-01
1.608123129368898008e-01
-4.325635358336728936e-02
-2.257435493857577469e-01
-3.146829150280331389e-01
-2.818674746901986827e-01
-1.575618965328730858e-01
1.959293943269432153e-03
1.491025048089863192e-01
2.422510553614690421e-01
2.409230581948043071e-01
1.349764213480581787e-01
-3.066514771009327608e-02
-1.933087753201108150e-01
-3.375732739446832276e-01
-4.656715239376247317e-01
-4.673298464028652344e-01
-1.494733139456558002e-01
4.314767234026710141e-01
8.158357981231940670e-01
6.314329766300096347e-01
1.089237326330383115e-01
-2.241757145145734098e-01
-1.948282949991504143e-01
-3.229063906456570987e-02
5.010076635466795270e-02
5.962885634972607540e-02
9.808222431395281771e-02
1.992912299390856012e-01
3.018963557377110085e-01
3.239980092691343017e-01
2.380696831438011696e-01
8.181362532795452558e-02
-8.377054854247106830e-02
-2.149912605136153065e-01
-2.891160876132304880e-01
-2.862649099859642665e-01
-1.921138377145694964e-01
-2.798266405706483287e-02
1.387994003509161467e-01
2.308850944802592620e-01
2.063746902517162030e-01
7.625885864463101405e-02
-1.065064247229528249e-01
-2.734945946020225227e-01
-3.608709443447888909e-01
-3.175093085932955694e-01
-1.322021480536957616e-01
1.270843723998833219e-01
3.309899266387264505e-01
3.794429965425797358e-01
2.753180419775539400e-01
9.909035381504480156e-02
-7.594156878966903945e-02
-2.207949646863094362e-01
-3.157797793474621528e-01
-3.236626079937231504e-01
-2.207557139019154235e-01
-3.614515673198920309e-02
1.565619670742005032e-01
2.807336956841106068e-01
2.906905468797660874e-01
1.848817941773936990e-01
4.504159059224466244e-03
-1.823949434766248268e-01
-3.079013204296410788e-01
-3.263615889243161594e-01
-2.242426290915586207e-01
-2.834260301878072791e-02
1.758621756954637794e-01
2.535103392715366000e-01
1.371843363452610876e-01
-2.115444267119835631e-02
3.214700485031193877e-02
2.398531882550478112e-01
1.851331625682998971e-01
-2.756868353454374199e-01
-6.652347873730222183e-01
-5.050210639688494929e-01
6.425717897499265419e-02
5.448054157364975447e-01
6.520007317745669662e-01
4.510988757522882420e-01
1.463696394049341376e-01
-1.126436145157134472e-01
-2.758284871225494816e-01
-3.477822091303314211e-01
-3.421293528943291640e-01
-2.667306497700179801e-01
-1.286927226301723126e-01
5.637510277229978994e-02
2.496877952773684795e-01
3.708089595501030677e-01
3.262253610460130737e-01
1.044640470467859128e-01
-1.758868899621695292e-01
-3.546235348530658027e-01
-3.553374664487931045e-01
-2.141491345168087812e-01
-1.992535372035250663e-02
1.538953595558107124e-01
2.774330515473740766e-01
3.405754931002122343e-01
3.131738089066748998e-01
1.585197666398144301e-01
-9.903744954773788245e-02
-3.448646187340883573e-01
-4.436090265468175531e-01
-3.476498843935346139e-01
-1.309517891579544957e-01
8.195801734023235030e-02
2.044281401606765081e-01
2.133201086720035999e-01
1.274382738990613717e-01
-1.722315197253617564e-02
-1.815014063837090408e-01
-3.240970538902891440e-01
-3.972422598871567234e-01
-3.557772259717968955e-01
-1.902590987694688651e-01
3.708915095366871473e-02
2.121228971710384104e-01
2.551795857099297127e-01
1.772874048878388675e-01
3.177140344174726738e-02
-1.665375068030070516e-01
-4.192988407434810050e-01
-6.098462983544210569e-01
-4.860542418621024430e-01
2.897689153479738461e-02
5.565582937031162691e-01
6.137426346537966371e-01
2.423336227645190577e-01
-7.094313961659363954e-02
-5.906350714732938600e-02
9.691576449878439026e-02
1.393269584778137060e-01
3.575890787602063747e-02
-7.808573034930323120e-02
-8.173021153686589602e-02
3.725592470662740519e-02
2.020926428171598566e-01
3.110639234380417339e-01
2.945053192953913102e-01
1.482023126803956592e-01
-6.600230391388969831e-02
-2.594239363663409237e-01
-3.662538407935899687e-01
-3.608730717192131232e-01
-2.493490824039265863e-01
-6.503742845964442798e-02
1.334317332519313615e-01
2.760780854338101831e-01
3.099080559884213049e-01
2.261927907376057034e-01
6.070033886125421330e-02
-1.276142226516317202e-01
-2.719449313122082601e-01
-3.114301115229889949e-01
-2.226871082391992385e-01
-4.847727888914334787e-02
1.258623231839753331e-01
2.382677259237039880e-01
2.752780719238580032e-01
2.381855657586204045e-01
1.300372340263554471e-01
-1.530099913720152707e-02
-1.404118584948373938e-01
-2.232939143604922017e-01
-2.815047951615648469e-01
-2.878775586516910123e-01
-1.602460919088361802e-01
9.475876019383250304e-02
3.151947976214273806e-01
3.468316771111346619e-01
1.960480874810044405e-01
-2.543895642547481378e-02
-2.151858668061721047e-01
-3.039633028724981756e-01
-2.554407709271122040e-01
-1.080643347813963762e-01
2.100182720588722809e-02
5.879467925658245914e-02
1.152302215023232046e-01
3.530029070646533151e-01
6.259774853996630251e-01
5.115917536549068334e-01
-7.119824089123569233e-02
-6.085540930113096936e-01
-6.182140347703237726e-01
-1.951326830487772890e-01
2.480625255429215748e-01
4.729759719014564046e-01
5.013441381219486681e-01
4.179003591362259740e-01
2.559101367553374140e-01
3.989798265392585641e-02
-1.696545214048273686e-01
-3.059599503889710581e-01
-3.318175830851839980e-01
-2.421585274485161809e-01
-6.718531410352601707e-02
1.213227471744945662e-01
2.375480354636116398e-01
2.344994663575360738e-01
1.254474214335939419e-01
-4.384534722231628323e-02
-2.233176907073031736e-01
-3.562649523633529824e-01
-3.844712689316232002e-01
-2.874532302659872363e-01
-1.075088755459333578e-01
8.429498469517685000e-02
2.405674031527411105e-01
3.384968674304744685e-01
3.418182348443614127e-01
2.106076341847104016e-01
-2.778515093776719527e-02
-2.576278742124940568e-01
-3.632180275856193852e-01
-3.193474888000742973e-01
-1.765590079027686277e-01
2.892133268217186165e-03
1.641329974840733952e-01
2.558732078075157679e-01
2.491955316935343112e-01
1.487306058295881916e-01
-1.896839140899703180e-02
-2.033912018696328594e-01
-3.263238421038225923e-01
-3.255609816532207268e-01
-2.156241738780823036e-01
-7.738540540456000094e-02
2.771654010383237110e-02
1.071589790007056731e-01
1.728149265320565175e-01
1.532096728645350459e-01
-6.175316965053346402e-02
-4.358991023279492616e-01
-6.715913292911031007e-01
-4.409372766926202836e-01
1.521899088961804480e-01
5.636013467479195072e-01
4.739868980045646163e-01
1.811827819213233659e-01
1.127342260144029995e-01
2.762593886752188199e-01
3.859328554112186893e-01
2.706720758737194421e-01
1.049022247096634969e-02
-1.974888829642108545e-01
-2.140352498792258418e-01
-4.315706866240717754e-02
1.904842969884740222e-01
3.369031096841218487e-01
3.198857747860130440e-01
1.651493021486964696e-01
-4.719803619507981218e-02
-2.364588639363808531e-01
-3.438517641310984696e-01
-3.446957581219249334e-01
-2.507755683729023244e-01
-9.045011828849726376e-02
1.023250647570598665e-01
2.724175785381908743e-01
3.510542164130748821e-01
3.090784496787974955e-01
1.860028252928779546e-01
4.684980632270803469e-02
-6.698252824827617691e-02
-1.307997799675458539e-01
-1.252790795382283384e-01
-5.811715190411429616e-02
3.964542922985206386e-02
1.466100705279483885e-01
2.432597883128903016e-01
2.802414654841220432e-01
2.017830989978248724e-01
1.061531097682343744e-02
-2.126996321853825977e-01
-3.602467355983936526e-01
-3.644524491816221179e-01
-2.385616258096260600e-01
-6.365354268306427921e-02
8.873560140114089556e-02
2.177264845541237448e-01
3.345708369708799701e-01
3.732284108492824326e-01
2.473232326340073783e-01
-1.136078539248873073e-02
-2.484786330850274061e-01
-3.310678114820541085e-01
-2.689891331952670717e-01
-1.801993683828814197e-01
-1.042767105910738928e-01
1.015212512233671649e-01
5.000493559209087113e-01
7.453353831968733134e-01
4.090421208472863612e-01
-3.143354782824918647e-01
-7.278831014901002705e-01
-5.138035563359681923e-01
-1.757916688698840657e-02
3.205370186662795939e-01
4.030147012292296660e-01
3.617691374363846135e-01
2.972789068970576043e-01
2.056353687301480104e-01
5.899577700106709011e-02
-1.224515847567370641e-01
-2.771595907173611262e-01
-3.508577455210903362e-01
-3.292466518669394104e-01
-2.305150342566463506e-01
-8.210091417373531486e-02
7.974119798035721185e-02
1.999415306900313993e-01
2.238348028817419844e-01
1.333569461063042472e-01
-3.922933024187845452e-02
-2.235996721006229815e-01
-3.399578300089082239e-01
-3.398285411646126408e-01
-2.281455887703124907e-01
-3.866940943173451800e-02
1.927667464630205274e-01
4.029266951288478227e-01
4.832531535595060990e-01
3.545975639583677230e-01
6.450633258366847422e-02
-2.302318269432518383e-01
-3.848799653813663735e-01
-3.600717155274718584e-01
-2.127505128483796470e-01
-2.752161286328254700e-02
1.324116330836947741e-01
2.313172095917230831e-01
2.498867634830625462e-01
1.780703467864587219e-01
2.413273993114627494e-02
-1.646599457821342760e-01
-3.093964660538160993e-01
-3.482861095057075973e-01
-2.732457402777258015e-01
-1.206741930986476724e-01
5.260627022178627349e-02
1.871688875153244003e-01
2.336338558406269583e-01
1.477157018295619240e-01
-9.253404080240545948e-02
-3.846012108025418930e-01
-4.696196536109135677e-01
-2.114939570648516898e-01
1.129723636760974342e-01
1.155355465418295147e-01
-1.294582198451547372e-01
-1.916798669328906024e-01
7.659339485227012467e-02
3.799070046854695071e-01
4.073922533586090133e-01
1.453045548395972830e-01
-1.997752977048367629e-01
-4.180697417048500064e-01
-4.293919061854448160e-01
-2.810145047601563806e-01
-6.993154492302365577e-02
1.170496477785284289e-01
2.218401893445761386e-01
2.233291780752819089e-01
1.312075194290912572e-01
-3.419206603950843831e-02
-2.340313668261181923e-01
-3.910345243146072236e-01
-4.236049008656142534e-01
-3.111698111495329044e-01
-1.086805570070982774e-01
9.727790145598531890e-02
2.382160533302378203e-01
2.863152122725604043e-01
2.485237422602786517e-01
1.504730555384347912e-01
2.739355169598666276e-02
-8.326782456183053072e-02
-1.518481285496383337e-01
-1.580242493949239047e-01
-8.911891440670202669e-02
4.746403145204203949e-02
2.070564195915580163e-01
3.152567854252674162e-01
3.082132529490641537e-01
1.760763360795449817e-01
-2.805233823262007209e-02
-2.178357881057161605e-01
-3.139491419821996976e-01
-2.732770776152464443e-01
-1.085429623060436555e-01
1.079417853702503843e-01
2.789417997321911868e-01
3.356186694142302418e-01
2.579004898863097028e-01
7.188376604035678907e-02
-1.446094889719416465e-01
-2.923335200139646206e-01
-3.398438179602350506e-01
-3.543335405057186915e-01
-3.658261925853495966e-01
-2.246672526887430743e-01
2.235699510555188563e-01
7.502450333808359240e-01
8.302325056225748900e-01
3.261916759728217263e-01
-2.592911911297355876e-01
-4.344238233529114090e-01
-2.492154653193078828e-01
-2.561063870633818740e-02
8.914282423613849315e-02
1.533507663818764744e-01
2.273209987005893051e-01
2.812438726368822750e-01
2.577184141102428216e-01
1.449969906501267503e-01
-2.228071950575585478e-02
-1.951639786609140337e-01
-3.236409563849423909e-01
-3.604535037663847974e-01
-2.807665757726169886e-01
-1.083718700730449402e-01
8.736004539472264074e-02
2.346830556691406888e-01
2.986990999568356897e-01
2.769410107913522490e-01
1.745664306839047331e-01
4.890389928371836198e-03
-1.857733743527543724e-01
-3.168965825168672534e-01
-3.151226720060942288e-01
-1.640568129682959675e-01
7.147758329262518529e-02
2.741200565338147710e-01
3.521854004806212468e-01
2.955204989291058681e-01
1.566073145006165734e-01
-7.167653395085880202e-03
-1.633101985514657795e-01
-2.818087827423773617e-01
-3.117334340801115045e-01
-2.160063509826608552e-01
-2.550512291559832792e-02
1.691348198386430912e-01
2.813326210570163965e-01
2.750139656857356618e-01
1.616194461097191504e-01
-1.944473453853100969e-02
-2.043526924910677722e-01
-3.192826602485443477e-01
-3.261661887804747639e-01
-2.372415646738816053e-01
-7.422481586610776838e-02
1.339725220962549590e-01
2.903579388570173836e-01
2.498999685149640992e-01
2.190568959321740478e-03
-2.035248742838565439e-01
-1.051868243596225244e-01
1.643487322223783909e-01
1.967935845911303050e-01
-7.719813989803034349e-02
-2.526296458046641269e-01
-3.651087108485497057e-02
3.834401018194900645e-01
6.379256018252746907e-01
5.713392057076428499e-01
2.854814125056465146e-01
-3.319762806549036993e-02
-2.555244232731906928e-01
-3.404976553295694375e-01
-3.004564216026500700e-01
-1.701398528144691946e-01
2.740019127157950624e-03
1.616731763216346929e-01
2.453407869820919684e-01
2.037712778800126467e-01
3.750911126922633343e-02
-1.807934607308381569e-01
-3.472179693658398736e-01
-3.944114255370242406e-01
-3.190143357577374106e-01
-1.581314078095281128e-01
4.296182463308280408e-02
2.304504391129059970e-01
3.331727099014946125e-01
3.051193962314359132e-01
1.787995036129454429e-01
3.299692228839386232e-02
-8.866952728294642816e-02
-1.863137723849574989e-01
-2.405073884569432496e-01
-1.963093638681570052e-01
-3.322659080134347798e-02
1.801628430627391642e-01
3.289034010205340031e-01
3.418160272336208672e-01
2.289437550275064404e-01
4.683210041578578925e-02
-1.433403334183313005e-01
-2.856935959520616186e-01
-3.343067447743959253e-01
-2.675523840388476793e-01
-9.694242814520950824e-02
1.241415053056696416e-01
2.970899171314825282e-01
3.241002297423200007e-01
1.920908760065715426e-01
-7.734017273350032862e-03
-1.762430300254446414e-01
-3.098100714304033998e-01
-4.494883922882770833e-01
-5.079067062605203686e-01
-2.726485808207992356e-01
2.523239435079819848e-01
6.341283159227103505e-01
4.698754563238679016e-01
-3.046886276865332088e-02
-3.143376004801690660e-01
-2.130191599793296864e-01
-8.937850441885081265e-03
6.285225159287655128e-02
4.237459841779062097e-02
6.391123594859568491e-02
1.698399113661032411e-01
3.028841754450420365e-01
3.780697218983889996e-01
3.370993482958120624e-01
1.774609451674497018e-01
-4.438684314024541472e-02
-2.446836462294051662e-01
-3.556165314975084368e-01
-3.472086458390766239e-01
-2.287861397865254554e-01
-4.807573272592306768e-02
1.222659138029496551e-01
2.236634080015568460e-01
2.377228986343142836e-01
1.678999270889361961e-01
2.352901010455772310e-02
-1.571909109028847562e-01
-2.962045718146680828e-01
-3.137286584261963496e-01
-1.786409263826755356e-01
6.191849011162778305e-02
2.928281436941986282e-01
4.006703904569445807e-01
3.524107681798479552e-01
1.973157480701984157e-01
4.110363820109097510e-03
-1.805665083721764153e-01
-3.213882673125833533e-01
-3.765812592536069703e-01
-3.159724955446120975e-01
-1.541292985071302524e-01
5.066009176321972785e-02
2.284361494611481247e-01
3.207862182189136213e-01
2.912235978692928606e-01
1.409949829716304892e-01
-7.840106021496111299e-02
-2.794072484645608312e-01
-3.788700223982814363e-01
-3.364516000592868150e-01
-1.697450188196954479e-01
4.442018901895530836e-02
1.791779681014245840e-01
1.273859705124218422e-01
-5.332504514065709855e-02
-1.145950196365588258e-01
7.840772115200141112e-02
2.491338336445785284e-01
3.282878012183148425e-02
-4.150202493985351571e-01
-5.472121080744242194e-01
-1.599543806696918091e-01
3.890542294627428177e-01
6.699272861189355943e-01
5.856446315519105994e-01
3.060104545552899680e-01
1.582208002874291308e-02
-2.003033004608743561e-01
-3.157485142202257622e-01
-3.131377499114995633e-01
-1.998979987595225494e-01
-3.036876463748512667e-02
1.209458209263566536e-01
2.074232612255938191e-01
2.198225113857352475e-01
1.576881400143934908e-01
2.038952415242792707e-02
-1.647514291624274096e-01
-3.271113931693342969e-01
-3.861475993501012338e-01
-3.070859383614207294e-01
-1.256226935734548467e-01
7.994653815540543607e-02
2.351753737660694787e-01
2.954851327766759850e-01
2.553699392522702505e-01
1.442405702318876604e-01
-2.977265975345359805e-03
-1.644029483151426552e-01
-2.988513913034967495e-01
-3.293164761343507219e-01
-2.113195141202009741e-01
4.965055303202091375e-04
1.911994757708039006e-01
2.754053122253459773e-01
2.351583475415437996e-01
9.968002686482868580e-02
-8.134901436114772011e-02
-2.476022024758363638e-01
-3.373372969991131898e-01
-3.118025090416454703e-01
-1.805701933109149504e-01
-8.751897368023502100e-04
1.551651639477013012e-01
2.421357415405998581e-01
2.542646792817706558e-01
1.965132686802281148e-01
5.198783254059101411e-02
-1.942654397756537199e-01
-4.550202575174259190e-01
-4.844993842715150101e-01
-9.950889572689955442e-02
4.517919682525380343e-01
6.318966347327673594e-01
3.127581112853062284e-01
-3.569393239554273511e-02
-3.171570145049128209e-02
1.663765409848933507e-01
2.217490139487008072e-01
4.933731586160057525e-02
-2.095194287863927363e-01
-3.732293233892270967e-01
-3.180719302318020247e-01
-6.260230908587857690e-02
2.139058611752488182e-01
3.263425568733779869e-01
2.385768205176547752e-01
3.653853578178373196e-02
-1.794027101161720650e-01
-3.405501072662319717e-01
-4.020440987588592141e-01
-3.387673442247617350e-01
-1.663271068125723728e-01
4.433199921478082894e-02
2.040347680556373611e-01
2.658262716287887462e-01
2.320235523605506667e-01
1.139923182260616785e-01
-7.001466279573069496e-02
-2.507860678742721561e-01
-3.175125346312124841e-01
-2.137737554180772492e-01
-3.690805256155081648e-03
1.894167992920384180e-01
2.939767027292609081e-01
3.120639790951639236e-01
2.594541736833138601e-01
1.371193352815565647e-01
-3.845109969883350742e-02
-2.146889264175756984e-01
-3.246115845107774844e-01
-3.226653082380062099e-01
-2.075796302105402114e-01
-2.111789908919998668e-02
1.721561082121842723e-01
3.044858844706692103e-01
3.238020641115811893e-01
2.190318393254294949e-01
2.789085797021105192e-02
-1.833425511363376836e-01
-3.379847348652801342e-01
-3.635934565855153955e-01
-2.392272729812428556e-01
-5.258551042913488932e-02
4.166744113356698337e-02
4.886450601001264896e-03
2.514853075273779798e-02
2.710414329872314343e-01
5.289958175845562716e-01
3.882777722415051147e-01
-1.385919748732707679e-01
-5.441240663240449749e-01
-4.588980019582068470e-01
-2.497152066847799223e-02
3.871749606192511073e-01
5.602000214790220367e-01
5.059384185940816181e-01
3.355121972281685516e-01
1.306713465386322437e-01
-7.935609804154125646e-02
-2.623561533129802337e-01
-3.537563680570579017e-01
-3.012723927357947584e-01
-1.252998326939213924e-01
8.030117337035967695e-02
2.138566012838601649e-01
2.329325560926288341e-01
1.568270453616246451e-01
2.298133826609576741e-02
-1.322179722482031416e-01
-2.625367110657458314e-01
-3.202410110837671797e-01
-2.842026509190838657e-01
-1.691995114757293694e-01
-1.092599778407541550e-02
1.533875949100532710e-01
2.911195624136727056e-01
3.595264647938792857e-01
3.022067476410169040e-01
9.983672193816936491e-02
-1.691299198415975868e-01
-3.586213996839852647e-01
-3.698933479409128866e-01
-2.235151771630636552e-01
-1.853140089832273213e-02
1.517124687386491588e-01
2.423699561589592044e-01
2.529281600815064257e-01
2.013819278312934669e-01
9.849671511327265372e-02
-4.633181707197780996e-02
-1.929590805600804870e-01
-2.757063911226075859e-01
-2.582218182762171521e-01
-1.594586307664252467e-01
-2.044613040266974116e-02
1.268010846622548149e-01
2.499332856874234565e-01
2.871787824251355592e-01
1.534346249581653165e-01
-1.562642887678086234e-01
-4.363453325769157121e-01
-3.787471330643484846e-01
2.318222091708142113e-02
3.348507107101673097e-01
2.251710480071803799e-01
-4.951013667810999497e-02
-4.702919347107815951e-02
2.269307188262486563e-01
4.167118725995415107e-01
3.214998614989318382e-01
5.543842398010944555e-02
-1.603126181879110934e-01
-2.087079036134897314e-01
-1.129879690845160545e-01
4.561217700595046609e-02
1.941656612133817461e-01
2.731670164918443278e-01
2.424328199577092113e-01
1.089795752592910005e-01
-7.489345022942618668e-02
-2.457823984920647353e-01
-3.475011732089374750e-01
-3.383316562975644537e-01
-2.149003838381863263e-01
-2.586878286906232199e-02
1.542165941675637808e-01
2.662964469363153786e-01
2.837351268422441675e-01
2.011419851994808439e-01
3.195642388475543327e-02
-1.660893684782138446e-01
-2.921733591877261893e-01
-2.770705727316249978e-01
-1.516393453469038477e-01
-4.407692164338242180e-03
1.148351758013932272e-01
2.094233437162686395e-01
2.679111222931082059e-01
2.342866191343473126e-01
7.368820731752269426e-02
-1.527357907245022739e-01
-3.195358674096063778e-01
-3.484036838650241830e-01
-2.574265411525075709e-01
-1.055114939434613208e-01
6.261423777020209969e-02
2.086339841250088034e-01
2.852835415303581756e-01
2.525271021170737429e-01
1.041250950285086130e-01
-1.093787891297766102e-01
-2.832353979862447524e-01
-3.222825931604004213e-01
-2.306169657561596142e-01
-1.238053066879919450e-01
-1.041734240259805377e-01
-8.577099172022854823e-02
1.624400654489102369e-01
6.286953564184369903e-01
8.486169791376841909e-01
4.388299969202583140e-01
-2.835435113442342225e-01
-6.426928066181953891e-01
-4.209770410338209423e-01
4.306459787042962728e-02
3.839221499344110389e-01
5.096940686481800098e-01
4.899967322718099538e-01
3.870126897407764055e-01
2.184840725604116074e-01
2.062164702741516031e-04
-2.171798306908247489e-01
-3.618666476880700866e-01
-3.901131281837261766e-01
-3.078446356703785636e-01
-1.512426027672536533e-01
2.781958790302618834e-02
1.674505801815618367e-01
2.157962732967276531e-01
1.541017073621302746e-01
7.972868475015645884e-03
-1.611297747949338444e-01
-2.902290955794201155e-01
-3.439680248617791869e-01
-3.067329523789614765e-01
-1.635568606570197703e-01
8.446182564593628095e-02
3.628597346194844531e-01
4.960462462060484246e-01
3.228595601267800763e-01
-9.771209117474675965e-02
-4.766571162337405188e-01
-5.808519603516292262e-01
-4.488145681575594348e-01
-2.548258164197333975e-01
-8.435604662152849931e-02
7.495150055002562650e-02
2.223357152029495909e-01
3.045993132262505565e-01
2.648467116679974476e-01
1.047429491823951009e-01
-1.047668495166729080e-01
-2.732234554648894642e-01
-3.468016254369443163e-01
-3.213618465407649949e-01
-2.192558946676800846e-01
-6.480990491695290401e-02
1.188320843204220961e-01
2.840859636478717531e-01
3.303258976324823237e-01
1.550843029340384649e-01
-1.814829831965448226e-01
-3.803091592077862959e-01
-1.967058073250057826e-01
1.476259376996956196e-01
1.698075878747559997e-01
-1.553940348686182193e-01
-3.176780077582070372e-01
-2.639078983618412672e-02
4.165229887085209470e-01
5.861878888546616651e-01
4.066909342502401103e-01
8.790717254364732725e-02
-1.624555471254063854e-01
-2.682254296508447822e-01
-2.417270720916157578e-01
-1.209986318471429761e-01
4.594098769831764240e-02
1.955772550708387014e-01
2.592866958885365336e-01
1.966378669408464508e-01
2.515074516637545721e-02
-1.823750474603150762e-01
-3.360580459703354506e-01
-3.765918847581675721e-01
-2.964575918903983864e-01
-1.282173506466338653e-01
7.193855304191185129e-02
2.338437169028510787e-01
2.962472769158371322e-01
2.424978983968862356e-01
1.137738064167632124e-01
-2.120034115672566125e-02
-1.149668654345371577e-01
-1.603315407441106843e-01
-1.642831295846041151e-01
-1.178067115878488197e-01
-8.459605364624585983e-03
1.359238721395613081e-01
2.410593142552509838e-01
2.459114291157312449e-01
1.519432818355421211e-01
3.622730137396272532e-03
-1.450271267287793486e-01
-2.387463536165923272e-01
-2.393210461113928211e-01
-1.480263012323011496e-01
4.302580536249572818e-03
1.746414503281104591e-01
3.034139018477608474e-01
3.241777275015590987e-01
2.103728175977412906e-01
7.112288898968286560e-03
-1.995548017411373498e-01
-3.467027153021206565e-01
-4.296152912759553799e-01
-4.594264027497133585e-01
-3.596627187682143179e-01
9.534669856471500449e-03
5.703471189848895451e-01
8.939852022429741751e-01
6.452089745854637792e-01
5.595282217322194995e-02
-3.456490467138185751e-01
-3.424741771029730653e-01
-1.216229366886443924e-01
7.505456692890993819e-02
1.754822972096983513e-01
2.248424589266611873e-01
2.594409919989898450e-01
2.623268655288956142e-01
1.967699391056923486e-01
5.221053631525521266e-02
-1.355159845914799543e-01
-2.996419385519990541e-01
-3.810762587164271964e-01
-3.534823311042457616e-01
-2.209487526042809291e-01
-1.967876594298627324e-02
1.720402571921786361e-01
2.685804523009935885e-01
2.462539617701577088e-01
1.451573651056607683e-01
3.861357944832298494e-03
-1.529222190199626685e-01
-2.720125454313214175e-01
-2.829253976260812653e-01
-1.616136715993238271e-01
4.115695489664464302e-02
2.316711559883714855e-01
3.274135509495159635e-01
2.975627118949877303e-01
1.702868924871467626e-01
1.389030373209663993e-03
-1.657242489793688267e-01
-2.994631487116378166e-01
-3.522006848429509174e-01
-2.759305623006950703e-01
-8.393674314820803728e-02
1.312331225098939957e-01
2.655574972339884154e-01
2.777981067011605631e-01
1.882796945411249478e-01
3.420530670831506415e-02
-1.451042388440357822e-01
-2.969556813640553683e-01
-3.631744662481989905e-01
-3.050175963817301494e-01
-1.234893971570809046e-01
1.178501557552823209e-01
2.836121120402811946e-01
2.402784281206261086e-01
1.788496660410615266e-02
-1.359298339037244840e-01
-3.027798160529052152e-02
1.305844307777548619e-01
-2.447574126371671738e-02
-4.181613169372696004e-01
-5.505874481997869996e-01
-1.984096495924433934e-01
3.315349871737495180e-01
6.508782658918338404e-01
6.474916185987609207e-01
4.218422918440435376e-01
1.215316378613229553e-01
-1.265398010660377937e-01
-2.458934993824820892e-01
-2.351820494472918188e-01
-1.459856207962934582e-01
-2.557448853351632773e-02
1.039157406513286780e-01
2.104597200452992811e-01
2.311339231971468455e-01
1.149268238034677342e-01
-1.200142308498901023e-01
-3.782380272210280614e-01
-5.320432463038814452e-01
-4.963347108078606240e-01
-2.908808427742249902e-01
-2.953949542347095863e-02
1.684742621046695643e-01
2.596988775800155858e-01
2.741367149682504833e-01
2.505911814286269634e-01
1.841467264023621819e-01
4.570720836358156680e-02
-1.407067687753009166e-01
-2.700105321550748116e-01
-2.392681195195088262e-01
-5.137805796969177607e-02
1.773179912195020358e-01
3.087152327290915155e-01
2.862920352738152485e-01
1.545030474469451243e-01
-1.391983849559377470e-02
-1.771949525495349342e-01
-3.040327205359147911e-01
-3.458874646175236212e-01
-2.682717222192812501e-01
-9.607259104287886597e-02
9.248631960406321351e-02
2.199021189344339822e-01
2.538187305052470588e-01
2.060533963347676301e-01
1.073009758337159919e-01
-2.279595521148376769e-02
-1.983973706606538823e-01
-4.236888042374257757e-01
-5.735990716944018297e-01
-4.030126742850996813e-01
1.338325102113493703e-01
6.245157255521438522e-01
5.839953250993386025e-01
1.018454153056812389e-01
-2.659136864002062395e-01
-2.255554545236243269e-01
7.103138959542044939e-03
1.310582567987907121e-01
1.010665044542404523e-01
5.320593774997585401e-02
9.682191477575260996e-02
2.203518482069756201e-01
3.270276158878808737e-01
3.268655712363089383e-01
2.030991459415359413e-01
8.188680450107340553e-03
-1.825484761047683202e-01
-3.070824642891319400e-01
-3.310077995232613701e-01
-2.512410362094011362e-01
-9.210804878172787480e-02
1.014313046501251481e-01
2.673111394538760233e-01
3.365216183784210946e-01
2.685303450032116568e-01
9.691145948703663859e-02
-7.568572698505751650e-02
-1.560635295635079134e-01
-1.256109530021920495e-01
-1.630855708242482521e-02
1.313708245328720770e-01
2.626302980927915365e-01
3.223745116637228292e-01
3.016036517570359621e-01
2.245482028981519440e-01
1.009693563047067005e-01
-5.292519827564516610e-02
-1.733566327038509602e-01
-2.005967031037709236e-01
-1.635836300439639790e-01
-1.450401139656822824e-01
-1.474635541476842782e-01
-7.224974147903666377e-02
1.126349643326243627e-01
2.694015035203146113e-01
2.393550459100770855e-01
2.980375074043982789e-02
-2.105531399514745383e-01
-3.448091285198777722e-01
-3.253829029943767215e-01
-1.733525009274675122e-01
3.075844941385998121e-02
1.479739118020757804e-01
9.817920543572354608e-02
2.550629456118200244e-02
1.710223721066150560e-01
4.404838186594590699e-01
3.733579146067306787e-01
-1.788669592266209918e-01
-6.926190985224620622e-01
-6.328328605702892018e-01
-1.132956437130941407e-01
3.734379552291501314e-01
5.460119026557322952e-01
4.535300941987788770e-01
2.506386215895303193e-01
3.658456318583519495e-02
-1.516524009881845825e-01
-2.907942321012256803e-01
-3.481596547581806700e-01
-3.032998443416442536e-01
-1.748162119635265910e-01
-1.182319487255004825e-02
1.300321637204620018e-01
1.990730718058606186e-01
1.618159055679057601e-01
2.490759544409614293e-02
-1.622479325043101328e-01
-3.233791424453791308e-01
-3.810773486996178461e-01
-2.979229659162138111e-01
-1.084855114376090113e-01
9.848598798324360859e-02
2.433361341180276805e-01
3.016393315697219468e-01
2.805631183055484756e-01
1.732762977423319695e-01
-2.175836586443099380e-02
-2.468916042371843700e-01
-3.969066686478514572e-01
-3.944395699184407578e-01
-2.441349607794189580e-01
-2.199619407403516705e-02
1.754167800217023288e-01
2.756325190894582389e-01
2.535630591222622909e-01
1.380516695139833439e-01
-1.437187518832724539e-02
-1.657292901861729395e-01
-2.994608847401533658e-01
-3.756026158870648390e-01
-3.282534004148064399e-01
-1.429107225202347897e-01
9.279988464528138303e-02
2.575462570711732346e-01
2.987102366778954798e-01
2.335080587065027358e-01
6.977800435154929426e-02
-2.057304136131922201e-01
-5.064258208910520365e-01
-5.772357928729601184e-01
-2.365100487857930700e-01
2.815646194285252868e-01
4.983742387710349275e-01
2.956332532040885641e-01
3.766417478795765217e-02
2.529824727748011121e-02
1.575915827377595280e-01
1.860431889188153276e-01
4.234946551920575758e-02
-1.473494478745622227e-01
-2.344500181271511607e-01
-1.704884370240585534e-01
-8.921860379873504387e-03
1.554674709992595882e-01
2.450480616302218584e-01
2.272963976765815242e-01
1.097574927633362118e-01
-7.182266487997324145e-02
-2.555409943936136630e-01
-3.690126523487337051e-01
-3.663968377139785182e-01
-2.516060490961350427e-01
-7.097115698709895171e-02
1.074679328702537462e-01
2.197742378492691662e-01
2.299625048020630669e-01
1.376465468626946187e-01
-2.072888043735946970e-02
-1.721051820666378573e-01
-2.383713682399111466e-01
-1.925890330562995689e-01
-7.473526164199750799e-02
5.691298452305813133e-02
1.751360974507208401e-01
2.704888577867618493e-01
3.100515763562675109e-01
2.483398837581250185e-01
8.210754006397001648e-02
-1.278575455233671720e-01
-2.915865572431542985e-01
-3.427786588876647889e-01
-2.701379178274146420e-01
-1.116198644316498401e-01
7.290448672174357214e-02
2.249857291883211596e-01
3.005877050910670256e-01
2.739165129568171819e-01
1.421211605158309854e-01
-5.489211567552344795e-02
-2.273004951864361078e-01
-2.844593669873087816e-01
-2.184753456331594568e-01
-1.266163621905397330e-01
-8.972128671663069654e-02
-1.154139762700840885e-02
2.729662114171894638e-01
6.234056278708374199e-01
5.955368921533303883e-01
6.425533770269499512e-02
-4.816623373611272352e-01
-5.492220951340442969e-01
-2.062350413014990558e-01
1.652357972753766002e-01
3.571811856386387651e-01
4.084280545474131552e-01
3.947740496843591962e-01
3.157696573312738231e-01
1.551273771408518687e-01
-4.866010727017182347e-02
-2.222542258695746620e-01
-3.103114369867768230e-01
-2.944161795741331300e-01
-1.871642170934448846e-01
-2.800552785161995045e-02
1.247607973022970412e-01
2.245736897207041838e-01
2.614099610200395496e-01
2.345964305197316691e-01
1.260356823319614128e-01
-5.451229085552309478e-02
-2.307660470431509847e-01
-3.141660163907641912e-01
-2.707094505376261284e-01
-1.186723337960653435e-01
9.697132944450462255e-02
3.048240162479569637e-01
4.136653837338821194e-01
3.610941924477616416e-01
1.637105811901726216e-01
-9.095755739082392322e-02
-2.981097071745162919e-01
-3.855717793248352732e-01
-3.352219464252301773e-01
-1.751718838684343527e-01
3.624493758192421505e-02
2.205898115880611798e-01
3.042180153095356832e-01
2.586829034497715174e-01
1.142741615232187730e-01
-6.683663046946097808e-02
-2.239068303786708736e-01
-3.137010125055654797e-01
-3.137587852640076336e-01
-2.235662933731895619e-01
-6.647374548254705862e-02
1.159196798653526900e-01
2.671835320473197606e-01
2.984219073716381510e-01
1.149534331455623198e-01
-2.326378230351369703e-01
-4.434492873099308841e-01
-2.275765530564893280e-01
2.449248167541603349e-01
4.470732777795047297e-01
2.013117976425926048e-01
-7.609228949917939966e-02
1.697197870569501152e-03
3.092034483991257798e-01
4.859552864710398601e-01
3.813445861403033099e-01
1.086370045722471617e-01
-1.522820844541126206e-01
-2.892021509438759685e-01
-2.581300320607192722e-01
-6.456045730252071846e-02
2.033500613716838212e-01
3.809829020973183322e-01
3.527026355895892529e-01
1.620186254931412495e-01
-4.798571376147578449e-02
-1.752684082739378868e-01
-2.109726841253453666e-01
-1.910004995589790477e-01
-1.371408130874321174e-01
-4.845028135542926717e-02
6.566523241675568945e-02
1.678535607202333857e-01
2.260323287241996215e-01
2.447282982716706690e-01
2.274366399052154819e-01
1.410660862280878614e-01
-2.142820658306822390e-02
-1.857535168198966302e-01
-2.609544644224832122e-01
-2.146654686119423006e-01
-6.867622930541861237e-02
1.155252659872961635e-01
2.406153907860232588e-01
2.242546010393873246e-01
6.822608517035905207e-02
-1.446034476025267745e-01
-3.217118018807323954e-01
-4.110298702910018531e-01
-3.940804714218769100e-01
-2.699762454296354974e-01
-6.860912975205843423e-02
1.358913771051032671e-01
2.570342555530831796e-01
2.529907190780342763e-01
1.444227597832383747e-01
-1.698459044781208682e-02
-1.792392878968661341e-01
-3.023954987856514176e-01
-3.764455733119683734e-01
-4.105387736793517095e-01
-3.469249231582923754e-01
-5.494283008730846407e-02
4.088302036182372423e-01
6.283992592536666866e-01
2.735721355500173591e-01
-3.524513654002118246e-01
-6.424267882982338529e-01
-4.524129175941016268e-01
-1.314392825881152138e-01
4.457548103971516879e-02
1.103742758662484696e-01
1.933469306669682586e-01
3.053594394305417237e-01
3.548780701293282047e-01
2.654039327430106621e-01
5.007971135514921457e-02
-2.031065283046001868e-01
-3.934090987594786037e-01
-4.607320135205009715e-01
-4.028261955322369747e-01
-2.561362020491405600e-01
-6.793593038241507731e-02
1.087036614612246072e-01
2.135026881343805860e-01
2.065234545968842872e-01
9.793867862346580799e-02
-6.720137661399010198e-02
-2.384291697938080434e-01
-3.544744514223799325e-01
-3.414672622666379831e-01
-1.649717571586845899e-01
1.118161659043538092e-01
3.484017635646585731e-01
4.303209630197398217e-01
3.581461435746968736e-01
2.181643352341539055e-01
6.816407500508456230e-02
-9.665555038996236081e-02
-2.459473436925870005e-01
-2.712768585053476067e-01
-1.147952503260702972e-01
1.258446572624439264e-01
2.955772788069254697e-01
3.328353171230232777e-01
2.706548267209587522e-01
1.469216185286129905e-01
-2.317951128465618738e-02
-2.114924287227146760e-01
-3.660816237757034131e-01
-4.394286539886375631e-01
-4.018662010282903485e-01
-2.367547166289578064e-01
2.775374205009873904e-02
2.621473996258575356e-01
2.690932895782257028e-01
-1.821964322390391688e-02
-3.422198195809161847e-01
-3.099061682263263839e-01
7.057578112901763401e-02
3.023187048151187994e-01
9.370856123974624641e-02
-2.029550443795498926e-01
-1.259612410583500208e-01
2.777171912098249096e-01
6.101936524355691116e-01
6.221131484790587418e-01
3.736389382185870689e-01
5.757107813778076372e-02
-1.868962957447475315e-01
-3.164957914450318710e-01
-3.349199138604308512e-01
-2.484361742884359514e-01
-7.439648841391838241e-02
1.246819254633636381e-01
2.501211123516668966e-01
2.356725059086139662e-01
1.092686543213453598e-01
-3.085534935387052383e-02
-1.161499105338252014e-01
-1.596509544807807601e-01
-1.837705783530280690e-01
-1.475823566840234191e-01
-5.403375001187411472e-03
1.965848997943250853e-01
3.423262484686692697e-01
3.591565729105696270e-01
2.717768232749693813e-01
1.406001963064090476e-01
-9.657751231365658412e-03
-1.663046516737828884e-01
-2.679513513593542173e-01
-2.326987179088852442e-01
-5.442919620670125247e-02
1.731349903105860177e-01
3.347808839779868317e-01
3.694072967986957168e-01
2.805630223698542536e-01
1.098281709796067596e-01
-8.611839018960784631e-02
-2.419581619929858651e-01
-2.947191304653585253e-01
-2.194573160803238721e-01
-5.466875108328776711e-02
1.261572766040048588e-01
2.606868062541164432e-01
3.108693892800103997e-01
2.652291989290604945e-01
1.435424917484916241e-01
-2.941577092244314004e-02
-2.503578381452273849e-01
-4.758338450590001711e-01
-5.242256440064312351e-01
-1.960176153516313968e-01
3.639881761943752347e-01
6.378941053319119314e-01
3.484986617444732482e-01
-1.361474052705969606e-01
-3.097793373355006707e-01
-1.544561343136721943e-01
2.308072315568759914e-03
-1.318506755402433506e-02
-9.588524230858294639e-02
-8.767916523186354560e-02
4.004006146030300584e-02
1.933275688693620042e-01
2.574323939470182232e-01
1.899593054610026477e-01
4.028090364256402961e-02
-1.223612343239553202e-01
-2.733159450396492884e-01
-3.959371754921358622e-01
-4.304487026287982521e-01
-3.232858993271064962e-01
-1.085279046414981963e-01
1.050170520832153509e-01
2.236080732136233040e-01
2.287110233670901493e-01
1.583708741569172795e-01
4.623641862136354530e-02
-9.951962924763674279e-02
-2.456561374603569992e-01
-3.065972954521650196e-01
-2.181416790278586093e-01
-1.794016434096176379e-02
1.837236877709813587e-01
2.984274859126745949e-01
3.051658714656478866e-01
2.216071343299036989e-01
6.640843866892412461e-02
-1.309351956604885014e-01
-3.025396077761927649e-01
-3.672685431256913491e-01
-2.982766076936488320e-01
-1.461887232023273142e-01
1.320811247315973117e-02
1.360530859983943852e-01
2.052726056301845958e-01
1.986688969439711905e-01
1.005388545256267335e-01
-6.474475741198806866e-02
-2.405263400464699997e-01
-3.676582407840253697e-01
-3.890662056363807242e-01
-2.683616349161049852e-01
-6.115431038759480686e-02
7.072707183839475886e-02
2.785809177257874553e-02
-3.591185409290754971e-02
1.303637403320233035e-01
4.365609759174837734e-01
4.457094593378840286e-01
1.155786658015375834e-02
-4.184092699841893692e-01
-3.847258247063960468e-01
3.790849306299402116e-02
4.608772340506413490e-01
6.469291918896674654e-01
6.051120350453921271e-01
4.202725455062661375e-01
1.565038939036539622e-01
-1.145392000374820668e-01
-3.096148993399842064e-01
-3.806121975214364350e-01
-3.258719184504212385e-01
-1.707297180511131995e-01
3.186505361566964456e-02
2.018628161414833810e-01
2.670010498795346576e-01
2.069411111576816287e-01
5.958509510222158301e-02
-1.139952835839421474e-01
-2.593155858052997309e-01
-3.280219307493807412e-01
-2.819822998704467620e-01
-1.250150704573432803e-01
8.028495408794594779e-02
2.527917371056043749e-01
3.493452036413589590e-01
3.625762506032690347e-01
2.773464804587717492e-01
7.947614375307329726e-02
-1.778849834066592583e-01
-3.649250025406913789e-01
-3.733687359825352270e-01
-2.118317811714199306e-01
1.372472364492658553e-02
1.955699468551206910e-01
2.829782082460370884e-01
2.692793200556886091e-01
1.636444313226530223e-01
-6.380897431858306018e-03
-1.851188703265661817e-01
-3.069394432282236407e-01
-3.268146151161312463e-01
-2.372137749060719281e-01
-7.317828353887645410e-02
9.998468727804597778e-02
2.236685410419174957e-01
2.726362341388953725e-01
2.332444564151952282e-01
6.704767965539562558e-02
-2.436440708790663656e-01
-5.457358229380079306e-01
-4.958636728227401869e-01
5.134105513934259651e-02
6.443623001751989099e-01
6.573852096936790845e-01
1.618013271553487842e-01
-1.665249302300561562e-01
-1.753117621285076033e-02
2.522994231476131111e-01
2.557882336674390800e-01
2.653237973819133622e-02
-1.690870078679653499e-01
-1.730533435452956403e-01
-2.741105842966080550e-02
1.440898000135499846e-01
2.549431667741561824e-01
2.748460635092299653e-01
1.996502484309305991e-01
4.192005306247808399e-02
-1.571566115250881412e-01
-3.280803232163361227e-01
-4.005951807124063513e-01
-3.420922083621569798e-01
-1.751000733773283302e-01
3.790705576889881467e-02
2.207736858474501906e-01
3.043759890355581810e-01
2.515782373273298678e-01
8.435607503139379293e-02
-1.161309855426767984e-01
-2.534336067153385441e-01
-2.770841479444070554e-01
-2.059020524010163888e-01
-9.238256424974178316e-02
2.574140365829668403e-02
1.366878758826983453e-01
2.291384336316198422e-01
2.663745528278098074e-01
2.003938971666939517e-01
2.433572847947161263e-02
-1.948567052506875175e-01
-3.514542414738451304e-01
-3.763911464776276694e-01
-2.760444878078666675e-01
-1.049217934862985285e-01
7.494815285000334948e-02
2.049518617964024292e-01
2.360596544051348222e-01
1.514898128509573616e-01
-2.045340224779498839e-02
-2.158272236805461319e-01
-3.517672613972950280e-01
-3.618749940297145695e-01
-2.593825726767863826e-01
-1.578518402597294534e-01
-1.478834901627277543e-01
-1.138585046775062865e-01
1.726796368739842436e-01
6.258764231205159456e-01
7.467281953380783266e-01
2.551121729384288606e-01
-4.280325100104526714e-01
-6.715422821059712222e-01
-3.645978243916513373e-01
1.087870056084599552e-01
3.914633211105496002e-01
4.252262932562789755e-01
3.308489743190974886e-01
2.073237005505274011e-01
7.132225306341033466e-02
-8.911721525903598673e-02
-2.566575557685011888e-01
-3.757893588864633094e-01
-3.857919815273337383e-01
-2.653053038250334228e-01
-5.767268140226547435e-02
1.469712875516887562e-01
2.640314900521592567e-01
2.574214467298031606e-01
1.469480478492516395e-01
-1.427086143038882454e-02
-1.720080688129651814e-01
-2.842858007856186031e-01
-3.154624010408539903e-01
-2.405005334961645702e-01
-6.222296588929044497e-02
1.767592021236641109e-01
3.895380185534811912e-01
4.638448466919248281e-01
3.324496712371048934e-01
5.041279467957739124e-02
-2.257596034782935746e-01
-3.638094828126801628e-01
-3.468876104976459374e-01
-2.349692647565573833e-01
-8.042129180848944792e-02
8.645240629426995116e-02
2.244979225480236151e-01
2.853755329353940273e-01
2.476602797699970493e-01
1.244320696031180618e-01
-4.669665718955301470e-02
-2.013528474950483926e-01
-2.626286824198652003e-01
-1.901204816100083017e-01
-1.399026551597626691e-02
1.908247311511135635e-01
3.536054160392343437e-01
4.116452700155526778e-01
2.966361419216369533e-01
5.480694014819070814e-03
-2.865544912066225192e-01
-3.165212912579143389e-01
-7.909150214745440388e-02
7.149428229813539759e-02
-9.509350135190147713e-02
-3.038422789982591077e-01
-1.762139760213052575e-01
2.227810188657616819e-01
5.141919822052369859e-01
4.778973409241696335e-01
2.056067218162208610e-01
-8.339487311130108771e-02
-2.419345659872730037e-01
-2.470307357301379236e-01
-1.450182720315702500e-01
9.387183416921535822e-03
1.692012228841942301e-01
2.849428488081465205e-01
3.064263335823866896e-01
2.054226775642811753e-01
-1.383725963383111712e-03
-2.462029343236333823e-01
-4.257409142251706302e-01
-4.505828174684772813e-01
-3.120405844619831837e-01
-9.016896624151764239e-02
1.199173307899732005e-01
2.661783433505758856e-01
3.188729718352963927e-01
2.370648183496656680e-01
4.877458221324716681e-03
-2.899866599509976495e-01
-4.721035025429809462e-01
-4.378485532411289793e-01
-2.606536240948230665e-01
-7.921977182809572526e-02
5.677724024368588362e-02
1.700006560805664979e-01
2.549084628572195199e-01
2.641051716959819107e-01
1.682920691201079677e-01
-5.945562094177729573e-03
-1.868499681657788125e-01
-2.939656125436617140e-01
-2.771163478408660286e-01
-1.381926218725506028e-01
7.168077245938883624e-02
2.651031643506860935e-01
3.351181376440230952e-01
2.112667798081961368e-01
-5.014514984006164522e-02
-2.737179994657963356e-01
-3.354148153799336174e-01
-2.988380168640453194e-01
-3.205502979251984574e-01
-4.177532552469714333e-01
-3.654695843471560401e-01
6.248049554546589168e-02
6.761779956806563963e-01
9.197080873842918836e-01
5.406889699652714931e-01
-5.872210993155864422e-02
-3.471937583973380148e-01
-2.456376056317282064e-01
-2.414434338180359435e-02
1.102274465063493303e-01
1.602853891395656372e-01
2.080255371899587813e-01
2.767917227847064843e-01
3.205676901908897092e-01
2.785355824029066563e-01
1.174309729446513795e-01
-1.302871869178080788e-01
-3.419439436664147847e-01
-3.723786007766539119e-01
-1.992498200418136300e-01
3.819832863946673318e-02
1.925239604055151710e-01
2.447513360805246563e-01
2.437264971803821956e-01
1.946115408111309675e-01
7.758753303840097704e-02
-8.111673918248574200e-02
-2.152226140075866601e-01
-2.692259087089785563e-01
-2.187247103111089053e-01
-6.877245230654160935e-02
1.363576118142422466e-01
3.097299977595203146e-01
3.625803079301520571e-01
2.693717293901549681e-01
8.696312199302896895e-02
-9.500320810190007736e-02
-2.179965355847663100e-01
-2.695656224646354460e-01
-2.502823814677425651e-01
-1.555341186185640323e-01
4.821431150264024468e-04
1.660095545569572617e-01
2.721192314773445142e-01
2.715053080555022702e-01
1.642308046224677243e-01
-6.289781608222286269e-03
-1.805387364694233387e-01
-3.052803110635156081e-01
-3.371320869514316532e-01
-2.484581241766333770e-01
-5.334329548361067819e-02
1.667663356604753011e-01
2.796226050756795978e-01
1.972060546171712225e-01
9.567964359845023553e-03
-4.662247330774305087e-02
8.971429753376995719e-02
1.093959928616704547e-01
-2.383992960457071431e-01
-6.485684747918926130e-01
-6.085840720899874379e-01
-9.976574546749024386e-02
4.485794952081547660e-01
7.204577335295613283e-01
6.968830269570287506e-01
4.583322398765988792e-01
1.003080060107940513e-01
-2.231006650665190438e-01
-3.655705920677625453e-01
-3.007065887680925309e-01
-1.149000769062009653e-01
8.004942593554911778e-02
2.099743651652096477e-01
2.469414773066577751e-01
1.893289222721964427e-01
5.350281000381347518e-02
-1.222327441754613164e-01
-2.852714775244897250e-01
-3.815487585807636473e-01
-3.656599118062899834e-01
-2.259186764328974806e-01
-1.108503622138345968e-02
1.892710652173467123e-01
3.057294334726726182e-01
3.244778307792020033e-01
2.640288585050775128e-01
1.379566259659438798e-01
-3.866570193478757744e-02
-2.140800330784694561e-01
-3.033074399811478972e-01
-2.462409411586771457e-01
-6.101146812643211403e-02
1.611641538127193685e-01
3.113692465576657353e-01
3.227055578906734556e-01
1.987504296461609921e-01
1.483333858541876354e-03
-1.881625292818374928e-01
-3.070828661748608024e-01
-3.239068994373779931e-01
-2.397096283047252530e-01
-8.530706682358697723e-02
8.886464008235518686e-02
2.249304649059296335e-01
2.726110770504561742e-01
2.155097904204740789e-01
8.206789814545095707e-02
-8.787597752831054210e-02
-2.827009738335116706e-01
-4.848125964454748082e-01
-5.654670443001649227e-01
-3.118823010783283722e-01
2.588238437937697700e-01
7.052007600523102493e-01
6.060187752272216954e-01
1.289179687924639217e-01
-2.022615969053195017e-01
-1.836178744724617506e-01
-3.587464150033099070e-02
1.512637108483299436e-02
-2.615218651919491710e-02
-3.709723807606981477e-02
5.133475950929553000e-02
2.004286975390729142e-01
3.104150959181261049e-01
2.959328481595154270e-01
1.390607107613141824e-01
-1.003861420001333493e-01
-3.203305732860803334e-01
-4.377316777043896434e-01
-4.276753456393688202e-01
-3.108623745319559206e-01
-1.229709752173677451e-01
8.660269309369589275e-02
2.445949278895023504e-01
2.817247029033493333e-01
1.827978047606032275e-01
-2.303844074019428811e-03
-1.929397297896332242e-01
-3.105720103365940399e-01
-2.995744089326640713e-01
-1.576165787881537439e-01
4.694757581430920867e-02
2.135426425810164341e-01
2.802276027080591869e-01
2.501621437727405972e-01
1.520719460477370777e-01
5.871957423831744571e-03
-1.585827465863394736e-01
-2.837605812775002012e-01
-3.184913956224588172e-01
-2.616896634230589935e-01
-1.578256367003581240e-01
-5.344757729851061512e-02
3.541415187020654359e-02
1.107174380454191698e-01
1.510937062377726292e-01
1.085709463308097700e-01
-3.276918353345632806e-02
-2.141893258350872908e-01
-3.333108042135463633e-01
-3.098639687308387680e-01
-1.446661344871301158e-01
5.162774536911650392e-02
1.267786923493899043e-01
6.394060672009878321e-02
5.291618922358368171e-02
2.222872817913558174e-01
3.348157474137430922e-01
6.098878329256448433e-02
-4.433764381496776430e-01
-6.482600446199007216e-01
-3.435683912777980353e-01
1.679971433162045780e-01
5.146728222356095062e-01
5.790462122382979970e-01
4.425425722529831574e-01
2.266568576889372577e-01
1.169932254199244903e-02
-1.643590803731586614e-01
-2.773804645181247031e-01
-3.043456866040502029e-01
-2.323795818618370479e-01
-7.840503918237386183e-02
9.792525379397590268e-02
2.175576823043237906e-01
2.307108194255728384e-01
1.404131388206391329e-01
-1.218284619117235984e-02
-1.731902333354483070e-01
-2.920288529385736132e-01
-3.283257388847570790e-01
-2.612266377235849535e-01
-1.040396394623404608e-01
9.501946785456501232e-02
2.746202937381702069e-01
3.784280719826186301e-01
3.622695152632925963e-01
2.156306955349064636e-01
-1.344198862070343503e-02
-2.258691533570492960e-01
-3.172287841560392785e-01
-2.434725542112403107e-01
-5.866272849060321509e-02
1.286580965088511830e-01
2.436290258479219262e-01
2.747707006805346075e-01
