3.016551170775953472e-01
1.835642044277853713e-01
1.096494486166389865e-01
1.228783088853400290e-01
1.761223505612622142e-01
1.782570219218509999e-01
1.436198618244888259e-01
2.281777313204942925e-01
5.046194050246538554e-01
7.169419573721059757e-01
4.627989502928494536e-01
-2.603607756926858419e-01
-9.199379036590942249e-01
-1.045455852625310156e+00
-7.173177700960959857e-01
-3.107915634975676467e-01
-5.023793166934931859e-02
3.794768122333330718e-02
-8.583342099974664713e-03
-1.149506679252206287e-01
-1.972577080535949101e-01
-2.435445213277716014e-01
-2.910160192198439355e-01
-3.256852797999734150e-01
-2.948601854247491216e-01
-2.065645247625075842e-01
-1.343706191294750940e-01
-1.192246864944719181e-01
-1.272027875638595817e-01
-1.192326586779982600e-01
-1.091400008131117455e-01
-1.283583700168079156e-01
-1.709780650055048035e-01
-1.945306688079309343e-01
-1.586839673843095655e-01
-5.811310762312893452e-02
7.415955229411755334e-02
1.923107535300601911e-01
2.635572710694544241e-01
2.777433424027601072e-01
2.493224752966047009e-01
2.054547157477641106e-01
1.632616884497758436e-01
1.293591268116435766e-01
1.209109169883350460e-01
1.619014517478929160e-01
2.430560179423637557e-01
3.118336262051469854e-01
3.328665882353605276e-01
3.265526572458172239e-01
3.152651376431906405e-01
2.766697483205491359e-01
1.865291910575161971e-01
7.315623519322546342e-02
-1.300188905233810302e-03
-2.236587022146430473e-03
5.298060281009014938e-02
1.277039772270637807e-01
1.986832324803717575e-01
2.483149043712515325e-01
2.471338171802104355e-01
1.693890165071796905e-01
5.351960330520416642e-02
4.261190608906243599e-02
2.498514786569565327e-01
4.959177842185186758e-01
3.729725114871008107e-01
-2.054986062287414428e-01
-7.533979625411221237e-01
-8.166744896139213061e-01
-5.471637463111058697e-01
-3.637169342549926299e-01
-3.630746358909199278e-01
-3.591237305554214609e-01
-2.502637679102782675e-01
-1.078905889528066209e-01
-2.205093580522270863e-02
-4.812941313912054604e-03
-1.662486538172559813e-02
-2.021784529376624562e-02
-7.136698243308350377e-03
-6.881016541404147424e-03
-7.341033450871262134e-02
-2.209779886936097670e-01
-3.668494398106584842e-01
-3.934670809210305542e-01
-2.803382333089591283e-01
-1.219472856923958792e-01
-1.426457594553895772e-02
2.754948025416957547e-02
4.560682897659983775e-02
7.221127062734640500e-02
8.981352493196922970e-02
5.722353989852917849e-02
-1.899773542554564210e-02
-6.447153573918509850e-02
-1.161095160387757771e-02
1.258428117918972133e-01
2.684810709314232602e-01
3.418842167681856448e-01
3.267577690701508608e-01
2.589432132032869482e-01
1.868343579155079259e-01
1.310881342995234011e-01
9.588629523803852972e-02
1.010655083663548615e-01
1.576045812870020268e-01
2.176813183832335963e-01
2.209997855757527829e-01
1.949099697708104595e-01
2.170567392732649925e-01
2.766170540433711134e-01
2.752805083212735981e-01
1.734625711424934991e-01
5.312685082708955980e-02
1.774485862725986782e-02
7.014517279558203644e-02
1.190031964630654526e-01
1.171818080154134190e-01
1.688053174435389381e-01
4.192897525214319687e-01
7.640724920079449145e-01
7.734542258164646134e-01
1.638154503281904206e-01
-7.035421460177588848e-01
-1.151855125830278492e+00
-9.848321134859694403e-01
-5.862041883884298032e-01
-3.188347352157078207e-01
-2.048993454850726592e-01
-1.412624583357895425e-01
-1.093855100995295149e-01
-1.259206085615162396e-01
-1.611214776898101109e-01
-1.849578381588641851e-01
-2.150317874010644892e-01
-2.605989592287023537e-01
-2.770838410061712276e-01
-2.242889641956764268e-01
-1.287890039397125153e-01
-5.985239426066907981e-02
-6.464487997256010421e-02
-1.288273696259236711e-01
-1.915330627704912025e-01
-2.065852162239764644e-01
-1.829238913592156068e-01
-1.511255928261214521e-01
-1.101790392670025792e-01
-4.001632508993155368e-02
5.300029585936219534e-02
1.411699486635082934e-01
2.053107655223959105e-01
2.335435971307930902e-01
2.167990615224149042e-01
1.670865685634413955e-01
1.177439065485735570e-01
8.770419801260193049e-02
6.999866736923461563e-02
6.922544792857211748e-02
1.142443246821114866e-01
2.068583307030894824e-01
2.849307757391940643e-01
2.773161541513327055e-01
1.925700243269040102e-01
1.188432403251231395e-01
1.249305344653957733e-01
1.845823745597446330e-01
2.183366669449628428e-01
1.887746268054482923e-01
1.285768867426143047e-01
9.839677968419896503e-02
1.387067526942887541e-01
2.307214342743582336e-01
2.825607839892639306e-01
2.051633702736716802e-01
6.006462313245418405e-02
7.563901147987797668e-02
3.633064155911456816e-01
6.130571007017777685e-01
3.528972998009831108e-01
-3.665687437613182609e-01
-9.154618606948935478e-01
-8.860374631454043248e-01
-5.377621541570042352e-01
-3.045523116082108905e-01
-2.769200962558244772e-01
-2.971425134979576721e-01
-2.558166793738260170e-01
-1.660517345057046512e-01
-7.736722799130588135e-02
-1.696178629391738996e-02
-8.172570797017508076e-03
-7.669806339541961060e-02
-1.974576154300365372e-01
-2.876430848261479212e-01
-3.024021558818767996e-01
-2.934174166079381862e-01
-3.237434455563975022e-01
-3.650501745393547326e-01
-3.312379292038282741e-01
-1.949480803662366202e-01
-3.131822838447347046e-02
6.214972022795334922e-02
6.617846223710156794e-02
3.274921162138985653e-02
4.468966393555505456e-03
-9.125856761322635041e-03
9.756149837524801666e-04
4.461768207420533511e-02
1.081933302274730169e-01
1.653078047794058203e-01
2.132099905289917274e-01
2.692628445129044978e-01
3.279244700199182017e-01
3.565111402115034855e-01
3.371537456207262529e-01
2.817447687034602133e-01
2.118904750361323142e-01
1.497341885340821299e-01
1.174820438509221188e-01
1.254567072621575741e-01
1.673914026510641140e-01
2.352915094348726199e-01
3.180865526456933545e-01
3.758200717960028525e-01
3.503907200267351585e-01
2.245717902661430454e-01
5.552332145458170609e-02
-5.997790775335105906e-02
-6.939630514194763955e-02
-1.395873689844625426e-02
6.191159944409029003e-02
2.281681652802783344e-01
5.387882830337529239e-01
7.710974593664450261e-01
5.513635000568666289e-01
-1.332662510350881013e-01
-8.014664552448080848e-01
-1.016155518996345819e+00
-8.153010652914345346e-01
-4.962164442097305450e-01
-2.461575819418940214e-01
-1.007125339874887227e-01
-4.819672824316854898e-02
-5.324468453431573794e-02
-6.752302832451059778e-02
-8.118818291069559989e-02
-1.320357186074114508e-01
-2.342747750277424656e-01
-3.265043202571589753e-01
-3.336898990876149274e-01
-2.598409487259430994e-01
-1.717839191112783825e-01
-1.177809635672605049e-01
-1.052098616529395098e-01
-1.296431142716076568e-01
-1.836037556990911812e-01
-2.346205599900582084e-01
-2.220263844371954121e-01
-1.122112663127239479e-01
4.182502923519054033e-02
1.349556119716632252e-01
1.244831040699534430e-01
8.730469896986613187e-02
1.325967709758110180e-01
2.646324468660872786e-01
3.706739463793775613e-01
3.528763704713341887e-01
2.307813200479636173e-01
1.008434502173601033e-01
3.952437320081662181e-02
6.275441427858777232e-02
1.409893075918466909e-01
2.273677653737765370e-01
2.843668596335974241e-01
2.998844088933786955e-01
2.794921901404778253e-01
2.239022512538889897e-01
1.329341483906821830e-01
4.620832017320664065e-02
3.534086359231615460e-02
1.162000281418099218e-01
2.231189814439691887e-01
2.984417935863071247e-01
3.340358270365310633e-01
3.123954132471367662e-01
2.032373047318783432e-01
5.796473067946464330e-02
3.928749568385062063e-02
2.528064503632667659e-01
5.029683452939153199e-01
3.818475532163745356e-01
-1.990723238728994704e-01
-7.676820304394483818e-01
-8.594496576846448743e-01
-5.767744879740330788e-01
-3.215189028861726306e-01
-2.615519988462890466e-01
-2.902886370075679068e-01
-2.834478864271733345e-01
-2.090969672247199873e-01
-9.151976542016607152e-02
1.235401447133410539e-02
3.729326277467599066e-02
-2.012702796799143226e-02
-8.463024945233318941e-02
-1.013143875650216186e-01
-1.106330007525118397e-01
-1.785114076486330470e-01
-2.893113534174594492e-01
-3.556810529414068389e-01
-3.229711962651177215e-01
-2.308871113496716587e-01
-1.563179355006760196e-01
-1.146241155369791959e-01
-5.585787348588308610e-02
4.045056863090141369e-02
1.103801137989148667e-01
8.093911538093448432e-02
-1.770721533745498594e-02
-6.316892999043308143e-02
3.237220596588050864e-02
2.363642845262116932e-01
4.322974325290062647e-01
5.166958313914296053e-01
4.661487574058018613e-01
3.395852972480991050e-01
2.299328577069986168e-01
1.961018040902459680e-01
2.182556515987315870e-01
2.175181983354517734e-01
1.352243303541639796e-01
9.071674452919200465e-03
-4.463971775988555962e-02
3.819887695482915291e-02
1.782097013505944683e-01
2.429948562350800756e-01
1.989425351122775798e-01
1.187986656382329087e-01
6.837660740077235177e-02
4.402123363573044734e-02
1.004146638161471788e-02
-4.842019206464061309e-02
-8.970954263924267591e-02
8.413865296478717851e-03
3.507750142645640890e-01
7.725723396984934821e-01
8.116800940206045922e-01
2.235878382253002339e-01
-5.706971197479343560e-01
-9.245515032265526623e-01
-7.336760337168038992e-01
-3.947985895550645830e-01
-2.021767416328028866e-01
-1.424658449895793155e-01
-1.195354957784447170e-01
-1.022470175301480877e-01
-9.548953932111065024e-02
-1.011327771400817727e-01
-1.212454816395366203e-01
-1.643511638025495492e-01
-2.253151489345737446e-01
-2.635451503121790662e-01
-2.451162527322323093e-01
-1.987356140342230182e-01
-1.654741620246221179e-01
-1.294831790937748250e-01
-7.675482755465107276e-02
-6.340247654796629662e-02
-1.373237669153106466e-01
-2.368764115303838291e-01
-2.501966739492647029e-01
-1.550578693270792674e-01
-3.261487278989743527e-02
4.174442098245691873e-02
6.286958856452320998e-02
6.613851821044502977e-02
8.071720594987075170e-02
1.117170978628122952e-01
1.444359211643516661e-01
1.613755866317756471e-01
1.637069662709756679e-01
1.733820491451926460e-01
2.099319160573842047e-01
2.699455393797348113e-01
3.206343911123143986e-01
3.147075628203770403e-01
2.361526661567673324e-01
1.263975482095995584e-01
4.564522689745322687e-02
1.469725110692361031e-02
3.513838600663031064e-03
-1.680714426401130890e-02
-2.093543137545728419e-02
3.524077935277387941e-02
1.360956104040800807e-01
2.136224803276674244e-01
2.197474418727043688e-01
1.536131673630578565e-01
5.087486074005184017e-02
5.814870000675747413e-05
1.346672001582251699e-01
4.674612460624834043e-01
6.995295829904183416e-01
4.475438187958204472e-01
-2.076928996932469462e-01
-7.091646937917353011e-01
-7.023119786041425172e-01
-3.964239811603856856e-01
-1.651165475468692190e-01
-1.218973993209779283e-01
-1.695055285681386081e-01
-2.117016889308069305e-01
-2.162697353500877828e-01
-1.861686972765682346e-01
-1.390722571451191436e-01
-9.146259717608606898e-02
-4.990067291103135461e-02
-3.007180194315823771e-02
-6.570100054743269191e-02
-1.689060826702389329e-01
-3.000573817205057781e-01
-3.981753193844314587e-01
-4.196056361804358925e-01
-3.448131174728201187e-01
-1.911427330139446323e-01
-3.271914509667035037e-02
4.371234816268407958e-02
2.947204572410439330e-02
1.854758741944090988e-03
2.705434204187588676e-02
8.083092891137483305e-02
7.987656580934918149e-02
-1.484684073892249961e-03
-6.822194100686136686e-02
-4.774400179126702878e-03
1.738710207989414280e-01
3.276724862066585642e-01
3.487667980609659990e-01
2.647039830402209692e-01
1.741127284000814623e-01
1.241124067102509360e-01
8.904817993358694894e-02
5.246494566301496132e-02
5.435209336938396502e-02
1.324418024370843383e-01
2.533743728545013174e-01
3.385114747403377145e-01
3.456040088451866055e-01
2.996239241295576283e-01
2.460257910637038969e-01
2.003157541380373163e-01
1.577970591047951898e-01
1.262839110447792346e-01
1.138598068876381514e-01
1.102460407247109336e-01
1.426668274223130695e-01
3.077954491835257489e-01
6.076376628141967329e-01
7.678489916822295314e-01
4.544472004761711537e-01
-2.489637252912144105e-01
-8.384282250353104482e-01
-9.710184203942338055e-01
-7.781991724101983143e-01
-5.377642811365886955e-01
-3.448108564104804818e-01
-1.819718918031994759e-01
-6.509119281392250489e-02
-2.191723746430410819e-02
-4.202069307404053544e-02
-1.068598599968510476e-01
-2.126758239444083709e-01
-3.316465855235514737e-01
-4.028433537792263652e-01
-3.921868672805159384e-01
-3.275060179630818191e-01
-2.629469196395736175e-01
-2.283143778107952215e-01
-2.112109047291987340e-01
-1.805140216198800607e-01
-1.323507069852117302e-01
-1.091077593479013452e-01
-1.513158893447289211e-01
-2.235151530130003450e-01
-2.257497224820113890e-01
-1.086655505766824098e-01
5.735094786007665507e-02
1.618323576170156430e-01
1.779184851215336594e-01
1.722021887589564870e-01
2.013531794397291352e-01
2.451525746733625166e-01
2.604983563646601774e-01
2.520717623061416446e-01
2.516778915642898240e-01
2.644074290860687904e-01
2.654492199866115287e-01
2.410512944674748081e-01
2.347595367641392705e-01
3.216064708247375892e-01
4.776651260129253784e-01
5.356900727923392669e-01
3.862481696112798901e-01
1.567138562538879232e-01
5.657626889408920445e-02
1.159082712466878440e-01
2.030292960136952374e-01
2.341012280903523313e-01
2.399718304739704156e-01
2.494073316534096141e-01
2.216239044446010331e-01
1.458328064313741401e-01
1.421415581917894744e-01
3.264436145775809206e-01
5.301599411042200449e-01
3.624168570658159449e-01
-2.564687478587353575e-01
-8.546256335375522761e-01
-9.596335793735289998e-01
-6.379589861100208870e-01
-2.718269010601312430e-01
-8.942748562324476236e-02
-8.809188346717063134e-02
-1.789719230837965303e-01
-2.592464878899435332e-01
-2.567774129022775687e-01
-1.864951825630712101e-01
-1.209983062624549188e-01
-9.335094748550948340e-02
-8.480418667561318014e-02
-9.650561400005762402e-02
-1.506606684858909362e-01
-2.287078855455866311e-01
-2.826821098878942173e-01
-2.902856471738787247e-01
-2.481757609949115373e-01
-1.525642801937990845e-01
-2.915889045967512416e-02
6.249813912796601395e-02
8.943590466040904352e-02
8.099004726531661147e-02
8.441026886619902581e-02
1.022970494121053231e-01
9.533144660026399153e-02
5.125428424672171662e-02
2.689017579056489360e-02
8.802010829448687901e-02
2.166073865251511021e-01
3.201447792047384944e-01
3.347074709156310224e-01
2.813209649986855299e-01
2.178243372677624023e-01
1.697209429231188171e-01
1.233054365609595748e-01
6.984814337282915786e-02
3.472852366962607407e-02
5.262649735264925133e-02
1.177604800502824456e-01
1.763666905503859794e-01
1.819865221391802623e-01
1.441869314176525974e-01
1.045589918882507546e-01
8.182864919905470658e-02
6.812854746934558781e-02
6.429107824243514291e-02
7.493630945186734171e-02
7.263061739873330480e-02
3.942359061120709329e-02
7.388796967028761487e-02
3.351829202894271997e-01
7.391555570895196325e-01
8.405153836963671354e-01
3.130629774479841143e-01
-5.172801982249353170e-01
-9.714815967015278941e-01
-8.071781291118541590e-01
-3.829073648402906982e-01
-1.095743085948999163e-01
-4.661061963719723145e-02
-3.242035657773762597e-02
1.199319961423899600e-02
1.900223524853006385e-02
-6.763077293513233834e-02
-2.068162894619735848e-01
-3.327139636654718458e-01
-4.129062330511804602e-01
-4.303349649270590271e-01
-3.805105666865254976e-01
-2.885367824146525262e-01
-1.931836677210503894e-01
-1.257164290374003790e-01
-1.057116805449314773e-01
-1.261103265478080993e-01
-1.553161702078399986e-01
-1.776906109908517606e-01
-1.957364541271132408e-01
-1.863631890692858672e-01
-1.142952944930441805e-01
1.117488698330294621e-02
1.345371957338994950e-01
1.998348180788414030e-01
1.990113555890731245e-01
1.861275306437943089e-01
2.045884423737127922e-01
2.045747892449627237e-01
1.119469947135580123e-01
-2.226537852021326716e-02
-4.846140853526389319e-02
8.230089652588225280e-02
2.491576033933001200e-01
3.167808312717492747e-01
2.698905199619490158e-01
1.837886377076544675e-01
1.291816440964614621e-01
1.126573508916055566e-01
9.597877299407432672e-02
6.567291118116172499e-02
4.545479258630165387e-02
5.130428274824944124e-02
8.676553980647908060e-02
1.532827185008597826e-01
2.186328000927399706e-01
2.151770690300972289e-01
1.151607431185579788e-01
8.167772485384505385e-03
7.418259898109938466e-02
3.768809471942149436e-01
6.351492118178357904e-01
4.181736213930756230e-01
-2.580844752698333022e-01
-8.123087912249884468e-01
-8.055661535207455648e-01
-4.415933624371425892e-01
-1.651627692746195641e-01
-1.215330112510608906e-01
-1.897898955150868761e-01
-2.561008664039334248e-01
-2.843473722153536110e-01
-2.639016988978230560e-01
-2.026971684786236516e-01
-1.324291583495766922e-01
-8.221141886957696043e-02
-6.378669191583768994e-02
-8.568108649148455103e-02
-1.568827905352003504e-01
-2.593319671735211940e-01
-3.323314380696731352e-01
-3.184633698053185857e-01
-2.248794018759764368e-01
-1.153652670893928617e-01
-4.988926219671740991e-02
-3.855405086616493782e-02
-3.419806501573197099e-02
1.836164367088305438e-02
1.046100387801210674e-01
1.455384797741300640e-01
9.989441856102083961e-02
2.281409448089714159e-02
8.538870149182867936e-03
9.476126804802459391e-02
2.267806672235186116e-01
3.139040463639491407e-01
3.217707738087127178e-01
2.947537172057210220e-01
2.813849047484710542e-01
2.702216186740726278e-01
2.236530508887923652e-01
1.458827543668406168e-01
8.225836935164891617e-02
6.175045503429603400e-02
7.915708369994282900e-02
1.317318701227014333e-01
2.165178873949306637e-01
2.882610299457735725e-01
2.878584754650337918e-01
2.228155711588990229e-01
1.684159108432969898e-01
1.809964914599739294e-01
2.319817949096798226e-01
2.405719000860563339e-01
1.951085285510733569e-01
2.213831061232426345e-01
4.257788907229514419e-01
6.382995003052233107e-01
4.887018220294381265e-01
-1.147203961811518458e-01
-7.659161943681953577e-01
-1.018734378704922339e+00
-8.633666526839283151e-01
-5.647280799121499051e-01
-2.803641042213654289e-01
-4.146179503187564369e-02
9.121475955852485773e-02
5.658245288660296302e-02
-8.738785110277466628e-02
-1.965169816195198038e-01
-2.004135796192812458e-01
-1.684083436766527220e-01
-1.948421212498164246e-01
-2.682868474625671462e-01
-2.961748009432074169e-01
-2.351303404964281141e-01
-1.455708057599892080e-01
-1.077753160253766274e-01
-1.274114045554720076e-01
-1.502810170582606630e-01
-1.424408533720371572e-01
-1.188846045634522480e-01
-9.646927504941189835e-02
-6.831844993906439900e-02
-3.562124011878437663e-02
1.301631751308187680e-03
7.546683661382903863e-02
1.940926921510441050e-01
2.908385646197140240e-01
3.164328193749485485e-01
3.004037812875128277e-01
2.628415905779966089e-01
1.707920746976916981e-01
4.820401722432408192e-02
1.885880002663978261e-02
1.496138136488307235e-01
3.321216377260878816e-01
4.044411586632157274e-01
3.330121374778221566e-01
2.138628154344505428e-01
1.345962083886525495e-01
8.855228223360481210e-02
2.696505222324083184e-02
-4.301311482150791538e-02
-5.538462950357431192e-02
2.807973559208794267e-02
1.682094832828927022e-01
2.815128491785429676e-01
2.975344809567952442e-01
2.035535272814756880e-01
7.920582480735344211e-02
8.936210286070263298e-02
3.394119662509862412e-01
6.364225890180670309e-01
5.481760919515710206e-01
-6.278330283792624145e-02
-7.306559788790989440e-01
-9.130055226918014633e-01
-6.306061987032285376e-01
-2.987634840098972733e-01
-1.682028714034280725e-01
-1.980478145576078375e-01
-2.723145399633742358e-01
-3.169970027457993944e-01
-2.974322766640903892e-01
-2.294261874382591548e-01
-1.751892672130645479e-01
-1.809253461982446021e-01
-2.142717332263917029e-01
-1.958103487048614422e-01
-1.239404479769141698e-01
-1.128166718344278119e-01
-2.352948007631713856e-01
-3.963363387302928365e-01
-4.456932925764705566e-01
-3.553235629750222113e-01
-2.143938535788841582e-01
-9.431397274806817277e-02
3.738845622567655604e-03
7.815169516172414121e-02
9.461712553975747120e-02
5.179817662282365509e-02
-3.456362397616256910e-03
-5.578264760774605951e-02
-1.114407872337563193e-01
-5.806766680249596940e-02
2.961624499476842032e-01
8.733783258640634983e-01
1.211715109413348479e+00
9.870130285100415790e-01
4.507390364038527664e-01
6.944367472654813800e-02
-2.345027047001422768e-02
8.123509012069360380e-03
3.241827295012106314e-02
4.421257276156692617e-02
6.736218567098790910e-02
1.087033669103700251e-01
1.788485828007042866e-01
2.753213538923128256e-01
3.434113665706930996e-01
3.165790952128518798e-01
2.063886015510149330e-01
9.874429028377530726e-02
4.848149837416337177e-02
2.291171175353812900e-02
-1.713272339022630514e-02
5.303545054380683771e-03
2.395864799286360203e-01
6.382245065836341658e-01
8.211874882726485358e-01
4.871786543501525624e-01
-7.301620760652920150e-02
-3.013126362221971166e-01
-1.720707630791334375e-01
-1.198963128611898327e-01
-2.808449187943688474e-01
-3.947548587311183188e-01
-3.270707500280132241e-01
-2.176855632994646461e-01
-1.996750184519661409e-01
-2.471128059967304669e-01
-2.774209166175756192e-01
-2.676790075637355826e-01
-2.574169083427782501e-01
-2.906912706255536105e-01
-3.556094141236745831e-01
-3.765704658110761160e-01
-3.025610126029638081e-01
-1.875014565621681562e-01
-1.301420564741038177e-01
-1.568390979024280318e-01
-2.172186829639652095e-01
-2.721515278086613643e-01
-3.186508875561269161e-01
-3.353477961081617331e-01
-2.789954591175496934e-01
-1.455340001715672016e-01
8.415303441088949066e-03
1.011384536288438968e-01
8.567398252715838214e-02
7.726792681371011384e-03
-2.379649219113100928e-02
3.638890287326566886e-02
1.185841712796801561e-01
1.414806873530909948e-01
1.044400259467183761e-01
5.922050232864561892e-02
5.077033879478499989e-02
9.644366290014705356e-02
1.836971452150189255e-01
2.768003945382551123e-01
3.309079453569753193e-01
3.080302544999800052e-01
2.036561931550339710e-01
7.192902636772653679e-02
6.089893106437718751e-04
3.028579817506910771e-02
1.140371427031204032e-01
1.826596619981209479e-01
2.176571473107856702e-01
2.223268334419545023e-01
1.668287386485198809e-01
5.501742977987347100e-02
3.280829008301537619e-02
2.538408182295583404e-01
5.516929911195981306e-01
4.874226557477838728e-01
-6.786554357143578797e-02
-6.626126287287327221e-01
-8.292573431243963622e-01
-6.218855719361940926e-01
-3.712501062607498348e-01
-2.282021488259359243e-01
-1.505615489581747790e-01
-1.073158391205267931e-01
-1.238002693316763714e-01
-2.009751355878914847e-01
-2.809231543483968196e-01
-2.992537902185756771e-01
-2.514188921452518710e-01
-1.958722711535390015e-01
-1.901127552493700190e-01
-2.364214845285137478e-01
-3.021830635982362678e-01
-3.636559797132748462e-01
-3.952507767812841744e-01
-3.561376978343510635e-01
-2.385958840661550617e-01
-9.811623036608396742e-02
2.950660111824327490e-03
6.004926096166429694e-02
1.108893313996711649e-01
1.634242895442573063e-01
1.668167349501150920e-01
8.122689458524497141e-02
-3.906413580351802972e-02
-7.879479370158906648e-02
1.872398923443625851e-02
1.970504607306183542e-01
3.438261669032314227e-01
3.794027331795669644e-01
3.135459227093649881e-01
2.362339518072193723e-01
2.265323907419052873e-01
2.605328927274533357e-01
2.404963265004715911e-01
1.277421426867595133e-01
1.516211639079818874e-02
4.129926568858559299e-02
2.361431842860252928e-01
4.628363815223411892e-01
5.414726805653000685e-01
4.434924995849024998e-01
3.011303489636085184e-01
2.112385025952802642e-01
1.468928631679226327e-01
9.823112021467689248e-02
1.482533161931843813e-01
3.306298477204599462e-01
5.624636649752273732e-01
7.773734865853827447e-01
9.041713106515836262e-01
7.159399416900423807e-01
8.470212810062549558e-02
-6.393917774305879487e-01
-9.559677612383077339e-01
-8.344681866919018143e-01
-6.094425814708268607e-01
-4.520374552008787350e-01
-2.973017187408790174e-01
-1.192285018281060011e-01
-4.462916152212413612e-03
-1.627580601618042189e-02
-1.202870388097145582e-01
-2.361384078516818308e-01
-3.132974479652704258e-01
-3.531342317965942001e-01
-3.766904242209440645e-01
-3.803500142540520157e-01
-3.291407129003298127e-01
-2.042941085197623186e-01
-5.365395787394756921e-02
2.690170054591518173e-02
-1.740022883523306002e-02
-1.324730071225987404e-01
-2.031393188530538629e-01
-1.738456906514923017e-01
-9.096917936060271159e-02
-2.433056329937861167e-02
9.338949278844837013e-03
4.086170796815454670e-02
1.066799134967111456e-01
2.139825867044744812e-01
3.254171292841793739e-01
3.841627654365022959e-01
3.624206775545281700e-01
2.824364492038455854e-01
1.978629996697320037e-01
1.604564714244773871e-01
1.892012275690562462e-01
2.538720077030688360e-01
2.920683431065512758e-01
2.614134927062354286e-01
1.855432711848540028e-01
1.333805641382427298e-01
1.394288950351516565e-01
1.663757466008319030e-01
1.601250463666464841e-01
1.143194448786901823e-01
7.246744316288093735e-02
9.138402117141392056e-02
1.970220156862028671e-01
3.436413872682922421e-01
4.178971948998342900e-01
3.362301788023026039e-01
1.832493798275005026e-01
1.898330995364990448e-01
4.321854408824290505e-01
5.880659206540592709e-01
2.589675078956160670e-01
-4.284772522787236304e-01
-8.904704206261317978e-01
-8.245879433257446989e-01
-5.032590336541507003e-01
-2.903174912399820173e-01
-2.485268782279989042e-01
-2.729549382026781323e-01
-3.016214796363697048e-01
-3.092043848786702465e-01
-2.631171535848887411e-01
-1.614779851130767052e-01
-5.291065378660530366e-02
5.348542002998285180e-03
-9.191898485791237527e-03
-7.171634367646073649e-02
-1.427647653080540702e-01
-2.192886811659700563e-01
-3.161707136667262774e-01
-3.998564993714718296e-01
-4.045169191604557901e-01
-3.103159121240516294e-01
-1.448248326172079659e-01
6.477309315080091723e-02
2.578542059195078617e-01
2.728825918581789800e-01
-5.188261179546556356e-02
-5.987779454341864982e-01
-9.288319898841487232e-01
-7.411530195721207637e-01
-2.310207906651962073e-01
2.118227015308183914e-01
4.321293285834596487e-01
4.832963856615235532e-01
4.358040793556735570e-01
3.470591800423513673e-01
2.658653180028134888e-01
1.977836843999543903e-01
1.292847370902471538e-01
7.838653806015555281e-02
7.334738568365820055e-02
1.076876983228681195e-01
1.566753563884628608e-01
2.117791416276963712e-01
2.641386169384614124e-01
2.826334026996025761e-01
2.414807165360336461e-01
1.521540220755437656e-01
6.035478159444988833e-02
1.525817914572533823e-02
1.736396368740808493e-02
1.746627597415290056e-02
4.118456827097821682e-02
2.710799798783488646e-01
7.980634640144440572e-01
1.245900703488786787e+00
9.892477821532104088e-01
-1.674307569878684399e-02
-9.817170694037344880e-01
-1.177395698728940010e+00
-7.404758160879661988e-01
-2.906681950330001207e-01
-1.379297037906092593e-01
-1.605453405759668939e-01
-1.632018941718445526e-01
-8.969802201144289056e-02
-1.174915579061856091e-04
1.536004465884932557e-02
-8.550711446597951404e-02
-2.580143476090988042e-01
-4.049737030509056868e-01
-4.510979909117188713e-01
-3.863823359158536364e-01
-2.612075583936975254e-01
-1.484035167856100068e-01
-8.953931819262631042e-02
-7.758284751534219592e-02
-9.715513519957455491e-02
-1.414129790467104630e-01
-1.725725669321616085e-01
-1.333871328986734051e-01
-3.179734119665105635e-02
5.432756898052923389e-02
8.627453266930547315e-02
1.054854329062889368e-01
1.463071299231788469e-01
1.862079654480493507e-01
1.944825435604490838e-01
1.656522831905586357e-01
1.073940288433438417e-01
3.732044704041741212e-02
-1.274161552046003225e-02
-6.760677715548577514e-03
7.050034035668796550e-02
1.921220849722818091e-01
2.981574068591459903e-01
3.342011016152432457e-01
2.964955525954039439e-01
2.350696041704808115e-01
1.896189067475465284e-01
1.491783658617039654e-01
1.020316227389747032e-01
7.830525992988648931e-02
1.140723231098261237e-01
2.051542999812090151e-01
2.998938932886033304e-01
3.232128651354012061e-01
2.384911226140996598e-01
1.124595701360363437e-01
1.040844767207488863e-01
3.286528784725313290e-01
6.412960922423929233e-01
6.335484563379782941e-01
9.251633598712064033e-02
-6.012601379739662688e-01
-8.698635716426176279e-01
-6.397268891676948233e-01
-3.094131294273828603e-01
-1.762305365789957334e-01
-2.145220534708584537e-01
-2.816772962503735767e-01
-2.934967894752996687e-01
-2.417214165881437504e-01
-1.592930997204674570e-01
-8.520294785448026542e-02
-4.934045268954544150e-02
-6.669135974057610605e-02
-1.194213517321523477e-01
-1.644333621771783271e-01
-1.881004426394755347e-01
-2.284182274147382730e-01
-3.050786038667761546e-01
-3.540475394780270291e-01
-2.938629811162180583e-01
-1.521962565894964814e-01
-4.879427149911876038e-02
-3.596568883997257327e-02
-4.198495754643198630e-02
-5.896627642472222763e-05
5.378033533342534145e-02
5.111711209758489777e-02
2.477760833856621631e-03
-1.550708449490519059e-03
1.081629739625891845e-01
2.918554778846867426e-01
4.259454857872055911e-01
4.184092880779021750e-01
2.946661960944893521e-01
1.664813579546553235e-01
1.185594684661046699e-01
1.358821732069127874e-01
1.435500830382802073e-01
1.032884544838742896e-01
6.050956518346095603e-02
8.642914912625038193e-02
1.799924358213171316e-01
2.644223523040548085e-01
2.832472730660779980e-01
2.499581611993980379e-01
1.926852324772626857e-01
1.108311572366924846e-01
1.858172834693134351e-02
-3.243381558706484591e-02
-2.508524492227377778e-02
-4.398859305954169741e-03
3.708536136428230989e-02
2.153077516116955192e-01
5.425109405536029383e-01
7.174131790474611581e-01
3.963082559633320789e-01
-3.004536661542566711e-01
-8.571073201352743531e-01
-9.627001898236791089e-01
-7.440816690986059578e-01
-4.501032666921797043e-01
-2.078705141961643965e-01
-5.666282985889706247e-02
-3.774470421753174307e-03
-2.602653260250143222e-02
-9.256816764666009334e-02
-1.872048426740348936e-01
-2.795856508095807547e-01
-3.119723213557657471e-01
-2.714691160852727991e-01
-2.288380626190913425e-01
-2.372798733412392336e-01
-2.509409721089309597e-01
-2.092531246091901553e-01
-1.392407834113094933e-01
-1.107561513441383400e-01
-1.354374202825591456e-01
-1.657045787510423307e-01
-1.639840157726036862e-01
-1.247425617471649567e-01
-5.234842641973178751e-02
4.052592472896656556e-02
1.250451655924704475e-01
1.775274501906752567e-01
2.112398228631800767e-01
2.635570144330194875e-01
3.329283091711809917e-01
3.529115748766231686e-01
2.713083043073699629e-01
1.385812123321120137e-01
6.388187381131314735e-02
9.349907552600074390e-02
1.832365167866692179e-01
2.793074416866299647e-01
3.635002441597481870e-01
4.086555502858101319e-01
3.633364785259265983e-01
2.250347716629342021e-01
7.888083390755787350e-02
1.985511377806532113e-02
6.218444502684309511e-02
1.515934858881145819e-01
2.391246386458673046e-01
3.067537748350194216e-01
3.362646423491904568e-01
2.967399980857039488e-01
1.852399921081688272e-01
8.447223726184546755e-02
1.460973602140670236e-01
4.111017770443714525e-01
6.156521875611802308e-01
3.807189757471856062e-01
-2.634656429693312263e-01
-7.916775911324235304e-01
-7.999522207474308866e-01
-4.372151505857992948e-01
-9.800702025370813808e-02
2.116268102531441639e-02
-3.967396737303845872e-02
-1.697777881705588576e-01
-2.814985709946190573e-01
-3.309177497701101811e-01
-3.093640880146186767e-01
-2.272154205598547749e-01
-1.224195789202180279e-01
-5.976905720454035731e-02
-7.750083616444361501e-02
-1.512565352910455185e-01
-2.347869650957439269e-01
-3.048174542928019370e-01
-3.450142389160235634e-01
-3.234459668468807059e-01
-2.236046456360229473e-01
-8.078062911064978757e-02
3.830465106864423819e-02
8.492940805399437632e-02
6.108148351799895515e-02
1.935353350236413902e-02
1.566590031292374938e-02
5.028920490534626725e-02
8.108578501312295461e-02
9.501017836038275211e-02
1.213559164376089017e-01
1.767726486381523965e-01
2.496422943882175838e-01
3.280140442557744063e-01
3.891298783646804926e-01
3.834616421771188666e-01
2.868844918956925949e-01
1.511750439073631658e-01
6.271464356406801499e-02
6.585279468267649094e-02
1.349678671153306253e-01
2.019644071199779012e-01
2.183364561665107340e-01
1.965384575105173226e-01
1.763196022832636822e-01
1.676448682057338213e-01
1.550992389397453930e-01
1.361871085440353735e-01
1.113405116067473222e-01
5.216969175835882433e-02
-5.479504328032235028e-02
-1.250287185536092804e-01
2.538448694323468952e-03
3.951426134621717212e-01
8.179335153357225607e-01
7.868291531930406979e-01
8.628262141509779326e-02
-8.147098519919979687e-01
-1.215962166957838875e+00
-9.791791216143612697e-01
-5.266570067891342966e-01
-2.251860681308581746e-01
-1.083709231735003609e-01
-6.480806538910427461e-02
-3.411981160182471495e-02
-2.448995065549725708e-02
-4.476887875866115973e-02
-7.930755830385700922e-02
-1.303679942242839396e-01
-2.202958558830907798e-01
-3.204749565967864866e-01
-3.491352487930743931e-01
-2.800899888405205540e-01
-1.858090333739401689e-01
-1.430884824687338464e-01
-1.530811895949318602e-01
-1.697443647265615696e-01
-1.691103179900562969e-01
-1.681886392806149766e-01
-1.778629772496577999e-01
-1.709551238862514200e-01
-1.239653503545222468e-01
-5.490868058391095569e-02
7.862360825501178360e-03
5.861425140948351570e-02
1.031024502935602993e-01
1.484421772616554835e-01
2.013394579193465428e-01
2.429322838768211701e-01
2.264809772780482511e-01
1.505578124315044564e-01
1.000120438630422715e-01
1.429226727257442431e-01
2.299854144927199195e-01
2.688001120651668518e-01
2.414599690525310316e-01
1.843499247262176954e-01
1.139508756568667902e-01
3.186492567269825354e-02
-3.710686598188310537e-02
-5.461245726198996064e-02
-9.255149632177300800e-03
6.760773199133759959e-02
1.361624189154674314e-01
1.923856617917775180e-01
2.517120651538384823e-01
2.899317676220247164e-01
2.546946123748187185e-01
1.786215236511617399e-01
2.225738206166311683e-01
4.679804298541097585e-01
6.619278754461161984e-01
4.155037746025170287e-01
-2.310378769561447498e-01
-7.473438555003374395e-01
-7.698905525614997414e-01
-4.841812889636463169e-01
-2.436272421140268096e-01
-1.589038298953934225e-01
-1.594937508615512645e-01
-1.874161698881920968e-01
-2.187435081116895219e-01
-2.197586861008886672e-01
-1.702937397013209730e-01
-1.032267499036162578e-01
-7.428980083444503002e-02
-1.028521552767544395e-01
-1.708370737050363686e-01
-2.513638521928047709e-01
-3.111660067030208587e-01
-3.258699553473238808e-01
-3.037180334517176616e-01
-2.559617910317394385e-01
-1.707232577599195611e-01
-5.584850141754374442e-02
3.741748697472215002e-02
7.395601098636787885e-02
7.923527303718368164e-02
9.213718029562067979e-02
1.091738272761361705e-01
1.045662196575005976e-01
8.042431629210619604e-02
7.803763876415190093e-02
1.416395566848592247e-01
2.599971064162191481e-01
3.554495272548175988e-01
3.630299332479767771e-01
2.990198522378467727e-01
2.228405034075991997e-01
1.692614728334223273e-01
1.410888570347263449e-01
1.313376256613514315e-01
1.311353683917100277e-01
1.305736168177273337e-01
1.294581219988686083e-01
1.473254879132928907e-01
1.974454450472461764e-01
2.489353061773636744e-01
2.541448495362644278e-01
2.113968978416936872e-01
1.598881988828862455e-01
1.250055345560655007e-01
9.946273735069659228e-02
6.783633504579256179e-02
5.995177222344974521e-02
1.878952712685347526e-01
5.131419620304337181e-01
7.942892743499868624e-01
5.967011472615170176e-01
-1.274412277761601819e-01
-8.365079761377178791e-01
-1.035737316158204191e+00
-8.137436607873735905e-01
-5.330277051616659767e-01
-3.339158534993391658e-01
-1.595648184344511389e-01
-5.404398794686602475e-03
6.805494430409249340e-02
5.733069181932796271e-02
7.629265772310668201e-03
-7.311918269192693720e-02
-1.928573399236230279e-01
-3.015727157979337658e-01
-3.283856067681080182e-01
-2.729673523056642126e-01
-1.937845474633767551e-01
-1.261428770166977964e-01
-6.722170536864421897e-02
-2.500906835271356210e-02
-2.836894548996881510e-02
-8.298684218297942838e-02
-1.445993187266018942e-01
-1.517468592082159562e-01
-8.830590881987643304e-02
5.987442546083630510e-04
7.109204580936703821e-02
1.383164828171438154e-01
2.417957057349586214e-01
3.564728537482151904e-01
3.611028508178348306e-01
1.476986210942627387e-01
-1.939453872888133590e-01
-3.907672926139800218e-01
-2.858477809843216200e-01
-1.528716583941587548e-02
1.977824651824058866e-01
2.827675100260392815e-01
2.958499658285462797e-01
2.893722689225712852e-01
2.686725018626422434e-01
2.207519578376968827e-01
1.453416895819834020e-01
6.687553636617839248e-02
2.709818450321918940e-02
5.686989028760300324e-02
1.522236906037618687e-01
2.808344838606365856e-01
3.929177026393601002e-01
4.215945915241125497e-01
3.214818187237306613e-01
1.462820105479904209e-01
5.940133207593581433e-02
1.861046299106547675e-01
3.909969669221727284e-01
3.134938073814268478e-01
-1.770318916420902111e-01
-6.984847630021256970e-01
-8.176447706215955735e-01
-6.013395483187656820e-01
-4.000471747494665498e-01
-3.332274303353026657e-01
-2.884633546380390157e-01
-2.195425376150712815e-01
-1.858474120005978447e-01
-1.962422490774337336e-01
-1.921041012938848047e-01
-1.601193325883849550e-01
-1.486461926635049280e-01
-1.670545326843995149e-01
-1.633466436229944196e-01
-1.302631311255770530e-01
-1.360250739897325700e-01
-2.103300502378463166e-01
-2.903909407758436534e-01
-3.020999375470395099e-01
-2.298362272313761723e-01
-1.122721670882028677e-01
-8.748174419346025840e-03
4.286085610516225664e-02
5.497500507756734878e-02
6.967492610605419134e-02
1.005010029239366970e-01
1.109283917963487520e-01
7.279450542291013293e-02
2.867698628891309637e-02
5.661907782205344991e-02
1.732212121188013432e-01
3.035784334622108616e-01
3.566739389290248807e-01
3.156120880714006205e-01
2.409912082635360109e-01
1.919789237691740813e-01
1.723165980921837759e-01
1.585274962569443169e-01
1.411822282667678785e-01
1.254497084606246426e-01
1.213861645699281233e-01
1.390153352291446931e-01
1.775047697942339076e-01
2.182773416465159377e-01
2.321174471948606599e-01
2.022518572695676808e-01
1.461592385265050309e-01
9.853774276356760953e-02
6.851830513792564470e-02
3.598430286887237262e-02
4.815865066372057926e-03
5.490757590396989213e-02
2.903245920287592097e-01
6.404482390712339379e-01
7.559876287349222013e-01
3.419483229179190453e-01
-3.775542206010081281e-01
-8.382207609660675685e-01
-8.138345349885078850e-01
-5.727013115753074590e-01
-3.810004737757463622e-01
-2.350770308403880016e-01
-8.875597778233040858e-02
-1.063407571352548153e-02
-3.308995881260572147e-02
-2.919452250251394765e-02
1.363636114209045014e-01
3.642915383884310909e-01
3.731926571137554882e-01
7.533861907737834929e-02
-2.659958955047578844e-01
-3.749613171412733981e-01
-2.729479300051881330e-01
-1.446415872718145312e-01
-8.216344964920314908e-02
-6.488684208063423553e-02
-6.501706282474085941e-02
-8.326108031509282803e-02
-1.244485034196989581e-01
-1.751605345818989523e-01
-1.981477838644105927e-01
-1.523325365254103170e-01
-2.893639560292974103e-02
1.286951941641832076e-01
2.465679945724465749e-01
2.795186044024620675e-01
2.536760788137141787e-01
2.271771254559416253e-01
2.131280742971883024e-01
1.825479562794990462e-01
1.281810460931528950e-01
7.294905194656584047e-02
4.593709065545394793e-02
8.006098869650714323e-02
1.696664585874560760e-01
2.365563422990190345e-01
2.197511069276245621e-01
1.542848479863855593e-01
9.815176468277120314e-02
5.978859934290353673e-02
3.557546352527225092e-02
4.289755440542264431e-02
9.465048861798512625e-02
1.770124732058959427e-01
2.498729902767783950e-01
2.603359283911854116e-01
1.833139268273616396e-01
8.282937651158484016e-02
1.197741521388401148e-01
3.938423585849010200e-01
6.909490874409530692e-01
5.535210111504420549e-01
-1.495101478973769049e-01
-8.922522999569180158e-01
-1.068171765245714999e+00
-7.084271375614568100e-01
-2.997765003013783125e-01
-1.329871752666820228e-01
-1.450291499998038192e-01
-2.006316513497423959e-01
-2.511840987279787552e-01
-2.807784271392538833e-01
-2.658507963177755840e-01
-2.134180476503901858e-01
-1.725577131355143512e-01
-1.769587623312541824e-01
-2.045041921601329082e-01
-2.187823308480064954e-01
-2.289288971077042545e-01
-2.679213699905534929e-01
-3.185902070622161908e-01
-3.168232051737087107e-01
-2.376094821171135241e-01
-1.278360060905230633e-01
-4.654961791608053234e-02
-6.387414582895043977e-03
2.556719323191632143e-02
7.732857267208237406e-02
1.216235131591106439e-01
1.001461022688748814e-01
1.504371680744046036e-02
-3.543353761190391055e-02
4.284840065886182103e-02
2.104076499251956167e-01
3.204331667201205658e-01
2.875473016637145607e-01
1.776016947787584510e-01
1.092649580316893410e-01
1.119615111982712324e-01
1.160746691692516597e-01
6.526581394654096258e-02
1.805515306166807776e-03
1.779602051819298425e-02
1.319767867339989298e-01
2.584628614820296821e-01
3.063946249649320275e-01
2.681173650217898996e-01
2.014501872346462219e-01
1.622824785567729688e-01
1.634743716845485917e-01
1.736561468793642316e-01
1.473642674762999372e-01
7.421527910648791082e-02
1.486453804871396694e-02
9.242615121895024488e-02
3.934108763204788306e-01
7.689766505983011147e-01
8.023306698555618954e-01
2.414586569047973419e-01
-5.610923226334759706e-01
-9.876050749300353537e-01
-8.843909287191953350e-01
-5.930968006784849145e-01
-3.898592596075748373e-01
-2.640590499602025742e-01
-1.453668940480043192e-01
-5.559119465656962855e-02
-4.248378366318099342e-02
-1.003037709481776202e-01
-1.867241408286398618e-01
-2.748956460113736733e-01
-3.541401302698616305e-01
-3.969238292408758806e-01
-3.705070603940809337e-01
-2.872004772425108543e-01
-2.039600085949966057e-01
-1.556017733924271174e-01
-1.224105179687202255e-01
-8.054143021319756790e-02
-4.885600345964436625e-02
-6.282569373549394542e-02
-1.181472542861910641e-01
-1.540722795984841020e-01
-1.053456347055244796e-01
1.801089428347948940e-02
1.327087401845192249e-01
1.859161381745657593e-01
2.091025483829424547e-01
2.453982994379678151e-01
2.800694915037419408e-01
2.709125208371268023e-01
2.114640001477716691e-01
1.444440112202760584e-01
1.274399724314578819e-01
1.887003387788571962e-01
3.024099927021552947e-01
4.020015326381543574e-01
4.213125518210340537e-01
3.386880855649110900e-01
2.027350719641156096e-01
9.909648983063468197e-02
7.113619458825967690e-02
9.402073702267566002e-02
1.249077187142410145e-01
1.466459294301319938e-01
1.704619663011629205e-01
2.161918408517291834e-01
2.750394603510443736e-01
2.893888180058376003e-01
2.100425737803168214e-01
1.008276310465685832e-01
1.370406060736531484e-01
3.895738599151264969e-01
6.051383001245789206e-01
4.074297415481594742e-01
-1.846789540792382889e-01
-6.961836037571926816e-01
-7.770730957541847062e-01
-5.566929085944134492e-01
-3.355468218751151976e-01
-2.329253840037206758e-01
-2.110710405846318305e-01
-2.092508283107591682e-01
-1.819323812607478719e-01
-1.105360006752221513e-01
-2.420431739664875154e-02
2.014771831954930564e-03
-9.681690258947604766e-02
-2.773617468740510739e-01
-3.889785375622014651e-01
-3.555595491751167292e-01
-2.883469724474515550e-01
-3.100759454775686708e-01
-3.643111781415516726e-01
-3.234708446039882834e-01
-1.938966600504055116e-01
-9.233416319447912413e-02
-7.324068990128192180e-02
-8.180899772185540320e-02
-5.824816604898382100e-02
-5.333072841141338338e-03
4.590760205422171614e-02
7.723405932032696708e-02
8.948162414029146861e-02
1.069043808911854243e-01
1.704051613571454793e-01
2.919821464275536016e-01
4.142609313163986284e-01
4.504795318518863834e-01
3.825042455586387113e-01
2.855772656411119659e-01
2.286069428211239818e-01
1.971889099400865042e-01
1.556202501991214571e-01
1.267030406812934828e-01
1.522641486716719839e-01
2.125498487053828212e-01
2.433629888091392857e-01
2.273966161952557796e-01
2.160180726884380620e-01
2.399101459059271857e-01
2.513294435799486859e-01
1.983323294331630349e-01
1.105983161612947852e-01
5.746742265481363104e-02
5.198809797202533917e-02
7.319097641187494174e-02
1.837653197162092966e-01
4.731599489820239590e-01
7.669903847241994477e-01
6.177734660002717204e-01
-1.132112536227557475e-01
-8.859452577000201945e-01
-1.084683583233131188e+00
-7.585007001896427736e-01
-3.954181706450234923e-01
-2.442056526533492866e-01
-1.975027468354114135e-01
-1.205492571060263057e-01
-2.210759415292605848e-02
3.402061705675235581e-02
4.660625723102940904e-02
5.039499661567562599e-02
1.253805836094751443e-02
-1.182254119145916132e-01
-2.723344107221735144e-01
-3.204110523645967157e-01
-2.489868678390068368e-01
-1.561064615976591741e-01
-1.149704848823883269e-01
-1.193496973011902995e-01
-1.337468798223453992e-01
-1.508943975283308647e-01
-1.852348241023678566e-01
-2.185596458495633332e-01
-1.963690443889770099e-01
-9.579652907713874510e-02
4.632967022191041007e-02
1.824001465521087606e-01
2.836378549041119745e-01
3.260943615029477383e-01
3.062514412318496082e-01
2.629800532411036840e-01
2.324585704936985853e-01
2.063990937318008756e-01
1.734583495249946983e-01
1.531305502278026698e-01
1.573428900553714704e-01
1.730984357284958974e-01
2.001956771540361890e-01
2.480469745399762616e-01
2.860931859792347209e-01
2.564505746268752051e-01
1.462312496609739776e-01
1.011890110670375133e-02
-7.541851192205720200e-02
-7.029667874552321394e-02
-6.095698536204285922e-04
7.447894107882478687e-02
1.248087936857291136e-01
1.477151491105015702e-01
1.212813243827609161e-01
2.761636342396904531e-02
-5.664584337348427950e-02
3.289851115426844358e-02
3.398273641717913796e-01
5.838866909719542253e-01
3.729462182156104144e-01
-2.548623470302534555e-01
-7.629271093899574474e-01
-7.737859557272971367e-01
-4.817417733767412336e-01
-2.560683734571568282e-01
-1.958328272356026911e-01
-2.195896937032891516e-01
-2.797477143978046588e-01
-3.384168762652018381e-01
-3.162397759191075686e-01
-1.907969732647508132e-01
-6.552121686292999847e-02
-5.230757541718607240e-02
-1.291347377876576052e-01
-1.909870983394961474e-01
-2.031550418189139451e-01
-2.192966280614026264e-01
-2.755178719550800404e-01
-3.413674405592209138e-01
-3.606152221543554304e-01
-3.004030835763614182e-01
-1.766508374739775844e-01
-4.688367622649128319e-02
3.542933707878640620e-02
6.153633156292571266e-02
5.574671881902579229e-02
3.730728820888823405e-02
1.446491428271771615e-02
6.452111673510080997e-03
3.710360140942349505e-02
9.901493459002616571e-02
1.605718829811795811e-01
2.183561336928203922e-01
2.921176825320389581e-01
3.611659333121901572e-01
3.625082759839300950e-01
2.618032626893816439e-01
1.054137079182527470e-01
6.003598867131525185e-04
2.274756586480271639e-02
1.353822320707367133e-01
2.352925135787075905e-01
2.685271272584005553e-01
2.571964351360708778e-01
2.267769401522369832e-01
1.682042186759833136e-01
8.574903238612363587e-02
3.775817238773538503e-02
8.588377807056614410e-02
1.992919637261745258e-01
2.571021109856083120e-01
2.110427529299195304e-01
2.190224563234909050e-01
4.676987217722639034e-01
7.983950294952615323e-01
7.324860601136263805e-01
8.244817925513629742e-02
-7.023464132156655992e-01
-1.075739168957063896e+00
-9.936842342113760829e-01
-7.300858995679306851e-01
-4.494856210875308733e-01
-1.905839006079479980e-01
-3.180394525165945036e-03
6.653495434102564554e-02
2.578854932401034722e-02
-7.554378174151590852e-02
-1.764878799200211568e-01
-2.350438268929071484e-01
-2.471506345395462767e-01
-2.360544410737540899e-01
-2.221166321654870768e-01
-2.102193064528721234e-01
-2.001449885083171898e-01
-1.865887226609840577e-01
-1.536246016021610705e-01
-1.035797235090155227e-01
-8.186378347292519453e-02
-1.216704746443306867e-01
-1.755501876780213022e-01
-1.554463117640972614e-01
-3.046896151593900259e-02
1.424705272967598246e-01
2.680179503540291441e-01
2.887880266048888367e-01
2.341367700960582110e-01
1.875508684861741937e-01
1.901482398463145707e-01
1.981385452137782166e-01
1.586525535242638840e-01
9.376171568782329380e-02
7.192045900802453151e-02
1.236203572602632417e-01
2.175688158312693576e-01
2.972566241985414304e-01
3.190376429121434820e-01
2.731423427725586661e-01
1.893214640305325713e-01
1.190030323025429299e-01
9.454257987032679833e-02
1.064066253849743071e-01
1.334459027837508471e-01
1.752689265538875107e-01
2.341956012801748033e-01
2.913318239388458797e-01
3.104446288435859791e-01
2.548590560371584712e-01
1.406126831924891796e-01
8.759715928736948320e-02
2.179409400210532144e-01
4.259456594742380142e-01
3.728600171791752182e-01
-1.018458533516237441e-01
-6.682054229733112027e-01
-8.663074767081005989e-01
-6.688711556255714230e-01
-4.077021519362419300e-01
-2.900724359616946857e-01
-2.636546471984152484e-01
-2.343308288217239577e-01
-1.846842528988941468e-01
-1.272377621817661897e-01
-7.775331578302191460e-02
-5.979209422760367598e-02
-8.082479186371392677e-02
-1.201996564486040864e-01
-1.498748419634149120e-01
-1.566731618008716798e-01
-1.608700675351770193e-01
-2.060348968767946043e-01
-3.013112903084401162e-01
-3.882177787854086404e-01
-3.904485048575666029e-01
-2.882539426296361063e-01
-1.338691326807220083e-01
-3.455278803328063787e-03
6.007019638377611437e-02
6.556090776172820989e-02
4.685642203188831317e-02
2.908462358084289504e-02
3.287516082934284489e-02
9.560692463495366888e-02
2.409670217116772761e-01
4.164273561902249177e-01
5.143384423690928742e-01
4.824173965625089822e-01
3.726321183079298605e-01
2.701807499072114149e-01
2.175447540475398400e-01
2.066654082616087851e-01
2.031232107068553228e-01
1.784492548933570011e-01
1.440608802747378459e-01
1.445446288861794160e-01
2.012945843916573718e-01
2.795389374600805166e-01
3.223665436084636737e-01
3.011373321009505055e-01
2.310176570769662263e-01
1.560784290307442035e-01
1.200917618974870066e-01
1.267494946138541523e-01
1.232125999931265037e-01
6.688389752135259769e-02
3.284645950720313512e-02
1.888084983133382078e-01
5.558704074188645095e-01
8.015956111780661031e-01
4.918282694031032021e-01
-3.137947508430549703e-01
-9.904042915456600094e-01
-1.071633577101553936e+00
-7.322745568845867581e-01
-3.921124814346866327e-01
-2.005769524373471890e-01
-7.250679860516422159e-02
4.489844709912881038e-02
1.078968434284181543e-01
7.591673672929150074e-02
-2.543579401590410904e-02
-1.394842867001519493e-01
-2.365044034449901578e-01
-3.141612716227978885e-01
-3.634797563236969453e-01
-3.671203108557075656e-01
-3.201815692072109698e-01
-2.326791542578763583e-01
-1.243762355413379483e-01
-2.951166799572128158e-02
9.226966218172835341e-03
-2.551727348710317728e-02
-9.753166478200298029e-02
-1.398555538466423331e-01
-1.120646536891625744e-01
-2.964130819767919756e-02
5.864380093246594067e-02
1.127188356507311251e-01
1.307208042211971399e-01
1.492865506982614110e-01
1.992624757831485127e-01
2.551795754731938093e-01
2.567809175541650446e-01
1.877199588833484978e-01
1.051667386208198912e-01
8.269464964740022572e-02
1.358422695135938774e-01
2.070617235611113549e-01
2.315630487670903015e-01
2.173450346544761325e-01
2.221678199037619705e-01
2.444391439100673524e-01
2.101769916631103519e-01
9.944586322935450307e-02
6.111343248061604227e-04
-5.412050194758079302e-03
6.317442886674390357e-02
1.442410463102065388e-01
2.042257228332876595e-01
2.255604557171305979e-01
1.772579734916577554e-01
5.843179341771084084e-02
-1.773717604974113168e-02
1.214270911697321043e-01
4.306480994700905285e-01
5.123714008910383866e-01
5.247200774926229216e-02
-6.487213282003814196e-01
-9.639510125840574650e-01
-7.279337669164613889e-01
-3.470352188337127441e-01
-1.913431246996740998e-01
-2.454889458742212371e-01
-3.147655612521735868e-01
-2.929269439511084649e-01
-2.061001800014574670e-01
-1.315948655457403471e-01
-1.064663137263898857e-01
-1.000064546290256873e-01
-8.168317914066515473e-02
-8.020588552389308623e-02
-1.457719778247156261e-01
-2.844856300090601864e-01
-4.412485137798849433e-01
-5.302037531696919270e-01
-4.943819243062069768e-01
-3.535214071896599086e-01
-1.877497188789431781e-01
-6.161812646969910129e-02
2.844759229018245864e-02
1.078392606870131609e-01
1.487127871554368985e-01
1.019101921154234869e-01
-9.107697405648845779e-03
-9.255426739861152829e-02
-8.147995045855568885e-02
2.509961506729793679e-02
1.936246300132024867e-01
3.700650047523446062e-01
4.745345284594658652e-01
4.531292537290763645e-01
3.473019250329710816e-01
2.514112396532890426e-01
1.949358781958154541e-01
1.315078321653713744e-01
4.866025286786646725e-02
1.032997228002085176e-02
6.139369230225205643e-02
1.548311424417181947e-01
2.168140057709990187e-01
2.380732502871465428e-01
2.588075659460274403e-01
2.951420078671527225e-01
3.139153985073686592e-01
2.745543212768893349e-01
1.886344226370413046e-01
1.116147978235154381e-01
7.150466921631096207e-02
8.326806900610610185e-02
2.242808916329049884e-01
5.196445599679340166e-01
7.275281459517723981e-01
5.031101317804875794e-01
-1.195146117378688422e-01
-6.806230188953025229e-01
-8.315235340284035104e-01
-6.555577292859546823e-01
-4.120018723533606653e-01
-2.300481497688927346e-01
-1.075855666364637919e-01
-1.824035091498900710e-02
4.843558937485747257e-02
7.522630351508692581e-02
1.292942391145843542e-02
-1.722779229066742634e-01
-4.118025620855102487e-01
-5.433566777801991377e-01
-4.797709659930698978e-01
-3.116434423593217318e-01
-1.770158783531234348e-01
-1.151812804523650452e-01
-8.973121786744485406e-02
-7.260117155132990441e-02
-7.845523745219849798e-02
-1.374888376401779133e-01
-2.258166834264128953e-01
-2.473260770441752521e-01
-1.290083771655297085e-01
8.429325304994557400e-02
2.597834843377954672e-01
2.777137318636359598e-01
1.135823535652387140e-01
-1.072402318263376425e-01
-1.679971512813706880e-01
8.849936747328750186e-03
2.394915499334036024e-01
3.081494399663227135e-01
2.331879477202925821e-01
1.887369074312625905e-01
2.509492783150581996e-01
3.374956373536278087e-01
3.533873525397475124e-01
2.986172052561811285e-01
2.263693723211813169e-01
1.625273083511172278e-01
1.063968972789507972e-01
7.370951176222380330e-02
8.718918432888872472e-02
1.373751243101734576e-01
1.857684679621444956e-01
2.010034660707483989e-01
1.789571408611543846e-01
1.303063898113845098e-01
6.531454039309220194e-02
2.160954057185464003e-02
9.879782551444467320e-02
3.587099490093184628e-01
6.131607458068679684e-01
4.896930915828648923e-01
-7.819371482035628040e-02
-6.367449625205239272e-01
-7.556164864389528502e-01
-5.301991368761161949e-01
-3.082659373390589375e-01
-2.215840053316268932e-01
-1.915448034993061377e-01
-1.509204043199190992e-01
-1.076552682111679426e-01
-1.023499500739746271e-01
-1.398062949553425249e-01
-1.378376607491223205e-01
-3.673063041621675573e-02
1.488688907211053319e-02
-2.345977773614599249e-01
-7.389984921838261833e-01
-1.067238023292863325e+00
-9.196357871677320883e-01
-5.092397058864158721e-01
-2.121809020729290562e-01
-1.086432431052170439e-01
-6.452628454709728734e-02
-1.210634647304115186e-02
2.201722286121881103e-02
2.794481004792502901e-02
3.053379895881630501e-02
3.744405623433003094e-02
3.805653580951651183e-02
4.674266745129919409e-02
1.033265894377768668e-01
2.237386172737673151e-01
3.711817322478945247e-01
4.829887448389720839e-01
5.175477062488594848e-01
4.745412482205271232e-01
3.824761908629749074e-01
2.774210617726864392e-01
1.912428428716547724e-01
1.456834390401434420e-01
1.451433351303877406e-01
1.773670528566181626e-01
2.256272638799128039e-01
2.770299357150871056e-01
3.193321492948619778e-01
3.372539233713852114e-01
3.181886545419457812e-01
2.620266802944114515e-01
1.857858226205811314e-01
1.184001174687459024e-01
8.276509172592946828e-02
8.018192716196514969e-02
1.137126815015670755e-01
2.371188634900904535e-01
5.013013680792641757e-01
7.572996013214968736e-01
6.441815634413406988e-01
2.037299693088565067e-02
-7.047835132879982645e-01
-9.886601172489434264e-01
-7.834907753567458277e-01
-4.482914520495100419e-01
-2.269807860487702833e-01
-1.145869285662891729e-01
-7.195585627616976621e-02
-1.004738550637084005e-01
-1.606152032377551608e-01
-1.836273628070647923e-01
-1.651823975017266966e-01
-1.717225407727534237e-01
-2.456504171714201101e-01
-3.344635209974299861e-01
-3.387062165839032080e-01
-2.389533265803340523e-01
-1.389238212227208447e-01
-1.437805084205565909e-01
-2.267462886674064815e-01
-2.699237284383760871e-01
-2.184482617341337585e-01
-1.306365291478546187e-01
-7.787241463214217285e-02
-5.848547032216563218e-02
-2.553065907851207600e-02
4.322973809822362040e-02
1.270701590758438193e-01
1.967229744476415298e-01
2.387888055723367264e-01
2.489944599241503409e-01
2.350203169378798917e-01
2.258445393097085752e-01
2.407029889433555114e-01
2.570303308461774905e-01
2.473654338290829646e-01
2.254122751315562334e-01
2.208152746740940919e-01
2.337328709055607745e-01
2.373958286623165659e-01
2.115874580493841695e-01
1.613155750811447742e-01
1.042661403950841809e-01
5.481051779798533363e-02
3.105676791851227914e-02
5.664956624585919948e-02
1.335377492819120326e-01
2.317115691550689638e-01
3.170332512393750357e-01
3.594253520835984372e-01
3.191084270764125153e-01
1.816283497368747779e-01
3.497122752981708660e-02
6.947227904689197431e-02
3.798301048878340858e-01
7.014493372396872761e-01
5.524444297512046687e-01
-1.370519102809391043e-01
-7.829329752227113248e-01
-8.428561221196032571e-01
-4.668265688485446763e-01
-1.537029828900303707e-01
-9.913623720396214090e-02
-1.744839310419704359e-01
-2.591650507262370229e-01
-3.214306024043424026e-01
-3.217471760366223399e-01
-2.365613044733380632e-01
-1.331292431926676678e-01
-1.035269832366211562e-01
-1.467106084969205526e-01
-1.916961351396185287e-01
-2.035461833793737740e-01
-2.066667848794364604e-01
-2.344393421889817974e-01
-2.821095612408471842e-01
-2.939277422508171922e-01
-2.230357520035615715e-01
-1.112160136911722469e-01
-4.961085448198651604e-02
-5.923428340115956259e-02
-7.455969267440146209e-02
-4.445546942444487254e-02
1.740447949959401074e-03
9.298235890817570931e-04
-5.034805466070184365e-02
-7.420823152695979474e-02
4.922786725658132717e-03
1.782759151809791831e-01
3.651649805567799278e-01
4.764081262969785957e-01
4.622283591222988708e-01
3.376449851812360348e-01
1.765300546770281476e-01
5.412953951764493815e-02
-3.384741185632191701e-02
-1.640728188098493079e-01
-3.264852309538616160e-01
-3.468787539658859109e-01
-1.224174369482198960e-01
1.731777639223672782e-01
2.977170259395630625e-01
2.286061154145221375e-01
1.191402182361022688e-01
9.085500917940537990e-02
1.459024485818858907e-01
2.065521254420601693e-01
1.953351978279785073e-01
1.237133779573891534e-01
1.385212382237760442e-01
4.031805565259009017e-01
8.048030982406454426e-01
8.672081812462950623e-01
2.558553711174085810e-01
-6.599843650676470164e-01
-1.145107237633580688e+00
-9.659574421949216338e-01
-5.218280426589121390e-01
-2.205725853509178380e-01
-1.178334835533182134e-01
-9.331022266278087007e-02
-7.457125212339951736e-02
-6.583087181258627518e-02
-9.438411092045974338e-02
-1.729946840358007887e-01
-2.825948633172477575e-01
-3.690078762612803986e-01
-3.730153639902031304e-01
-2.892214295808016589e-01
-1.844047972796385160e-01
-1.346228318327189200e-01
-1.515464236134125287e-01
-1.788754392075875554e-01
-1.525275013726571094e-01
-7.556113660480615057e-02
-3.292575529774660614e-02
-8.787968900765585900e-02
-1.729930117879674711e-01
-1.561890855190929128e-01
-1.282751838600515622e-02
1.382501666717796118e-01
1.858192654183394577e-01
1.613639109199222488e-01
1.745866995322618020e-01
2.397295430486210688e-01
2.554036611913519939e-01
1.722268870771716254e-01
7.805144015263129620e-02
7.608046230295108237e-02
1.643600794760897710e-01
2.681607757209367171e-01
3.257079702261166942e-01
3.221132367089319382e-01
2.781033495542208911e-01
2.200421049826389031e-01
1.588195912050468228e-01
1.011324706632432541e-01
6.864748443163351532e-02
8.950056048973975553e-02
1.633112153486593054e-01
2.372550634902557964e-01
2.538975980881352790e-01
2.391314175742932091e-01
2.698766732776209376e-01
3.233509232508701703e-01
2.971488462587912327e-01
2.528550482452742720e-01
3.936813152812773664e-01
6.222743106464182494e-01
4.742141864969079412e-01
-1.961221180114578744e-01
-8.574507191246841797e-01
-9.834177427993814335e-01
-6.904031643044178379e-01
-4.038306377757232002e-01
-2.901913479778077676e-01
-2.534308603399794135e-01
-1.952818141463570634e-01
-1.088626602438625968e-01
-4.250996823677834907e-02
-3.807685210358171396e-02
-8.509980705982099491e-02
-1.402657114694710605e-01
-1.777006761916880562e-01
-2.070909299854206409e-01
-2.567883586004158225e-01
-3.314102750562689659e-01
-3.865920918587938959e-01
-3.682287889152600635e-01
-2.700296035828110841e-01
-1.437301037212087018e-01
-5.770782528081220414e-02
-3.343998040776789693e-02
-2.462112584016741546e-02
2.120327992942541012e-02
9.311317982390755754e-02
1.273212687815024058e-01
7.645791049775839399e-02
-2.876130507058086844e-02
-8.059237554384260371e-02
1.063364307619099093e-02
2.086654227964593322e-01
3.749577656249873936e-01
4.126814950127304371e-01
3.550812432191453039e-01
2.936106053180538855e-01
2.564250943915520331e-01
2.125979515651187923e-01
1.673941131849965569e-01
1.666483982438776712e-01
2.166554237558767082e-01
2.736787306830014144e-01
3.011636349886183672e-01
2.911468586499446065e-01
2.510140418378554172e-01
2.004337137021575121e-01
1.642978853732095512e-01
1.494812107886685226e-01
1.393441543298633012e-01
1.199238716797675214e-01
9.969232608330363954e-02
1.113491871917437898e-01
2.205192639835794888e-01
4.814653501593913476e-01
7.749871916695594276e-01
7.557276950784693748e-01
2.067312985651024448e-01
-5.679190822017998741e-01
-1.008208800714810449e+00
-9.264608702719777655e-01
-5.835769178770523480e-01
-2.640386526478399332e-01
-6.396253137730545379e-02
1.875478390213023566e-02
1.860930906174735472e-02
-1.171011440063651418e-02
-5.864293456835095036e-02
-1.569818782912555388e-01
-2.952675270340563984e-01
-3.825754991783388292e-01
-3.615036589193252881e-01
-2.795541153910218735e-01
-2.079752860767299927e-01
-1.600418160263077094e-01
-1.171889852017251321e-01
-8.300636474681551136e-02
-8.020995100374897491e-02
-1.115621269281888706e-01
-1.501730787051105964e-01
-1.637174703392212660e-01
-1.289535960693700134e-01
-4.039083979513696104e-02
7.954220192033029102e-02
1.956907679206745243e-01
2.751982333137662495e-01
2.875547723997004534e-01
2.406922058605235060e-01
2.009395383598150953e-01
2.042120167128916308e-01
1.915708579822212598e-01
1.221404589948692082e-01
7.918214860618119633e-02
1.576132955660575208e-01
3.108876722810984261e-01
4.023314300560587586e-01
3.630668458889784733e-01
2.399032953460519813e-01
1.211387553730061961e-01
5.579635415469655357e-02
3.456835913452034614e-02
3.066022885180097121e-02
4.657479419555429073e-02
1.053368420486344020e-01
2.025755554419323701e-01
2.941545199662440879e-01
3.317834205865427544e-01
2.860357034441504132e-01
1.526994942154646373e-01
4.534215411684867914e-03
2.650217413108415729e-02
3.408526258189627511e-01
7.027793504023648330e-01
6.011062046054553853e-01
-8.532296774093463265e-02
-7.885503142375392960e-01
-9.345068120495140240e-01
-6.248531871451264985e-01
-3.373887922075147205e-01
-2.889821191855846405e-01
-3.602847732740425135e-01
-3.902080476853199142e-01
-3.339567871376197261e-01
-2.330073559102239789e-01
-1.516664507128328565e-01
-1.351399328611002093e-01
-1.755084397970697319e-01
-2.185873768048652854e-01
-2.380076491116285553e-01
-2.812874900402088096e-01
-3.923140529970605139e-01
-5.094541563813871354e-01
-5.145753054780767277e-01
-3.871300141465336409e-01
-2.308361609645824819e-01
-1.291244422169767481e-01
-6.005605382664178093e-02
1.057003277073088193e-02
4.138349382153039269e-02
-1.542012962447733213e-02
-1.177380086660203273e-01
-1.697026583238782360e-01
-1.248834416209390064e-01
-1.339844838446705051e-02
1.164718906847964919e-01
2.396185676321991309e-01
3.223839676107519980e-01
3.083060379479071189e-01
2.001793154297724364e-01
1.022483326933945613e-01
9.713469937794362574e-02
1.412350231795355682e-01
1.642687245084644143e-01
1.857300042113079752e-01
2.391231487842135073e-01
2.736265409133586402e-01
2.323988882754208507e-01
1.589113566929940824e-01
1.363311519572144581e-01
1.626950991147060599e-01
1.610761044951160015e-01
1.029857306957590729e-01
5.467662775933575942e-02
7.174607910439770309e-02
1.066127500633984176e-01
1.008518109704750476e-01
1.418286899370372334e-01
3.851506683733718073e-01
7.323701611230811759e-01
7.444412508719605581e-01
1.488450657872034677e-01
-6.651113959254401076e-01
-1.031247678770628617e+00
-8.029564233298279730e-01
-3.915676758819526815e-01
-1.451518009480283200e-01
-5.685249813145462627e-02
-1.443755819660623137e-03
4.229073505385544385e-02
3.001705632416762359e-02
-4.473895334551875047e-02
-1.400987386862707351e-01
-2.085332220688309035e-01
-2.262997519073838282e-01
-2.031845940601282874e-01
-1.725958226123283090e-01
-1.573825211668988255e-01
-1.475234558222493497e-01
-1.264640628789414911e-01
-1.078760239143842087e-01
-1.213561608185270840e-01
-1.628051654471164567e-01
-1.854827057641842414e-01
-1.528080205081097653e-01
-7.724615348609843724e-02
4.688545540729903253e-03
7.041954065216907144e-02
1.192676768698266582e-01
1.637554526711298419e-01
2.072623274528286874e-01
2.229900592179492325e-01
1.784215956466041475e-01
8.838466305110062593e-02
2.231095141969537468e-02
4.645421212206150841e-02
1.586322277775020217e-01
2.823373124411973634e-01
3.333488838601899040e-01
2.949939249084667092e-01
2.237101641874058300e-01
1.838813563673810103e-01
1.873089382042266993e-01
2.025514591090351035e-01
2.126010925234129711e-01
2.335572723197001654e-01
2.654530912880635474e-01
2.664827841254592267e-01
2.175902626956780217e-01
1.769267227633721518e-01
2.030632802270575799e-01
2.423613952792556814e-01
1.869666851634452232e-01
7.385257940716719038e-02
1.192617144496663506e-01
4.250634324224337734e-01
7.004317690174054478e-01
5.125917787010313420e-01
-1.244476993050415287e-01
-6.909445358411686611e-01
-7.952866394854560816e-01
-5.749098856467702578e-01
-3.923361593157479454e-01
-4.127992947882668795e-01
-5.308270685177978176e-01
-5.391846955117932660e-01
-3.532706900285204621e-01
-9.848115813072977343e-02
4.532914072829485885e-02
2.959758277954594938e-02
-6.594351699682121648e-02
-1.520401293966257006e-01
-2.080989375696029320e-01
-2.691055008264092718e-01
-3.560466867719103701e-01
-4.279944774041552491e-01
-4.149952785843518122e-01
-3.000078802534743572e-01
-1.493816065100784241e-01
-4.639939706628709581e-02
-7.826107052156834956e-03
1.113636873459319943e-02
4.224224443438679560e-02
6.947351714427894842e-02
6.654777596529963535e-02
3.990672224615779418e-02
2.659130777314196517e-02
6.008706547552763316e-02
1.444898546780604975e-01
2.531128899996899495e-01
3.379399121915279136e-01
3.519886646363166172e-01
2.860542594167124753e-01
1.822721410986657409e-01
1.094653329802570407e-01
1.186696976059435221e-01
1.831560901538472341e-01
1.971213250417577501e-01
1.122809342308313807e-01
3.559139445433822518e-02
8.276665036782214491e-02
2.052065943037649498e-01
2.717584496701062613e-01
2.324774698913385784e-01
1.281176965178838778e-01
2.775942668406373645e-02
-9.840259259034086353e-03
2.172674840926925102e-02
6.929961460970929243e-02
1.070841711367730431e-01
2.216126982776048249e-01
4.923605990529024701e-01
7.249255006203223495e-01
5.137917341575459762e-01
-2.118662864857912276e-01
-9.282058613922308243e-01
-1.094288639464823909e+00
-7.674821776236102622e-01
-3.847558591242714043e-01
-1.945980073928063048e-01
-1.443613120517800441e-01
-1.154809604129257428e-01
-7.096958832464250744e-02
-4.890297950592641107e-02
-9.586102384126930775e-02
-1.991392447630250528e-01
-2.826809727966551056e-01
-2.777164585769891225e-01
-1.906203883800063614e-01
-9.191527347815832416e-02
-4.176921384488642419e-02
-4.177418492206155798e-02
-5.753326262887911019e-02
-6.743455939948767019e-02
-8.144199434421209305e-02
-1.103013618908153110e-01
-1.211659230603636117e-01
-5.884616024575967108e-02
7.039434074783305906e-02
1.837489230638886251e-01
2.228627692729809873e-01
2.180608561133656198e-01
2.214894598835644435e-01
2.372030859222382104e-01
2.500701378033945432e-01
2.696141954292294307e-01
3.113482800477193613e-01
3.657158384266773199e-01
4.044729508004015206e-01
4.030388668459823909e-01
3.607806361901723657e-01
3.062312004201981908e-01
2.571969961514057879e-01
1.843032560980981116e-01
6.576626316314049259e-02
-4.504320799111584395e-02
-7.459959305142575825e-02
-2.063381040420301377e-02
6.046989343927310079e-02
1.214944512916180941e-01
1.614018686344136921e-01
2.091259122420951744e-01
2.650763987596609916e-01
2.803844031823377603e-01
2.075335551420653402e-01
5.609823338670956450e-02
-6.151187526217362367e-02
4.823003777360370531e-02
4.160111619951091244e-01
6.642073766884493136e-01
3.337426627826108327e-01
-4.325244513185108608e-01
-9.456413608353246847e-01
-8.440665064462030687e-01
-4.693498540580658407e-01
-2.783597111903768906e-01
-3.112480408042728186e-01
-3.384001472866755567e-01
-2.301839285606244456e-01
-6.377904558639191368e-02
2.572665338200086360e-02
7.945633536718756801e-03
-4.771077685550311615e-02
-8.547572143097442732e-02
-1.108089771946339369e-01
-1.488093542312262096e-01
-2.070113181274395586e-01
-2.710863929683035578e-01
-3.086297398505518652e-01
-2.872538086249585287e-01
-2.052959969766225967e-01
-9.533587108749731753e-02
5.402116434426619887e-03
7.551270833713688568e-02
1.008339567596240466e-01
6.824761818349808773e-02
-2.541188769328690811e-03
-3.597426218122532632e-02
2.269727556099031263e-02
9.475786133397966216e-02
3.263082058694999343e-02
-1.379692205970042829e-01
-1.770268977631756502e-01
3.714211766956938138e-02
3.022233585111087084e-01
3.691388309896692088e-01
2.406684914801434094e-01
8.430535294769142540e-02
1.815664191960566359e-02
5.529231613167354120e-02
1.469546390711233830e-01
2.301049997757506071e-01
2.753589891437213111e-01
3.002488553638326674e-01
3.218646375665421000e-01
3.143777505156485907e-01
2.353117154780752229e-01
9.260205731557158426e-02
-3.064627924514708168e-02
-4.342232566400455740e-02
4.927199026946641608e-02
1.383828122834227514e-01
1.564041222663387354e-01
2.163060297782841146e-01
4.753136573176039992e-01
7.783376210867187783e-01
6.515252950817926880e-01
-7.551931936087866171e-02
-8.659449577282414268e-01
-1.082323238527821196e+00
-7.552920523493040772e-01
-3.706731479287154185e-01
-1.879965363861830496e-01
-1.243577452300210912e-01
-7.618027643832411822e-02
-5.554482632842502182e-02
-9.538887153375884276e-02
-2.006518674019112658e-01
-3.662980914088359574e-01
-5.343830514504208651e-01
-5.806433041778330528e-01
-4.521124474816863303e-01
-2.606337359522767905e-01
-1.454184511025331250e-01
-1.122700263870746867e-01
-9.225106608267602537e-02
-8.587346679671850613e-02
-1.486701703709974176e-01
-2.700141521755915486e-01
-3.545570660235927707e-01
-3.224029183949743138e-01
-1.828960866267287932e-01
-1.058469026944244135e-02
1.246945289214544533e-01
1.960612102082201769e-01
2.105916162126493241e-01
1.917228160293328598e-01
1.683878767222082851e-01
1.578441726426828284e-01
1.565151409570674224e-01
1.572320939123590111e-01
1.659065961888512852e-01
1.876454279236226541e-01
2.075104135875284750e-01
2.042250773906927053e-01
1.769585431502400108e-01
1.418827796076785885e-01
1.080471135194456811e-01
7.483686983455759001e-02
5.311811083933910133e-02
6.708448143440359779e-02
1.242383267489304555e-01
2.006546449774467833e-01
2.648005914583073661e-01
3.030153861229767931e-01
3.209091467952799870e-01
3.242289306339380950e-01
2.903583612205973830e-01
1.892132927729974767e-01
9.467778088589831609e-02
2.059660212212968688e-01
5.621863051440701975e-01
7.855386544251401482e-01
4.510502243087023966e-01
-2.749024123214155457e-01
-7.660971147418061955e-01
-7.183946413335695613e-01
-4.095109602142649186e-01
-2.169598678311993045e-01
-2.357602963832225729e-01
-3.460074981992166121e-01
-3.924586211960993110e-01
-2.908828366619595762e-01
-9.910727890658221906e-02
2.358689614550955535e-02
-1.774420054150384340e-02
-1.679014115969338361e-01
-3.099361452549732610e-01
-3.827386813346166927e-01
-4.040243061911752975e-01
-4.075345252282728814e-01
-3.853658703459634793e-01
-3.172640769099972502e-01
-2.236899558053729586e-01
-1.351338683250829231e-01
-4.315569142469440761e-02
5.823114661011944554e-02
1.154026452033222738e-01
6.915369031243050191e-02
-4.136160327875175458e-02
-9.569403978297107149e-02
-2.753344386245645120e-02
1.092700897202338733e-01
2.243776911056495627e-01
2.939730536790594040e-01
3.540524133555730812e-01
4.173588955299790126e-01
4.409638954297792623e-01
3.829581113471374199e-01
2.507252400811728621e-01
9.149729708132907369e-02
-2.188444834839538278e-02
-2.159244004865221167e-02
8.641777789911314622e-02
2.125494608643198335e-01
2.743025034701876419e-01
2.700329716993732920e-01
2.504110686046075451e-01
2.467521617828327685e-01
2.485342655071896556e-01
2.368369521463509764e-01
2.180117644277738131e-01
2.160669221085747271e-01
2.274959999931699950e-01
2.106246850045949970e-01
1.754203786602072379e-01
2.512919289848491444e-01
5.157336838707324844e-01
7.271556181704267319e-01
4.778534546877739042e-01
-2.378463589904117881e-01
-8.893074446992269566e-01
-1.033208493447285825e+00
-7.737197422654044088e-01
-4.591648514578540174e-01
-2.491914051252983320e-01
-1.154958451188464186e-01
-2.164860846193586777e-02
1.796289127531962987e-02
-3.183093872100929700e-02
-1.687273671889531479e-01
-3.118025817993470561e-01
-3.579372900326868168e-01
-2.894588172390979430e-01
-1.816711517270798160e-01
-1.072544135349670358e-01
-8.335449339956818582e-02
-1.002488614180164772e-01
-1.421300148326298529e-01
-1.867474724217081938e-01
-2.216707292929279149e-01
-2.371973960812487625e-01
-1.994574960440701206e-01
-8.695886854798538790e-02
5.447029009191516752e-02
1.536411580816083866e-01
1.933212197299217505e-01
2.026358108244941669e-01
1.953237204696295637e-01
1.570888877918928395e-01
9.353743567554251293e-02
5.943886729702459182e-02
1.077040480621983681e-01
2.188062322965428630e-01
3.180635522739984622e-01
3.559629742055808732e-01
3.409861624878194331e-01
3.064842515229133091e-01
2.739830023891656197e-01
2.450833640918732570e-01
2.105125773737433759e-01
1.636310798255721233e-01
1.178742480186022040e-01
1.109460591982961292e-01
1.657735537422178607e-01
2.460880119891649398e-01
2.880233352050605711e-01
2.757319681943780632e-01
2.438344955828634364e-01
2.020708726262396837e-01
1.095035202558345550e-01
-2.394414378795141005e-02
-3.897751696373470687e-02
2.290731834446591009e-01
6.251198798415446012e-01
6.748224257418604655e-01
1.385711737941534016e-01
-5.875299449904261007e-01
-9.189888570623235831e-01
-7.756667479766989892e-01
-5.239537905656365124e-01
-4.115379614860147361e-01
-3.757032556658552735e-01
-2.962754781998588882e-01
-1.799092420664644698e-01
-1.008368375264123568e-01
-8.869745303952279725e-02
-1.111727831026869534e-01
-1.363536098002606223e-01
-1.755983687726440923e-01
-2.472218506418307482e-01
-3.241382015300035557e-01
-3.579206991487032807e-01
-3.400666030374896454e-01
-2.961643890500743614e-01
-2.417880053829673526e-01
-1.802130742513947392e-01
-1.124768314852562096e-01
-3.815389655236033073e-02
2.886454757091017759e-02
5.976549262610408864e-02
3.707045791179434946e-02
-2.495756596580409742e-02
-7.600536840062235844e-02
-5.964387206148273612e-02
3.664402724338909623e-02
1.815790875266094506e-01
3.337281199919878705e-01
4.383797566684444758e-01
4.341133012152799120e-01
3.143080135766868066e-01
1.502599629432254669e-01
2.877919946335070686e-02
-8.243997723435618138e-03
2.976926954916455162e-02
1.055028947235076425e-01
1.820768803959602333e-01
2.328648871003611287e-01
2.367782091060702254e-01
1.953906669124052808e-01
1.474812432779964155e-01
1.280937715654334175e-01
1.269905667498884838e-01
1.203596013843090673e-01
1.133516492978861867e-01
1.162923056200354244e-01
1.097939995416714193e-01
7.926713677417671078e-02
8.880223837421241662e-02
2.756744175576122946e-01
6.674891161746751012e-01
9.575657494998750519e-01
6.721566650352293060e-01
-2.084241600837880015e-01
-1.026808347145215627e+00
-1.166873013439860829e+00
-7.424413312622079042e-01
-2.885631546939311232e-01
-8.794933134735960500e-02
-6.660512461500898984e-02
-8.822235026746863551e-02
-1.136529190850563975e-01
-1.621838731126171163e-01
-2.377727713765273865e-01
-3.047875150591594084e-01
-3.192516734216034879e-01
-2.694534692942479603e-01
-1.830777435841574041e-01
-1.077486302940510593e-01
-8.549878797283437526e-02
-1.281886720405549795e-01
-2.069040532448734593e-01
-2.713277305884473911e-01
-2.882979231365755401e-01
-2.662665489300570787e-01
-2.368075231983248208e-01
-2.031334718286738616e-01
-1.259426211706522192e-01
1.277544852042753441e-02
1.513906205196272337e-01
1.947992984338680345e-01
1.224980869840110453e-01
2.203638690145455839e-02
-2.802352116237256940e-04
7.548771708147446191e-02
1.801066292080624742e-01
2.395370948976418002e-01
2.485228319329558788e-01
2.591608811700111259e-01
2.931708276322759765e-01
3.011930446719879861e-01
2.448699297092989391e-01
1.623147172416480599e-01
1.019506069006155397e-01
5.568091909999785954e-02
1.082538489998450745e-02
1.121902333719420990e-02
9.997745852929591781e-02
2.300333006308876993e-01
3.067665117292217025e-01
3.143717566263495855e-01
3.176601759712848749e-01
3.237775953383457139e-01
2.341652490098164452e-01
1.115584677689529167e-02
-1.470999193147037032e-01
4.546798966349917259e-02
5.226225762581263590e-01
7.417226336461155700e-01
2.950854831724679106e-01
-4.800257471152453159e-01
