9.904953990981360534e-02
9.591001646382697754e-02
5.749418043672065159e-02
-1.002017597890247740e-02
-9.769894810092327742e-02
-1.703131345098367055e-01
-1.819222858617531857e-01
-1.197956052525083331e-01
-2.250927578936130075e-02
5.129114232941488216e-02
6.889981290970223493e-02
3.674977019453992688e-02
-1.967512172266770720e-02
-7.681107002638784542e-02
-1.273338986365099290e-01
-1.915504794712464820e-01
-2.941529082571662790e-01
-3.852226488961566497e-01
-2.968331391655511520e-01
9.220715581740956956e-02
5.660977754374862947e-01
6.590330605363780014e-01
2.315381770477139556e-01
-2.907868792671820524e-01
-4.534492679825162798e-01
-2.609238810308994183e-01
1.364891668027411187e-03
1.466638240101560131e-01
1.752140974807951945e-01
1.569629738189616264e-01
1.332200074747011409e-01
1.008922882953667000e-01
3.996163294586745074e-02
-5.575869261120364184e-02
-1.640252839261587547e-01
-2.517442455368142928e-01
-3.036915888010640052e-01
-3.155967327367018571e-01
-2.700290980413318498e-01
-1.563479687076920199e-01
-1.627186218658858291e-02
6.877432147056948553e-02
5.443224802238262605e-02
-2.632983230723801027e-02
-1.120198007795335515e-01
-1.704833564942938584e-01
-1.955693631311389014e-01
-1.813515257928311752e-01
-1.182555364643951834e-01
-3.378411724959956217e-03
1.430308518988974154e-01
2.644004236821370091e-01
2.895044806394947434e-01
1.940097950256587933e-01
3.459228978165198448e-02
-1.007354743727616325e-01
-1.639236904259057659e-01
-1.547890909706665097e-01
-9.162195767183681228e-02
-1.212173693889502697e-03
8.411227881151978059e-02
1.438035693916105418e-01
1.742973665874530953e-01
1.656443745584945393e-01
9.551347706529013382e-02
-2.790418309815270032e-02
-1.397836045413815564e-01
-1.710232643547648368e-01
-1.147850240885851664e-01
-1.868710063883582267e-02
6.866123740643799434e-02
1.235652652978984634e-01
1.455721768436838981e-01
1.483241602033740503e-01
1.260810248700515723e-01
2.571803201559734464e-02
-1.823623773004678650e-01
-3.549091630602295711e-01
-2.021237211705949055e-01
3.426271405192647390e-01
8.478711361983044537e-01
7.994845086534048129e-01
2.646139311787273352e-01
-2.070162213911425630e-01
-2.766455280865064426e-01
-8.257856773673505346e-02
8.834029197854598170e-02
1.134759410989022166e-01
4.905046914533058022e-02
1.876161944669744227e-03
2.339705854334262619e-02
8.196463771999751291e-02
1.099950362746794225e-01
6.976714925626134600e-02
-2.810119187646708400e-02
-1.471179089620964497e-01
-2.455388455587687035e-01
-2.922942717542003632e-01
-2.795779918241427242e-01
-2.165576567746674841e-01
-1.166690056982574164e-01
-1.052272694273784226e-03
9.378849531542760021e-02
1.287389233045159731e-01
9.083348934848940737e-02
7.065711441424454842e-03
-7.458979335212886919e-02
-1.153281430253562112e-01
-9.434246862958967084e-02
-6.194129164576919408e-03
1.253409092359501209e-01
2.429089161268754571e-01
2.925266989247287119e-01
2.614440790149533123e-01
1.765998352710580199e-01
8.083318942994295597e-02
5.417872762214615869e-03
-4.598864267299511421e-02
-7.947099703873469756e-02
-8.251243933881338699e-02
-3.492895314264517215e-02
5.346933228511761838e-02
1.394162060922734814e-01
1.864405890902377239e-01
1.890832984347049772e-01
1.517658126776716410e-01
7.253173304954411982e-02
-3.614309873394574990e-02
-1.350917430246218742e-01
-1.803276937829285387e-01
-1.394186077853049877e-01
-1.032984554301428354e-03
1.839399840385030349e-01
2.823450317674214838e-01
1.716416124502407325e-01
-1.037104359600671821e-01
-2.826840759214681031e-01
-9.850047148180998691e-02
3.389837599451219763e-01
5.262407184092737777e-01
1.909132230525921736e-01
-2.820270382352603189e-01
-3.614650478723427374e-01
-3.023832884556496015e-02
3.359573897377970964e-01
4.640630332612335485e-01
3.506043709643543727e-01
1.322201241655818205e-01
-5.403631354237028311e-02
-1.432723951796787965e-01
-1.526182685232567726e-01
-1.290822696374701317e-01
-9.240355375825951012e-02
-3.877180693051930638e-02
1.713765894817740817e-02
3.262827987245580513e-02
-2.506423062632055429e-02
-1.382706734115428659e-01
-2.417944002369208922e-01
-2.727841908107220270e-01
-2.170149999224992299e-01
-1.060886917770573201e-01
1.336393354493945439e-02
9.526599005625610572e-02
1.009879652611245238e-01
2.975022450231846333e-02
-5.728563443042179737e-02
-8.397814050506138828e-02
-3.604475115905584476e-02
3.565863202825234057e-02
7.646494582349348812e-02
7.224112673575458499e-02
4.907276366473788121e-02
4.121352931815002590e-02
5.175827584731858971e-02
4.627562155558742618e-02
-7.126312177499922844e-03
-9.784922647152162478e-02
-1.837660389669988348e-01
-2.334691758233966852e-01
-2.373460006464077621e-01
-1.875141390015164222e-01
-8.839224497999659258e-02
1.158422639114149374e-02
4.671743514936183700e-02
3.137169436575926867e-03
-7.415014503133662838e-02
-1.452173495838331163e-01
-2.101303355707064002e-01
-2.669218626214571732e-01
-2.684686158068949058e-01
-1.737282655911933094e-01
-4.883275200349468381e-02
-4.468519910363771136e-02
-1.871920707577428289e-01
-2.159214265581363978e-01
1.762674811474067849e-01
8.249237629678126682e-01
1.079549918966666411e+00
5.873102331462830561e-01
-1.895292553682553227e-01
-5.562405923023253651e-01
-3.710686017632425782e-01
1.543009615051916389e-02
2.756954883450182248e-01
3.247464334452271895e-01
2.305933056853209373e-01
8.559910699456087235e-02
-5.714769914656435412e-02
-1.792099526749587612e-01
-2.651349418830117877e-01
-2.945372268927858861e-01
-2.623558185637722695e-01
-1.907834921991762023e-01
-1.120537748273523204e-01
-4.885160647697409791e-02
-2.058486531374355971e-02
-5.394486714288049267e-02
-1.598533728734609916e-01
-2.947965398005999993e-01
-3.728603108940220512e-01
-3.362222233173801644e-01
-2.027338271863152741e-01
-4.605920049287027390e-02
5.437444343094895854e-02
6.663988352443959984e-02
3.615931236275883587e-02
3.300797865461745084e-02
5.383752402992100783e-02
2.620468641382790037e-02
-7.717270289303318487e-02
-1.900288763664318425e-01
-2.290869734634359278e-01
-1.674147251741777143e-01
-3.402337424115201014e-02
1.105409329844040250e-01
1.957114303961231261e-01
1.779644825824214238e-01
7.351923526518565344e-02
-5.487116483336317713e-02
-1.432760498412930517e-01
-1.573296476400392607e-01
-9.700739668750585354e-02
9.088379396267602661e-03
1.172183897914901157e-01
1.909063530602625736e-01
2.155654361247145712e-01
1.933547066949263815e-01
1.357018126466966179e-01
6.469936745733270711e-02
-1.983473804519008191e-03
-8.141657396082731257e-02
-1.923578994617076154e-01
-2.342452509428735175e-01
1.616053314777057132e-02
5.861639947746584145e-01
1.034416406093733753e+00
8.577766899110200738e-01
1.896683515903846429e-01
-3.249924184832569951e-01
-3.371865094665838503e-01
-6.901456871646381719e-02
1.376603945015691111e-01
1.813718875571038724e-01
1.423559673047713470e-01
1.059641761781211777e-01
9.168015467787105077e-02
6.987059220503549772e-02
2.752528995341558919e-03
-1.158454831119984929e-01
-2.426785078115610561e-01
-3.123045059035302051e-01
-2.924471328880871579e-01
-2.106094243363421659e-01
-1.242331569242129397e-01
-7.069029794950223988e-02
-4.631900835424256763e-02
-2.639514930408555851e-02
-1.828520944812700444e-03
5.920176159190422213e-03
-3.015119694698642147e-02
-1.056694723000164704e-01
-1.788271510115386209e-01
-1.978762977143691815e-01
-1.315809720973725450e-01
1.012056300116510182e-02
1.667424154815229653e-01
2.544361147021910741e-01
2.283868334121106070e-01
1.151557409617685601e-01
-2.152035659786371430e-02
-1.313985146208073440e-01
-1.899188823644170354e-01
-1.819081365801074046e-01
-1.012991962187621553e-01
2.366524873602922005e-02
1.264626052753775043e-01
1.502118695237852908e-01
9.789105836400538441e-02
2.018617817514074125e-02
-4.162643223806004877e-02
-8.384106839430940927e-02
-1.121580201351279477e-01
-1.102170455645822972e-01
-5.819086419418877110e-02
2.944193749581590358e-02
1.133437972463666316e-01
1.716525498750667844e-01
2.030331672474279536e-01
1.870034531001955602e-01
7.271624831661040178e-02
-1.529900024268174841e-01
-3.504019089880337501e-01
-2.369784280859275061e-01
3.015909959569225141e-01
8.881574678661914302e-01
9.447694441557584755e-01
4.102681060022593806e-01
-1.683530679639282102e-01
-3.328334804634520139e-01
-1.529905197129605432e-01
5.363375818735537093e-02
1.211859514924557846e-01
8.937588088057910052e-02
4.709183900352607866e-02
3.021605013642911230e-02
3.498334065884935867e-02
5.088053704032419883e-02
5.382159948843930758e-02
6.418417316142832445e-03
-1.004121830025148376e-01
-2.207396771593616303e-01
-2.926291924150370982e-01
-2.937028350316455150e-01
-2.433788986419870570e-01
-1.695956978977979923e-01
-9.340391627100258498e-02
-2.942302394147273265e-02
1.788866716544887728e-02
4.514762255003097052e-02
3.287257391714989291e-02
-3.374377020551474343e-02
-1.222595582529543423e-01
-1.606072361654080627e-01
-9.676984802484184245e-02
5.252839790611094767e-02
2.042859770492513327e-01
2.692063537387575645e-01
2.300036352058203448e-01
1.422964610583510869e-01
4.015379522681904179e-02
-1.032053759645401581e-01
-2.745326449994083262e-01
-3.599789503598573859e-01
-2.735061173217617214e-01
-8.196098123969011717e-02
7.891358086790845050e-02
1.518904556620196689e-01
1.660956397848076249e-01
1.564453183323275820e-01
1.216016840339539107e-01
4.444099555723360351e-02
-6.374117844098688146e-02
-1.524905023186875208e-01
-1.786264800146680487e-01
-1.451161172035352886e-01
-7.416010520002319639e-02
2.540928967660576604e-02
1.291000219368822477e-01
1.593235901501750262e-01
3.345961953144803436e-02
-1.954271875762148003e-01
-2.669730405605666990e-01
4.256084805200695959e-02
5.147446671569311238e-01
6.076519396997401845e-01
1.770563168982590974e-01
-2.746438638096033169e-01
-2.772844451636255481e-01
6.646088552710122110e-02
3.621327368469540176e-01
3.969804603855380809e-01
2.296933893457970832e-01
2.797350211688070729e-02
-8.838928614844773768e-02
-1.062870851291027319e-01
-7.630669266394038419e-02
-3.821443883581484430e-02
1.416200658784888891e-03
3.988396994529427170e-02
5.327148369055933336e-02
1.026773106802582672e-02
-8.829882769781070839e-02
-1.951946235765839588e-01
-2.520022209734833485e-01
-2.352061029093712174e-01
-1.673039524134454226e-01
-8.645653690771876176e-02
-1.391662143952653377e-02
3.961499741723160245e-02
5.571631999612491892e-02
2.380624611022695569e-02
-3.287884469280668437e-02
-6.667117899393472380e-02
-4.721675000256893295e-02
7.887531399448720337e-03
5.234133692816451272e-02
6.190439126233370642e-02
5.257684118557810066e-02
4.801524177673610616e-02
4.845075029563176983e-02
3.808926574054612157e-02
8.167706834834250612e-03
-3.639567339878198998e-02
-8.655799151581342055e-02
-1.340678468317250127e-01
-1.585319601844440707e-01
-1.242834672923584238e-01
-2.282824716117923952e-02
9.158958032753446166e-02
1.476121686411137612e-01
1.243634888768403723e-01
4.729017087762729665e-02
-5.147101624265919967e-02
-1.424188401450907915e-01
-1.960834004702405875e-01
-1.927351338365842770e-01
-1.318077657358646682e-01
-4.479814968787725754e-02
-8.148003253025852891e-03
-8.229982996495949221e-02
-1.583213766516178567e-01
3.224553768196310871e-02
5.269591848949541912e-01
8.622336284967946352e-01
5.832372193558155171e-01
-7.350310803098306089e-02
-4.537518884276462994e-01
-3.064145079898829005e-01
7.285903792425112158e-02
3.378603285286603253e-01
3.885270128624728758e-01
2.859913302788945066e-01
1.160523813414424260e-01
-5.460346546685286573e-02
-1.836548973033150234e-01
-2.523010145863441855e-01
-2.565735155372824150e-01
-2.047137446158663887e-01
-1.262370519507706734e-01
-6.701807974056525619e-02
-5.711100359382125652e-02
-8.930431540338590324e-02
-1.400307046374329456e-01
-1.936448418691478768e-01
-2.309534563801466656e-01
-2.218501197022417770e-01
-1.569515811400201133e-01
-6.716043645012631513e-02
9.092439080480765184e-03
6.111988419523365496e-02
9.662282626458990054e-02
1.159800923908950315e-01
1.087978126740274110e-01
6.645173897533858398e-02
-6.911284324594191980e-03
-8.956673089340809468e-02
-1.498311523029243197e-01
-1.603765914597776177e-01
-1.063970653422403739e-01
-2.187961357839923043e-03
9.069733565700383027e-02
9.935284862066162681e-02
1.467862938582115140e-02
-9.931112221844767829e-02
-1.798797269697791357e-01
-2.158461856365956888e-01
-2.197869149822758161e-01
-1.902111243258518269e-01
-1.214732050769777444e-01
-3.052115103765443149e-02
4.274389200070250611e-02
5.848236987737417958e-02
2.814764318611304855e-03
-9.842825191950686781e-02
-1.885721705685834693e-01
-2.203408485136808814e-01
-2.109933012309049283e-01
-2.293755545451786892e-01
-2.564799141274918259e-01
-9.014593775047337332e-02
4.100262735081704468e-01
9.233676775371519874e-01
8.652189626558951518e-01
1.823281664635376664e-01
-4.710021907211021652e-01
-5.593395015199503773e-01
-2.231756879863073251e-01
1.118119895819101872e-01
2.574302830008700083e-01
2.765557262248640180e-01
2.540473328198966652e-01
2.025407095852992945e-01
1.120721692808438197e-01
-3.011438196508365098e-03
-1.100416529205879429e-01
-1.821096117740515496e-01
-2.093629556908084000e-01
-1.903185022453994513e-01
-1.241303436823178868e-01
-2.494651547766528477e-02
6.790796386480783819e-02
1.138069644989272017e-01
9.880415291828344160e-02
3.411741008702921102e-02
-5.455287288080815089e-02
-1.301761296459068296e-01
-1.588716603146414774e-01
-1.331267441751501635e-01
-6.989167615674822531e-02
1.778430207245280253e-02
1.310894924428494535e-01
2.568229501935246906e-01
3.424902128748782415e-01
3.258992420191550998e-01
1.974488723520561317e-01
1.731736258346375235e-02
-1.311653113866937670e-01
-1.899681574289749930e-01
-1.435008829704307876e-01
-2.156786268382070160e-02
1.120020431172280839e-01
1.928905913898436297e-01
1.904258203150703543e-01
1.142991451871299274e-01
-2.147304264447500409e-03
-1.144047545576472036e-01
-1.739235206760347263e-01
-1.529005109377276628e-01
-6.910994737940712174e-02
2.979652450023550364e-02
1.041413999828666032e-01
1.359259935330912605e-01
1.245216375744092885e-01
8.726370094337435046e-02
4.726995889278127333e-02
-4.606779969111864624e-03
-1.182095651380115631e-01
-2.844308506119830882e-01
-3.035554104126653163e-01
9.112531882909535863e-02
8.014583208741408171e-01
1.234639127307996853e+00
9.337813624113082689e-01
1.854910114258553622e-01
-3.405979046003834165e-01
-3.653983276782248879e-01
-1.240996096026975859e-01
6.436236878974788134e-02
8.829689259882775310e-02
1.650225438244892068e-02
-2.887749948185803009e-02
2.895319604529137530e-02
1.549452490903359403e-01
2.180014899048026977e-01
1.262737489273941249e-01
-6.938315085757111589e-02
-2.471384098457967138e-01
-3.375997954733426787e-01
-3.375177858199845948e-01
-2.654056547843615110e-01
-1.603079739454091879e-01
-8.945413664629604800e-02
-9.278773615047919421e-02
-1.282870362329640579e-01
-1.301964441662064875e-01
-1.045730818999988376e-01
-1.063619811489133204e-01
-1.464927647501477748e-01
-1.731275964137893586e-01
-1.270964913742307911e-01
2.882518913302800287e-03
1.605600837974854866e-01
2.554201406115057527e-01
2.325263454721967771e-01
1.148923052469497663e-01
-2.106306875922125607e-02
-1.088244031619101382e-01
-1.372048396484005228e-01
-1.379079299933794467e-01
-1.291817336615954659e-01
-9.107590494565112604e-02
-1.087273776128200135e-02
7.558880766802923701e-02
1.143126386202397982e-01
8.484803197564129429e-02
5.407984428386379550e-03
-9.213450999216651893e-02
-1.760638129409111685e-01
-2.178993318329743578e-01
-2.007883927803830459e-01
-1.305155864041264435e-01
-3.445459870240312472e-02
5.715551066096952876e-02
1.216043545094597084e-01
1.196438148747285685e-01
-5.897101664773118576e-03
-2.250464650665254251e-01
-3.109079012243988749e-01
-1.274513925523350182e-02
5.072382615960273622e-01
6.520950000339361674e-01
1.426134304402889297e-01
-4.914247971559853045e-01
-5.873349023859847362e-01
-1.758793822088206005e-01
2.342695539170706887e-01
3.350881965094757442e-01
1.945338420207899377e-01
1.047938029359288953e-02
-9.467936936731428943e-02
-1.069097485740174436e-01
-6.530267302466799539e-02
-1.156705144982462033e-02
2.381622731672815990e-02
2.029868269196098349e-02
-2.761404382916783293e-02
-1.036303314072467702e-01
-1.756077636369055006e-01
-2.167003915402841152e-01
-2.207312607638120261e-01
-1.917632355628665908e-01
-1.293566346280970170e-01
-3.855663457871035676e-02
5.450331849309043158e-02
1.127106519555990533e-01
1.118870566417689977e-01
5.271037481455687068e-02
-3.438064513961968521e-02
-9.101561171540288597e-02
-6.516709574000213723e-02
3.938440968964246336e-02
1.598966721802454471e-01
2.274520942934787349e-01
2.216273662323888227e-01
1.783861832752084986e-01
1.469972056524685433e-01
1.348975239684246652e-01
9.775736879523577727e-02
5.637212749495142117e-04
-1.130599408988394589e-01
-1.450987212760403156e-01
-5.038830224822472142e-02
1.059086914935127854e-01
2.146684954269940659e-01
2.253158845460022652e-01
1.650358715399386222e-01
8.264910160499103209e-02
5.741156544043422155e-03
-5.728362861379276277e-02
-1.046450348039844325e-01
-1.348935853605638946e-01
-1.335173334815761281e-01
-7.058405011706013477e-02
5.274330961077453028e-02
1.464457283670223819e-01
8.107185346909838441e-02
-1.219348629207747947e-01
-1.827660229754126398e-01
1.557837960452813086e-01
6.721938747636434508e-01
7.927902096901628948e-01
3.451111526053294298e-01
-1.742680315265391078e-01
-2.649636215652717564e-01
1.898494226358277137e-02
3.059503748135995460e-01
3.689136285573595964e-01
2.339918392553207438e-01
3.543112653776625542e-02
-1.162574031902339489e-01
-1.785422010887274535e-01
-1.650739969786517991e-01
-1.126221661648349609e-01
-5.462498511533117607e-02
-1.348097166106728903e-02
-4.518657418808094683e-04
-1.605588618607570878e-02
-5.643544294813863937e-02
-1.192026657454641897e-01
-1.956431070388692794e-01
-2.577593151806697458e-01
-2.662741773937948309e-01
-2.028236949591990801e-01
-9.243699305771242714e-02
7.165759870356124689e-03
4.042363015697704454e-02
-2.211485254896353170e-04
-5.323781913599889837e-02
-4.306729278649479992e-02
3.033011398922864921e-02
8.594077977614379693e-02
5.552640852319151721e-02
-3.704652838273993221e-02
-9.837192739156028209e-02
-6.060632409799283915e-02
5.086071698172275890e-02
1.386224723991776320e-01
1.172385125054848376e-01
-1.009216029186075711e-02
-1.534113662163130443e-01
-2.242055231841629803e-01
-2.090479055161656163e-01
-1.473563531145873906e-01
-7.072993858720333371e-02
8.248257179427131297e-03
6.927862618026414676e-02
8.314653474187819193e-02
4.138274496699517746e-02
-3.404675503757282479e-02
-1.129247879508342572e-01
-1.692374711612558702e-01
-1.771447351395882275e-01
-1.343315083891538086e-01
-1.002062989112248587e-01
-1.430753945538338623e-01
-1.801517617555033479e-01
3.169867774484340373e-02
5.309247523724046625e-01
8.574256842050976823e-01
5.251012456853212385e-01
-2.299751449270411308e-01
-6.642276012481788117e-01
-4.629539652406507444e-01
9.871511804763366538e-03
3.132536414474148545e-01
3.596710345154620625e-01
2.821460992428963532e-01
1.765270822488853031e-01
5.247417824948171633e-02
-8.696061268930835308e-02
-2.162442163213188495e-01
-3.142005452369329155e-01
-3.596922426100891412e-01
-3.209221090702561452e-01
-1.983067680480807560e-01
-5.616242580056785005e-02
2.437341089946644043e-02
1.326132927687936024e-02
-5.693585009426573723e-02
-1.342615270197077271e-01
-1.896849348172590100e-01
-2.189290901539221734e-01
-2.227198302888692139e-01
-2.001541636966964743e-01
-1.542317459310978134e-01
-9.129925726827992083e-02
-1.337930684904089541e-02
7.749882630232399205e-02
1.554705126247702407e-01
1.689450471543702537e-01
9.394096476209015667e-02
-2.734944175339008160e-02
-1.282601884888343868e-01
-1.684639604157492920e-01
-1.369188113860493605e-01
-5.397926464098605492e-02
2.523162199268751127e-02
4.806004165024738151e-02
9.460278838188859382e-03
-5.489365064235757208e-02
-1.119688039645162503e-01
-1.488858112700568170e-01
-1.575105143495937887e-01
-1.289686456136694415e-01
-6.328134329486807819e-02
2.679591021856888786e-02
1.140663797845951621e-01
1.616428994876342451e-01
1.502075698410681726e-01
9.978236980404771306e-02
4.431479145242031570e-02
-1.973351251070608325e-02
-1.366146908211934852e-01
-2.889186820028746272e-01
-2.698144766400328853e-01
1.940771510339264483e-01
9.965195435463574114e-01
1.495028960356151737e+00
1.173116839234881637e+00
3.321973130125480123e-01
-2.716634634462676834e-01
-3.091194757102406765e-01
-4.536781399206521459e-02
1.598980648629821921e-01
1.963420018625009478e-01
1.447237128737601242e-01
9.823026323100286783e-02
8.037708562582616956e-02
6.377014897596817999e-02
1.383167664231659336e-02
-7.982497081607581313e-02
-1.932046332082177353e-01
-2.878245895125584042e-01
-3.355162031316943350e-01
-3.204827017771342268e-01
-2.413096618094688339e-01
-1.252046285512629920e-01
-2.241806340124317953e-02
2.389660197899164812e-02
9.171239457658308253e-04
-6.917155367598797067e-02
-1.440713517687735035e-01
-1.943628310177293872e-01
-2.174548130919042865e-01
-2.077082794567827462e-01
-1.354245862751797536e-01
1.399969066290605510e-02
1.892789170996873327e-01
2.934721057634505637e-01
2.645434623317573508e-01
1.235996071537646956e-01
-5.167796843633630510e-02
-1.781202152773107839e-01
-2.018825724415105882e-01
-1.268498623795264180e-01
-1.929032143854569545e-02
4.672335042239907088e-02
5.696366568771765032e-02
4.896334870189853611e-02
4.285019712036298306e-02
1.662636484157315603e-02
-4.542247773107387782e-02
-1.150861925359102644e-01
-1.464214859873533836e-01
-1.213356263686565795e-01
-5.775328506361922243e-02
1.512276080751310051e-02
7.582720775635405641e-02
1.129691986116855978e-01
1.222137402052794614e-01
9.010141893431002080e-02
-2.231438820402004836e-02
-2.203339051454898112e-01
-3.494979425210327229e-01
-1.449267441902980791e-01
3.996974570095906953e-01
8.193348837293152886e-01
6.661563500062602783e-01
1.284274086278635318e-01
-2.148319749515741339e-01
-1.357752306708432666e-01
1.020155509357825452e-01
2.021703235862680470e-01
1.321349044007728291e-01
2.233248400262676653e-02
-3.297502049288345005e-02
-3.230605644557453526e-02
-6.668179434432782923e-03
2.250011621593498573e-02
3.248185020182280114e-02
-4.953160798023795337e-03
-9.785582014010957286e-02
-2.140573539361319000e-01
-2.983401883765844365e-01
-3.145644142630708573e-01
-2.681244535091096282e-01
-1.866800238481024499e-01
-9.300767165987106067e-02
-3.207599746799214696e-03
6.399668476504698222e-02
8.528397517635394331e-02
4.405097012557163821e-02
-4.448319640300189837e-02
-1.280585778069014691e-01
-1.557765830576308130e-01
-1.161451441036263216e-01
-2.963439580254304678e-02
8.358703078006454734e-02
2.088264721035331672e-01
3.058331903123985285e-01
3.099397616877597739e-01
2.040106050336429611e-01
5.695551385095731778e-02
-4.808223974376809456e-02
-8.563009690958085784e-02
-7.086434379671750772e-02
-2.132441607359681496e-02
4.755135117596164668e-02
1.158168219442054087e-01
1.600014933700482089e-01
1.619649976285652826e-01
1.201326240938456191e-01
4.979536051461904561e-02
-3.102985938817282366e-02
-1.097669909771562952e-01
-1.678340428255466477e-01
-1.745984549696496524e-01
-1.073934201693764467e-01
2.315937130141726766e-02
1.587361228226281673e-01
1.964996624944189696e-01
5.827073815760433484e-02
-1.655605025436481248e-01
-1.899989915751856828e-01
1.565798236946519539e-01
5.839352171266473102e-01
5.903579717660079051e-01
1.346309473288166969e-01
-2.840430881921310324e-01
-2.779146846340813104e-01
3.776028222610045004e-02
3.193557840214731880e-01
3.716040755020407205e-01
2.288635541338395196e-01
3.783025818879388186e-02
-8.843936417296727193e-02
-1.434747408831254512e-01
-1.799263306982722410e-01
-2.083400396685181899e-01
-1.819839254174213106e-01
-9.231972131427787498e-02
-1.866311580331461023e-02
-3.768166829420835362e-02
-1.303741070987197714e-01
-2.181853389507103502e-01
-2.509254508737926992e-01
-2.301714204775296702e-01
-1.741399561227361392e-01
-8.622927980744521381e-02
2.752441866771627652e-02
1.045449049508621331e-01
4.665224726453263276e-02
-1.375188385494045540e-01
-2.797635966391054385e-01
-2.425889839594762287e-01
-8.676388197414791614e-02
3.396028065327114098e-02
5.302037773918252123e-02
1.376920955162359676e-02
-7.808203704275632276e-03
2.655838039456235450e-02
9.005774581073301699e-02
1.220236721056672802e-01
8.510552063999246575e-02
-5.866429727649592751e-03
-9.858742207803120050e-02
-1.437396390130810109e-01
-1.277188735048817303e-01
-6.861947439557951334e-02
1.209741218873848848e-02
9.636818327326672484e-02
1.479666197622810930e-01
1.196749838726228060e-01
9.365801904333153488e-03
-1.193461503105417709e-01
-2.034611145293482304e-01
-2.317443293977880792e-01
-2.069830203692515358e-01
-1.250478018122247736e-01
-3.021275197258183054e-02
-1.199975500393112883e-02
-6.902094120901432206e-02
-3.678942069675569110e-02
1.943828226784745650e-01
4.046710823862318396e-01
2.518121240704676023e-01
-2.031455149637659829e-01
-5.059353869553879779e-01
-3.882642766023830516e-01
-2.181316935305455118e-02
2.896396702708753379e-01
4.036287292896157397e-01
3.424837043631425715e-01
1.867538953495852527e-01
1.161183880067042859e-02
-1.269241822993363300e-01
-1.981515608687328400e-01
-2.057426790425394836e-01
-1.750866599827630155e-01
-1.256692061913123326e-01
-6.177848750354419938e-02
1.160096027419395791e-02
6.749490588876823349e-02
6.566435961275335353e-02
1.092936113494050177e-04
-8.082670188928794963e-02
-1.266929657101380502e-01
-1.331951290217368300e-01
-1.172122928009088766e-01
-8.020004324307541954e-02
-2.153103997200801062e-02
4.547305155796314835e-02
1.097305971864560303e-01
1.653337325063138630e-01
1.889801329995675905e-01
1.471701365858323340e-01
4.259681674364396153e-02
-6.953004325064933433e-02
-1.284057634262310843e-01
-1.148628028514350058e-01
-4.619066948332858913e-02
4.641920617597550258e-02
1.227502373614358655e-01
1.435375612447454541e-01
9.589398957077660546e-02
3.596091446246271750e-03
-9.246633111479003742e-02
-1.590089835917391503e-01
-1.773476754267826749e-01
-1.414301579401931741e-01
-6.121973125261869625e-02
3.610532469152422097e-02
1.193276801058455322e-01
1.676721154225218890e-01
1.639826363521001973e-01
9.476709231572832959e-02
-1.221168996290620222e-02
-9.180851014538853050e-02
-1.325056458243903945e-01
-1.960747084751949809e-01
-2.597827015836724485e-01
-1.236465020036122964e-01
3.260724854475251511e-01
7.840018955890034613e-01
7.656902128298858079e-01
2.414899177779390727e-01
-2.965497227555004001e-01
-4.421138735292422517e-01
-2.427118051593328829e-01
2.506621395911706740e-02
1.789576746912093508e-01
2.095883554330758014e-01
1.882587798742146046e-01
1.582955134185817514e-01
1.021949630110491752e-01
-5.966079402134751714e-03
-1.407839126651752315e-01
-2.384919462275944535e-01
-2.606884458525985937e-01
-2.212982924072022517e-01
-1.519457557898155065e-01
-6.605783938155151969e-02
3.019517497168993508e-02
1.090264221602568889e-01
1.289974297053826102e-01
7.639847634315778679e-02
-1.553611269216117162e-02
-9.611277896124449660e-02
-1.354211600049634590e-01
-1.258950869544686046e-01
-6.129930114776010325e-02
6.120104767374672655e-02
2.110519634005881273e-01
3.186825692324530834e-01
3.266530954741481141e-01
2.401492867775620321e-01
1.092816852657296223e-01
-1.975050058192586583e-02
-1.143115875919836211e-01
-1.452752924262504242e-01
-1.017747967456254093e-01
-5.385694092869808963e-03
1.055103592765847392e-01
1.963664657944920455e-01
2.408387796835301242e-01
2.215540612708170876e-01
1.385521272986784125e-01
1.887386718791979681e-02
-8.800124837944332812e-02
-1.363151773234007325e-01
-1.117182787042193398e-01
-3.270908162625804638e-02
6.670064217132175288e-02
1.479813764735809223e-01
1.778165566314064971e-01
1.468257783921298743e-01
6.512975540435456123e-02
-7.061821456833540511e-02
-2.428288587206151317e-01
-3.011466664636424095e-01
-3.486056442140112593e-02
4.660665107880544444e-01
7.171775377256374151e-01
4.189417392909183246e-01
-8.573730294100408156e-02
-2.735585398871012153e-01
-9.490319168097111069e-02
1.267961864675135053e-01
1.758259480669081554e-01
8.642786699094404113e-02
-2.132099460311320804e-02
-7.656828033513704557e-02
-7.235529256947369203e-02
-3.427189443299007154e-02
2.264360813919156015e-03
5.037408813815074521e-03
-4.256481216133011641e-02
-1.307980890954167086e-01
-2.215244168290771698e-01
-2.715689675906308720e-01
-2.695611125184231849e-01
-2.335440206134535290e-01
-1.741157360435435231e-01
-9.273845537593253252e-02
-9.757579561052784692e-03
4.205587786042234988e-02
4.343924929199205476e-02
-9.589568399133779550e-03
-1.022622027603113104e-01
-1.803879923951861031e-01
-1.677209104244268001e-01
-4.218182870485731595e-02
1.175822928504718784e-01
2.000802402382594047e-01
1.765420521329268411e-01
1.139599384752663369e-01
7.292108052218528036e-02
3.792437210550320126e-02
-3.538211323914331602e-02
-1.391832619427984252e-01
-2.092737962795742646e-01
-1.936666807058544382e-01
-1.027012370889233001e-01
6.665332713676216589e-03
7.720412737235977929e-02
8.608984678317861683e-02
4.905335566305940587e-02
-7.472003997715928603e-03
-7.385455987473893424e-02
-1.499176653960263561e-01
-2.212992342231080711e-01
-2.569132829804169904e-01
-2.264991761485681265e-01
-1.249128567806230272e-01
2.089883245182750683e-03
5.692036210297235499e-02
-4.265471680117444153e-02
-2.280454281775170233e-01
-2.316881290198029020e-01
1.407799880500737177e-01
6.222752519385414960e-01
6.648947599073110615e-01
1.710851450436790822e-01
-3.130049999582114051e-01
-3.087685432535672292e-01
6.034381173497201795e-02
3.706801476261815109e-01
4.037396174608996469e-01
2.366282052924105761e-01
3.763979399454932956e-02
-1.026755070239794843e-01
-1.832184058792379333e-01
-2.198221034089831161e-01
-2.096391093612725021e-01
-1.555720623089241195e-01
-8.613870498668670106e-02
-4.197903720656935567e-02
-5.191315663337010139e-02
-1.174726692815040163e-01
-2.161253823390101581e-01
-3.168233992017334133e-01
-3.833725779792063193e-01
-3.766400429460121657e-01
-2.871907512024101661e-01
-1.613459847201199338e-01
-6.572107725474263251e-02
-3.124678478607802873e-02
-4.242218963413595806e-02
-6.219984462690392180e-02
-6.239825172930488911e-02
-4.777940518160785771e-02
-4.873559457988470289e-02
-7.596165161305820646e-02
-9.217081547403931097e-02
-5.084127298383860072e-02
4.187479671629760342e-02
1.265514273900674724e-01
1.515850778759300910e-01
1.177108797137481483e-01
6.148864469274903377e-02
1.296607393028062841e-02
-1.830027205605484070e-02
-2.657764913637723075e-02
-1.052929320942872296e-03
5.960367807517872457e-02
1.332905527139615076e-01
1.847405591372504041e-01
1.872912072372577841e-01
1.304364417249073704e-01
2.285400633262212738e-02
-9.299114192481847119e-02
-1.490868054195196579e-01
-1.127130136488062179e-01
-4.080840400398277196e-02
-3.351614430879586159e-02
-8.531199957947660506e-02
4.467468456084401629e-03
4.244333262187877653e-01
9.538983598950743215e-01
1.027768135959746365e+00
4.519693751336034127e-01
-2.485493547791047808e-01
-4.753101791550342070e-01
-2.162731768647962460e-01
1.399093926487886552e-01
3.159447352301432144e-01
3.030149884761830781e-01
2.155726987201147804e-01
1.349134651947080099e-01
6.094059269731120360e-02
-3.546526463465925899e-02
-1.438962151623134345e-01
-2.181850441714194289e-01
-2.303385426006015479e-01
-1.895716731550682321e-01
-1.175968886139810848e-01
-3.579336905025809479e-02
2.324579157455143597e-02
1.897225440089483905e-02
-6.101399732996281439e-02
-1.733443860103755785e-01
-2.498886613652894217e-01
-2.571593110903349078e-01
-2.099297475983811778e-01
-1.403309055326160681e-01
-7.241902777089699594e-02
-1.087203225417612655e-02
5.843410254239558843e-02
1.408140644931393237e-01
1.999599599860170662e-01
1.756010382382037216e-01
5.358681579531951455e-02
-9.513907198024301737e-02
-1.708922263736295244e-01
-1.370127932335157006e-01
-4.305202836374982800e-02
3.155262059621821713e-02
5.014282364478243187e-02
4.836374719656699045e-02
8.422986673126950374e-02
1.438902864092575229e-01
1.364089870999613818e-01
2.358208480041121963e-02
-1.011037544866734833e-01
-1.238842702045643285e-01
-5.472191579937939893e-02
-3.089875013602229326e-03
-2.748420316552816628e-02
-6.709479338149557104e-02
-5.146199211302893151e-02
-8.447894169512524740e-03
-4.053643896978187909e-03
-5.727987702410870102e-02
-1.664802811121519621e-01
-3.000886734332753325e-01
-2.854676008875872140e-01
1.167369793136839723e-01
8.167929808280309789e-01
1.241024637244907636e+00
9.224463338601951445e-01
1.288344350351955936e-01
-4.523925817286240658e-01
-5.017142560809065843e-01
-2.326544789801390789e-01
3.194937426421319560e-02
1.557704474166791697e-01
1.624433046942791448e-01
1.237530124685187610e-01
9.212100262160492770e-02
7.284787864335812158e-02
3.467251963518471619e-02
-4.995436864827466905e-02
-1.706130714119093172e-01
-2.799989480726030600e-01
-3.271757658509560351e-01
-2.922268141051536650e-01
-1.966473746823666491e-01
-9.038618538701843896e-02
-2.639919530745778176e-02
-3.004241412632464858e-02
-8.036415072009724103e-02
-1.290625837804392495e-01
-1.483013652694656626e-01
-1.507504746270202645e-01
-1.574876593289510074e-01
-1.583760813545869173e-01
-1.055225411378855477e-01
4.529366274536086173e-02
2.591083672524273629e-01
4.043572188510375365e-01
3.629823545621706504e-01
1.585146096242790181e-01
-5.694043157266420740e-02
-1.396188948226198545e-01
-7.330985824560357078e-02
3.517134649124671608e-02
8.328312409306497244e-02
7.861723539063271426e-02
8.814458267400263058e-02
1.224675033669941487e-01
1.258426312460704244e-01
5.841985102687090314e-02
-5.481945931619769397e-02
-1.519430997385421145e-01
-1.865835654966415680e-01
-1.529634841129905443e-01
-7.925143943876240826e-02
-5.114797074805202751e-03
4.607823086611293611e-02
8.236115355008902239e-02
1.197817544019009889e-01
1.301918643022581534e-01
3.522223453860080095e-02
-1.832243516000833239e-01
-3.396414504253599809e-01
-1.349982155229645098e-01
4.314570510981304285e-01
8.581103320040556204e-01
6.819879991464663505e-01
1.238882506578076609e-01
-2.022433759563851963e-01
-8.480253425278587442e-02
1.648892282803050002e-01
2.326115566866972795e-01
1.123757699835304796e-01
-3.205696990829461079e-02
-9.313091552095573156e-02
-7.525390695811946806e-02
-2.604472160644591763e-02
2.033618854348195198e-02
4.297334471866313260e-02
2.161830661691633085e-02
-5.188148756538032980e-02
-1.570104110744551251e-01
-2.549542561763277204e-01
-3.143591606781901415e-01
-3.152785400644472769e-01
-2.455461307998206277e-01
-1.257861253558693604e-01
-1.847928587839926112e-02
2.422492597450759400e-02
6.248662683201328290e-03
-3.723182582519933559e-02
-8.713100153114522461e-02
-1.384437861692832950e-01
-1.620764743413876663e-01
-1.068075966380195724e-01
4.046748730794028776e-02
2.135041925641623928e-01
3.090371776120416913e-01
2.759625103408180347e-01
1.524876982205769782e-01
1.647050676461657773e-02
-7.920312134498497247e-02
-1.251808725405375855e-01
-1.392809563160393727e-01
-1.390919276638433177e-01
-1.239100547953023573e-01
-8.245794725240113143e-02
-1.421148130906481691e-02
5.758599707948295482e-02
9.234640713185564287e-02
6.001796757351544886e-02
-2.872097619214256103e-02
-1.241111628000432787e-01
-1.799562755690333749e-01
-1.921431918600527977e-01
-1.809842356086668047e-01
-1.466529848798988900e-01
-7.086530521636882907e-02
3.188199580242082748e-02
7.534791626454473423e-02
-4.604415173289252983e-02
-2.820704518493610813e-01
-3.251640691496653357e-01
9.529631506155306075e-02
7.288713346989501574e-01
9.339712519489098419e-01
4.860874818617327286e-01
-1.051955014768328756e-01
-2.765530934586223344e-01
-2.753202339861141740e-02
2.759451150796257135e-01
3.717108144792444224e-01
2.500074771210301638e-01
3.451583281397133107e-02
-1.515777623177070599e-01
-2.301135761643930966e-01
-1.731576790895562601e-01
-3.038549249723808063e-02
8.255900406909377764e-02
8.293400851858269418e-02
-1.341252612514075640e-02
-1.430790182251099052e-01
-2.594938936756158165e-01
-3.379488642867879422e-01
-3.674958603432522120e-01
-3.481066031968639285e-01
-2.820891362092854404e-01
-1.784177569402857766e-01
-6.691839133484776825e-02
1.004118602930784664e-02
2.757533100594435072e-02
-2.301172358331588993e-03
-4.210836543706156232e-02
-6.129570938906431926e-02
-5.788274646945362756e-02
-4.971042712391089691e-02
-4.674152211823926623e-02
-3.355041985697663348e-02
1.375835588266951723e-02
8.842478975484580062e-02
1.383890254856353086e-01
1.042851136473108009e-01
-1.966994611498163251e-02
-1.691895209208077455e-01
-2.638214109830444576e-01
-2.720605508582724097e-01
-2.192325909356257208e-01
-1.459437167101094446e-01
-7.524779676137847984e-02
-1.624167684012678761e-02
2.098148178693107213e-02
2.252388206560669570e-02
-2.480199715492487772e-02
-1.195737006434691441e-01
-2.234734795574659927e-01
-2.683641562199094444e-01
-2.099308272537021292e-01
-8.145236027690513914e-02
4.899854020588907677e-03
-4.441131510043411917e-02
-1.254869935509497214e-01
5.956799935469015567e-02
5.837171482070070416e-01
9.598903518328466555e-01
6.491927524780559677e-01
-1.270429889547231017e-01
-5.941677979313629843e-01
-4.002827674110112088e-01
9.843967893602598163e-02
4.327848613579717840e-01
4.830023923813033249e-01
3.865812421880704397e-01
2.710994138948523702e-01
1.575068068009017330e-01
2.959348898114443766e-02
-9.505440468364839690e-02
-1.742477437160984688e-01
-1.814823310899317532e-01
-1.212682543364543980e-01
-2.482706876551621714e-02
5.859733350286652070e-02
8.371707831489702545e-02
3.942108315061298995e-02
-4.472333842094316364e-02
-1.256979034501835568e-01
-1.739725345438210835e-01
-1.747191855069513966e-01
-1.241029405642454786e-01
-3.909502923116271039e-02
4.237787251102069497e-02
9.175426998603095075e-02
1.205754464917314500e-01
1.585270735820526744e-01
1.936207098056981768e-01
1.698608106298741816e-01
6.756729393185123556e-02
-5.008578798654014785e-02
-1.002235003703574323e-01
-6.153535356658649397e-02
2.740454601113948702e-02
1.170585297691073834e-01
1.702063269877263085e-01
1.636774157558456566e-01
9.814143683348533487e-02
3.887009596544753996e-03
-7.957610935687119136e-02
-1.284848224805223704e-01
-1.309421204540943129e-01
-7.677827772498374559e-02
2.454252342484313648e-02
1.262199074900194340e-01
1.689932024451344383e-01
1.318256788003264734e-01
5.036628168155447144e-02
-2.016105774520769375e-02
-5.254722242482138400e-02
-5.964337496031154456e-02
-8.051689729542928220e-02
-1.434184008503729402e-01
-1.780119712882504701e-01
1.643967126036089549e-02
5.322495293161988439e-01
1.037654169097414814e+00
1.000585798360486445e+00
3.661538058489837710e-01
-3.116449667629948017e-01
-5.298955918790512198e-01
-3.139402793445364437e-01
5.903016264929297763e-03
1.963813482370221075e-01
2.337726786028114234e-01
1.922030782933237536e-01
1.227604038287083421e-01
2.843679124311417061e-02
-9.051899605323292242e-02
-2.073858312857368436e-01
-2.866099276433729526e-01
-3.071927315104432399e-01
-2.699871624233113887e-01
-1.990246498992954693e-01
-1.280762969796654105e-01
-7.516500182526016094e-02
-4.306871384691152160e-02
-4.363080618743612332e-02
-9.189167428940661630e-02
-1.709221715190156476e-01
-2.315372965950408257e-01
-2.362618439397694836e-01
-1.883620052077267792e-01
-1.155426610294028461e-01
-3.262418182090633112e-02
7.259047591056394522e-02
2.002278622802477759e-01
2.873297803209227674e-01
2.404845281250923561e-01
4.908053300949552500e-02
-1.709783436822440161e-01
-2.814367265379085770e-01
-2.414356151450330890e-01
-1.111554672112095021e-01
2.162420169658863661e-02
1.037984578749737291e-01
1.319181589052015047e-01
1.220045936995155095e-01
7.885862001133524257e-02
6.515164733445023837e-03
-7.049407595483037081e-02
-1.196919063617750689e-01
-1.247532864418594289e-01
-8.516791356145163305e-02
-1.006348203154915424e-02
7.222501402321820918e-02
1.201210657793609915e-01
1.157803157515408521e-01
7.723394043406517362e-02
1.683943792314899351e-02
-9.073255750708238143e-02
-2.646213369039988605e-01
-4.144522381200538286e-01
-3.225993202608956611e-01
1.128165068630462287e-01
5.860427438181461390e-01
6.153102962831911160e-01
1.754476743085587320e-01
-2.420438493279823133e-01
-2.834730871751675041e-01
-8.387241317647947669e-02
6.071634740244104961e-02
5.358980366160905756e-02
-3.783218175272278980e-03
5.723842722908661571e-03
8.878777694426581713e-02
1.615748138393184041e-01
1.588722984265469040e-01
8.848550843821127720e-02
-1.380829996623232116e-02
-1.282859498441875634e-01
-2.371438356909014722e-01
-3.078789429553148715e-01
-3.113926192906519286e-01
-2.438207082318381846e-01
-1.282136197166355573e-01
-6.595930815821292315e-03
7.363428250835470090e-02
8.538682776108467987e-02
3.982985543065302447e-02
-3.098930662589029217e-02
-1.032890001883201153e-01
-1.579684426631148830e-01
-1.618536952148088570e-01
-8.251556206851828890e-02
7.064261912220000383e-02
2.316693644107072902e-01
3.173757818471714121e-01
2.872289625217007147e-01
1.647338494282875043e-01
9.072482241655355217e-03
-1.225797178670388482e-01
-1.947836425009771832e-01
-1.988366845356757950e-01
-1.457350225741148586e-01
-5.506200907084463081e-02
4.076363663701734752e-02
9.429848375664619253e-02
8.025184021829698255e-02
3.058833153346297157e-02
-3.590868552340571382e-03
-1.711235793993617221e-02
-4.405597800838426115e-02
-9.404695086000172677e-02
-1.269794435713174907e-01
-1.003595956940996764e-01
-2.075434258690797909e-02
7.104236055699292285e-02
1.430163969343130059e-01
1.646809513149976312e-01
8.045655123046466239e-02
-1.287632994044208279e-01
-3.144340929906815352e-01
-1.998086343092893291e-01
2.687631002864182550e-01
6.892322985435681559e-01
6.196747268490923055e-01
1.684259262025230575e-01
-1.638003590718095648e-01
-1.308706018922378145e-01
8.475837837722462187e-02
2.195930182077534265e-01
1.880118682870368374e-01
5.956282635395264424e-02
-5.458363017346796325e-02
-8.134536300308892187e-02
-1.912292764497237202e-02
7.165763082058571043e-02
1.163753263739759070e-01
8.344129170100947346e-02
2.183258114219314115e-03
-7.548472963162376759e-02
-1.257888740630776769e-01
-1.585663874332721157e-01
-1.782200579849717581e-01
-1.637118611043777705e-01
-1.004934348597103927e-01
-9.088366591690768062e-03
7.557912286791478029e-02
1.313870481061350515e-01
1.440847315280420760e-01
1.037913704658353503e-01
2.995122002078200521e-02
-1.442810121427092959e-02
2.570119709265659969e-02
1.120310935629105081e-01
1.300065518792788977e-01
4.465474112634987280e-02
-2.596598301143072593e-02
2.334913768577756912e-02
1.247306239151265428e-01
1.392030424423241208e-01
4.129753936476245058e-02
-7.959080947447522147e-02
-1.414573351510795829e-01
-1.309169514093281861e-01
-7.300097909430838805e-02
1.025962784640141456e-02
1.035478296239166762e-01
1.802693397612081250e-01
2.019522333887495691e-01
1.490754186337395482e-01
4.691489650193576139e-02
-5.349484765694921540e-02
-1.155464719332594259e-01
-1.276054521154928179e-01
-8.594326972204320569e-02
7.023634726197266337e-03
1.144236809446432246e-01
1.505513289456940906e-01
4.737739200881820739e-02
-1.155009272526644759e-01
-1.078026027182967667e-01
1.659138303167982387e-01
4.057965358963601110e-01
2.319391424055299022e-01
-2.270532612815613915e-01
-4.435560291998266180e-01
-1.967138343215902863e-01
2.167125945047588265e-01
4.389464028733983669e-01
3.941743365060710880e-01
2.089539340079993313e-01
1.753205143763997276e-02
-1.189130883602509542e-01
-1.928663680030173189e-01
-2.073406873882702173e-01
-1.631245489999389175e-01
-7.893653160817240555e-02
1.572587783309759360e-03
3.645768901539439555e-02
1.125078617278202700e-02
-6.321158534860364664e-02
-1.648561016435968751e-01
-2.640881888899044849e-01
-3.233796541824663362e-01
-3.104544044808783543e-01
-2.225310493702683801e-01
-9.611847843516029000e-02
1.468767237604907613e-02
7.084284330258969198e-02
6.397095768320359976e-02
1.684196388954812759e-02
-3.049917983952040584e-02
-5.266760049335744015e-02
-5.602315395537065673e-02
-5.643353065386846196e-02
-5.420111329801721722e-02
-4.119381634285383675e-02
-1.759207686982007524e-02
1.527631043287067461e-02
6.351261306228911385e-02
1.102926698474218370e-01
9.685447259006982335e-02
-1.149335238520240998e-02
-1.568289163241069206e-01
-2.404619089639153384e-01
-2.243285366294082706e-01
-1.445121234842381974e-01
-5.218169210994547114e-02
2.174241043517183281e-02
5.351322237869202830e-02
1.881210917524495096e-02
-8.165951816251974804e-02
-2.063503047386564537e-01
-2.929800982467464232e-01
-2.935930507279977397e-01
-2.171387560211578971e-01
-1.547290437943739660e-01
-2.003562134916945514e-01
-2.661101404366993384e-01
-6.264198311374503947e-02
5.082500657614393846e-01
9.894937673654714549e-01
7.949180725308627737e-01
3.017827029591081678e-02
-5.741353555904002981e-01
-5.650797586007622053e-01
-1.607159418999708211e-01
2.058276917486115132e-01
3.377781954046028545e-01
2.807585822244395013e-01
1.449235315181083561e-01
-1.489973681676391021e-03
-1.384147655108882713e-01
-2.568839506442653353e-01
-3.379571360910603173e-01
-3.611607795530668019e-01
-3.184730049444147171e-01
-2.255440022348134399e-01
-1.226340764702244512e-01
-5.313004183182348794e-02
-4.122557139847231322e-02
-8.975752506161618904e-02
-1.824588573369134437e-01
-2.819007370732392048e-01
-3.417306356497056830e-01
-3.367651874965855163e-01
-2.781681010259735576e-01
-1.929872810250373716e-01
-9.854691517825113489e-02
-1.538003161614201648e-03
8.801481483272885487e-02
1.425492844750088084e-01
1.231557681346571592e-01
2.190734550752890600e-02
-1.095192409727202970e-01
-1.967525114663586094e-01
-1.984207950877009408e-01
-1.180598338527050623e-01
1.040710259090011844e-02
1.334567523507210751e-01
1.978807185748843733e-01
1.806683504735260015e-01
9.829269624289009577e-02
-9.418331180941361125e-03
-9.576607398702223495e-02
-1.222796714952690406e-01
-8.157648484063627359e-02
-3.802657437914785249e-03
7.209967686228169192e-02
1.267812232431232700e-01
1.540831531111232777e-01
1.480849886851433872e-01
1.140232612062709455e-01
6.972445498003401743e-02
8.750748438462283008e-03
-1.117752732864774473e-01
-2.704762574933085584e-01
-2.567584611945591955e-01
1.814580943302512295e-01
8.961000923551162289e-01
1.259233479861494365e+00
8.651483163021115308e-01
1.078600584875827467e-01
-3.133730123118420585e-01
-2.161297920283736240e-01
6.070730118374906281e-02
2.027952365083997566e-01
1.836572813430901452e-01
1.303410439696469914e-01
1.270854713187233587e-01
1.560319799639497684e-01
1.581711472343007852e-01
1.064171379222117186e-01
2.124322609026430692e-02
-5.984271257677926947e-02
-1.150084677952403767e-01
-1.404579733048448853e-01
-1.298366631842879926e-01
-7.117016300529459272e-02
2.846222999254122490e-02
1.298354706086916888e-01
1.837468523694214539e-01
1.646180577977433002e-01
8.604175356138821229e-02
-9.153692939628386982e-03
-7.812727729820111156e-02
-1.024573118987803094e-01
-7.748330374255942010e-02
1.231650218063891009e-02
1.725047578271874937e-01
3.465841305283420271e-01
4.238353190788767266e-01
3.327364342014170751e-01
1.224194044811380000e-01
-7.362068677525267224e-02
-1.598103518595004602e-01
-1.420166136474357299e-01
-7.630965186511047549e-02
1.031327125634869113e-03
8.203737814438383236e-02
1.584495192218678961e-01
2.067490325686354713e-01
1.988398252265517197e-01
1.243076178248434943e-01
8.130175193315745258e-03
-9.713984828777126601e-02
-1.495063057120942784e-01
-1.447826445500121628e-01
-9.946977766850137459e-02
-2.583144017720826607e-02
6.191075383725719306e-02
1.410510064594901747e-01
1.916499022438416522e-01
1.827571801726641243e-01
5.348930009357644177e-02
-2.034593480371535423e-01
-3.859383163620688229e-01
-1.519872612715684468e-01
5.284682266423601504e-01
1.096348134439880218e+00
9.586507908105739162e-01
2.666881262577492362e-01
-2.795119057432252641e-01
-3.080516923899769832e-01
-5.347484658406985447e-02
1.152639166204453280e-01
8.767626293884098199e-02
-2.912778102673186861e-02
-1.121816159085083364e-01
-1.236097163958651546e-01
-8.893462226789991543e-02
-4.538140825842679887e-02
-2.225132716660313190e-02
-4.109178088563626707e-02
-1.080827816989572004e-01
-2.038480695885408478e-01
-2.878160417154937978e-01
-3.213289477878938927e-01
-2.905585684890045206e-01
-2.038055179021563690e-01
-7.775967178074787156e-02
5.722541596675603803e-02
1.515823394876762709e-01
1.603715003968827768e-01
7.647100009077265059e-02
-5.899975251607408877e-02
-1.741805456365635718e-01
-2.049830505231031996e-01
-1.314653810172392856e-01
1.374093523662873670e-02
1.598664332045521552e-01
2.311126405905785108e-01
1.954491250301018113e-01
8.239829465519624141e-02
-5.208450468584202575e-02
-1.624815994508880534e-01
-2.251423517098699867e-01
-2.430817143504860334e-01
-2.363825721250068235e-01
-2.118582201995773406e-01
-1.555896042089426889e-01
-6.903900788245406761e-02
8.331925987106135120e-03
3.325136129220811199e-02
2.322763385800754449e-03
-5.485017840550561463e-02
-1.132727726200110502e-01
-1.648363583384659936e-01
-2.021339150428458353e-01
-2.092143014172252735e-01
-1.678136823797700128e-01
-7.225291203457478995e-02
4.109299497583374094e-02
7.980278283062702815e-02
-3.121157927322686446e-02
-2.042994722657791862e-01
-1.814694210825745224e-01
1.488755663778082439e-01
4.507574858456401268e-01
2.786904121145902247e-01
-2.541521520537733947e-01
-5.589989457976228815e-01
-3.507098326062647597e-01
7.315668400606323285e-02
3.205876053203468579e-01
3.064040559264586960e-01
1.617036084776951876e-01
7.763661272386264411e-03
-1.083400062087310906e-01
-1.721450321125117255e-01
-1.771159267273389182e-01
-1.292002476647401976e-01
-5.206541146606100817e-02
1.503709046151493686e-02
3.363536344435518605e-02
-9.038482796895144084e-03
-9.204969262847120803e-02
-1.752136074700160751e-01
-2.211707549665078432e-01
-2.142952362019598100e-01
-1.632609775309881162e-01
-8.604729312672677877e-02
-1.015782627407792182e-03
7.000657945104173108e-02
1.060693042407791775e-01
9.873127590109812002e-02
5.812195714599789620e-02
1.314573256819847290e-02
2.421422760252485429e-04
3.288088852137591167e-02
8.102724008315272120e-02
1.036412809577590133e-01
1.022541740099734420e-01
1.131488206009644698e-01
1.444361986209969917e-01
1.528591362371510554e-01
9.771225991054680038e-02
-2.880865497945604703e-04
-7.626335031255151997e-02
-9.168973136104653643e-02
-6.221796092704918318e-02
-1.779729181414875169e-02
3.219971686717520987e-02
8.605228525695576836e-02
1.284013105755913153e-01
1.373244917207229465e-01
1.021075802230358570e-01
2.691185881710131747e-02
-7.060461468806254748e-02
-1.515374956033848364e-01
-1.604354166979450880e-01
-7.314596855772738382e-02
4.417905273221687384e-02
5.805100954785834266e-02
-7.961669197349054150e-02
-1.750382894581945514e-01
7.584627278024794195e-02
6.274907766217304728e-01
9.263033736445289712e-01
5.488550456193502791e-01
-1.687371868851752499e-01
-5.289975130736366271e-01
-3.092898391656704327e-01
1.400918135225946992e-01
4.216647109737419741e-01
4.250930725095702911e-01
2.587476954206854862e-01
6.246319528443253916e-02
-9.089251580235348238e-02
-1.891266052649516749e-01
-2.413944336392685464e-01
-2.555641990157818122e-01
-2.287277946822894037e-01
-1.546976892168630824e-01
-5.337286122546697209e-02
2.011550695445703252e-02
1.381102967567600370e-02
-7.484648256779098674e-02
-1.878704048147250283e-01
-2.436559490994201771e-01
-2.118148438445911774e-01
-1.464517055826063396e-01
-1.089708200539377114e-01
-8.596744168506365025e-02
-3.230441048855032388e-02
4.590843153235834445e-02
1.039108999987658072e-01
1.165292787492076543e-01
7.877518002116144780e-02
-1.426409598228613532e-02
-1.388425490850996868e-01
-2.240690479166548010e-01
-2.084783760420537979e-01
-9.999647945299983132e-02
3.995823695548442883e-02
1.478286021262892047e-01
1.784784860723253597e-01
1.099393077443044098e-01
-3.270544035710008096e-02
-1.738024929360301174e-01
-2.432470534148199470e-01
-2.281019598798233183e-01
-1.542117708926377673e-01
-4.728519162574439105e-02
6.385107661206039509e-02
1.354861839598879292e-01
1.334145737254222586e-01
6.132896325893844036e-02
-4.400463187541595045e-02
-1.349473095453239402e-01
-1.813175908999681285e-01
-2.036163580321072308e-01
-2.528606141623600534e-01
-2.879726835502724458e-01
-1.044846930240817123e-01
4.154772813508975648e-01
9.310179871465620316e-01
8.719526434976050400e-01
2.130585466049758070e-01
-4.136517263082057916e-01
-5.485874131589262293e-01
-3.632914791498325080e-01
-1.934500260731082388e-01
-1.048616681866885586e-01
-3.441934477822791022e-02
7.483751359234018692e-03
-8.925757695711989195e-04
-3.485243568721266283e-02
-8.439423052727536290e-02
-1.574750320560125705e-01
-2.312634212006377255e-01
-2.691282791387751283e-01
-2.574587022209337550e-01
-1.994669203952904035e-01
-1.067542061761172778e-01
-6.245894745276522018e-03
6.644567649881437388e-02
8.337690853639272148e-02
3.637852761851229078e-02
-5.196669441752828356e-02
-1.343465599441320546e-01
-1.732387860235275745e-01
-1.658355039808569464e-01
-1.212420778782232200e-01
-2.280499436542309660e-02
1.539926991408055168e-01
3.708138928732773176e-01
5.083713272870773459e-01
4.639826941784572223e-01
2.585463963693908074e-01
1.844518079675495220e-02
-1.332364993083841320e-01
-1.535567876299919754e-01
-7.935330236202708942e-02
2.118857029890815549e-02
9.659634694680813150e-02
1.283851944967152048e-01
1.233645795278192070e-01
9.629740420261780065e-02
5.266897231230120713e-02
-7.313867870736206166e-03
-6.879031546676536713e-02
-1.013692033790754288e-01
-8.104147572279717104e-02
-9.552125147787322162e-03
8.102745867239757871e-02
1.459689237059210165e-01
1.688262766033582218e-01
1.800596267503208892e-01
1.994558910418484932e-01
1.632194998812760978e-01
-2.001345170330905490e-02
-2.852758445342218341e-01
-3.313570750481725780e-01
1.117566808121048527e-01
8.328389656854655598e-01
1.178806652998328541e+00
7.945432764669019265e-01
8.730210364478722951e-02
-3.077708635556805072e-01
-2.403980869084322292e-01
-4.277511726137064874e-03
1.282012577922964636e-01
1.190594995011950569e-01
6.628443699646134613e-02
5.163011321527836983e-02
7.764265751373011781e-02
9.532837692147107245e-02
6.235906006643848060e-02
-2.346057118427898741e-02
-1.292815059417992407e-01
-2.191890526974231423e-01
-2.837814713942452549e-01
-3.280715121580454197e-01
-3.334683363134525735e-01
-2.665128761274165869e-01
-1.363841664472469906e-01
-7.485912992025889334e-03
5.941656799483666096e-02
5.065455873516315488e-02
-1.490931195682207791e-02
-1.085353733838432116e-01
-1.915240940923277901e-01
-2.157285487541947266e-01
-1.461891341677367950e-01
7.476138841101407501e-03
1.833126005168150829e-01
2.980396809396320679e-01
3.009199811358038712e-01
2.063870415006306969e-01
7.116018347897801188e-02
-5.196587644519646415e-02
-1.325505230141827973e-01
-1.582791984314244060e-01
-1.310273243345872196e-01
-6.519646450119173653e-02
1.474412277601943114e-02
8.110490930066525939e-02
1.124860074307077462e-01
9.988720885061828925e-02
4.636420461303769613e-02
-3.689178529997137745e-02
-1.254007806591202479e-01
-1.772266927773685496e-01
-1.590134396999768607e-01
-7.943236329648076244e-02
1.990486199399726930e-02
1.038506800191817264e-01
1.582261318790398330e-01
1.591680135086130099e-01
5.496653712614475024e-02
-1.482210932535573400e-01
-2.653348323223306271e-01
-6.071519113324923972e-02
3.665064794299541795e-01
5.515785770934560350e-01
2.626259108844744006e-01
-1.445027535005211083e-01
-2.296939675384625512e-01
-1.365522469441861342e-02
1.906327459518895595e-01
2.057490504048511692e-01
8.497586796947256826e-02
-4.742684309053467329e-02
-1.201915705982344318e-01
-1.251139543148798994e-01
-8.936276793867495294e-02
-5.732966303110009765e-02
-5.759163390728420928e-02
-7.320485021125364145e-02
-7.759820443425229086e-02
-8.932396911594800426e-02
-1.458780260759063863e-01
-2.362389474744870932e-01
-2.961335665156069052e-01
-2.678291726948606732e-01
-1.565583141817168678e-01
-2.745309528086596618e-02
5.766673190526556969e-02
9.002322238518657704e-02
9.086305363440115579e-02
6.387701034172665882e-02
1.274579314874121211e-03
-7.284309502618221965e-02
-9.934096090519219102e-02
-4.032220015318359330e-02
7.295766359175923088e-02
1.684595794490265641e-01
2.043376001399248021e-01
1.868454340298963123e-01
1.310441611230730996e-01
4.454100251224400731e-02
-5.436420006904632563e-02
-1.359537042504887772e-01
-1.777211039819579230e-01
-1.709366065306773264e-01
-1.177775343188647156e-01
-3.346027524569401834e-02
5.353283549364117044e-02
1.106361204759231665e-01
1.163401212577083177e-01
7.321271259680736665e-02
4.838026634599694453e-03
-6.436059982026622051e-02
-1.226920743474368830e-01
-1.625593359158613305e-01
-1.643632903101923115e-01
-1.012477100519366541e-01
2.191559603835194908e-02
1.278162466095501271e-01
1.005238705094607943e-01
-7.236182799001834864e-02
-1.875280726782741214e-01
3.854117424023700920e-03
4.104207645407144112e-01
5.789251906020731475e-01
2.628499611995051555e-01
-2.091791086839402958e-01
-3.621490833929712494e-01
-1.342778821010970902e-01
1.787646760763328679e-01
3.188082652119083038e-01
2.494006883699191601e-01
7.537030670129307719e-02
-9.171815444061054423e-02
-1.957823543919786635e-01
-2.286603743394467758e-01
-2.050663923764331487e-01
-1.458811900421641827e-01
-7.032285105527760760e-02
-1.871951135947685571e-03
2.526180509390694648e-02
-1.542482141415439656e-02
-1.151128778770190153e-01
-2.280565731156080078e-01
-2.962473032877251389e-01
-2.807878341627077501e-01
-1.826209071559547481e-01
-4.015111986289574691e-02
9.159751110092674564e-02
1.672869204326576653e-01
1.736279915983865996e-01
1.345297943205623348e-01
9.011741736322798069e-02
6.055892490586499421e-02
2.978074784594198984e-02
-1.191196257462373044e-02
-6.119927985536440483e-03
1.256040710903327806e-01
3.337760547962913549e-01
4.375530553484919816e-01
3.396307969095308521e-01
1.426427743893008415e-01
-8.687598470081232122e-03
-8.529280164312244561e-02
-1.235163625152964351e-01
-1.254340445884158384e-01
-7.529533364295044884e-02
-1.140083876898092922e-02
-1.222705507142641569e-02
-8.443657877271368295e-02
-1.308407315836175311e-01
-9.309843393884199847e-02
-4.634605661960027045e-02
-7.864714886380458347e-02
-1.614765486938458672e-01
-1.989500882740094789e-01
-1.458234603171769672e-01
-5.308819011379568853e-02
-2.185011544276338133e-02
-8.213044689953205579e-02
-9.118459294670570869e-02
1.368694914064227108e-01
4.913480221588004682e-01
5.481697741413706915e-01
1.227637921817329586e-01
-3.971569860203357227e-01
-5.300837645695406497e-01
-2.510518595790361962e-01
1.236866195289252901e-01
3.404526286765671150e-01
3.570845144716857100e-01
2.630936853436820488e-01
1.616040155093470543e-01
8.297503059953022231e-02
-1.333541176880320353e-02
-1.410397357200041946e-01
-2.335621302015467027e-01
-2.250276968747045025e-01
-1.340998369239522481e-01
-3.155766136070971284e-02
3.267044042277790494e-02
4.794030110374511433e-02
2.024029238227374045e-02
-4.366502490124197361e-02
-1.287427935063875373e-01
-2.017750503497743875e-01
-2.260541849922832469e-01
-1.896633349236497290e-01
-1.119783320560092249e-01
-2.196397325413356610e-02
6.319543698024940315e-02
1.367866596567717530e-01
1.853293705200924069e-01
1.803811625609442193e-01
1.006807320349980134e-01
-2.932395616102730432e-02
-1.390069178292874519e-01
-1.669689864308170069e-01
-1.068876733385372424e-01
3.437291929580759894e-03
1.129066676310024747e-01
1.736217975331943164e-01
1.566674320475047733e-01
7.006473446795263849e-02
-4.318505829558173803e-02
-1.313313648314925475e-01
-1.637431325016700245e-01
-1.430465817659405670e-01
-9.068375117522622930e-02
-2.143281270444426234e-02
5.946357560470420106e-02
1.333955279406041639e-01
1.606322022006439476e-01
1.112329546063661884e-01
3.729574753744354515e-03
-9.908801644165737832e-02
-1.516448472823066496e-01
-1.816847625340103078e-01
-2.373292554520704534e-01
-2.415740382097507077e-01
1.887174904419785734e-03
4.961221545750472695e-01
8.447323817496761311e-01
6.527044356749600595e-01
6.849408033742165891e-02
-3.871469843278639855e-01
-4.379290886696790563e-01
-2.248434660815378239e-01
4.534763446740953940e-03
1.388670569641989316e-01
1.942136217591219627e-01
2.121544455431675913e-01
1.971047842176592013e-01
1.298746169229806624e-01
1.400640524290406967e-02
-1.135328870257452244e-01
-2.112720678692939225e-01
-2.573430612888413793e-01
-2.450583642165665987e-01
-1.712117587389036799e-01
-5.183716971916089988e-02
5.827661455343936120e-02
9.951520586310270977e-02
6.260019225537064025e-02
-1.660204208224842770e-02
-1.032950839177274455e-01
-1.758216306764783798e-01
-2.080819489139282275e-01
-1.731547973459134082e-01
-6.771633966406524763e-02
7.806275929228201349e-02
2.166367948207479355e-01
3.064260520169805324e-01
3.204282891452435167e-01
2.491930556307997147e-01
1.147939589907647495e-01
-2.960803382925472280e-02
-1.293571501499584109e-01
-1.503178041838120205e-01
-8.317159094950073162e-02
4.396700316950747506e-02
1.641355298697385889e-01
2.149812646922399373e-01
1.866630730250016523e-01
1.132408656150565018e-01
2.935694292854527238e-02
-4.473235289739015824e-02
-8.963282439947986568e-02
-8.991744628591004374e-02
-5.329656936727120153e-02
-5.304023789283050100e-03
3.806886143579263360e-02
7.811255824317289709e-02
1.176916827213029676e-01
1.472069510535322368e-01
1.314585689749254438e-01
1.019651765092698462e-02
-2.275067763154231260e-01
-4.203486405197334186e-01
-2.923875029528359426e-01
1.864672530325256483e-01
5.924761388169804688e-01
5.008797898881626187e-01
6.159513490708354300e-02
-2.216904950145947018e-01
-1.575416338774625613e-01
2.483161149588559297e-02
8.898587448850488191e-02
2.835731131623795559e-02
-3.936772864266493976e-02
-3.499387994792441808e-02
3.098595217399726515e-02
9.493446960964639636e-02
1.011258046104012570e-01
3.960154635890836966e-02
-6.086005353217190106e-02
-1.638643134082708730e-01
-2.432129571596430284e-01
-2.801853425498064820e-01
-2.623307764526760510e-01
-1.916062615039111072e-01
-8.856506136348153702e-02
1.139829746911506965e-02
6.962922585164066369e-02
6.744688949869534489e-02
1.842451775394380459e-02
-5.602349835625539121e-02
-1.476429341004645845e-01
-2.290027516767092486e-01
-2.222110514851899643e-01
-6.007300781799675138e-02
2.018589598639368154e-01
3.875690781693170717e-01
3.675142806293774655e-01
1.917769225139103195e-01
1.060206942026569593e-02
-9.498889263845727848e-02
-1.499245122024610577e-01
-1.946685498614519894e-01
-2.213815402046583614e-01
-1.852584551884502995e-01
-5.035181369626545722e-02
1.467277704015790274e-01
2.816493334601714027e-01
2.515672883941151294e-01
8.686639716300360858e-02
-9.114149955154673965e-02
-1.778181919222914242e-01
-1.358026009433454806e-01
-2.020819670719007852e-02
4.950371001659263637e-02
2.108501457056115996e-02
-2.155460982097839873e-02
1.565470750556093721e-02
9.292536762396014227e-02
6.752134351818757374e-02
-1.338696149861780815e-01
-3.508538362682598888e-01
-2.502511910848808085e-01
2.725838385162737132e-01
7.775426345601226252e-01
6.953658133240615546e-01
9.730645834181896048e-02
-3.566543051070090176e-01
-2.657618402944435521e-01
1.252744938167992816e-01
3.740371401468606805e-01
3.182931725568307058e-01
8.998536989391540952e-02
-1.169122343213516158e-01
-2.123323218521853684e-01
-2.165454949841124632e-01
-1.791042223142849110e-01
-1.276262411951600562e-01
-8.522489078022907338e-02
-8.742091056351786182e-02
-1.488701587178459518e-01
-2.358891623493398204e-01
-2.993469686979963185e-01
-3.248439918464047227e-01
-3.315382311769246027e-01
-3.252296626520648770e-01
-2.770419618873362633e-01
-1.644752736385986513e-01
-1.918843570271043519e-02
8.460865365387555681e-02
8.797204930433034920e-02
-4.764618773610854174e-03
-1.219680073032027579e-01
-1.742739000014973949e-01
-1.326379554702672714e-01
-5.471972345603898225e-02
-1.147861412932723105e-02
-4.212150023186016917e-03
1.381669434376586562e-02
5.462167819393075330e-02
7.317409038537056598e-02
2.313500962173979658e-02
-8.836843638345254215e-02
-2.056505364704536432e-01
-2.716840189585316145e-01
-2.624336161009936386e-01
-1.868549869465233604e-01
-7.319894683403808944e-02
4.251605463798503737e-02
1.260915155155122869e-01
1.517922756733840750e-01
1.096974908032435914e-01
1.555906740110230696e-02
-9.125229902645350111e-02
-1.621475830827826814e-01
-1.539969654613383976e-01
-5.866779372182384655e-02
5.998425193721923510e-02
9.732247462213465539e-02
4.945242289162815608e-02
1.212290075440497078e-01
5.215258337520970455e-01
1.029559186221233213e+00
1.050612190575006100e+00
3.930576888207063524e-01
-3.495076498210821225e-01
-5.180183557268344119e-01
-1.285078022171659007e-01
3.430608281441195895e-01
5.608699950489067776e-01
5.165204115546061514e-01
3.423201000446881026e-01
1.331776086895546385e-01
-6.458058449604150986e-02
-1.974995664383297489e-01
-2.243416696135841493e-01
-1.916124497804797544e-01
-2.087081088103839299e-01
-2.932691084733357600e-01
-3.198705041374005908e-01
-2.064858865338700666e-01
-5.766067539440499629e-02
-2.146990421297310589e-02
-9.963791472680981476e-02
-1.889698361896562373e-01
-2.274196834015351776e-01
-2.185482228849734976e-01
-1.634661790898760125e-01
-5.091851415475038417e-02
8.857848989498118275e-02
1.832344868342850042e-01
1.974597679715054954e-01
1.677407374262285811e-01
1.402767217779006814e-01
1.107208561568734095e-01
5.188747532401895290e-02
-2.629656915101545589e-02
-7.186186240784395163e-02
-3.821499773032215053e-02
6.925343836317587876e-02
1.857179405500186398e-01
2.331377859666843855e-01
1.847416775069090911e-01
7.838103847158806037e-02
-2.952749958566415825e-02
-1.050861825387389842e-01
-1.353096625888335069e-01
-1.119632753224764632e-01
-3.449737572532324270e-02
7.322039775749113188e-02
1.632047549031195866e-01
1.950309859259595491e-01
1.632805832846114802e-01
8.650809132238312937e-02
-9.438666832563179926e-03
-8.658814647681992160e-02
-1.133654363355610928e-01
-1.154040745703638765e-01
-1.543606516247378324e-01
-1.799731508638573452e-01
3.325189997541148912e-02
5.917584939175489778e-01
1.121399657314631648e+00
1.047019583995758563e+00
3.410115356132504272e-01
-3.791580151504045371e-01
-5.878806557983644598e-01
-3.319142009839852747e-01
3.318795104580071764e-02
2.544586113049623899e-01
2.902027430149205500e-01
2.165726320779473579e-01
1.147205417897495805e-01
9.656472676001762526e-03
-1.153875866215459955e-01
-2.553763063273787326e-01
-3.567975825590987693e-01
-3.705073605975536810e-01
-3.072117353672190743e-01
-2.175606150024628482e-01
-1.379902994835083829e-01
-7.708826883894420723e-02
-3.890672556690408235e-02
-3.843518179596420309e-02
-9.012842446406109376e-02
-1.816423898149460425e-01
-2.661025821935640856e-01
-2.946751039302606956e-01
-2.541487541688894347e-01
-1.584688760937806584e-01
-1.988128163158402184e-02
1.399369035580879383e-01
2.657872289420086243e-01
2.956676466862796504e-01
2.111014954477031524e-01
5.013397915643109937e-02
-1.139374809352386442e-01
-2.047951683032287473e-01
-1.821037623538953598e-01
-6.907983007893336858e-02
6.393388253568083046e-02
1.525685242147332144e-01
1.731307257136166511e-01
1.342480512137948778e-01
5.600031044547540415e-02
-4.005181807364095736e-02
-1.310136695590810307e-01
-1.894966620806970703e-01
-1.889017540681026397e-01
-1.213589672480470394e-01
-1.340198515977054049e-02
8.192846898067927819e-02
1.192607949431249564e-01
9.041547569349546454e-02
2.041883086808510619e-02
-5.976352015125099837e-02
-1.434616716741571596e-01
-2.533737576246304912e-01
-3.691846700208304966e-01
-3.357928120271093664e-01
9.960316178249647989e-03
5.032752422889362753e-01
6.681411291338725800e-01
3.044656296900815629e-01
-1.995869241493900548e-01
-3.760275578528002871e-01
-2.081903420789551762e-01
1.607314375239738552e-02
1.075420620989018944e-01
8.766230244375666780e-02
5.212557063196708584e-02
4.432714122332087614e-02
4.730903152201884621e-02
3.625215918353905109e-02
9.961360348988935673e-04
-6.327360441284893278e-02
-1.509718441725009519e-01
-2.329591900523318160e-01
-2.701980252758996448e-01
-2.447087320469624461e-01
-1.695179058012830919e-01
-7.222189768627754192e-02
1.895049409412878985e-02
7.461993682422669860e-02
6.818798046172219740e-02
-3.305286098377272636e-03
-1.037358772760536008e-01
-1.800249435878584492e-01
-2.041495789642132352e-01
-1.770931720916283647e-01
-9.609619616416775756e-02
4.399935028251347052e-02
2.060238661804464633e-01
3.051321131909457973e-01
2.762363881235720964e-01
1.362053000105936662e-01
-3.495467347276902392e-02
-1.634610929405021229e-01
-2.173401083767176611e-01
-1.935955584554716336e-01
-1.071122738338486924e-01
8.094028345144232278e-03
1.100771536218987656e-01
1.655484157071778761e-01
1.634328872723403991e-01
1.360549691797882377e-01
1.436053676480681940e-01
1.828598780227910781e-01
1.574026864178914298e-01
2.444701252776800698e-02
-1.030989675704220426e-01
-9.868595758662294937e-02
2.028141247830480068e-02
1.486468108930195653e-01
2.159784351243281553e-01
1.919884590856869022e-01
4.240165021539608198e-02
-2.273976207407029104e-01
-4.698036330166002750e-01
-4.208441081679063500e-01
3.181556323204915576e-02
5.886552618755148680e-01
7.532153651206213718e-01
4.079531409451491175e-01
-5.094897913833920655e-02
-2.281100205691553862e-01
-1.227683136082613757e-01
2.668165313170020592e-02
5.562632749240256635e-02
-2.226791539228447150e-02
-9.650582048872898000e-02
-8.490418515197065141e-02
-5.740120337912810178e-04
7.446640363981334165e-02
7.317693344520981302e-02
1.455235938823398398e-03
-8.885965648301123732e-02
-1.650121086618783761e-01
-2.241709738023717202e-01
-2.573456131108377565e-01
-2.411057711944313287e-01
-1.658263426933928864e-01
-5.657386003573068589e-02
3.753850311953775554e-02
7.922065626460435273e-02
6.800437819728050171e-02
2.607004189866217458e-02
-3.028655992842704120e-02
-9.326751684378056795e-02
-1.408056865524288936e-01
-1.287476206072726559e-01
-2.798950894165792153e-02
1.282244521767160472e-01
2.565787078593965709e-01
2.952002178286106115e-01
2.483921652398826119e-01
1.606541752681272528e-01
7.252705081958145394e-02
2.362334304084868185e-03
-4.917632764734810452e-02
-7.879751602436407820e-02
-6.998211994227671040e-02
-1.583653822747102882e-02
5.996225764496954797e-02
1.231660125935546274e-01
1.576558588359620872e-01
1.586488301821331881e-01
1.153595398482677725e-01
2.737858793818966421e-02
-7.022048601933233991e-02
-1.268267261996265660e-01
-1.212716672574548488e-01
-6.699899276375778645e-02
1.771065992254372556e-02
1.119462973679037215e-01
1.640770300330457176e-01
1.078510159271243718e-01
-4.006801770665700813e-02
-1.149322527544242301e-01
3.305862273659572470e-02
2.554736198351951204e-01
2.102325129441968976e-01
-1.245604512481570669e-01
-3.487007512224044592e-01
-1.893712706683816083e-01
1.747028166533619586e-01
4.192711683875858797e-01
4.206252677352017022e-01
2.543157710302485497e-01
4.610792304038635603e-02
-1.134239590335076736e-01
-1.814095827585575083e-01
-1.523611082996772781e-01
-5.710660825650484829e-02
4.027408351600066105e-02
8.190647394660796610e-02
6.161810441935145627e-02
9.234145177802279003e-03
-5.671903158599045369e-02
-1.298238448817513047e-01
-1.892635157431469539e-01
-2.074444125562354135e-01
-1.754465263705932143e-01
-9.993140771608040318e-02
9.581901601469128282e-03
1.229650608918247262e-01
1.782948270878066122e-01
1.332097416074756457e-01
2.594483319643900096e-02
-5.174567548839500292e-02
-4.881609811522955034e-02
1.255904303424757937e-03
3.642476786606230893e-02
4.500341228401803784e-02
6.624326326315943536e-02
1.162020167985913510e-01
1.486160285427057248e-01
1.100250538095227520e-01
8.314576119209085917e-03
-9.747216745348533107e-02
-1.588301228202212700e-01
-1.681245854426146880e-01
-1.387884636604177768e-01
-7.991526008240798506e-02
1.140669106504735124e-03
8.116568843991978088e-02
1.223674938909379145e-01
9.869203070133182598e-02
1.938763008858827158e-02
-7.546684852529078613e-02
-1.466013988999242124e-01
-1.818105383922763163e-01
-1.836530966635514517e-01
-1.450911179946476337e-01
-7.116884217626315290e-02
-2.199777536990607171e-02
-6.295043279453209351e-02
-1.099504701010471097e-01
7.672074258485409026e-02
5.443690534330647424e-01
8.775678787966310068e-01
6.273232047590828753e-01
-3.273191571956902968e-02
-4.772473178989992126e-01
-3.888930291669766559e-01
2.519805518662675270e-03
3.197821632385781654e-01
3.869158484409919163e-01
2.488369318699915067e-01
3.961338000917061231e-02
-1.326626758193038547e-01
-2.301439561108263032e-01
-2.659750057995932671e-01
-2.592456237929249840e-01
-2.168879747338868236e-01
-1.548534248712159500e-01
-1.025106226420836875e-01
-7.491082991046602024e-02
-7.306914180108184387e-02
-1.087993117104135016e-01
-1.860496452857320904e-01
-2.631002100050128245e-01
-2.804780455307160358e-01
-2.271315016984214730e-01
-1.455565285535092290e-01
-7.858222458088146012e-02
-3.495362124707155488e-02
4.452662029697879165e-03
5.757226261842770393e-02
1.067037246197858891e-01
1.026771532609129511e-01
2.448685722200241027e-02
-8.000637212409886234e-02
-1.363766414852612407e-01
-1.174731830845938962e-01
-6.262477440620081715e-02
-3.026055542991594460e-02
-3.729777837838460508e-02
-5.389838798250663754e-02
-6.310765836155028674e-02
-9.409955407940225058e-02
-1.691356332364623849e-01
-2.470500047053506565e-01
-2.550895189612650271e-01
-1.708254882772854144e-01
-4.841125126134096512e-02
4.441290890664978397e-02
8.881654409042362419e-02
9.202215199142174673e-02
4.475485446271894319e-02
-4.607548300468200519e-02
-1.206747024769423970e-01
-1.353323452714235986e-01
-1.484190594501003102e-01
-2.420412686150479054e-01
-3.159043114146297682e-01
-7.887740603837889442e-02
5.432199749144106526e-01
1.054848068664442806e+00
8.495397774433808280e-01
5.626550332840503377e-02
-5.572648902109476055e-01
-5.457018465176888267e-01
-1.696233927579119949e-01
1.317261854808474131e-01
2.179032981109351452e-01
1.957862938930862440e-01
1.735357894871402684e-01
1.589701070076184330e-01
1.129376082633593431e-01
1.952522564390911722e-02
-9.755137907942156017e-02
-1.923507408490466586e-01
-2.254195785292643917e-01
-1.910532525953723137e-01
-1.178509619153574328e-01
-4.087512163968666512e-02
2.009669799415196578e-02
5.776631912301046640e-02
6.596172175674885896e-02
3.763918116521373924e-02
-2.431367556430431148e-02
-9.582911099909580122e-02
-1.404081780487274889e-01
-1.361591691335270748e-01
-8.668398764065431139e-02
8.319879793129703049e-05
1.221622873965780981e-01
2.551951650272492045e-01
3.377038697861211580e-01
3.120061673901657340e-01
1.780617029638703608e-01
8.862392837674371027e-04
-1.325320117827419042e-01
-1.664650189888970400e-01
-1.019273489758167339e-01
1.455641226362620888e-02
1.251004827934318608e-01
1.934203748267011302e-01
2.121183821054246077e-01
1.824055063912113916e-01
1.018575562919753208e-01
-1.408728870212468641e-02
-1.161212717053617394e-01
-1.538855443641977960e-01
-1.178220078472460020e-01
-3.477508773689164112e-02
5.814164504376032050e-02
1.231322590781899484e-01
1.339755181999287559e-01
9.910246997303014116e-02
4.980537167367815599e-02
-1.470707481608995830e-02
-1.370877712747533284e-01
-2.925673673467191760e-01
-2.754254742320768057e-01
1.435928434148247557e-01
8.077185876031526268e-01
1.134159826063634968e+00
7.714483738545362401e-01
8.537018264833219627e-02
-3.094342086465153852e-01
-2.535959824292203790e-01
-3.332246220478776721e-02
7.735333192445045802e-02
4.368112895162238468e-02
-2.545683832929841392e-02
-4.050711673548355179e-02
-6.087082629354090280e-04
3.819041037945258843e-02
2.812511763609450849e-02
-3.568255878658541103e-02
-1.274010103141264838e-01
-2.220876138993370663e-01
-3.050098192926253837e-01
-3.542712469126672037e-01
-3.420880550972548173e-01
-2.671083598091396616e-01
-1.572363720642674656e-01
-2.459654343017487338e-02
1.357218487302618570e-01
2.694305354739440772e-01
2.599033685745631983e-01
7.700419132361635555e-02
-1.407029690548049494e-01
-2.306119647679462648e-01
-1.658368897432356270e-01
-2.279205483356731496e-02
1.282494046060974613e-01
2.445173652725282643e-01
2.816258873214955716e-01
2.144938247949284005e-01
7.791748775876905508e-02
-5.682942112224390052e-02
-1.412152927296973226e-01
-1.660696894869637674e-01
-1.393431587019381690e-01
-7.168720183128415857e-02
2.137753133584062784e-02
1.136784208396179885e-01
1.693197140646339471e-01
1.617343466390798734e-01
9.742993978136264832e-02
1.251730817306963457e-02
-5.555565054620489884e-02
-9.112756192187776438e-02
-9.435412513974968107e-02
-5.493889183559724082e-02
3.377160753072665916e-02
1.125444186223543558e-01
7.356284628970473360e-02
-9.914139751085114527e-02
-2.845697851648719690e-01
-3.817248434546274272e-01
-3.741031207215074206e-01
-1.996147739461224258e-01
1.741487216081706313e-01
4.926479854090088928e-01
4.105537250488373036e-01
1.666328145527643662e-02
-2.279948068596906741e-01
-1.020539550133175988e-01
1.699748577846687814e-01
2.910600466726441793e-01
2.017445972567548096e-01
3.532395628038927787e-02
-7.130163427076186000e-02
-8.697602762776161789e-02
-5.632778668645019304e-02
-1.173602769817900376e-02
4.039266092281919296e-02
5.170341133058758976e-02
-6.344538789303039161e-02
-2.926437178886253099e-01
-4.723994274505615154e-01
-4.661110663655794184e-01
-3.238310677721130681e-01
-1.806405704685194458e-01
-8.713022939750872387e-02
-1.512111391735847070e-02
5.089840173063157197e-02
9.391368770062955007e-02
