9.738671764781949014e-02
5.178430475904594738e-03
-1.710341300757584337e-01
-4.120620550715167196e-01
-6.106050246796675962e-01
-6.659378099864569078e-01
-5.555168361949455180e-01
-3.388403994964171440e-01
-1.072375194169589985e-01
6.777562887049033702e-02
1.479111238787531313e-01
1.196584873042318142e-01
-1.094829921025083572e-02
-2.147849503770077606e-01
-4.288136821047213720e-01
-5.612575645673503200e-01
-5.383782634200284800e-01
-3.618500264365475672e-01
-1.094782323767478083e-01
1.228161592606060309e-01
2.641790655190222603e-01
2.692050963664592289e-01
1.281736649896745572e-01
-1.053176256315384307e-01
-3.339368122630701485e-01
-4.792787781969035654e-01
-5.103713427720067974e-01
-4.286024805075985822e-01
-2.592345561222868522e-01
-5.977885296274629279e-02
8.798568641346005137e-02
1.232599882849552408e-01
4.842539359609689120e-02
-9.521720179876956569e-02
-2.900796877204637747e-01
-5.244694487319637721e-01
-6.661053695074850012e-01
-4.402351068085534891e-01
2.537855687122483883e-01
9.855081334332153054e-01
1.106020320463030782e+00
5.714872922729654636e-01
4.130430035443115322e-02
1.441069064710153586e-03
2.456547165095029905e-01
3.324080136502554073e-01
1.474610244579772356e-01
-9.209420971183687743e-02
-1.557027008153085423e-01
-1.719840301847751912e-02
1.753293323213565569e-01
2.676599446310763963e-01
2.084543818128634651e-01
2.992687695338001538e-02
-2.054682812232566658e-01
-4.169060795362534155e-01
-5.163573118899686953e-01
-4.590730611551040452e-01
-2.790429628770471071e-01
-5.754501022220669115e-02
1.297015638812791249e-01
2.312186015448738918e-01
2.181859375470526219e-01
9.143795904673229780e-02
-1.010427868866668327e-01
-2.664305424950206835e-01
-3.270405609133917868e-01
-2.857120082916297932e-01
-1.942054279156712471e-01
-7.302074339822164917e-02
8.175888993587598907e-02
2.342602378988063172e-01
3.106205464844147279e-01
2.614718495093388828e-01
1.010750289846482769e-01
-1.022691363221802513e-01
-2.659552235388416008e-01
-3.342708150165298875e-01
-2.878730087772051749e-01
-1.375735876731203344e-01
6.068602189503727318e-02
2.101258514124281496e-01
2.339604887653240484e-01
1.251261585279922761e-01
-6.250924181083164499e-02
-2.405908105569978805e-01
-3.257938164558366601e-01
-3.111742832943419357e-01
-2.833068716705254841e-01
-2.964272039535918446e-01
-2.218077410793660165e-01
1.710826979259427449e-01
8.468963198111864044e-01
1.282888685543309482e+00
9.471019894497094693e-01
6.223311651183660587e-02
-5.446820707680308793e-01
-4.364434317463459223e-01
5.202002478093713245e-02
4.162002421735502833e-01
5.110838420879970645e-01
4.635950421882713002e-01
3.842055779489743084e-01
2.716196947156407360e-01
9.103859322919810593e-02
-1.400363915337532184e-01
-3.458437661607933755e-01
-4.518458026146190409e-01
-4.359746869851462980e-01
-3.199110068761008008e-01
-1.395533206323136266e-01
5.099049091325365268e-02
1.743987716733775839e-01
1.742037961881967856e-01
6.306760825997817510e-02
-9.655751609926169210e-02
-2.476124827871371281e-01
-3.544293647872491793e-01
-3.848443283650706537e-01
-3.092470275978091987e-01
-1.328203585052257496e-01
7.731388867405980525e-02
2.248992760255898449e-01
2.541124132107096534e-01
1.708928712659873450e-01
1.454948586790852372e-02
-1.533288940740638318e-01
-2.538289560211895446e-01
-2.376431493906540626e-01
-1.281149164597586709e-01
7.995183829456039767e-03
1.244752841835956719e-01
2.113235240967036854e-01
2.554332818525313908e-01
2.152157889433777838e-01
6.008712207297160074e-02
-1.719135128690875980e-01
-3.833535348027091172e-01
-4.759803591135558509e-01
-3.881880332707928205e-01
-1.302317893060991882e-01
1.727114029525358141e-01
3.285481687824260977e-01
2.424577841834275882e-01
5.256454943742484148e-02
6.551752335617841427e-02
4.237063962975614606e-01
7.826781903803515794e-01
5.920659363538651743e-01
-1.305079347434925097e-01
-6.660906910782782298e-01
-4.526860225107398050e-01
2.714286834978363316e-01
8.442658334441416335e-01
8.997446881666131269e-01
5.609881875180269262e-01
1.288162100642827324e-01
-2.087076716591376724e-01
-4.026399144942183761e-01
-4.561888429309497450e-01
-3.852260142411752519e-01
-2.264267858643708720e-01
-4.243474094011653874e-02
9.233585359941033632e-02
1.185078204792934242e-01
2.129930507659206704e-02
-1.564902367838397201e-01
-3.385169736707679955e-01
-4.577235448729440881e-01
-4.759579547196086113e-01
-3.822984083999579896e-01
-1.983790372139641045e-01
1.726179091971347807e-02
1.882290344042313046e-01
2.538028729454820942e-01
1.911410148078546145e-01
2.066539786228897141e-02
-1.945051838962520152e-01
-3.650756835185867688e-01
-4.239329421677822118e-01
-3.684585588184861593e-01
-2.407794321831371320e-01
-7.535509916541877073e-02
1.060682694968596018e-01
2.545193278852651564e-01
2.880456491343570402e-01
1.519485320426788855e-01
-1.137841052686604654e-01
-3.790992390538451273e-01
-5.133578583804901951e-01
-4.783971293964240368e-01
-3.305592341405412249e-01
-1.447524516815381912e-01
3.775931119841179767e-02
1.885449660450582710e-01
2.474401579367771220e-01
1.297823542582745571e-01
-1.728453974506480306e-01
-4.581543455052506375e-01
-3.667515779209568616e-01
2.202178234924359879e-01
8.378565736099914396e-01
8.544553834457905284e-01
3.339692468170112338e-01
8.998849312328666139e-03
2.749654202990614582e-01
7.367437272543199134e-01
8.419611370503961023e-01
5.045254109905346063e-01
2.876133208815845332e-02
-2.710616551472588287e-01
-2.773809022320397055e-01
-6.009207905840212305e-02
2.057860171806433491e-01
3.450170344976322134e-01
2.985678180775719337e-01
1.413008903545032446e-01
-3.723088620099830603e-02
-2.121654867320424409e-01
-3.674955582969858803e-01
-4.504388271846831437e-01
-4.190482756771009010e-01
-2.840320654885830631e-01
-8.996938337770715721e-02
1.093458606157168417e-01
2.521803728725209304e-01
2.790638725544463128e-01
1.671240892134114586e-01
-4.643937370818844446e-02
-2.762278533030946837e-01
-4.207997149333618792e-01
-4.073268249709999234e-01
-2.384798765795819175e-01
3.375253531933304629e-03
2.127968153520596317e-01
3.265487563955974948e-01
3.375688086134745469e-01
2.600234023712767462e-01
1.036362721363421890e-01
-1.052459956063731827e-01
-2.940453008302076898e-01
-3.685787379178466217e-01
-2.880509416659550737e-01
-1.111212613610214894e-01
4.988197519387935208e-02
1.238602804202072333e-01
1.216570493636191658e-01
8.757889298037779824e-02
2.764195698372690080e-02
-9.750964641267721722e-02
-3.017066383946667152e-01
-4.982565602022990259e-01
-4.837419845736405932e-01
-4.269211515456973471e-02
7.540329996303858362e-01
1.351664449684315317e+00
1.181507723841205948e+00
4.257955647407059008e-01
-1.392927013744741926e-01
-1.166044091379058040e-01
1.790843348313697903e-01
3.198966405309132122e-01
2.391976224970774889e-01
1.166596933882210890e-01
9.183677388021622978e-02
1.557024426659197047e-01
2.133206229209933802e-01
1.837263953548541606e-01
4.936192720301112863e-02
-1.485319389098127274e-01
-3.394122011978976672e-01
-4.584314350430834795e-01
-4.696102295878840094e-01
-3.672622396251276067e-01
-1.761822605882337189e-01
3.525260171376855267e-02
1.693758332163728675e-01
1.640689016352624985e-01
3.873715530858096862e-02
-1.391105879470704854e-01
-3.112569060703573309e-01
-4.341818276774277452e-01
-4.621309583301321244e-01
-3.721021355055516011e-01
-1.987518742894237578e-01
-8.921701194241817706e-03
1.533472299722547227e-01
2.628639380179775831e-01
2.697869029837701715e-01
1.298077583686675363e-01
-1.073569545134619857e-01
-3.102145325337444248e-01
-3.847650584874164892e-01
-3.269578544116734653e-01
-1.743957855015238201e-01
2.101975457708481904e-02
1.830196206575977758e-01
2.356439857175175456e-01
1.501297072615524475e-01
-4.220571840429876431e-02
-2.678535107617779354e-01
-4.366438066158074283e-01
-4.807688581989024712e-01
-4.027642127742563916e-01
-2.815033445705487081e-01
-1.821687025037606045e-01
-2.786556273928214242e-02
3.498587717399349595e-01
8.814548068334256969e-01
1.081256951232419716e+00
5.548842132364937285e-01
-3.341954037073962547e-01
-7.697469618554978465e-01
-4.566937959720447360e-01
1.554064028256084140e-01
5.448119631185983636e-01
6.015480268074838710e-01
4.884168388125788018e-01
3.322945673124124699e-01
1.387393061801024119e-01
-1.029536321801229337e-01
-3.381027368158930346e-01
-4.769029561172117293e-01
-4.640348848041987995e-01
-3.191667560010387761e-01
-1.275961619142921832e-01
2.541683853416222549e-02
1.121039330313979426e-01
1.354483740861051055e-01
8.084863916063809997e-02
-5.771350216746314737e-02
-2.305033518829691930e-01
-3.590047988503417553e-01
-3.991802518564674940e-01
-3.519920613009638877e-01
-2.310848879016354218e-01
-5.578972530068522506e-02
1.236975085728172774e-01
2.276762163904069713e-01
2.010748497159104697e-01
6.402725893481955866e-02
-1.037793943488115461e-01
-2.250777319093002216e-01
-2.633248362790598929e-01
-2.174677264483102501e-01
-1.109263252281133816e-01
2.116408904875162825e-02
1.693441618689821015e-01
3.459011850283674749e-01
4.859084006669235345e-01
4.294630591518266982e-01
1.192253200027376947e-01
-2.662807481992880421e-01
-4.889137754671228353e-01
-4.713425527181268615e-01
-2.790687581437907294e-01
-7.756888874839256570e-03
2.326076397369716831e-01
3.146885700445964940e-01
1.941781301570494056e-01
3.520986228053259171e-02
1.344167154546195564e-01
5.549195050932106410e-01
8.758233798272863080e-01
6.302753648624704885e-01
1.989838942064092731e-02
-2.499013889377246223e-01
1.086796094908850097e-01
6.615292660342348974e-01
8.754529031669201489e-01
6.577181308962231077e-01
2.494930214213006980e-01
-1.410884066100583922e-01
-4.659209015643673846e-01
-6.898558435234072306e-01
-7.022193648492303097e-01
-4.603466195919324599e-01
-1.068245250066144347e-01
1.562191013798608086e-01
2.332437982175322444e-01
1.395724152715330235e-01
-6.122231731451068665e-02
-2.854191010338769652e-01
-4.485736720029864233e-01
-4.924659462402645183e-01
-4.058564065280493849e-01
-2.285905205894495085e-01
-2.907975171926384036e-02
1.275577588186214417e-01
1.914472331997133792e-01
1.383233426062892013e-01
1.634919283382794963e-03
-1.294059268376337724e-01
-1.941647123216115878e-01
-2.181215889966853227e-01
-2.319256089171516932e-01
-1.892181228648608382e-01
-4.097637978848445856e-02
1.630803164294457319e-01
3.127484649772017677e-01
3.373897011926972334e-01
2.333638124745210651e-01
3.488366162292100281e-02
-2.005503454863306334e-01
-3.903028389648892649e-01
-4.478654383381300841e-01
-3.382178549797040246e-01
-1.195464339689123745e-01
9.144947673018899437e-02
2.105398694510945967e-01
2.279343397781408431e-01
1.526174237326077820e-01
-4.009479555126888722e-02
-3.328140175108861842e-01
-5.268032860658610206e-01
-3.028227922699693875e-01
3.883530019930775956e-01
1.038899304331851070e+00
1.044627213837497015e+00
5.126114101755577801e-01
1.535220087041379577e-01
3.165075394786301954e-01
6.342011552285942155e-01
6.443655655951026073e-01
3.202098425747059718e-01
-5.514558512563273035e-02
-2.464645653602139941e-01
-2.111019184077106425e-01
-3.663793161223706518e-02
1.504556309390280289e-01
2.446605790592636109e-01
1.964434840214470124e-01
1.569402577254052494e-02
-2.374854397891715541e-01
-4.627315849316113727e-01
-5.579078982184123570e-01
-4.811044444957237598e-01
-2.790061401276221487e-01
-5.079223141061232211e-02
1.181848511395032081e-01
1.934941722740242676e-01
1.754941889471955674e-01
7.026022953484532818e-02
-1.043818166890976562e-01
-2.988299572124017423e-01
-4.433423096153294440e-01
-4.791607201179723940e-01
-3.790502043649366382e-01
-1.665605263518410428e-01
7.175890405284524043e-02
2.260447605796132020e-01
2.408176841981930494e-01
1.410282014747231694e-01
-2.015394637509404507e-02
-2.057365652457863459e-01
-3.753039368863180791e-01
-4.627357874534486215e-01
-4.136148504978035545e-01
-2.413321978489567643e-01
-2.715284841451763923e-02
1.356614957547938038e-01
1.893999793896568029e-01
1.227304771816086354e-01
-3.027654039222328619e-02
-2.034660677521862027e-01
-3.433989408178788061e-01
-4.430251414846493319e-01
-4.896335988321549593e-01
-3.625747029333447058e-01
1.182009432445233765e-01
8.747553297738206446e-01
1.368572805924032743e+00
1.083643490259964537e+00
2.610160782727953821e-01
-3.023074751678761496e-01
-2.294624795533553585e-01
1.265532042316832584e-01
3.128615909547363128e-01
2.741903902783233704e-01
2.077168330240926619e-01
2.257491542550055519e-01
2.672383831737261128e-01
2.250593803300446338e-01
6.541089144725159565e-02
-1.547358253431646569e-01
-3.417110549595938629e-01
-4.329419111253113295e-01
-4.214494528299711495e-01
-3.245545487225368064e-01
-1.571281612810039030e-01
4.322102044791029107e-02
1.976026005687530895e-01
2.349175870299777535e-01
1.427318304101961310e-01
-4.170681713553080205e-02
-2.483894504486540700e-01
-3.843857230218400978e-01
-3.859151658999741552e-01
-2.689119054053923930e-01
-1.013332297524771886e-01
5.962185585901491613e-02
1.840834388097012664e-01
2.432099176922569161e-01
1.946149762300037889e-01
1.837755977404387925e-02
-2.214892381922470288e-01
-3.880419392071041695e-01
-3.876482273804779943e-01
-2.520033203771558927e-01
-7.610527196194408206e-02
7.891652299579861307e-02
1.903368287349745391e-01
2.346347997425676790e-01
1.877920754123620084e-01
4.947674079829057769e-02
-1.452963861491306519e-01
-3.275364816117954936e-01
-4.154282457850169696e-01
-3.671202987284533092e-01
-2.265136954801917346e-01
-9.492221380966911481e-02
-2.703604251197514602e-02
6.351288171596665422e-02
3.427968916433342672e-01
7.636888630311137183e-01
8.947808936493811816e-01
3.945543683047100236e-01
-3.440793622400770690e-01
-5.283933290833640051e-01
2.041239924525713179e-02
6.986375185953780376e-01
9.465501145868964183e-01
7.723212156879231127e-01
4.703624766217249231e-01
2.139113132971854625e-01
4.410888450604177197e-03
-1.901281327915627095e-01
-3.499181534321158527e-01
-4.181024294484581016e-01
-3.646255602487614156e-01
-2.172080098753499666e-01
-3.446147387666514267e-02
1.215071735813386122e-01
1.898670607661874787e-01
1.322447159744331024e-01
-3.132319104564504353e-02
-2.250630934428845820e-01
-3.670038660796341445e-01
-4.114499563120910808e-01
-3.520926478504675106e-01
-2.071600021386411361e-01
-1.473207900978154919e-02
1.637132552899109306e-01
2.548408909322652516e-01
2.067424537193027212e-01
2.493269943012830711e-02
-2.172818586743909541e-01
-4.181627902631978033e-01
-5.046642261277080044e-01
-4.461453151064108114e-01
-2.493512721356792305e-01
2.235775253650905056e-02
2.566139390418411548e-01
3.580117759707674985e-01
3.035979616260277569e-01
1.325730944677162848e-01
-9.264228769047302969e-02
-3.024682950565720785e-01
-4.316218168552973800e-01
-4.468785500308082304e-01
-3.531262153139137494e-01
-1.705630720927490684e-01
6.201351960291319465e-02
2.517863950650461868e-01
2.670730889965870491e-01
6.685000948707475743e-02
-1.559893475176425959e-01
-7.567110888555532433e-02
3.579105738322586605e-01
7.000884225013639384e-01
5.097272406464923300e-01
1.758365631497628423e-02
-1.245857682406373984e-01
2.780846457708011088e-01
7.731708724184959136e-01
8.852930842286848012e-01
5.721881719639638764e-01
1.070405413491777452e-01
-2.420758236373348471e-01
-3.772083528263949770e-01
-3.365785757463790051e-01
-1.973278045057360042e-01
-2.674766691540469976e-02
1.160151168607577998e-01
1.773197929286833840e-01
1.263676806757926818e-01
-2.545699502449374693e-02
-2.214291659775393661e-01
-3.810899151463384427e-01
-4.437779101999699272e-01
-3.969187036591868001e-01
-2.617796153009485094e-01
-7.396248429774771038e-02
1.120114397190897504e-01
2.291771383892586555e-01
2.314644674958513948e-01
1.170893287109099901e-01
-7.256667631037180821e-02
-2.656361865858020699e-01
-3.844213770437953093e-01
-3.783452393481460674e-01
-2.492047765433559880e-01
-5.411712173263474868e-02
1.277489455271506869e-01
2.430411815469283587e-01
2.714495232703857952e-01
1.998973822633027531e-01
2.807010018209912805e-02
-1.982097455010155829e-01
-3.899142966311131553e-01
-4.658411712708075969e-01
-4.011329820418449432e-01
-2.354731257426838920e-01
-4.558206711669312433e-02
9.737969329341014668e-02
1.585776433230281224e-01
1.331848171635756084e-01
1.761679166392823848e-02
-1.943158113414246990e-01
-4.534376619164329769e-01
-5.622092700619328864e-01
-2.323082767937147131e-01
5.449004997344965018e-01
1.217141907998551931e+00
1.162447783428785408e+00
5.237797317501925454e-01
6.499998247887760205e-02
1.560375596177777935e-01
4.269923657541317419e-01
4.266690530918059165e-01
1.534625345989549805e-01
-1.033524616585567435e-01
-1.467857230829712756e-01
-9.424164682902684553e-03
1.585139804404515351e-01
2.382974834422973420e-01
1.949344679185104068e-01
4.550755517330899724e-02
-1.734536704713952326e-01
-3.987711745809014996e-01
-5.424175166465871056e-01
-5.438079360231039550e-01
-4.089683142820820239e-01
-1.855670981162790834e-01
6.057207254868867546e-02
2.397554302206624799e-01
2.706673660030720074e-01
1.431287242122184500e-01
-7.115064477586141578e-02
-2.695857405287970243e-01
-3.759437244763885189e-01
-3.684907497360720985e-01
-2.691159499694045221e-01
-1.089742040898117742e-01
7.814879318779155426e-02
2.302342188694656844e-01
2.766170668475618766e-01
2.055288379100843055e-01
6.788007074193944113e-02
-9.074811045617497962e-02
-2.470392772134462900e-01
-3.537458775280698520e-01
-3.411198557918307950e-01
-1.848158592987064752e-01
4.807163191943422675e-02
2.315276301119290059e-01
2.695286753244430789e-01
1.624283629784473992e-01
-1.215509786010418591e-02
-1.715384687786071227e-01
-2.765336991611073159e-01
-3.319400525134398872e-01
-3.557040310642589076e-01
-3.200115878836401473e-01
-1.008913939168236268e-01
4.111128751203079190e-01
1.017878111872098534e+00
1.197832250536757570e+00
6.916704492634733192e-01
-4.774416356741478795e-02
-3.549659004787285577e-01
-1.284191950580530206e-01
2.162579083252053613e-01
3.558243522782366663e-01
3.205534525963844028e-01
2.748728140978809464e-01
2.761541570708332394e-01
2.590361085763548399e-01
1.478417411383777802e-01
-6.115153853713314880e-02
-2.997648787166684037e-01
-4.752808485060843191e-01
-5.179140648546556314e-01
-4.115461429953930494e-01
-2.032315793360934819e-01
2.085500584172970961e-02
1.832410502656956763e-01
2.422855202682929754e-01
1.824226607698913316e-01
1.204144694785131905e-02
-2.103805922343741919e-01
-3.805925415200062667e-01
-4.180524992909758764e-01
-3.238781234906690232e-01
-1.524824519495354136e-01
4.555776660517347337e-02
2.229920554231683005e-01
3.173376867573639015e-01
2.845943914316728662e-01
1.400899507772271346e-01
-5.478715708228197590e-02
-2.253270136644812960e-01
-3.027090878130790363e-01
-2.528111290193673089e-01
-1.027389368755516202e-01
7.465375238714423711e-02
2.026923529245192312e-01
2.356958334260804144e-01
1.775451990482976583e-01
5.757811695969291405e-02
-1.328875908853929810e-01
-4.275117486374406250e-01
-7.400644557917691602e-01
-8.283901425768858129e-01
-5.635482733902494878e-01
-1.548993770828799299e-01
7.576885313819337053e-02
9.710744002256870011e-02
2.008848117925362553e-01
5.810480090924986518e-01
9.272373729418761368e-01
6.780363701923542985e-01
-1.732191784156292824e-01
-8.684150186265904292e-01
-7.476548497010778727e-01
4.118939587541559089e-04
6.772804479632545949e-01
8.630285967547286496e-01
6.507025944067696965e-01
3.137757600503029431e-01
4.698251996588291568e-03
-2.454783921659397516e-01
-4.169433422533576072e-01
-4.721148675936847061e-01
-3.920618764385307986e-01
-2.082143746636594406e-01
-1.581568988633902384e-03
1.406750888847217162e-01
1.796997584014870530e-01
1.264072884786839046e-01
-2.764422623670180490e-03
-1.909103662781286848e-01
-3.762994926670107376e-01
-4.576065026196110552e-01
-3.733378249408849658e-01
-1.556807890216102275e-01
9.674761632636727504e-02
2.826003643428012246e-01
3.452485839559122360e-01
2.868842857726288109e-01
1.517310976295864478e-01
-7.068081375447021059e-03
-1.509266219723454372e-01
-2.516085842906382042e-01
-2.710638385919703630e-01
-1.672825609508521993e-01
4.630220380084220516e-02
2.572096053936540616e-01
3.329877725285977919e-01
2.515671817373031915e-01
9.368748557411449296e-02
-7.511892873862871522e-02
-2.358890792533271108e-01
-3.555031173635674890e-01
-3.833963073131571586e-01
-3.061679633803505718e-01
-1.508498186949664421e-01
4.863342771473021242e-02
2.341644405005576524e-01
2.951751314924652703e-01
1.457548988214154295e-01
-1.190600233368366567e-01
-2.001339486820997160e-01
1.171738728563972431e-01
5.932343744341588287e-01
6.983510471501471750e-01
3.213833431354731207e-01
-1.152399048823528338e-02
1.498926190515938173e-01
6.123541211407833584e-01
8.773198723884082506e-01
7.236387339936229957e-01
3.081649314770403825e-01
-9.430405043991521574e-02
-3.145084649295928902e-01
-3.328046630417415552e-01
-2.153008257920005775e-01
-4.487470222929206692e-02
1.084891512068795888e-01
1.880676960987965052e-01
1.521925459937459313e-01
-3.789016039956924140e-03
-2.242934005208094550e-01
-4.106579113997392838e-01
-4.829606650912003918e-01
-4.270716332704938001e-01
-2.793416012838667029e-01
-8.648685616887591410e-02
1.033068818793099614e-01
2.329505362171475635e-01
2.502772201852044853e-01
1.347219847293007200e-01
-8.254916618790146543e-02
-3.134756294678497368e-01
-4.480264182503653214e-01
-4.241991451762333609e-01
-2.621475374824044913e-01
-3.143810911980780831e-02
1.910067556650566212e-01
3.383682456215106882e-01
3.652780247969946714e-01
2.585273931893616317e-01
4.981099020610277317e-02
-1.813887180767066454e-01
-3.512806776414370002e-01
-4.232728770785788575e-01
-3.944675145557065554e-01
-2.664338580045729210e-01
-6.743459987661647170e-02
1.325380507922874762e-01
2.501994082350602056e-01
2.083378504676355047e-01
-3.619203553191225470e-02
-4.148893797700375363e-01
-7.303939921327352591e-01
-7.744950842753555165e-01
-4.336195038265630575e-01
2.436637885928108205e-01
9.167582464316869073e-01
1.083204575287142868e+00
6.496037342594054298e-01
1.411069307542995310e-01
5.260930796053998881e-02
2.842705326854256809e-01
4.332412438946364186e-01
3.322364772530219668e-01
1.152852704849776366e-01
-3.405289152043250445e-02
-3.943989409726499085e-02
7.104586745367061362e-02
2.039134403141505403e-01
2.450941599759420553e-01
1.324628647686557636e-01
-9.493498604939154539e-02
-3.300949163676918374e-01
-4.768866782091195633e-01
-4.941012336146594630e-01
-3.878454826890787577e-01
-1.944462451181994678e-01
2.404828302726293859e-02
1.893593701073580937e-01
2.367274784316594216e-01
1.512154751334856551e-01
-2.301877224033529665e-02
-2.125995704116288021e-01
-3.523884590646942372e-01
-4.046535692953385777e-01
-3.632615625693421113e-01
-2.414049398136209612e-01
-6.041473266668874464e-02
1.302483671865782566e-01
2.449378977950336100e-01
2.193491427482099909e-01
7.254920299911528370e-02
-1.102839055362606485e-01
-2.481458565941191408e-01
-3.057765851622579190e-01
-2.799470419663570575e-01
-1.768397634593673329e-01
-2.020353238454172806e-02
1.372295171884327092e-01
2.306317193663198484e-01
2.099745138309423165e-01
6.427695446049050410e-02
-1.535742874707334282e-01
-3.375313789572789713e-01
-4.045975858474072928e-01
-3.701946676436819184e-01
-3.067240629521350570e-01
-1.875606930423577567e-01
1.617141082633290483e-01
7.830943071862108695e-01
1.264079400329916281e+00
1.053377544395095677e+00
2.392404055047128442e-01
-4.230090629630796073e-01
-4.218840375482303395e-01
1.082872392471846690e-02
3.765018573082136721e-01
4.737175761210902780e-01
4.168105210549305495e-01
3.547651245147854238e-01
2.994783726803255108e-01
1.816086982215750767e-01
-1.489771858831902447e-02
-2.232158969599287446e-01
-3.721463661697271830e-01
-4.386674224442549397e-01
-4.173571502303675129e-01
-2.906256779657956923e-01
-6.370694780126306966e-02
1.918129007791871954e-01
3.540260812737651142e-01
3.243007152197794341e-01
1.091259125176444744e-01
-1.735911219162757368e-01
-3.873869556204817544e-01
-4.630839325738526635e-01
-3.993427794025078970e-01
-2.287814800493039591e-01
-8.124253265611558472e-03
1.848644359309017937e-01
2.814721069316682978e-01
2.572809256591135352e-01
1.320785645359434657e-01
-5.143618999130906283e-02
-2.364303098383361834e-01
-3.534507278981971479e-01
-3.429820778416434734e-01
-2.010300133716796112e-01
3.510861275553004562e-03
1.748518350954066658e-01
2.472695562911809419e-01
2.008483624168288795e-01
5.655963455462606482e-02
-1.343112049179126244e-01
-3.137021967699046288e-01
-4.300480843889844529e-01
-4.359724754636051802e-01
-3.084388000641845040e-01
-9.172467383973412214e-02
9.530462163318280389e-02
1.443438845293296691e-01
1.072900986027592596e-01
2.102687752518629383e-01
5.413455625580922970e-01
7.446026888830487023e-01
3.864261668268855199e-01
-3.112576999047105275e-01
-6.001569258412010610e-01
-1.667787064752153103e-01
5.259172947901331607e-01
8.877926387569942124e-01
7.799057317749304996e-01
4.358433739164788712e-01
1.019345746757312210e-01
-1.424532698423949251e-01
-3.131734408938245395e-01
-4.019017818202393899e-01
-3.754576505378067197e-01
-2.464379623648766948e-01
-8.422385862050377203e-02
4.364167016017049539e-02
1.080206511451700935e-01
9.886778964779835421e-02
6.198786171748290469e-03
-1.602332235356505041e-01
-3.459097892370417426e-01
-4.638467887612094942e-01
-4.372166696639340211e-01
-2.451201868998666156e-01
4.162366404110680318e-02
2.778466197769459689e-01
3.501527498810386163e-01
2.662399062462919019e-01
1.048981398378832919e-01
-8.246764369260463357e-02
-2.727249718347571905e-01
-4.167269782962202962e-01
-4.450970613260932240e-01
-3.279558899244099379e-01
-1.023684858711268603e-01
1.507193752496721606e-01
3.344597498999666851e-01
3.675586169333885933e-01
2.310050704899202501e-01
-1.356183972462203513e-02
-2.638563691106828868e-01
-4.343805611291853830e-01
-4.795196854480455184e-01
-3.894413154654540188e-01
-1.947882880641148562e-01
3.354276917433738486e-02
2.180474696352359132e-01
2.967500650858450606e-01
2.036504935072047939e-01
-8.473192757864558833e-02
-3.905504476603691710e-01
-3.389372631941249270e-01
2.218114730981703697e-01
8.313305266631214607e-01
8.412105253479302824e-01
2.998088206394256550e-01
-6.340519824954427008e-02
1.738440174758555667e-01
6.520558669229782334e-01
8.093261642335022321e-01
5.170905616257399640e-01
6.121368754230113729e-02
-2.448675033235616361e-01
-3.064184371406403207e-01
-2.081521494236162340e-01
-6.071737612700196102e-02
7.615515922829317608e-02
1.658762464116969593e-01
1.599012125041296972e-01
2.973313603571528865e-02
-1.781689704763773363e-01
-3.596934662199547383e-01
-4.363838332574854206e-01
-3.979848809448087721e-01
-2.709237334063952507e-01
-9.039090544690303597e-02
9.246425792206958150e-02
2.157304241370162357e-01
2.363406071580607670e-01
1.465523713275266871e-01
-2.978964764343710811e-02
-2.338317345910081724e-01
-3.749436699016411301e-01
-3.816853477510639969e-01
-2.642324878412399825e-01
-1.024609064458487789e-01
3.201653345689411956e-02
1.196272602568668048e-01
1.622792676586144456e-01
1.442702568753952974e-01
4.125562277533479510e-02
-1.422884966952462360e-01
-3.502526950314348020e-01
-4.890231267814213467e-01
-4.789976097319830206e-01
-3.151753194631165544e-01
-8.186896747862365542e-02
1.047145700631363779e-01
1.725662150844402831e-01
1.181221238357038766e-01
-1.980252359263410047e-02
-1.955481736898165013e-01
-3.783171303070714808e-01
-5.286522685970328483e-01
-5.206619600390032243e-01
-1.508627440116903362e-01
5.893449891218841552e-01
1.239957017497005598e+00
1.217876560015766829e+00
5.784241617738212771e-01
1.888256835075984019e-02
-1.554215297167695770e-02
2.262412212919681920e-01
3.245653661192542949e-01
2.141757787513127731e-01
9.590985039222731101e-02
1.109127022061990459e-01
2.201328719977229953e-01
2.999450312611728342e-01
2.667631896696785465e-01
1.160074320730185432e-01
-1.077171677846884001e-01
-3.380397894159414829e-01
-4.973524026918735297e-01
-5.266991613781841775e-01
-4.218657728643501192e-01
-2.297122663967618994e-01
-1.560684533634371096e-02
1.568916627049925516e-01
2.329795377155625125e-01
1.815339115634934108e-01
1.648992247568253910e-02
-1.987615887112335056e-01
-3.776186013483904258e-01
-4.486082667466534946e-01
-3.810740196483718423e-01
-1.953541772132831866e-01
4.491660419645567004e-02
2.573715959537811737e-01
3.634876818871091708e-01
3.140287641826028930e-01
1.307279130971263637e-01
-8.776142724955784957e-02
-2.381996230766640077e-01
-2.836229286971800323e-01
-2.409940579750668999e-01
-1.356025522333241251e-01
6.085388073815551496e-03
1.406136515249104824e-01
2.105812876122366284e-01
1.709901425253269880e-01
1.678062510604942659e-02
-2.070954530207119726e-01
-4.118334584694658407e-01
-4.949261473297816849e-01
-4.167208658518220532e-01
-2.623054470617972034e-01
-1.515918865041676056e-01
-3.507389503422801008e-02
3.104922231857895065e-01
9.024855079067061192e-01
1.253224642280252210e+00
8.420604495251033939e-01
-7.118083438797633000e-02
-6.162893915062657157e-01
-3.797807972571963231e-01
2.123191121689131378e-01
5.837838516976764369e-01
6.030836976559615925e-01
4.682861880312850222e-01
3.367040069457931661e-01
1.937773930014517199e-01
-1.563186114469720944e-02
-2.537122894700090669e-01
-4.260693709598087353e-01
-4.828122039549871958e-01
-4.271105740653131644e-01
-2.763693580974718178e-01
-7.241788799966140944e-02
1.055137856257866991e-01
1.839595639310278030e-01
1.428471133777546032e-01
1.352951304321197736e-02
-1.501130329009087161e-01
-2.917381087993898281e-01
-3.619833251791696460e-01
-3.305736262197789266e-01
-2.039342923051272738e-01
-2.932152541562591322e-02
1.303375994800646809e-01
2.257910349881604439e-01
2.257417540895738650e-01
1.186259199613470955e-01
-6.583916396862461717e-02
-2.533320439045997352e-01
-3.665838157619902837e-01
-3.662678106553023394e-01
-2.502130434859693442e-01
-3.700046502900231071e-02
2.232528181800426947e-01
4.235874793386136816e-01
4.370632704107114130e-01
2.306938553842746986e-01
-8.371358146701352032e-02
-3.493545682051708567e-01
-4.798772005707382937e-01
-4.648189595824938070e-01
-3.228894993415680759e-01
-8.873133350179794598e-02
1.602953885959542135e-01
2.925841764516117216e-01
2.147055752810688167e-01
3.707354365722250605e-02
5.637838940424190481e-02
3.849861046183006841e-01
6.433106472338796511e-01
3.715150746583364416e-01
-2.231719187744927169e-01
-4.193396463281804376e-01
5.134531416201758292e-02
6.977027443023147146e-01
9.542520801362185390e-01
7.365092889519800901e-01
3.082662222065610802e-01
-7.486630334782443108e-02
-3.073195501386287165e-01
-3.849426370986739898e-01
-3.409647363291420374e-01
-2.239351966215706868e-01
-8.292571726005680544e-02
4.784068256298444621e-02
1.398910731668818463e-01
1.507460143117082263e-01
4.191914915723926605e-02
-1.652926834536698752e-01
-3.710532231007996895e-01
-4.643309153379679977e-01
-4.073738280198609951e-01
-2.435642631862526830e-01
-4.543100979734725209e-02
1.249385329510333820e-01
2.251428585773078694e-01
2.296538201078185126e-01
1.295830779717508374e-01
-5.249791328439741556e-02
-2.488319022934251945e-01
-3.719717912849281882e-01
-3.682277194095890938e-01
-2.462513374785817721e-01
-6.382119986480470908e-02
1.083368614666656293e-01
2.224645409143222730e-01
2.594700655797977928e-01
2.050248872426987945e-01
5.086223821099686987e-02
-1.656125864663306746e-01
-3.564706724590845921e-01
-4.389828668874348749e-01
-3.839627976670932918e-01
-2.210450821425688217e-01
-2.001891191481390206e-02
1.465804129126122290e-01
2.385290065911397361e-01
2.357138331502680595e-01
1.037776760025918149e-01
-1.726899498414391498e-01
-4.754840190682847467e-01
-5.130255891528945345e-01
-7.162964934577223386e-02
5.937102089363213153e-01
8.770369053443395346e-01
5.606572653636596737e-01
1.284316306625840898e-01
8.939503375198229462e-02
3.512500275711293307e-01
4.930938447769975252e-01
3.318002163783182468e-01
2.202392868306779494e-02
-2.038271752019727712e-01
-2.318055345629641828e-01
-7.393502786146689820e-02
1.838687827501309657e-01
4.023259176190570052e-01
4.350408765525904942e-01
2.404123433289641620e-01
-6.370655583402819178e-02
-3.158559057294856309e-01
-4.750689688467374938e-01
-6.078733844734673930e-01
-7.050669051462533643e-01
-6.207849942251231212e-01
-2.853361032644154416e-01
1.190811716362588923e-01
3.216042061003717700e-01
2.365004990266171281e-01
-8.531064742603768070e-03
-2.416781010889139658e-01
-3.706824555757849970e-01
-3.834996729159579898e-01
-2.963017209741189428e-01
-1.259480390432763108e-01
8.862690349840049442e-02
2.652997791564654650e-01
3.225788657160647555e-01
2.494873777779870183e-01
1.051681126074490158e-01
-4.190973135696947349e-02
-1.541318845531837733e-01
-2.229540163073406578e-01
-2.435470660223834072e-01
-1.919463165887951017e-01
-4.993425221220260113e-02
1.372954904769830287e-01
2.656597902610650097e-01
2.543312527425070080e-01
1.062289907424554813e-01
-1.027185419107150277e-01
-2.757157659991466003e-01
-3.638526204188238800e-01
-3.970846690583970107e-01
-3.920287809501771248e-01
-2.157874104828619855e-01
3.018344525573353754e-01
9.807758852205704647e-01
1.236812598911027461e+00
7.472967328814534849e-01
-2.095286371109639223e-02
-3.420495046387949656e-01
-8.688576393600808134e-02
3.014953357103322129e-01
4.564628548865851121e-01
3.970981204586675473e-01
3.193911766491968063e-01
3.113103377152744988e-01
3.009014441860038969e-01
1.926311208350676429e-01
-1.711039058409925123e-02
-2.475713510381956917e-01
-4.086555359039952817e-01
-4.577212844781257672e-01
-3.995723130297098580e-01
-2.597648604407789552e-01
-8.273958485937987772e-02
6.511432808998979249e-02
1.282439012196699146e-01
8.970033294332370455e-02
-4.091072470019598006e-02
-2.281241497733931256e-01
-3.943002347560759513e-01
-4.553043555326627967e-01
-3.856184495036714122e-01
-2.235640604190019531e-01
-2.824206147485081031e-02
1.462428247219009769e-01
2.566349582709234745e-01
2.729974042821631253e-01
1.777543850374623258e-01
-1.728609511179568167e-02
-2.387362891667001441e-01
-3.701004390882511874e-01
-3.369123642961898146e-01
-1.675438219755662761e-01
3.766490681950042385e-02
1.858998837990504527e-01
2.383142462912143933e-01
1.962736290628052105e-01
7.211245771334957866e-02
-1.097632145205244270e-01
-3.004996933264174608e-01
-4.340045947528820558e-01
-4.432544926476644775e-01
-2.934646207735946977e-01
-4.284525464563215813e-02
1.574795216985025448e-01
2.089878833506940148e-01
2.244471598087500186e-01
4.241513992031195057e-01
7.585929752622491140e-01
7.906182458832557991e-01
2.579329180232360352e-01
-3.931619329061440959e-01
-4.744796603342645858e-01
7.042103751214169594e-02
6.782118873320799324e-01
8.953857886432710078e-01
7.355435276775318387e-01
4.312308527498144861e-01
1.356605307021847284e-01
-1.136129906472144319e-01
-3.078760414569331472e-01
-4.290699843869433816e-01
-4.566250932671295226e-01
-3.701545310085679885e-01
-1.710392977896282862e-01
7.095127633485170948e-02
2.304665713534429783e-01
2.216884793214008720e-01
6.078958308703506785e-02
-1.666962352959435734e-01
-3.654007873335854972e-01
-4.636667005233677807e-01
-4.332118463070860348e-01
-2.982269286055376223e-01
-1.155891168446382122e-01
6.024626944903111597e-02
1.855941011897002668e-01
2.190874259977212690e-01
1.393749113375133408e-01
-2.813902052295176592e-02
-2.131302201092950821e-01
-3.319858215262921353e-01
-3.346393154633325873e-01
-2.281705391105884051e-01
-5.440629597587574862e-02
1.330520210494394728e-01
2.683697178771005665e-01
2.925014068461317396e-01
1.906243820092777819e-01
-4.140598012897126617e-03
-2.330856066845624908e-01
-4.209940151832899380e-01
-4.920243776466637908e-01
-4.155154545352905404e-01
-2.333828142664945426e-01
-2.631817350060221619e-02
1.370648802900454599e-01
2.058030977520372007e-01
1.302466008686468113e-01
-8.650008650257277887e-02
-2.761903649760167889e-01
-1.555935493957569249e-01
3.114664165825254960e-01
6.775381525396060312e-01
4.965274201916090036e-01
1.192429923338658715e-02
-1.146430572768858125e-01
2.778470165469880682e-01
6.977899331831735052e-01
7.010820046994494792e-01
3.318965200378484193e-01
-9.092951650522672347e-02
-3.402822441489784522e-01
-3.908551214330949763e-01
-3.129320568673277791e-01
-1.692233776502522768e-01
-1.135185525131410939e-02
9.465446460923009064e-02
9.034658537205693396e-02
-3.170998142622476201e-02
-2.209180629692514553e-01
-3.998548941488902497e-01
-4.996010185926579306e-01
-4.779804798874286442e-01
-3.309644381205982810e-01
-1.087326096614158188e-01
9.793173916737381302e-02
2.188785955183887855e-01
2.392430027383924407e-01
1.652360502540091980e-01
4.894781112498455822e-03
-1.964659937255125999e-01
-3.546612182212038888e-01
-4.055842327262665359e-01
-3.282770366550607499e-01
-1.219152267348440066e-01
1.633943078874711685e-01
3.894819642240884838e-01
4.287742258456844202e-01
2.962999485667393018e-01
1.058371393776769143e-01
-6.921765727506923316e-02
-2.191322937333059773e-01
-3.245808488593616148e-01
-3.356353099667400142e-01
-2.242157132038910539e-01
-2.060853379996786805e-02
2.017656985028745409e-01
3.510927227557224528e-01
3.487044200335793764e-01
1.903801816132037472e-01
-3.480115475649313284e-02
-2.336788597023662928e-01
-3.890611924716753101e-01
-4.803266341716065368e-01
-3.482860288932308479e-01
1.949087432024550204e-01
9.875915348099818525e-01
1.427561363734043853e+00
1.081795423270561551e+00
2.845961521296215269e-01
-2.360327981578496104e-01
-2.071686001848269398e-01
5.470363907251747648e-02
1.924279779079417496e-01
1.633185429126266242e-01
1.156479673296869348e-01
1.414492032643454855e-01
2.018307272187025714e-01
2.084830157375132664e-01
1.110936203183697096e-01
-7.857326064276348720e-02
-3.012441079989134352e-01
-4.760656678712990586e-01
-5.280264768822749977e-01
-4.194891350340418379e-01
-1.894517866565600672e-01
4.785102972894918899e-02
1.887245510833852613e-01
2.187958746867451620e-01
1.757342523889882935e-01
7.231845484455610984e-02
-9.439241294342508304e-02
-2.844113907294035237e-01
-4.086458974619259221e-01
-3.881457440088116884e-01
-2.195116381385188720e-01
1.413181664467919041e-02
1.956499246812779536e-01
2.466066554730341198e-01
1.668501366103273265e-01
1.045373662964397404e-02
-1.647107856339660725e-01
-3.071803927281053226e-01
-3.665454340386199439e-01
-3.237623100050811553e-01
-2.065532763371411284e-01
-5.500085983117456584e-02
9.258741177433436886e-02
1.794588827925185370e-01
1.523483314256753596e-01
1.355859409338215985e-02
-1.800579010594264839e-01
-3.589738847461614313e-01
-4.595945808369634733e-01
-4.282758738894001382e-01
-2.615664188847167670e-01
-5.829445270585217886e-02
4.745467673551181237e-02
9.026486498185122553e-02
3.152328033836325760e-01
8.073613175632140537e-01
1.136558973672997741e+00
7.701907579940986404e-01
-8.870629261243030694e-02
-5.879678138509065732e-01
-2.811399625325922136e-01
4.156118531449958242e-01
8.795341968218173268e-01
9.192440721484919086e-01
7.063127816338304887e-01
4.306630289191260008e-01
1.600856272178725337e-01
-9.982584482653358848e-02
-3.267906244957586859e-01
-4.662809331564827242e-01
-4.665326987077289544e-01
-3.249494050246419796e-01
-1.050665573511111173e-01
9.507913197811872219e-02
1.978446903830715087e-01
1.792031731278034556e-01
6.167378264461912535e-02
-1.098329546592590328e-01
-2.787161442081202423e-01
-3.814038317673436596e-01
-3.702748380077262591e-01
-2.438920628424045556e-01
-4.995441684328455478e-02
1.401898253453637833e-01
2.556819635418979275e-01
2.476061976096464445e-01
1.171709771578592768e-01
-7.951126502190716816e-02
-2.676058518338286785e-01
-3.912538932091276789e-01
-4.173957412994600547e-01
-3.244419185414499363e-01
-1.177466226401633620e-01
1.350300402704583957e-01
3.159987415504013630e-01
3.325309849773941395e-01
1.765772828218001300e-01
-8.012201873435655097e-02
-3.279775667955004415e-01
-4.764624916068949112e-01
-4.979718491564167904e-01
-4.159086187692863090e-01
-2.603789249569798403e-01
-6.021552421189536874e-02
1.238368382065949264e-01
1.891557755436555910e-01
6.046493475164213538e-02
-1.839412768246815877e-01
-2.801429087841448284e-01
-2.383234825200220702e-02
3.755713847773293756e-01
4.335262065585866464e-01
7.161298880733638073e-02
-1.829644983478767584e-01
7.594823011690209069e-02
5.923605734729655570e-01
8.481226802350680938e-01
6.639702905561307711e-01
2.428512602531907594e-01
-1.450007433280996183e-01
-3.593073244235924779e-01
-3.755956409449312527e-01
-2.358810394391541720e-01
-3.690254124356703164e-02
1.137355109978269302e-01
1.626964766084254277e-01
1.137515663457974585e-01
-1.459550508103323735e-02
-1.962790884711127504e-01
-3.748368545350573289e-01
-4.757067299849380704e-01
-4.516884366901683379e-01
-3.055619789508289275e-01
-8.154395101067456186e-02
1.471111011965631765e-01
2.968944933609555248e-01
3.101465069923109441e-01
1.854804969371293133e-01
-2.680190906861402989e-02
-2.521263847387577584e-01
-4.110276055131997230e-01
-4.363545346008766979e-01
-3.077953446837266016e-01
-7.947079171911342055e-02
1.446541043094432544e-01
2.801241400981318019e-01
3.048476556547988769e-01
2.334982076188042432e-01
8.112248974164502913e-02
-1.210287199618067383e-01
-3.000588024232859752e-01
-3.755946291167007178e-01
-3.234861317239292600e-01
-1.845949608465982106e-01
-1.503942251854850469e-02
1.401760891202470938e-01
2.298378260042165944e-01
2.099223009076752466e-01
9.031638507278161310e-02
-7.691347641682665104e-02
-2.617399820849508063e-01
-4.436269611764531717e-01
-4.939357975735466644e-01
-1.741729382626020228e-01
5.405655124405718270e-01
1.162296566289358957e+00
1.097140554050506589e+00
4.460983814063190778e-01
-6.755409686598033703e-02
-5.170685620006786054e-02
1.863124975432281227e-01
2.435066403355679587e-01
1.101075691260062217e-01
6.376370573330930602e-03
4.918330105973962169e-02
1.748981568422993960e-01
2.607430945245597931e-01
2.350074659383570019e-01
9.535741373695136303e-02
-1.145211376189678998e-01
-3.227290959141898008e-01
-4.583940976092432673e-01
-4.874201088731228704e-01
-4.110023096170022372e-01
-2.450488270980472616e-01
-2.877852091078467872e-02
1.631625423483297199e-01
2.488594263084774050e-01
1.866274035282321220e-01
1.557396883831448087e-03
-2.229943305245606078e-01
-3.869407610797447328e-01
-4.251476187511107341e-01
-3.320041367349182426e-01
-1.489251947910590623e-01
5.967771500943756802e-02
2.256964289248671041e-01
2.976869887475012133e-01
2.575219762878050989e-01
1.239075825738092662e-01
-5.239031437164641536e-02
-2.032311217115073398e-01
-2.722636072599760038e-01
-2.401362394466086403e-01
-1.263087484728991905e-01
2.376485543248917434e-02
1.511615703993731963e-01
2.027032203202525085e-01
1.587065762714767736e-01
3.738620539321353686e-02
-1.295995829312933667e-01
-3.000404580615769201e-01
-4.036307948627603781e-01
-3.736120325585576829e-01
-2.234779301506995552e-01
-6.490592321364226092e-02
8.215701564998600590e-03
8.699166667440472178e-02
4.039157498963458215e-01
9.511606271247132760e-01
1.232544620348882569e+00
7.744817133041241863e-01
-1.159012249172871045e-01
-5.941384045046526063e-01
-3.025638258315368478e-01
3.255258670739596405e-01
7.269437128971690809e-01
7.426023312579659308e-01
5.350655178530384637e-01
2.862296236758904433e-01
5.252353413382113839e-02
-1.773698695118245405e-01
-3.762852891042098302e-01
-4.742589072764389901e-01
-4.332666747810912100e-01
-2.815349932162918845e-01
-8.494772326776159344e-02
8.330343441072687871e-02
1.589669885731092025e-01
1.085026032356900816e-01
-5.211505186560169700e-02
-2.586874137166800813e-01
-4.239689983015526020e-01
-4.777258496827569978e-01
-3.969988734627483695e-01
-2.138848198977859882e-01
-2.623115147112990708e-04
1.723432867347937658e-01
2.626047701761169417e-01
2.500877151888882821e-01
1.297486811348832203e-01
-6.366035482320495098e-02
-2.498027137751983318e-01
-3.498355727232180246e-01
-3.376927619003998182e-01
-2.293503452564294720e-01
-4.554511261723602489e-02
1.717994725644160225e-01
3.294382587069409341e-01
3.333544319139116752e-01
1.751991723549930213e-01
-6.813430826071398272e-02
-3.098614097098273956e-01
-4.894050665373440578e-01
-5.549916243277962513e-01
-4.721117650405748378e-01
-2.624629501146094612e-01
-4.351600821816011683e-03
2.048510870552217866e-01
2.670521901478323801e-01
1.084883888018825515e-01
-2.171279414418097742e-01
-4.361863156246857387e-01
-2.258048706172548492e-01
3.565776133909541179e-01
7.669719856138786929e-01
6.044742183046935002e-01
1.938602993194360469e-01
1.506836415245355332e-01
5.498802129576398912e-01
9.171348844256796973e-01
8.673232168487075011e-01
4.500635024886499580e-01
-2.314712052550509103e-02
-2.969648576590196432e-01
-3.229481094780917716e-01
-1.959171773718430820e-01
-2.668785772661101674e-02
1.125955241955501895e-01
1.804717641748377344e-01
1.547754816065622097e-01
3.224776209647287756e-02
-1.645013664419501531e-01
-3.786855600322523996e-01
-5.274759115137542809e-01
-5.370950968357534050e-01
-3.894121317482444056e-01
-1.434771131505536146e-01
9.237933080430778265e-02
2.210986828946796545e-01
2.066339558277818511e-01
7.719321475907243990e-02
-1.097136564774017914e-01
-2.931913411735692643e-01
-4.140984213783160950e-01
-4.295814782134473875e-01
-3.303967063448300934e-01
-1.416665497810568053e-01
7.794699913939583114e-02
2.484787508905868803e-01
3.104982047786569721e-01
2.546134836922627209e-01
1.089992717830186170e-01
-8.048545327836403862e-02
-2.567542131483636636e-01
-3.595317884653065899e-01
-3.446364689551574823e-01
-2.125552398186717484e-01
-2.288121551812694054e-02
1.354985650971266553e-01
1.967734024666418780e-01
1.429609810489829158e-01
-2.556909058122676381e-03
-1.960764371076249291e-01
-4.015041171193978742e-01
-5.748612819716611977e-01
-5.846680017437242416e-01
-2.242395690966911825e-01
5.133758405795317836e-01
1.164560112451771268e+00
1.133846898466510211e+00
4.639641728609465998e-01
-1.282402114085551825e-01
-1.556247025202046330e-01
1.388921192225201773e-01
2.898997571312421639e-01
1.882083796851352353e-01
4.002296854171774609e-02
2.765976692509815663e-02
1.419093831715317888e-01
2.544038999133934609e-01
2.593808427927595250e-01
1.410604203354770270e-01
-5.199146875554366831e-02
-2.587231689046906591e-01
-4.227308723326049233e-01
-4.828110166285806137e-01
-3.938698602591321762e-01
-1.834180935233780119e-01
4.193929295574139182e-02
1.793949965887910447e-01
2.021445303880578526e-01
1.351818338016088361e-01
-3.509665980727053741e-04
-1.814205494636796645e-01
-3.463003458465118145e-01
-4.111259304006657511e-01
-3.352005806794247089e-01
-1.556280503224574119e-01
4.425954963654215452e-02
1.891877670164389402e-01
2.391463136176586179e-01
1.890715946842597417e-01
6.364215271806079877e-02
-9.103468997262995077e-02
-2.236552465074179152e-01
-2.909354660349549038e-01
-2.668697626128149203e-01
-1.553875923847005680e-01
5.287228663980543877e-03
1.559304215862915566e-01
2.344332996467828334e-01
1.924146402781463649e-01
2.240865725674714634e-02
-2.169207084348415970e-01
-4.174911352228752870e-01
-4.817685883194312013e-01
-3.835867922028393107e-01
-1.932241120688441005e-01
-3.665617979571429014e-02
2.682218427308037667e-02
1.174854788910379422e-01
4.237503798640059882e-01
8.499774026302654439e-01
9.211756841418213826e-01
3.505517845761520479e-01
-4.104556692889854697e-01
-6.185157732587264201e-01
-1.443688931822355026e-01
4.777546655055162073e-01
7.630501509535402294e-01
6.736304655474719683e-01
4.225445687929850758e-01
1.780934488354653511e-01
-1.439003237199403679e-02
-1.635709971652884176e-01
-2.794814554664266093e-01
-3.634988813406387909e-01
-3.891491954988370860e-01
-3.099197686716254063e-01
-1.270404312828093962e-01
7.468060547218745293e-02
1.865156922107606696e-01
1.578999103153851391e-01
1.762205194324694552e-02
-1.622858177977544447e-01
-3.121156059873503863e-01
-3.851280936829927226e-01
-3.541793473161999883e-01
-2.157094563432310208e-01
-9.895802490752787783e-03
1.823724371535139777e-01
2.836827489839754413e-01
2.631381022316922058e-01
1.395150983866357275e-01
-3.879489386514332894e-02
-2.061572248197488522e-01
-2.962310575614743868e-01
-2.761263769021489178e-01
-1.605395215137312148e-01
1.207344189136434418e-02
1.960129811315085568e-01
3.311526925678919819e-01
3.552845572379586536e-01
2.459902564500448252e-01
4.154458123521224955e-02
-1.849312832122347039e-01
-3.616976788336569992e-01
-4.346848418918141665e-01
-3.788408558004429105e-01
-2.095999205812030808e-01
2.678189682096285967e-02
2.642019319457810100e-01
3.996756552436976362e-01
3.158137540575536861e-01
1.936079351033716950e-02
-2.296781801846813076e-01
-8.098907225574240865e-02
4.485574297282106659e-01
8.211762297771370012e-01
6.018728695663793093e-01
1.075640067082052065e-01
6.316923680916942951e-03
4.072403101407147674e-01
7.935067658795671441e-01
7.379660215196491846e-01
3.178400806215718188e-01
-1.235770497494479148e-01
-3.605237070891677553e-01
-3.832607727881632842e-01
-2.713426766703715964e-01
-9.851275455158343963e-02
5.993115305406419152e-02
1.263455629341199982e-01
6.809510675427665749e-02
-7.916073167185742887e-02
-2.470558946702130776e-01
-3.831204556387107774e-01
-4.622067832421166700e-01
-4.650293966523227351e-01
-3.720682993340111433e-01
-1.921929751819738685e-01
1.504497790086553946e-02
1.641114121225612232e-01
1.948896657752249018e-01
9.991754725315940555e-02
-8.128377631716653118e-02
-2.788625034654961254e-01
-4.194632846958256667e-01
-4.562153337088935001e-01
-3.741794664192743536e-01
-1.855403063418847864e-01
5.312086295436799915e-02
2.396885674463004601e-01
2.856320276298133787e-01
1.807735459050900384e-01
-1.116402603667135049e-02
-2.088480395652294874e-01
-3.533735163966529313e-01
-4.115869079301128775e-01
-3.721846479510108052e-01
-2.476525094711551633e-01
-7.394348402517712804e-02
8.999676648622870201e-02
1.735717377926512817e-01
1.349471226893902420e-01
-3.748480083401034557e-03
-1.817750076258343450e-01
-3.586171643630944872e-01
-5.167250631415155615e-01
-5.838053888040648509e-01
-3.775062285625330749e-01
2.460947966982763302e-01
1.055784748589325028e+00
1.425752898791771361e+00
9.910291547396986589e-01
1.970903535556177699e-01
-2.003387326556891335e-01
-2.741069101041446188e-02
2.861733209664049649e-01
3.741341464508893266e-01
2.713665014437188772e-01
1.887129909995022559e-01
2.105617315704066406e-01
2.561619449154927119e-01
2.245311563367959895e-01
9.279693590296092531e-02
-1.015056837961332420e-01
-3.039944344723083391e-01
-4.573102656191780357e-01
-5.099015918774369993e-01
-4.362040633733239026e-01
-2.528244442795611890e-01
-1.809408777365266452e-02
1.830215042964422889e-01
2.674885796858201825e-01
1.920016298837272650e-01
-2.132838633951347415e-02
-2.862020218215344802e-01
-4.826242868453953228e-01
-5.183354927115371158e-01
-3.894272315271705698e-01
-1.806211954122448338e-01
7.379184446626257249e-03
1.372312618254996897e-01
2.318181198337949667e-01
2.876462030210537035e-01
2.362489466780551550e-01
4.409405870268734429e-02
-1.862028238203944364e-01
-2.943365271002998940e-01
-2.305167331944960041e-01
-8.150366517057744398e-02
5.130049116496412237e-02
1.333244816270398314e-01
1.657112924058061487e-01
1.339547102530821987e-01
1.502199228123282486e-02
-1.779805892286218938e-01
-3.774199607651506083e-01
-4.880423063799473327e-01
-4.394889637227381574e-01
-2.497209370014299434e-01
-4.545323147577913503e-02
4.722897300765735440e-02
9.434742693045430895e-02
3.460373369820755052e-01
8.435816436851506506e-01
1.115497535128984419e+00
6.734423701930145612e-01
-1.852314522440615674e-01
-6.088765808812957037e-01
-2.563007853337930797e-01
3.968215199242156044e-01
7.718238168932431975e-01
7.385903796155735002e-01
4.867887126805899856e-01
1.975293135783857401e-01
-6.572156120682705327e-02
-2.841678792075415516e-01
-4.241037798841800766e-01
-4.525697665289125649e-01
-3.668555453584279036e-01
-2.007197696600398762e-01
-1.578736645701508956e-02
1.192125068309186492e-01
1.570512013844166110e-01
8.882737046232815070e-02
-5.748703186239879914e-02
-2.258875700544032972e-01
-3.504010760928017443e-01
-3.865486457286186894e-01
-3.338659724003647522e-01
-2.208053692248275468e-01
-6.833377726683187436e-02
1.048293054691388643e-01
2.370630155059348654e-01
2.405191367912117295e-01
9.560299886404895198e-02
-1.041407084822058154e-01
-2.277029834964425237e-01
-2.260319289967190060e-01
-1.589242412179426578e-01
-8.705444514356698582e-02
1.345038234725226024e-02
1.719860517186935778e-01
3.181051884164208809e-01
3.360587689322139249e-01
1.930840175524168589e-01
-3.725120229121758886e-02
-2.500530666027417359e-01
-3.749406802480208523e-01
-3.918058429429361333e-01
-3.145198190490461343e-01
-1.691388403633305448e-01
1.145560628627531607e-02
1.753222951420507769e-01
2.453760980003699688e-01
1.484628867342522307e-01
-1.000457986642654118e-01
-3.016608449640510448e-01
-1.614466417678173948e-01
3.386608437279565176e-01
7.246938065183440303e-01
5.488830286810312264e-01
9.305548297973009753e-02
5.857274679139347351e-02
5.643041420171980294e-01
9.933095601210073511e-01
8.451175610363764745e-01
2.785964396241085717e-01
-2.266711625769768923e-01
-4.103392968875230751e-01
-3.456649168122343241e-01
-2.129417483837967029e-01
-9.461185390894039093e-02
2.389768472884681513e-02
1.301377750328694682e-01
1.431739145780932532e-01
8.179410765215770762e-03
-2.264884763210633090e-01
-4.443443521751428982e-01
-5.412945957578835232e-01
-4.824796751591725052e-01
-3.123887211872152792e-01
-1.087145048041019413e-01
7.120536542472925834e-02
1.897670960385307859e-01
2.090297887474639738e-01
1.108168386201466016e-01
-7.186586115539117525e-02
-2.644081443816569954e-01
-3.934711386072951012e-01
-4.187489949602856698e-01
-3.294963095444456425e-01
-1.383246862588828341e-01
9.718735570635270160e-02
2.766892009253923979e-01
3.242049756829743501e-01
2.415826454743508211e-01
7.944650118380730541e-02
-1.087966364353930154e-01
-2.683026625634422624e-01
-3.458094773282396894e-01
-3.220465521172891643e-01
-2.214813078881390784e-01
-8.253603092444257439e-02
5.729664713867460568e-02
1.469780037181990240e-01
1.357149214772894741e-01
2.187995557468785934e-02
-1.410270862203560072e-01
-3.019404787107232147e-01
-4.393770801967958328e-01
-4.900391879117390603e-01
-2.806903938337174109e-01
3.219023819175263479e-01
1.076643809775183147e+00
1.382167299981001074e+00
9.305433049918533372e-01
1.757393894079267993e-01
-1.959129624995530894e-01
-5.472196735179571392e-02
2.152232246159470064e-01
3.016621381351061171e-01
2.274976089569604731e-01
1.646965218905480643e-01
1.877821520363095742e-01
2.236573955973825967e-01
1.713329700641426367e-01
1.711113412297789182e-02
-1.724039873774675102e-01
-3.296548397603409342e-01
-4.244230201501392186e-01
-4.412846061184517166e-01
-3.632215302376369803e-01
-2.004828271712255916e-01
-1.736048277116748403e-02
1.055898230895391254e-01
1.327091410167230146e-01
7.323113040196931045e-02
-5.117677382908548261e-02
-2.030731885611985199e-01
-3.220298157292617591e-01
-3.561109337079026993e-01
-2.932865460372205413e-01
-1.579424959595251421e-01
4.163310562435252812e-03
1.359167275463104840e-01
1.887942642339270616e-01
1.454153927849186900e-01
2.092207194307237755e-02
-1.468639795785698920e-01
-3.022939754286924630e-01
-3.832787834264670956e-01
-3.435985290236334699e-01
-1.724292855529537816e-01
8.726219304808983945e-02
3.240125864596122840e-01
4.004870984187777760e-01
2.662288524605682660e-01
9.989700565626404016e-03
-2.331861190777568815e-01
-3.897966102391169363e-01
-4.442413452089956638e-01
-3.883554691784094626e-01
-2.297511069723922328e-01
-4.056237099530111967e-02
6.242847842629405813e-02
5.630970850034426600e-02
1.171346814102349893e-01
4.284717796371161902e-01
8.003777220802071879e-01
7.433649461064656405e-01
1.591162125449933074e-01
-3.612263513618078625e-01
-2.467195195322299528e-01
3.578520110132840659e-01
8.715060335693572968e-01
9.583231807350813813e-01
7.140366139698502979e-01
3.817069143148031918e-01
9.412217160465058408e-02
-1.379742093077457876e-01
-3.181831960048767116e-01
-4.093434692923121343e-01
-3.673054764128464433e-01
-2.021100285765790316e-01
4.056188623800402460e-03
1.468403568514807245e-01
1.694212680305378360e-01
8.112774527937799407e-02
-7.575247448388532090e-02
-2.499582809577956255e-01
-3.806918911702432129e-01
-4.180839492136968483e-01
-3.591805035331653295e-01
-2.375245004849879105e-01
-8.146239665017172837e-02
8.076275724030336500e-02
1.888548551593442204e-01
1.783485228799731592e-01
4.678099774615319950e-02
-1.373752856492284624e-01
-2.911642187522098801e-01
-3.689960396239388984e-01
-3.614003454947687377e-01
-2.599523417317570195e-01
-5.925105656692535028e-02
1.906326495280163402e-01
3.728675313051633688e-01
3.815663250819843477e-01
2.064857956053765542e-01
-6.232543337444047815e-02
-3.030566098300205291e-01
-4.364141428347622642e-01
-4.471200636493705693e-01
-3.563177550832083984e-01
-1.955569587620231697e-01
-6.268373610774528870e-03
1.568422845821978717e-01
2.310500909664788549e-01
1.542663484298511523e-01
-8.834406109336419288e-02
-3.605453822422425292e-01
-3.655821001703396522e-01
6.497845399061738525e-02
6.124191537375571759e-01
7.030334295823321700e-01
2.796914536654949712e-01
-4.943166022975246932e-02
1.476180940549415288e-01
5.777126786729093189e-01
7.074871869101502231e-01
4.090252144660054268e-01
-3.536428583826559807e-02
-3.181429599665435703e-01
-3.457426761684037064e-01
-1.996686652281260133e-01
-4.194677468441883328e-03
1.433757386367610909e-01
1.865895609762955876e-01
1.136142087293128544e-01
-5.299510544250309041e-02
-2.705651608619037973e-01
-4.704491845217961821e-01
-5.667861966767637760e-01
-5.106780153305733316e-01
-3.312814272298967855e-01
-1.121728401677009601e-01
6.136942817380210830e-02
1.422781918211731833e-01
1.315186704629269510e-01
4.852352541095193705e-02
-9.105900756035988086e-02
-2.489293130712814106e-01
-3.505084147491683289e-01
-3.353549476524599338e-01
-2.057135963803789769e-01
-1.242912660311932746e-02
1.804224794925686770e-01
3.116778810042532544e-01
3.410310987677935834e-01
2.677833143830312124e-01
1.221532113161764577e-01
-5.487895293632827354e-02
-2.154558566076054116e-01
-3.079090629521702982e-01
-2.954476565348014283e-01
-1.748660661696608276e-01
1.502868746960214080e-02
1.952308597059795314e-01
2.747168170667501630e-01
2.045401300212808526e-01
1.728128688337691315e-02
-1.851065557919377158e-01
-3.038540904479772875e-01
-3.310379066050735952e-01
-3.326146889609673529e-01
-2.881158734080139228e-01
-1.055157959022014376e-02
5.899694679434323019e-01
1.145846941501928562e+00
1.072207793360506978e+00
3.542527038757297686e-01
-3.010257500577486200e-01
-3.329602073033954279e-01
6.770222904995429336e-02
3.884663220266942885e-01
4.243802564819760814e-01
3.184231708523100335e-01
2.466811276099151462e-01
2.355230863121459961e-01
2.049002204309621211e-01
8.155774930655362853e-02
-1.324450122617160108e-01
-3.578322277574120247e-01
-4.915085015117483525e-01
-4.771265258370867568e-01
-3.339391578153514395e-01
-1.298557339140807010e-01
5.930899575966859516e-02
1.771356095450955792e-01
1.993877747289653779e-01
1.307957001356611915e-01
-4.931422961110366182e-03
-1.687397122007751882e-01
-3.050840234266783968e-01
-3.509645442226110301e-01
-2.705567797412989917e-01
-9.456938645792173359e-02
9.123675069157902162e-02
2.120486910916494772e-01
2.463503170998277703e-01
2.020783618850577334e-01
8.467000435430999117e-02
-9.359948973981649378e-02
-2.865421598496016853e-01
-4.053070438488841631e-01
-3.589206081218694333e-01
-1.426925900893651622e-01
1.248251081187303629e-01
2.938416239671715613e-01
3.031928275971265130e-01
1.923830508626552804e-01
3.007952209988264125e-02
-1.387461819902905680e-01
-2.910706584356991256e-01
-3.986536145806476306e-01
-4.185043729241811339e-01
-3.175755357654259647e-01
-1.081195357240038735e-01
1.305317225657238456e-01
2.614976859422944444e-01
1.841633432294219885e-01
5.108734895703667678e-03
4.401558156281769330e-02
4.438210337652747639e-01
7.984001766470696371e-01
5.663206011155302866e-01
-8.875746460965969198e-02
-3.947624771720590342e-01
5.747714949531176898e-03
6.526860045921635267e-01
9.315591072608992995e-01
7.073607540473741961e-01
2.575790452105827244e-01
-1.239259572834411210e-01
-3.340443921665063320e-01
-3.996971190487259573e-01
-3.605305272758105861e-01
-2.404269753080335859e-01
-7.992619132063935594e-02
5.233041953280039710e-02
9.352079815978911470e-02
2.556274265494790088e-02
-1.207390249755154465e-01
-2.897532777781277602e-01
-4.250181007294704938e-01
-4.795548344634830151e-01
-4.213569420994101034e-01
-2.523770218726383296e-01
-2.814774057678024258e-02
1.635120327069447543e-01
2.541580280997915997e-01
2.168668520630422647e-01
6.087235287478456880e-02
-1.566005478208871704e-01
-3.349542699916348010e-01
-3.942862990564552361e-01
-3.250689054178133586e-01
-1.618471427888617253e-01
4.742282534135157379e-02
2.345276781748512340e-01
3.321192763098668177e-01
3.184610260876392096e-01
2.099157613982805259e-01
3.189687500392293651e-02
-1.690342632773287612e-01
-3.207903785403737884e-01
-3.661611078545687903e-01
-2.952105944425739148e-01
-1.461667312227988846e-01
9.719678017758933905e-03
1.070324810732328907e-01
1.252790703720916832e-01
7.900469662644755975e-02
-2.027605587945189441e-02
-1.738877871265711583e-01
-3.591195223317583118e-01
-4.589804332198803571e-01
-2.551585705457572462e-01
3.495988294989318401e-01
1.015744263161630245e+00
1.147144525974405749e+00
6.284390154804172512e-01
5.879381090752790195e-02
-1.869320402695745509e-02
2.548363871708253514e-01
4.148223371675245907e-01
2.916689918532905379e-01
7.205981082327606035e-02
-2.087761665379642834e-02
5.564065828990762824e-02
1.888437931918232338e-01
2.465361251601380366e-01
1.709176858892604567e-01
-1.705741050075772897e-02
-2.498892046290728808e-01
-4.398645950206541699e-01
-5.128397711008428894e-01
-4.475834496325085676e-01
-2.813142966657883881e-01
-7.687619310697690889e-02
1.042371237937001344e-01
2.059146436544494196e-01
1.861603633226259769e-01
4.356799910233958434e-02
-1.654223842287885493e-01
-3.515675000080247248e-01
-4.475950022176372056e-01
-4.358127991242894961e-01
-3.290749516967262367e-01
-1.533217894177267837e-01
4.357844943568719293e-02
1.943761593152530942e-01
2.431585468003653328e-01
1.716989224171134865e-01
5.094262265760880759e-03
-1.909408255212919903e-01
-3.282499935189835405e-01
-3.428410765425550788e-01
-2.346596435500333810e-01
-5.928950971914305479e-02
1.059078706420902294e-01
1.902709801586096039e-01
1.601180324692152435e-01
3.640673918524893471e-02
-1.283024978964386886e-01
-2.877885042388760306e-01
-4.058574026418178549e-01
-4.317387422306429579e-01
-3.148624882674134762e-01
-8.839818175505109732e-02
9.442822073731473032e-02
1.113805878640581892e-01
8.330482211656528579e-02
2.909160994431380098e-01
7.355776848356844200e-01
9.349080038826308447e-01
4.901542210924102472e-01
-2.429825111229187429e-01
-5.126266497415372658e-01
-1.143117003439464985e-01
4.926635425930619983e-01
8.675077118636108642e-01
9.384789668009090313e-01
7.921232132241954327e-01
4.935733795807836777e-01
1.236420214779294230e-01
-2.037574842866800018e-01
-4.037150171833513435e-01
-4.545059451673099105e-01
-3.761347838764987350e-01
-2.047544174442018639e-01
1.408164546586029853e-03
1.579501312299658455e-01
1.926975595173030242e-01
9.132160791617663365e-02
-9.830724182027113234e-02
-2.937145835323581866e-01
-4.136237858733906037e-01
-4.130151657313114177e-01
-3.017339190252943393e-01
-1.298586541794110871e-01
4.576135535617006228e-02
1.751939909588460242e-01
2.101437242862432553e-01
1.209595839415260332e-01
-6.881584496048936961e-02
-2.795858664450913689e-01
-4.172698375327739129e-01
-4.280497728081984476e-01
-3.225570412512871465e-01
-1.485815447732615202e-01
4.608582013458505794e-02
2.138342370329391340e-01
2.983611866900227061e-01
2.574211596261823387e-01
9.401989236724032917e-02
-1.410610879520458882e-01
-3.713379722433047259e-01
-5.181617263515370109e-01
-5.208138958860677459e-01
-3.670217660881300858e-01
-1.184775004816503996e-01
1.159894637739179168e-01
2.463245864857152578e-01
2.305510523798966760e-01
6.167234098039686696e-02
-2.030255984214277276e-01
-3.668519767077509375e-01
-1.699777029850857157e-01
3.681567756864229657e-01
7.722807635453503572e-01
6.195355408557718935e-01
1.688746769861119157e-01
4.623598558744210912e-02
3.771785510704738220e-01
6.896153492654710782e-01
5.943579158954601649e-01
1.844459131012266551e-01
-1.986572894912911613e-01
-3.410538802453557672e-01
-2.668380444959739251e-01
-1.113238095781503012e-01
2.524202821756808476e-02
1.132086566102397940e-01
1.421343168435865167e-01
8.635421291515060771e-02
-6.133686635145799843e-02
-2.495526556002568563e-01
-3.903463410837342273e-01
-4.204488822654576796e-01
-3.344588800787899885e-01
-1.693652946146801119e-01
2.048945421308313516e-02
1.725593149352180056e-01
2.312174015034718921e-01
1.737276959894806794e-01
2.077772398612715357e-02
-1.730287480569439873e-01
-3.380587087536219282e-01
-4.147574549393925336e-01
-3.759792398509044231e-01
-2.358650239707236473e-01
-4.377515516103946958e-02
1.363852049734340099e-01
2.511020537525568419e-01
2.671311061786155183e-01
1.759580214986497804e-01
8.783434586063669502e-03
-1.668362524753945475e-01
-2.810018989280989032e-01
-2.888837761401993887e-01
-1.858656161989581945e-01
-2.094575846380273068e-02
1.258260122044278784e-01
1.982156990663175578e-01
1.813425386159419617e-01
7.843770425554538739e-02
-8.747684609464467798e-02
-2.532799720633905349e-01
-3.471542128872384669e-01
-3.603085202577150370e-01
-3.365120925443125799e-01
-2.346397659228609822e-01
1.239401854261979324e-01
7.840776104471696151e-01
1.333807509928494950e+00
1.195336593254479052e+00
4.020986177002321416e-01
-3.097088406308266539e-01
-3.835538421567346035e-01
-3.250329543914909358e-03
3.457306702677560017e-01
4.556569402594272677e-01
4.191255648798573041e-01
3.641120082393300428e-01
3.168861503510056465e-01
2.347627334198788551e-01
7.730622769518162574e-02
-1.472746540814966476e-01
-3.685292709408165002e-01
-4.919193699859244484e-01
-4.657246428252706516e-01
-3.095311352695043761e-01
-9.239777987396229075e-02
1.002440214899671111e-01
1.975943841002083534e-01
1.699368290864973208e-01
3.167393931420546538e-02
-1.727231941432811058e-01
-3.723953428131742682e-01
-4.800599884339423751e-01
-4.393565995112973521e-01
-2.678038268749030060e-01
-3.903342613837353092e-02
1.629884271890881808e-01
2.680471761586306068e-01
2.405363543227503897e-01
1.060029338667210080e-01
-6.186620370826215187e-02
-1.982090464018022302e-01
-2.779951552645315571e-01
-2.878191524357088804e-01
-2.017028456008679027e-01
-1.546074388010517178e-02
2.056507508625208258e-01
3.413370225216042497e-01
2.987725534610573552e-01
9.565288498009309748e-02
-1.471804247368724561e-01
-3.184558995344480281e-01
-4.047908729139368944e-01
-4.401676659021407367e-01
-4.093647600801625930e-01
-2.621850721622081548e-01
-1.566095115836595164e-02
2.035512284756297308e-01
2.452361450200448434e-01
9.256788054669376486e-02
-4.751204750546834943e-02
9.667177846289631837e-02
4.809444492285848693e-01
6.538485045416850827e-01
3.218563712080209083e-01
-1.399013584904054142e-01
-1.278208669050368285e-01
3.866619170262667327e-01
8.766993166836685170e-01
9.288008760801487185e-01
5.783872275904339277e-01
1.024035610473716801e-01
-2.720565603954148148e-01
-4.634154816338844629e-01
-4.838180316128519731e-01
-3.719407555207643878e-01
-1.775133123775184396e-01
2.782392579587451148e-02
1.620193345778069560e-01
1.670620002463395481e-01
3.641882194822761154e-02
-1.803093336551919168e-01
-3.935423762345535148e-01
-5.105722486151568207e-01
-4.840079441312518105e-01
-3.347185776401844781e-01
-1.282632908980812503e-01
6.438100807407530490e-02
1.886575585849213366e-01
2.128818164633523302e-01
1.300347517919525908e-01
-4.170841359051348507e-02
-2.541564540145829221e-01
-4.277042341448561991e-01
-4.790429553799168128e-01
-3.734067926235959956e-01
-1.551991444740144777e-01
7.724149019632563229e-02
2.369118740765487618e-01
2.917866758078959677e-01
2.466917378746649736e-01
1.110450299846679756e-01
-8.753497216615183096e-02
-2.798660733065634898e-01
-3.845571584931834486e-01
-3.618641634811789465e-01
-2.308275100929786938e-01
-4.987087967447615539e-02
1.115332897768874093e-01
1.976381202569895412e-01
1.820387192438435164e-01
7.263747190348451843e-02
-1.018118376552169246e-01
-3.158205525850399931e-01
-5.165005577264338843e-01
-5.302840563678659080e-01
-1.178879023992535358e-01
6.690978716350293176e-01
1.268674753518323151e+00
1.131521953371309674e+00
4.699790660671419040e-01
2.436364039718082186e-02
9.780520659942382178e-02
3.156802601902881644e-01
2.912747285975701983e-01
7.470193053131568561e-02
-6.702863178104669084e-02
-1.183753020924479746e-02
1.510978585014013664e-01
2.720544439508255641e-01
2.635235589739214901e-01
1.181069152973834580e-01
-1.101036120122298734e-01
-3.291925165297073241e-01
-4.610842290163594814e-01
-4.828576459373827290e-01
-4.024528962070925697e-01
-2.210169811510289406e-01
3.866048970823923736e-02
2.811502977633735245e-01
3.745544847340753214e-01
2.650655211301450875e-01
2.649811968401246873e-02
-2.187543988582610899e-01
-3.898376856770435772e-01
-4.514897418665597129e-01
-3.907221735534259222e-01
-2.299507428950361421e-01
-3.552279580318679075e-02
1.203008784704588385e-01
2.007126355181446664e-01
1.955272406723183587e-01
9.665493514395839814e-02
-7.987454830431002517e-02
-2.636542595522440857e-01
-3.669911582669653227e-01
-3.504451464351453494e-01
-2.329386180864645717e-01
-6.261117883363803704e-02
1.004543198483918848e-01
1.962905730197750109e-01
1.811606073540117101e-01
4.213826396446880562e-02
-1.818025122056553533e-01
-3.950969422019839361e-01
-4.926246230189086917e-01
-4.306227300289305338e-01
-2.633398394367999495e-01
-1.080728576662269985e-01
-2.726067436443358957e-02
8.822128882674430683e-02
4.223604117549615289e-01
8.790552165373723970e-01
9.658381478297319855e-01
3.785364301269791842e-01
-4.150601599318896606e-01
-6.475510984665751035e-01
-1.925139130905021700e-01
4.123788047781931643e-01
7.043537198664943100e-01
6.660327623091725213e-01
4.930130143046986824e-01
3.034236101725576451e-01
9.840661228355214452e-02
-1.317071362339815865e-01
-3.354598652649893875e-01
-4.255454614303234573e-01
-3.595116897534941236e-01
-1.888739349951184809e-01
-1.787215652061790311e-02
8.594296155543330873e-02
1.220364595882118264e-01
1.021384872121040566e-01
7.205073016072384082e-03
-1.706199902083465336e-01
-3.657389785389291159e-01
-4.661347620619494259e-01
-4.105633314836635295e-01
-2.312895948238243571e-01
-8.474107256569322899e-03
1.804005583133063695e-01
2.752157743585493810e-01
2.434914561782787201e-01
9.597941826712032276e-02
-1.103157715021404889e-01
-2.919254875069279276e-01
-3.817426425536273871e-01
-3.596022578594069152e-01
-2.339075910296434524e-01
-2.249092139104440571e-02
2.198236871615078525e-01
3.938863682872839611e-01
4.180557352166933693e-01
2.836707540092977542e-01
4.590451702782975124e-02
-2.087348861635731634e-01
-3.887204711302659210e-01
-4.276465060824743425e-01
-2.939914206093182658e-01
9.637392532509420073e-03
3.953530617042212425e-01
6.698442357842514516e-01
6.707084130012436196e-01
4.045214433102589657e-01
1.751167004114105585e-02
-2.578506023159796712e-01
-1.511601721949071553e-01
3.762193146322365123e-01
8.791135851158971004e-01
8.292150142518344147e-01
3.483038570131126721e-01
9.287248972289766091e-02
3.550918988396040143e-01
7.493378732921440744e-01
8.051876740867028870e-01
4.739981229836811027e-01
2.653929808587653094e-02
-2.834409698571655478e-01
-3.745299116244039106e-01
-2.908116045522515791e-01
-1.197913078744649862e-01
5.123230761101008751e-02
1.567806679041493512e-01
1.547936791170998472e-01
2.677777430419035071e-02
-1.973686893736266990e-01
-4.302532148406233992e-01
-5.702069026174156896e-01
-5.574086521770424962e-01
-3.992372996379073835e-01
-1.590677731512180892e-01
7.662162973313861591e-02
2.290332976938220522e-01
2.504152142095609213e-01
1.420708969114053977e-01
-5.194041021078469461e-02
-2.740494056291172820e-01
-4.657004343718458284e-01
-5.572314509995660581e-01
-4.854421801808045944e-01
-2.541662372782103052e-01
3.614153122871313628e-02
2.514950414407343127e-01
3.139000065227500191e-01
2.128146083174335679e-01
-2.943132604092460122e-02
-3.381099567595026723e-01
-5.657639427044179881e-01
-5.908818294644805347e-01
-4.352578207694813850e-01
-2.200413674973074052e-01
-3.859447248659941820e-02
7.813437243317626624e-02
1.247609610668758140e-01
1.034407709308268614e-01
1.909769033379438846e-02
-1.212019365716461988e-01
-2.913249141497869510e-01
-4.488353275632808170e-01
-5.453654444940128077e-01
-4.657690931700260717e-01
-2.080581663650381968e-02
7.687534190854463656e-01
1.387089552029062256e+00
1.226361555441755957e+00
4.017072875530384723e-01
-2.896452346357824004e-01
-3.376128538722751316e-01
1.132658034250500628e-02
2.770145432054350598e-01
3.012104249667276190e-01
2.256054206756041847e-01
1.992815450549408618e-01
2.314140072341356047e-01
2.425293881302387766e-01
1.548842648778996633e-01
-5.560152293137471391e-02
-3.271326417748759985e-01
-5.344501530817505897e-01
-5.835031531289177620e-01
-4.766382157816018150e-01
-2.780088450968477010e-01
-5.314704396465405600e-02
1.382023688364649727e-01
2.263035667677107121e-01
1.556534632079279168e-01
-5.562685844832436499e-02
-2.984654056512274778e-01
-4.498873571525472403e-01
-4.659589659717947585e-01
-3.781100452889756824e-01
-2.281782773283357046e-01
-4.969608941687307657e-02
1.097613412697083235e-01
1.985217716822963996e-01
1.953293861514499019e-01
1.077040064122278817e-01
-4.849491780614532954e-02
-2.289531732610549930e-01
-3.389640047646833576e-01
-2.914174607335565659e-01
-9.933134768079121546e-02
1.253606338500287132e-01
2.733323353725098936e-01
3.082747829761883773e-01
2.406780861735639820e-01
8.451139518028120967e-02
-1.325573972072937035e-01
-3.437605432961027274e-01
-4.624620886736613423e-01
-4.327380577650323801e-01
-2.636301071193328793e-01
-3.765822401273400538e-02
1.128861300491729863e-01
1.059990455463775544e-01
5.072724506246711895e-02
2.089669654995290338e-01
6.351947527540334759e-01
8.996161891309899517e-01
5.304977153927006306e-01
-2.202335537762356299e-01
-5.419378632064272283e-01
-8.911018526250155669e-02
6.466714416677160626e-01
1.019406896371484628e+00
8.617215015959752700e-01
4.300442719151695292e-01
3.001275244233770484e-02
-2.166170172376800929e-01
-3.480985694438345490e-01
-4.113729505255057650e-01
-3.860947102952415610e-01
-2.494964364962563019e-01
-5.257570954695445220e-02
1.077142056748761345e-01
1.674613693387522750e-01
1.225252352591169186e-01
-8.907473596511360225e-04
-1.700568819209767324e-01
-3.383956997646317411e-01
-4.413946771419631765e-01
-4.277330923894412384e-01
-2.951166430502485394e-01
-8.987285100325044518e-02
1.159608977574034944e-01
2.504542447815485406e-01
2.687929602204136570e-01
1.629446465894419105e-01
-4.408209736090588915e-02
-2.887327252617867823e-01
-4.636016368127323650e-01
-4.729933857188353685e-01
-3.101816279882602667e-01
-5.535698830141325133e-02
1.990537820562800486e-01
3.850657043076383124e-01
4.397995402189052161e-01
3.151027306310927312e-01
2.838486413315888940e-02
-3.153401222276270288e-01
-5.639775206174422184e-01
-6.015442038498679533e-01
-4.241844817051511618e-01
-1.416015455736174544e-01
1.092998227167060743e-01
2.569513833188757923e-01
3.010409953464013300e-01
2.403668092102262954e-01
4.319267296569262449e-02
-2.509914787171874107e-01
-4.170973253132669867e-01
-1.820878399370600143e-01
3.849938314832433983e-01
7.722518691849219463e-01
6.088806409030663724e-01
2.126303806442321753e-01
1.626724723152244145e-01
4.934218318799875047e-01
7.322323393939832448e-01
5.700916082447602395e-01
1.470507389321690783e-01
-2.168857587064758619e-01
-3.380080981713091126e-01
-2.395425226704192001e-01
-4.935736467224342838e-02
1.122477439943662392e-01
1.786353119594477346e-01
1.322442344371895229e-01
-5.628409320524817641e-03
-1.816184860985917415e-01
-3.349335619624972948e-01
-4.235262839066381568e-01
-4.231447636976207738e-01
-3.191017280743269624e-01
-1.185316871337458583e-01
1.252566888000826162e-01
3.148349681210894646e-01
3.654496938550397256e-01
2.677517931166522036e-01
7.983646581819139887e-02
-1.289629324267067001e-01
-3.022946475949379042e-01
-3.834362500203098434e-01
-3.221268287422033860e-01
-1.196200163343920375e-01
1.401222240496211024e-01
3.275163538402455221e-01
3.560388155472906102e-01
2.410554730382730437e-01
6.964660939783359761e-02
-7.991625029082713438e-02
-1.819005394788248964e-01
-2.391523330898114030e-01
-2.377854328412548623e-01
-1.516134639908985338e-01
1.632512595043007081e-03
1.450221418655235073e-01
2.049790728397876682e-01
1.567703570154197201e-01
8.392160259076582307e-03
-1.990444617530481575e-01
-3.747402967177020372e-01
-4.377091813608608994e-01
-3.996936370813131689e-01
-3.127579650926132770e-01
-1.169056847471207083e-01
3.397218935108478610e-01
9.751452326738814236e-01
1.281210550939505310e+00
8.310648455137975565e-01
-3.816924551042781555e-02
-5.255863987889479727e-01
-3.354553669088043422e-01
1.203768833334462052e-01
3.922829602270909155e-01
4.221634827463275341e-01
3.636993190518593155e-01
3.086926188692222794e-01
2.417418267634096618e-01
1.181961951930473737e-01
-7.603558458226944428e-02
-3.037201175209056081e-01
-4.873616247326160722e-01
-5.529876518488272552e-01
-4.740906437372363613e-01
-2.802086885272617733e-01
