5.499856927694413145e-01
5.444298861004398526e-01
3.432912701565635216e-01
1.151238326501066028e-01
-5.220308492781867288e-02
-1.245323060506276225e-01
-7.846583309685396801e-02
7.512362423040433446e-02
2.656815836512167461e-01
4.000879127053618700e-01
4.216028961975795686e-01
3.307633295908468662e-01
1.710093809275259336e-01
5.997739035795032064e-03
-1.043290000897008907e-01
-1.233457387127063765e-01
-4.413806151505725306e-02
1.084627109266833866e-01
2.761369492851431517e-01
3.868462261488942455e-01
3.965778479746387419e-01
3.128373274567883833e-01
1.799335845984402493e-01
5.238726269098591126e-02
-2.280109782453915851e-02
-2.250867161908344863e-02
3.997381108835731944e-02
1.284078259722795101e-01
2.148058207123141050e-01
2.854407984485995975e-01
3.212384470013679993e-01
2.978086413782181641e-01
2.090087143568049310e-01
7.709703271009753223e-02
-5.814212072936623954e-02
-1.517535132813110643e-01
-1.650236375339710349e-01
-8.582791901783748401e-02
5.521009900516359731e-02
1.984703375602066000e-01
2.926910215006624516e-01
3.174804612058779174e-01
2.628149487799802397e-01
9.678671292377794000e-02
-1.847196488442687246e-01
-4.241010389404891723e-01
-3.297010235047803661e-01
1.565586433884724182e-01
5.973498641854504410e-01
4.918583439679948821e-01
-7.205570061823507455e-02
-5.396332141432647056e-01
-5.828231485559565161e-01
-3.621671355370880141e-01
-1.923696652281048358e-01
-1.985517805359956756e-01
-2.874811062172026310e-01
-3.196409178718551680e-01
-2.524944679573903894e-01
-1.409463398857909722e-01
-5.911988154532816370e-02
-5.152696198752278189e-02
-1.285997799343893966e-01
-2.695797675541612981e-01
-4.287662469866473369e-01
-5.566898273698600574e-01
-6.173283394261418477e-01
-5.877719068564722926e-01
-4.679677126399045539e-01
-3.027201778135433230e-01
-1.657007722672718120e-01
-1.036830017465566189e-01
-1.163185850493781009e-01
-1.957600677229325847e-01
-3.453147284316289145e-01
-5.317909597152720158e-01
-6.554623685495358787e-01
-6.185712975736362695e-01
-4.283295956113869485e-01
-2.063262973278704171e-01
-8.618218831290112847e-02
-1.122050108636474114e-01
-2.393505427255331608e-01
-4.054836354128898979e-01
-5.762520174058316513e-01
-7.298748765059951404e-01
-8.337391402507684512e-01
-8.553839436177091970e-01
-7.883577559481245167e-01
-6.607129594450775745e-01
-5.295189412084512215e-01
-4.611806436170518553e-01
-4.862294025092656624e-01
-5.687321004906026323e-01
-6.470201851709739271e-01
-7.144063294067465320e-01
-8.312922036715626462e-01
-1.016181240011440279e+00
-1.129073142798822538e+00
-9.567342930173815541e-01
-5.261614983679735458e-01
-2.486630532438639241e-01
-4.919386914316509762e-01
-1.049806326658696110e+00
-1.374813506284100262e+00
-1.274097914555915034e+00
-1.023453296410125946e+00
-8.925516003502638185e-01
-8.795832567130601465e-01
-8.644616152574433610e-01
-7.974822784458743818e-01
-7.121905856218595510e-01
-6.612825432923642444e-01
-6.854775783483922913e-01
-8.036251011580135550e-01
-9.911128170388227021e-01
-1.177087466145422257e+00
-1.286198838921421173e+00
-1.282644625532409322e+00
-1.179783521656960099e+00
-1.028209152723968733e+00
-8.919139141650044289e-01
-8.190160496352593134e-01
-8.297060048259556897e-01
-9.192764958960201183e-01
-1.057400846348603096e+00
-1.192908555747787203e+00
-1.274080670636692503e+00
-1.270199104885450403e+00
-1.179372125053295806e+00
-1.019182382692608968e+00
-8.199522761271944571e-01
-6.416284552002210484e-01
-5.742446645094254620e-01
-6.743728792769360103e-01
-8.984946585749828962e-01
-1.129672368438072283e+00
-1.267730128402647871e+00
-1.275799140257587005e+00
-1.167679352911147994e+00
-9.964538241140943331e-01
-8.440732822766523480e-01
-7.634692183528308806e-01
-7.025279506973516330e-01
-5.362864754892843200e-01
-2.310453903951899257e-01
7.039362102406779287e-02
1.893859952401607261e-01
1.453714363805947152e-01
2.063745368173046657e-01
5.651443823292898738e-01
1.110620445309464355e+00
1.879585728862387395e+00
3.275497389536961013e+00
5.176442313166836229e+00
6.490573813830914141e+00
6.375628415880974842e+00
5.291959085683180852e+00
4.368357903748567139e+00
4.326625920965020633e+00
5.122744555774229269e+00
6.071009721342258025e+00
6.441300313784591225e+00
6.158244994465744249e+00
5.654957002291954637e+00
5.270593972615019496e+00
5.055919763909345832e+00
4.782704849198205821e+00
4.160152179793120020e+00
3.307669482185746634e+00
2.616400795592010109e+00
2.099880566371686186e+00
1.497827388483028432e+00
9.200263880004215800e-01
8.059790947973948239e-01
1.308233702356692341e+00
2.067216768618896694e+00
2.607391365296093166e+00
2.761016775406066159e+00
2.668169483982832269e+00
2.541765824158955134e+00
2.495869431117942128e+00
2.475413700034978515e+00
2.324094108869263042e+00
1.990754207944740450e+00
1.610411435685974002e+00
1.309793633241673527e+00
1.037068233412345108e+00
6.598963135904478694e-01
1.657534164708294733e-01
-2.756450513580769313e-01
-4.604428263882269223e-01
-3.946565592782838028e-01
-3.670962513729589261e-01
-6.906873494038767713e-01
-1.362438239830012110e+00
-2.103319154178006301e+00
-2.747808607617705512e+00
-3.378060898148051550e+00
-3.948383748938635751e+00
-3.986910078292102977e+00
-3.012163612154503678e+00
-1.282670242986968745e+00
2.438152046842926302e-01
8.817966232916710778e-01
8.359161328762313437e-01
6.998678014896256849e-01
6.438464989405976446e-01
3.489755853543626274e-01
-3.515929162455896373e-01
-1.090325999007508262e+00
-1.386139096525804693e+00
-1.213314184209794977e+00
-9.444707866327449741e-01
-8.854549603416279613e-01
-1.036130599614397463e+00
-1.231926989024412444e+00
-1.381806917901774012e+00
-1.531846180674421021e+00
-1.738946857123984557e+00
-1.940462000295701595e+00
-1.997252503922250177e+00
-1.867354076553847886e+00
-1.672673110541909924e+00
-1.558377666921797911e+00
-1.533428823652388751e+00
-1.496205184103809538e+00
-1.393175183919290072e+00
-1.288677706597867845e+00
-1.268289114516145899e+00
-1.320545846779038079e+00
-1.330925219081116273e+00
-1.193797693081388722e+00
-9.482432937664957429e-01
-7.780675004963766295e-01
-8.361620219887507810e-01
-1.086438440271186412e+00
-1.348551059108413552e+00
-1.498505611174926422e+00
-1.609622549999041086e+00
-1.847786553696693090e+00
-2.207689300879348782e+00
-2.440199040361318517e+00
-2.327219121490188058e+00
-1.976803322848875943e+00
-1.726312905735792214e+00
-1.748115512661988946e+00
-1.889235164865131100e+00
-1.947265622049076939e+00
-1.905758654598191271e+00
-1.764744639162532769e+00
-1.389608666560112171e+00
-7.654827040802556493e-01
-1.866428053384121821e-01
6.115737572529589272e-03
-2.644515273994589299e-01
-7.488848852628035013e-01
-1.025360069608484137e+00
-9.208965611684949426e-01
-7.416219999484156000e-01
-8.126017620787580054e-01
-1.030414289817338735e+00
-1.133079908722830043e+00
-1.098952713448237528e+00
-1.132779214078585284e+00
-1.449089126276886352e+00
-1.968429083266241664e+00
-2.208927324236304113e+00
-1.871988550222244196e+00
-1.461084078380370688e+00
-1.727893742141072275e+00
-2.564438691699835626e+00
-3.083644847899218888e+00
-2.819689090343832749e+00
-2.246965350099071390e+00
-2.014559589621741420e+00
-2.217132825026635778e+00
-2.565281889023860895e+00
-2.826686476783720536e+00
-2.929763884803861185e+00
-2.895741611514879743e+00
-2.794700978902762145e+00
-2.679576065819642583e+00
-2.536525100949389433e+00
-2.307342876207464144e+00
-1.943462691561479661e+00
-1.487499799681633927e+00
-1.114052057784154171e+00
-1.000429388922285501e+00
-1.142920885196725855e+00
-1.357618438180398623e+00
-1.457918333036342107e+00
-1.410204070570881152e+00
-1.318249466084570054e+00
-1.268589010689103347e+00
-1.239137122240416389e+00
-1.179075964742078986e+00
-1.109415433845948984e+00
-1.093495313009620773e+00
-1.153952901152009325e+00
-1.258327639973518375e+00
-1.347991307373008540e+00
-1.360673207834804055e+00
-1.257704746280497554e+00
-1.044658149791002799e+00
-7.765797235386308062e-01
-5.559793306132387869e-01
-4.808910497524903072e-01
-5.377752599150816826e-01
-5.936616401895389306e-01
-5.638946361792070983e-01
-4.702917695441759527e-01
-2.586435753012379379e-01
1.195579549209551673e-01
3.150684838549346334e-01
-8.448625054591427097e-02
-6.051971879951733024e-01
-2.049136909968240772e-01
1.259281532416820726e+00
2.842372492297691178e+00
3.715543739601411044e+00
3.810188125457800723e+00
3.607805946219805104e+00
3.713795031920811063e+00
4.302991738064450011e+00
4.982917184964782642e+00
5.390757783308102624e+00
5.546637416957180378e+00
5.542469712931629822e+00
5.412528667705074348e+00
5.375693493254884103e+00
5.825386910906980020e+00
6.921146258473874546e+00
8.254180169666287981e+00
9.153646728911711605e+00
9.393001811814107427e+00
9.324831418519604398e+00
9.357056895786147521e+00
9.560121619936348125e+00
9.693318115493930520e+00
9.455111552340310865e+00
8.736240098594892700e+00
7.720683151557734547e+00
6.854319816603085869e+00
6.615856859077575258e+00
7.044359392694939714e+00
7.534289161632204745e+00
7.390272511590818105e+00
6.567297242842775162e+00
5.608033862290312754e+00
4.907350643627794717e+00
4.332264951799002617e+00
3.593019250455683711e+00
2.742071561130735802e+00
2.131897945100753144e+00
1.936240450453114992e+00
1.912076936168157770e+00
1.699839883057061130e+00
1.178092767891470327e+00
4.456651619067240055e-01
-3.321660050366318506e-01
-9.622939508758383553e-01
-1.316059323702080341e+00
-1.492406789735627459e+00
-1.731064653057375669e+00
-2.073804130366220910e+00
-2.312039873662153688e+00
-2.406038682282015451e+00
-2.642355478903353649e+00
-3.164338228424855348e+00
-3.705797296250515238e+00
-3.951202925483195294e+00
-3.863640289043220655e+00
-3.638473562100192460e+00
-3.506478794764021689e+00
-3.519923519424172031e+00
-3.508056711082780499e+00
-3.326159613974109863e+00
-3.063478421263502671e+00
-2.912584303669981889e+00
-2.938832919856332992e+00
-3.066464377578678402e+00
-3.229341789126591866e+00
-3.437367905853243144e+00
-3.664254033426887602e+00
-3.759948275078157209e+00
-3.570507021608654519e+00
-3.115991371148098654e+00
-2.599316192045610929e+00
-2.253872031282030619e+00
-2.194767430042938727e+00
-2.378609366228912503e+00
-2.650944246681557814e+00
-2.836814426090618735e+00
-2.862937271928855054e+00
-2.832306820721502305e+00
-2.882605069467256254e+00
-2.905264737718555423e+00
-2.593758584641612241e+00
-1.945869400972666252e+00
-1.476100356070258357e+00
-1.629050190374438545e+00
-2.193031963256680150e+00
-2.591761879237982402e+00
-2.565199695774002642e+00
-2.324527728957293427e+00
-2.165541284301545577e+00
-2.128940785519531254e+00
-2.079065209661045799e+00
-1.987046275646422444e+00
-1.957967749429013971e+00
-2.030351708713557635e+00
-2.127709299164403767e+00
-2.173972138721017355e+00
-2.148005942566023840e+00
-2.075078817982530133e+00
-2.017198755922577025e+00
-2.017509729959803710e+00
-2.046594717912723294e+00
-2.051623483396776582e+00
-2.022942570986183686e+00
-1.970176082183404898e+00
-1.889905666551051633e+00
-1.793666699815619214e+00
-1.719962502269720250e+00
-1.693416173716504547e+00
-1.702819870613597075e+00
-1.727774205815781672e+00
-1.751231945330294248e+00
-1.731478833155940755e+00
-1.614881657313921082e+00
-1.429561460389034089e+00
-1.306982794084885935e+00
-1.325213018821580047e+00
-1.403206409244848629e+00
-1.440968005067610136e+00
-1.448642546574372858e+00
-1.420790608028127622e+00
-1.234341472086943226e+00
-8.626990120087626446e-01
-5.635710695785667301e-01
-6.059127820462064662e-01
-8.944392637149165548e-01
-1.096422260881974475e+00
-1.058399024444699243e+00
-9.151750563826066553e-01
-8.621565954447797386e-01
-9.376830467904118116e-01
-1.009172992108904987e+00
-9.522602802197870364e-01
-8.121936612606011074e-01
-7.383240338144985149e-01
-8.196703183097875378e-01
-1.015832492431292478e+00
-1.142673895052787936e+00
-9.823946338942691758e-01
-5.898569064366017134e-01
-3.531139549261261834e-01
-5.094002708502050059e-01
-7.853804072100658562e-01
-7.870878605885474055e-01
-5.507153231549503092e-01
-4.209939138376344037e-01
-5.447544555753756068e-01
-7.569629963268376116e-01
-8.577583973857797472e-01
-7.816212865818057409e-01
-5.483928959347580401e-01
-2.077346669252919664e-01
1.435763798809967795e-01
4.210488404469859836e-01
7.102730164401925839e-01
1.178673082254947824e+00
1.781864706547384269e+00
2.379099914606537247e+00
3.069570466760358052e+00
3.901980348621551631e+00
4.369221973045329221e+00
3.875910970309832226e+00
2.744735027990938825e+00
2.082483764076363375e+00
2.471216186089871147e+00
3.360901761724149228e+00
3.901087669453770168e+00
3.868971273039988112e+00
3.686132235311988747e+00
3.886441744115182839e+00
4.596479944634618064e+00
5.369284455982035631e+00
5.643527757097716702e+00
5.463012447576321762e+00
5.444831457249623696e+00
5.835691836435256796e+00
6.038505859194921221e+00
5.475039360273927791e+00
4.459443365982735052e+00
3.695580000722126002e+00
3.339160964760972572e+00
3.102522607385866049e+00
2.901830553140830826e+00
2.837338867837664313e+00
2.760526253873688329e+00
2.345964878571483503e+00
1.535627675657726066e+00
6.450841072260148357e-01
5.537840397669385739e-02
-1.258997856865304854e-01
-1.116443474769064359e-01
-1.163688262890385516e-01
-1.054590923899100252e-01
-2.375423055083469848e-02
-5.391910344854916604e-02
-3.616785052049971139e-01
-7.960235061457036077e-01
-1.104607258010770865e+00
-1.213955489999925863e+00
-1.103605578491772876e+00
-7.066824385669066011e-01
-1.697669732806743048e-01
7.802264711141415621e-02
-1.864635311496267156e-01
-6.439580474085500050e-01
-8.647210868739241274e-01
-8.513188111336948971e-01
-8.840377947954756177e-01
-1.053162018950004386e+00
-1.211710652846601510e+00
-1.245768703254587439e+00
-1.188802158057048697e+00
-1.128840698303349654e+00
-1.112180517041687189e+00
-1.104937725011015504e+00
-1.003460253631557553e+00
-7.595461418106177476e-01
-5.177723004596469503e-01
-4.733750007082873079e-01
-5.800242950255044549e-01
-6.108231257987166707e-01
-4.965826170780740512e-01
-3.549922005387855517e-01
-2.306341634053748757e-01
-1.013345104038519129e-01
-8.381209301677455814e-02
-3.125737713554636032e-01
-6.730340665779243059e-01
-9.150252986687538170e-01
-9.506834861073243381e-01
-8.774508238545334349e-01
-8.036673313593304391e-01
-7.689044860096606593e-01
-7.798464442053226753e-01
-8.229392610456053303e-01
-8.458560850903508177e-01
-8.034974699021596445e-01
-7.238721008641642030e-01
-6.713804174187999463e-01
-6.602534149808015895e-01
-6.518421523055863975e-01
-6.214271925004788422e-01
-5.877624317297366341e-01
-5.758697018942304791e-01
-5.775313049891558359e-01
-5.630580438409008570e-01
-5.229237392151994124e-01
-4.818371301551546693e-01
-4.663463134732701021e-01
-4.716089544597349970e-01
-4.744070733781034499e-01
-4.644108168364020073e-01
-4.417092855837526644e-01
-4.029301102071484175e-01
-3.554618899760717543e-01
-3.255449758126931492e-01
-3.265217097481642461e-01
-3.312129102534244196e-01
-2.994590578011222526e-01
-2.360104509601212985e-01
-1.985078609083868462e-01
-2.274915964571353200e-01
-2.880321176774396363e-01
-3.109841858722969810e-01
-2.801352738318428903e-01
-2.468465631385329817e-01
-2.561178440353297781e-01
-2.897227355742442723e-01
-3.027045180874400332e-01
-2.887474205952614281e-01
-2.782805308253399890e-01
-2.869183103217678443e-01
-2.951631758606013123e-01
-2.788705112269199704e-01
-2.419305610360242276e-01
-2.113538510179922003e-01
-2.044541997902214470e-01
-2.100628768385367495e-01
-2.105191430025011301e-01
-2.118995331221364409e-01
-2.283459738086653368e-01
-2.439567648496153707e-01
-2.277542763097000766e-01
-1.869689437887100958e-01
-1.674293794211567099e-01
-1.952572211996421170e-01
-2.456268843551890901e-01
-2.752646193292141996e-01
-2.697015810103430833e-01
-2.502367261362261064e-01
-2.424527117443339153e-01
-2.520642464830570861e-01
-2.710786580517230426e-01
-2.920610130736689403e-01
-3.101190575949508421e-01
-3.192148328124993495e-01
-3.145350651673047282e-01
-3.001903653521217352e-01
-2.920653695311512532e-01
-3.061569591784846223e-01
-3.390807116269266008e-01
-3.668518367068103192e-01
-3.709521528601662510e-01
-3.596214953421399962e-01
-3.558417055111754435e-01
-3.700510794635987200e-01
-3.910389970773702206e-01
-3.998938597679579932e-01
-3.912512526489666520e-01
-3.834325339770432439e-01
-4.017910913025393715e-01
-4.452778846420589742e-01
-4.789308710248924572e-01
-4.751177536342137686e-01
-4.542940236071434934e-01
-4.608569059708168547e-01
-5.044393843025991586e-01
-5.512226106237654299e-01
-5.697686183657950654e-01
-5.650834475707700033e-01
-5.655560706500836199e-01
-5.855761644580314007e-01
-6.093578885082084895e-01
-6.162356727687801072e-01
-6.134454675414450220e-01
-6.281757105219444304e-01
-6.680490627519726221e-01
-7.067255965636141113e-01
-7.152550586293779933e-01
-6.980825857773320653e-01
-6.927258407081425817e-01
-7.327090569621134142e-01
-8.059727405686804014e-01
-8.639243428871342667e-01
-8.849803527968888028e-01
-8.886123038944832020e-01
-8.620480174683303742e-01
-7.496621828812415345e-01
-5.724810559418209710e-01
-4.750181084843354551e-01
-5.682817323430795486e-01
-7.852678088593159078e-01
-9.568005068037289673e-01
-9.743724078940264599e-01
-8.504066386927409127e-01
-6.977081259257250645e-01
-6.549191758818461162e-01
-7.084205868640264248e-01
-6.066673508638602552e-01
-1.752980098139026166e-01
3.208260974998312642e-01
4.932216335341853553e-01
4.418035112086753369e-01
5.562654656208846360e-01
8.289343478146594668e-01
1.002396239136533751e+00
1.279613379769777293e+00
2.119335688186606337e+00
3.259776009339649949e+00
3.653578966078861789e+00
2.673650436310032408e+00
9.949922397920900607e-01
2.455632094533963250e-02
6.232549285820663254e-01
2.426051803023062448e+00
4.147405993798436441e+00
4.550993137994549187e+00
3.510129338248115349e+00
2.145915379092392161e+00
1.625549042764907304e+00
2.016724467998664672e+00
2.606793345261345873e+00
2.942541258591802489e+00
3.109786061197317153e+00
3.282970206075845887e+00
3.464118714065774984e+00
3.569490016931824883e+00
3.487308102538713594e+00
3.143116929279438754e+00
2.653553633318990190e+00
2.226203304161521235e+00
1.857710552972778872e+00
1.398616407787210081e+00
8.720611328084120206e-01
4.410814990621621523e-01
1.361515167123740211e-01
-1.465530566536384915e-01
-4.270123417272533306e-01
-6.106822695962271785e-01
-6.616312846611009935e-01
-6.561879461406027181e-01
-6.715154417745572424e-01
-7.268956217264254116e-01
-8.147250599558963913e-01
-9.144459241033701113e-01
-9.801401518867921547e-01
-9.575771224033786666e-01
-8.365516845880609509e-01
-6.881614692971933511e-01
-6.250099186448353494e-01
-6.881857754954385786e-01
-7.940060757367642941e-01
-8.339208749568127743e-01
-7.947761225171926514e-01
-7.451716374543700949e-01
-7.397038445001398177e-01
-7.679985730078461303e-01
-7.825759594963888066e-01
-7.565994439839179853e-01
-7.097548957594257413e-01
-6.811143917911643975e-01
-6.843000133400283236e-01
-6.991898919645722632e-01
-7.019501080551504568e-01
-6.857958430888146939e-01
-6.588938045408314625e-01
-6.371814384790164265e-01
-6.300925632562796030e-01
-6.283553600026265951e-01
-6.159806384334066687e-01
-5.880383303461332867e-01
-5.489423474952326298e-01
-5.099816564959382958e-01
-4.932607588026307055e-01
-5.083538195630877832e-01
-5.158831330957082129e-01
-4.571689532847649784e-01
-3.473091871700452749e-01
-2.887880726882391391e-01
-3.428082356582129453e-01
-4.390058766435485094e-01
-4.699428369307452891e-01
-4.211942068702244080e-01
-3.580458285817380570e-01
-3.315985491586228573e-01
-3.408642481509840949e-01
-3.617787636807892615e-01
-3.790795879710650018e-01
-3.881793516728879179e-01
-3.770736006951584951e-01
-3.187255095213326617e-01
-2.078244402615280206e-01
-1.061421558126431491e-01
-9.557487510276269083e-02
-1.722789455954861770e-01
-2.513961941558329749e-01
-2.793521344892445080e-01
-2.758932268157381351e-01
-2.742876823819616616e-01
-2.778149958669003938e-01
-2.746714900563478334e-01
-2.656351607864742004e-01
-2.638087585279533798e-01
-2.660705369782827567e-01
-2.468894439530007756e-01
-2.030251975786100949e-01
-1.767314705674038755e-01
-1.999529198295160459e-01
-2.460771630240894681e-01
-2.698590655886605183e-01
-2.618120405649999594e-01
-2.404292996819667183e-01
-2.212412857683228595e-01
-2.093716293202874390e-01
-2.092700836713346502e-01
-2.391712789896753844e-01
-3.241276737839128286e-01
-4.422120399969702853e-01
-5.056142655777721151e-01
-4.612343930295187966e-01
-3.693673938059319761e-01
-3.160560063237594641e-01
-3.089303997054350104e-01
-3.104529335524393030e-01
-3.108236061919651405e-01
-3.307130831099214796e-01
-3.831022314685860741e-01
-4.480016235862664398e-01
-4.820795595778023523e-01
-4.604826179949835785e-01
-4.070801125230991691e-01
-3.702980351463834308e-01
-3.755000027827775644e-01
-4.134645560117299334e-01
-4.625060622626416262e-01
-5.072029690721862050e-01
-5.394544317234040154e-01
-5.479649118755999249e-01
-5.189530984940965430e-01
-4.625314307231109812e-01
-4.249507429797709790e-01
-4.449118185563664674e-01
-5.078606434115795487e-01
-5.702356395182726079e-01
-6.092294976288455954e-01
-6.299534647523236108e-01
-6.527893723724048636e-01
-7.027078749590931483e-01
-7.743284211075166512e-01
-7.968835652386554447e-01
-6.841375323095953975e-01
-4.663630755372033532e-01
-3.195793374658411623e-01
-3.687199440602136891e-01
-5.071491361690760868e-01
-5.290905879336934570e-01
-3.929646207563776694e-01
-2.222650145290603341e-01
-9.417186194942406274e-02
3.034289991464034220e-02
1.950980728610348103e-01
3.747704741471913903e-01
4.921141121004429242e-01
4.726712251669258347e-01
3.193892308473561537e-01
1.307289916120494833e-01
1.231262425746442596e-02
-1.648742629977015262e-02
-1.882727902476582366e-02
-5.484460257963277852e-02
-8.985734373893991545e-02
-2.165261674781300896e-02
1.288162741276312750e-01
1.606842390140360566e-01
-1.337906739025394171e-02
-1.990754851651495017e-01
-2.234251497641743245e-01
-1.445634682981488395e-01
-3.140218090163970216e-02
1.704477019747572264e-01
4.663937792920066494e-01
7.245242037341350638e-01
7.835734911826570670e-01
5.648154229795627757e-01
1.792894554828222686e-01
-6.375019849786843495e-02
6.121641143594305778e-02
4.142194798904708097e-01
6.374210208930287669e-01
5.586546863376868899e-01
3.379401339375699975e-01
2.143817564382000385e-01
2.568789195618323418e-01
4.323899566053318599e-01
7.161432099498710180e-01
9.983810157370337501e-01
1.092247032507981164e+00
9.785347898373082387e-01
8.171786986367983729e-01
6.670612866740460722e-01
5.462472088986519703e-01
6.886645712954816423e-01
1.228495566349174339e+00
1.805643993013242410e+00
1.998642547594580376e+00
1.833444093442325284e+00
1.517306324058802058e+00
1.187465379658421583e+00
1.126011238112017532e+00
1.661115721211017027e+00
2.682508740823404736e+00
3.600148498572337097e+00
3.883989059233933894e+00
3.486808118317523242e+00
2.794553973867680341e+00
2.333677211069991930e+00
2.355840004946394117e+00
2.509576539426404906e+00
2.166965191881879527e+00
1.265900423909070760e+00
5.128362574647072902e-01
5.182181156812517564e-01
1.013017180495606739e+00
1.182437824566880735e+00
6.195778926559615263e-01
-3.083937901718021291e-01
-1.018024193990685555e+00
-1.345857538751673577e+00
-1.486822268304789363e+00
-1.549165567287400513e+00
-1.448579864405820317e+00
-1.165458869700741307e+00
-8.746996256300274553e-01
-7.855265651956743200e-01
-9.586396866028288333e-01
-1.286815527316534702e+00
-1.587896769479170356e+00
-1.727196189716962316e+00
-1.697170608424257710e+00
-1.597616958994090952e+00
-1.551067775320471576e+00
-1.620389594673954603e+00
-1.756486749267516245e+00
-1.824359090357283719e+00
-1.746362333790230315e+00
-1.616143845467826745e+00
-1.581800970082902769e+00
-1.648235373365391165e+00
-1.709945158980564095e+00
-1.720320424414340854e+00
-1.703745653231288681e+00
-1.655892250148149447e+00
-1.545756670857807213e+00
-1.393748705653421460e+00
-1.268761224196580883e+00
-1.206718758478550368e+00
-1.173583453554454925e+00
-1.113742759920536729e+00
-1.007896041451522562e+00
-8.757345005080301448e-01
-7.485766008261465210e-01
-6.456095600157034653e-01
-5.547656333266626216e-01
-4.489111272190187130e-01
-3.408417397995019971e-01
-2.907346194811473161e-01
-3.310679257076801218e-01
-4.150011636871458465e-01
-4.655734011230346914e-01
-4.425657534681621263e-01
-3.340319688554835298e-01
-1.255638980651327397e-01
1.763880586036625786e-01
5.132718456405672702e-01
7.938414378605331834e-01
9.352834683788777692e-01
9.037222959741975092e-01
7.503002000020375650e-01
5.849975277420846886e-01
4.877364828661089335e-01
4.835401256314234564e-01
6.008213180259990294e-01
8.693166959337518263e-01
1.255034432900743235e+00
1.657579750707341093e+00
1.961011491622971947e+00
2.079784429327015349e+00
2.007311579034923188e+00
1.824358666462758238e+00
1.620662896752185000e+00
1.425603712427948366e+00
1.245655733166955992e+00
1.116745295957842998e+00
1.061687429688695783e+00
1.037744614786880959e+00
9.767618356643038569e-01
8.479175185792851011e-01
6.626722424435419478e-01
4.592593378233344459e-01
2.951934449450940301e-01
2.203235797639982174e-01
2.419131176851035958e-01
3.249118708269883027e-01
4.225535177209878146e-01
4.928770774068492733e-01
4.897206692150459229e-01
3.678539936970258717e-01
1.301304998770346499e-01
-1.315700091253045600e-01
-2.900541861478197481e-01
-3.049882935616195501e-01
-2.489640984658907930e-01
-1.949092901285498503e-01
-1.396305876049245831e-01
-6.327185198727545978e-02
-6.953496763859069729e-03
-4.460950872082953406e-02
-1.884356183277074437e-01
-3.610432596841238739e-01
-4.734471789618786564e-01
-5.003893098125926642e-01
-4.643524872808761916e-01
-3.787760821395219080e-01
-2.423182609680821775e-01
-7.987543105834549184e-02
4.609400623756121362e-02
6.808047426471011687e-02
-6.222824283440240439e-02
-3.478956281792851546e-01
-6.851237252906362540e-01
-8.813846601263253255e-01
-8.613003931928593371e-01
-8.016847541019377354e-01
-8.945382131485071220e-01
-1.051811614454590593e+00
-1.029975733259137494e+00
-7.730436482048725910e-01
-4.858263864174651725e-01
-4.021110652377708483e-01
-5.498845284607767336e-01
-7.440982757979923701e-01
-7.891941013827350471e-01
-6.633058385233147058e-01
-4.964173939881812991e-01
-4.056107099150173534e-01
-3.919948989764979186e-01
-3.909767945734519135e-01
-3.810757827053782854e-01
-4.084516359975974842e-01
-5.068942971238356021e-01
-6.311073178731751998e-01
-6.911768806727909276e-01
-6.345730811040527497e-01
-4.816795771948894078e-01
-2.915014806500678679e-01
-1.043208790341962622e-01
5.854171933779486747e-02
1.425282976061233442e-01
8.059321087384818671e-02
-1.038586396395465156e-01
-2.810394516592524816e-01
-3.329507198452235639e-01
-2.526102817162419467e-01
-1.225836271151836410e-01
-2.578508178252346406e-02
2.239832478139131000e-02
6.692436840775274620e-02
1.313439167195019075e-01
1.692034990856567944e-01
1.305161210883310496e-01
3.199944276710595115e-02
-6.538359105724980691e-02
-1.005730026166280766e-01
-3.927384291404789618e-02
9.649574574865898979e-02
2.372890000622331352e-01
3.238464284822571981e-01
3.406303885745099458e-01
2.902648058506766549e-01
1.581971709060029097e-01
-5.108440647942805168e-02
-1.970724282325553023e-01
-2.395692215141635370e-02
4.780448609527191417e-01
8.293780189249297941e-01
5.784453126577846493e-01
-2.078508036607894238e-02
-3.104652155325136609e-01
-8.658704126178608240e-02
2.713428091815955900e-01
3.792415261374990076e-01
2.097511315546581323e-01
-2.879474307607327727e-02
-1.379366348593705216e-01
-6.699067669076182174e-02
9.021181724912445687e-02
2.113327972391484122e-01
2.492023786062695090e-01
2.226980004565217719e-01
1.533865152491202255e-01
4.455733196495382381e-02
-9.484469444128962312e-02
-2.285054850661545900e-01
-2.904684053337791561e-01
-2.157670840093190157e-01
-9.304701510575330570e-03
2.295450041417527731e-01
3.831866773689722172e-01
3.966494475546191167e-01
2.866025303097391452e-01
1.220215825727802295e-01
-3.007293690973288428e-03
-2.724981600229199261e-02
2.940724345973837889e-02
9.803458173350609872e-02
1.453176585362413176e-01
1.982641596479929047e-01
2.767349806881836960e-01
3.379986201763080511e-01
3.166267019204013766e-01
2.019548384850105294e-01
5.274470934745410788e-02
-5.806829321139114763e-02
-9.566947306423884134e-02
-6.098425705492749316e-02
3.611663636849200831e-02
1.740855632752314752e-01
3.048768847730773945e-01
3.729674740397514454e-01
3.482371337941889133e-01
2.246288200385463396e-01
4.232825148233135791e-03
-2.582017990297604260e-01
-3.842053677262621814e-01
-1.847864181571815534e-01
2.281391165809005528e-01
4.196825862255079143e-01
1.534347467738082504e-01
-2.613954117566932855e-01
-3.899650037121313861e-01
-2.009299606214323686e-01
2.529608097738327011e-02
7.977286801001617911e-02
-3.158798581696513341e-02
-1.734779356969171904e-01
-2.174909149688848131e-01
-1.399715837963063370e-01
-1.451824645012491505e-02
7.569288471990276435e-02
9.540836491274096165e-02
4.812901348081027875e-02
-4.772865363843498132e-02
-1.604714771240408622e-01
-2.390518690802559409e-01
-2.332813367115461334e-01
-1.376160974766779677e-01
-3.333821987250899788e-03
1.095669559527540915e-01
1.796811869257932126e-01
2.096597290671201319e-01
1.918110782468482323e-01
1.161257852170617388e-01
2.791664876343469270e-06
-1.041087068409982108e-01
-1.310996079978214157e-01
-5.174009190472733666e-02
9.134789356136893690e-02
2.233936286056595610e-01
3.113130609029270968e-01
3.581290774596133097e-01
3.471671805324834104e-01
2.561763473873333585e-01
1.131736069286868873e-01
-1.480909031206476163e-02
-7.940259985233133477e-02
-6.858174489765074544e-02
1.130278604562505451e-02
1.393556633991632487e-01
2.743920267307335403e-01
3.647995681528194978e-01
3.689407737099357210e-01
2.781684082542828507e-01
1.327704858731418858e-01
-4.380057490171691131e-03
-1.054742231353233833e-01
-1.640396283976259251e-01
-1.049243556565980229e-01
1.592507158932436051e-01
4.763268484289357452e-01
4.686625495515880369e-01
1.549048997641149644e-02
-5.071682722338047844e-01
-6.825668668326569932e-01
-5.107523595551073381e-01
-2.721179477441025840e-01
-1.535357718724801868e-01
-1.209177553266822802e-01
-5.420120905441511150e-02
8.283832250309172696e-02
2.136948907231961126e-01
2.476669632967354873e-01
1.661497405692717588e-01
1.926353595758414916e-02
-1.275520022020980304e-01
-2.327047464337783922e-01
-2.774147841992029573e-01
-2.475287526420792417e-01
-1.404568078477592130e-01
1.223489021057834469e-02
1.519568808713730179e-01
2.253518281394205625e-01
2.080920169954934562e-01
1.159063575401160506e-01
-3.749007292023377215e-03
-1.065931191997886718e-01
-1.715718846272115683e-01
-1.776219140345749459e-01
-9.107305879883198507e-02
9.001900543812953182e-02
2.909451143505675241e-01
3.995740488717547390e-01
3.637880131797113226e-01
2.276127927801097073e-01
7.056172006416369658e-02
-5.226729420808695625e-02
-1.102073492379069680e-01
-8.847243401334080326e-02
1.366528090003919782e-03
1.263781592069000148e-01
2.482894999166125605e-01
3.227735239438212500e-01
3.054708586800304881e-01
1.862882398072356338e-01
1.451659020829344955e-02
-1.267643789150498801e-01
-1.839743490381572921e-01
-1.783205698920774518e-01
-1.746842900463068393e-01
-1.738367760725799960e-01
-6.891702412478079021e-02
1.757885002386264661e-01
3.323799527520909791e-01
1.285045429854509424e-01
-3.307214780878389160e-01
-6.398671501102342063e-01
-5.905395572892124800e-01
-3.318323068292545197e-01
-8.592246865396935274e-02
6.737148807188643451e-02
1.509866531038906445e-01
1.911671037603440149e-01
1.861825343765108332e-01
1.246367298641928717e-01
9.785478323442384219e-03
-1.323394095042354501e-01
-2.613997171050359558e-01
-3.371104200689549746e-01
-3.357278286456998329e-01
-2.628027530248990828e-01
-1.460541210622625374e-01
-1.630116580959068556e-02
9.266370460880175852e-02
1.369884667563642244e-01
8.950051330006061900e-02
-2.117388854182312291e-02
-1.224485138117015759e-01
-1.581804366821237817e-01
-1.258067533347299594e-01
-4.813368065551325292e-02
7.210081576497480438e-02
2.350899380099938651e-01
3.797285447785316848e-01
3.947174915494780501e-01
2.391681710626830937e-01
7.426123545214213806e-03
-1.712258124584794539e-01
-2.440038846357771019e-01
-2.169694479394155828e-01
-1.091904342268313899e-01
3.281905287552250305e-02
1.404693274567306860e-01
1.779794913698723724e-01
1.580148789264478326e-01
9.966916257907348919e-02
8.103595147978670879e-03
-9.533598291151297588e-02
-1.547964664165270288e-01
-1.258629641382191522e-01
-4.007052830028963453e-02
9.009982780835302379e-03
-2.020648583911956175e-02
-2.601733258638803253e-02
1.085774059293831417e-01
2.388872284611807673e-01
3.020764295118613663e-02
-5.255849895293749352e-01
-9.639145532586321785e-01
-9.143780616521520743e-01
-5.016370748712690730e-01
-6.913712297423534048e-02
1.997572119333377305e-01
3.113315396868380214e-01
3.193023570276086187e-01
2.501227736455993167e-01
1.185224392861770892e-01
-3.927910712860519654e-02
-1.729828714681704849e-01
-2.530563315444067651e-01
-2.709523950604592057e-01
-2.158349116783052912e-01
-9.308266421310312788e-02
4.825260104620458790e-02
1.481355138056349718e-01
1.824513288618756779e-01
1.561346605632177031e-01
7.851706390947496561e-02
-2.951335651249386086e-02
-1.249180589831565130e-01
-1.609421822900948540e-01
-1.151832916901899123e-01
-2.611249381479687631e-03
1.370179494936216991e-01
2.659024063022505380e-01
3.480667631834027387e-01
3.326413284689093142e-01
1.897276907100152177e-01
-2.628464283718482883e-02
-1.976978711558310398e-01
-2.407106544390095748e-01
-1.558182246058744391e-01
2.861694583664885216e-03
1.686038539241108136e-01
2.793219981687869446e-01
2.959221806956524592e-01
2.234490950030685874e-01
1.049305262493970964e-01
-1.234403134595901674e-02
-1.003532339334766987e-01
-1.396044065450746663e-01
-1.046942476740934241e-01
3.296081815692183253e-03
1.115052295957586204e-01
1.319022383845990798e-01
1.064153455233362300e-01
1.856805777926789081e-01
3.363557735404611448e-01
2.468424389820189080e-01
-2.175051156761865778e-01
-6.828591079000229103e-01
-7.056008564358876578e-01
-3.143505956454121231e-01
1.291211819600964761e-01
3.732376434098562124e-01
4.070839560386440570e-01
3.228870258950610195e-01
1.949898077224328230e-01
5.563088361111832164e-02
-7.968713074084085579e-02
-1.818632821899837382e-01
-2.072140243609557064e-01
-1.354156206796011674e-01
-1.389990752755899950e-03
1.252215814620050160e-01
1.911839228104465493e-01
1.846489422854641904e-01
1.206637386612044172e-01
2.079231682217217922e-02
-8.999405844406964394e-02
-1.774232841706561981e-01
-2.013190358594583729e-01
-1.379327131832508713e-01
-7.958729674038069607e-03
1.246752595938652869e-01
2.026657349823470788e-01
2.282004451827968350e-01
2.389985374088444692e-01
2.299171740348277815e-01
1.519365128078037364e-01
7.807286080266050837e-03
-1.100639384081223138e-01
-1.115652723210408398e-01
-2.906782786096632348e-03
1.331348703918900644e-01
2.205609933888298679e-01
2.342202947014245251e-01
1.874435962982178017e-01
1.044758844618297461e-01
4.040955128186002332e-03
-9.831508351591014550e-02
-1.736020316136275554e-01
-1.738686734041288706e-01
-6.279893800180527674e-02
1.308287907573264797e-01
2.919954594685329474e-01
2.858727354542426324e-01
1.014921409835793792e-01
-7.030471889459712076e-02
-2.657604076558118048e-02
1.153197236654762980e-01
-4.088969950456038116e-03
-4.368808230572475138e-01
-7.627387153804769948e-01
-6.357729100944913281e-01
-1.863840846913841498e-01
2.207483873923364592e-01
3.687579351901575375e-01
2.726356105775966099e-01
6.148948278737229739e-02
-1.354624688528343612e-01
-2.399136898293682263e-01
-2.354475374064411430e-01
-1.534861858267547730e-01
-4.380560804790310792e-02
4.884320474860193856e-02
9.342780750877605067e-02
7.775446287241845333e-02
1.265057255472017833e-02
-7.600658090793573074e-02
-1.645193794175992541e-01
-2.340161301255076487e-01
-2.575820107726096153e-01
-2.088650936400480995e-01
-9.393816999136311852e-02
4.505783966327470830e-02
1.607165218262779360e-01
2.190838292246388708e-01
2.045545026522716525e-01
1.325920826284475718e-01
4.393265563304737248e-02
-2.973021837072855472e-02
-7.776919111591423794e-02
-8.677478732994894917e-02
-3.518548624717446338e-02
7.592763952482624312e-02
2.029370143175602270e-01
2.795436889713406869e-01
2.582592121293845189e-01
1.437317008454890022e-01
-8.592979410626241932e-03
-1.328384371267714026e-01
-1.912131319383542638e-01
-1.755819760476569624e-01
-9.445918112319273696e-02
2.858464183754872573e-02
1.544803228338994250e-01
2.284237142281262123e-01
1.842914053361070503e-01
-2.637860174845012284e-03
-2.264835435146125564e-01
-2.914260674038661181e-01
-1.590031971316707149e-01
-6.076841067027877880e-02
-1.818185952960663376e-01
-3.628449389606604458e-01
-3.295983568654489715e-01
-7.038482680048940843e-02
1.922518783880128312e-01
2.800125159045794843e-01
1.895493261306877009e-01
2.213192445657954921e-02
-1.202438560035740955e-01
-1.742735002249436727e-01
-1.206509932998245382e-01
8.614235326005539872e-03
1.452490172682805725e-01
2.312974613526363743e-01
2.483338759598685552e-01
2.011023657519343255e-01
9.914219398020202023e-02
-3.003752827598313302e-02
-1.340030678891156457e-01
-1.657508890557808368e-01
-1.174519852586728003e-01
-1.970610013640336500e-02
8.501929162889362845e-02
1.631791567059943660e-01
1.900393950806586740e-01
1.490667212739810177e-01
5.498738015914757943e-02
-3.302228443969561222e-02
-6.008025233777814639e-02
-3.707644862837812527e-02
-1.417861066796074349e-02
-2.748445109026606721e-04
4.179206189469290844e-02
1.213692837851529788e-01
1.886474455247782733e-01
1.840443636454236753e-01
9.138166447378255619e-02
-5.383639805348441193e-02
-1.854205944644650716e-01
-2.405861011247091563e-01
-1.954432892369190877e-01
-7.856335090389357512e-02
5.122550054383805118e-02
1.471210909822468216e-01
1.969649984353149252e-01
1.993465883169890651e-01
1.270480165716358634e-01
-4.319478110954921152e-02
-2.350812422172201543e-01
-2.786214201098609067e-01
-1.307934240171978457e-01
-2.279544529621880394e-02
-1.749123955745079395e-01
-4.340507731740714248e-01
-4.641416202721139195e-01
-2.089618456033295324e-01
8.414383914602485692e-02
1.968145213022255424e-01
1.146622448648490777e-01
-4.234676698266565120e-02
-1.422845651974035674e-01
-1.245894615237907316e-01
-2.323219666401872899e-02
8.765686828482735504e-02
1.657703688605542403e-01
2.012176188870742344e-01
1.783770405304045403e-01
8.405836303605750126e-02
-5.584537921530222104e-02
-1.769773956353419275e-01
-2.214095073835830596e-01
-1.834724760923884257e-01
-1.064915849528023650e-01
-2.188504730075742019e-02
9.793253213616308350e-02
2.823381108608851719e-01
4.481281947226791740e-01
4.275512982734424039e-01
1.809373441007198213e-01
-1.001331960076636829e-01
-1.924862745698780742e-01
-7.834052072799961575e-02
8.607078766308788598e-02
1.752386878185845931e-01
1.941659421641534489e-01
1.979596707719936122e-01
1.897536203321312787e-01
1.311336670343207500e-01
1.331050199288507166e-02
-1.180068210428190517e-01
-1.998000301466919260e-01
-2.012127349966066625e-01
-1.354127006493981156e-01
-3.285095322270562002e-02
7.749619950305526583e-02
1.631343215075207187e-01
1.912389336056870281e-01
1.440377354603217808e-01
1.645160181197555596e-02
-1.857421145088078984e-01
-3.928640805689510573e-01
-4.268252007631104794e-01
-1.580299712770368292e-01
2.087568048637886142e-01
2.465099120738093730e-01
-1.083379252723508934e-01
-4.057655402201100214e-01
-3.211938854320744441e-01
-5.946913724440372473e-02
4.100955244734096061e-02
-5.220051343589498377e-02
-1.536107098923592817e-01
-1.421103170165179674e-01
-3.446900678023157027e-02
1.047855901730837397e-01
2.268044178411934286e-01
2.982477803803023075e-01
2.932608945797166577e-01
2.053951334427298880e-01
6.260038499926351419e-02
-8.078729636957944493e-02
-1.699520067311708627e-01
-1.720127416190823655e-01
-9.083159172263061132e-02
3.205536520503032144e-02
1.441283757532812460e-01
2.159196145156130064e-01
2.411355610382906467e-01
2.105957295822608044e-01
1.129365024001330320e-01
-2.730846862176877082e-02
-1.355285950980883725e-01
-1.454580339808431710e-01
-7.206064057749000940e-02
1.300802653582789833e-02
7.706574379159329691e-02
1.412947120974815951e-01
2.066872494947521455e-01
2.271546951451757224e-01
1.600702197291122009e-01
1.592430139534083827e-02
-1.409282009325517615e-01
-2.318436236317923671e-01
-2.111298582451365258e-01
-9.347869507352976615e-02
5.983076418103619454e-02
1.854642571369923276e-01
2.457903263882256217e-01
2.363953519766338607e-01
1.893234416164294442e-01
1.317586343766622425e-01
3.134604659229500018e-02
-1.382907704828827689e-01
-2.613666964363319245e-01
-1.417625660060037041e-01
2.000565799143064205e-01
4.244977793097023389e-01
2.575366034889770006e-01
-1.452238672320293744e-01
-4.256839668485854489e-01
-4.464626026084640431e-01
-3.161079976205931064e-01
-1.762448756450426535e-01
-8.991640032219444523e-02
-4.308353546943206880e-02
6.032219545616066339e-03
7.224352111029111456e-02
1.299767344033341543e-01
1.371098812413733825e-01
6.427264191126767778e-02
-8.145953963272996312e-02
-2.466582102301440593e-01
-3.546029142359822250e-01
-3.545797300174400313e-01
-2.536477401514583563e-01
-1.023542644612645963e-01
4.141872751884354692e-02
1.326582625101558610e-01
1.472100156123413994e-01
9.399905341074635268e-02
9.725317046987667913e-03
-7.503948309389195381e-02
-1.485563589073249924e-01
-1.833732930366437641e-01
-1.249520470243204451e-01
4.503193886081550967e-02
2.527300419986142632e-01
3.801903061398464456e-01
3.698897189210758607e-01
2.597959490128987636e-01
1.212995545394188884e-01
-4.404922967799521430e-03
-1.017952839587310948e-01
-1.506469110987819215e-01
-1.271630945809517910e-01
-2.694665032883181849e-02
1.169665980915496895e-01
2.350147023801640311e-01
2.595573201366251359e-01
1.811125772225997133e-01
5.622142937799511075e-02
-4.572486308447296088e-02
-9.555907026947160765e-02
-1.189876762299937329e-01
-1.634187179255917333e-01
-2.079918761113497550e-01
-1.225188488992823982e-01
1.543619355140427862e-01
3.952058345696237152e-01
2.766782584511333076e-01
-1.595496839945764189e-01
-5.110073192103067319e-01
-5.154605399726028825e-01
-2.904285167150873481e-01
-7.574822867019870287e-02
4.130541614172228426e-02
1.144298569937720889e-01
1.859781200661558831e-01
2.278672329224820381e-01
2.036212737078390567e-01
1.184069456976332008e-01
3.580881952981312955e-04
-1.235182110715863091e-01
-2.220528773951485069e-01
-2.579518715227941961e-01
-2.102210488407861289e-01
-9.597513190558029650e-02
3.740438854835974325e-02
1.389858860130276930e-01
1.739550359810621005e-01
1.353273752199951330e-01
4.826362790085229892e-02
-4.754288633663134728e-02
-1.260397185343406501e-01
-1.766902366802107494e-01
-1.803701350463932651e-01
-1.046178989257332270e-01
5.842065940989979445e-02
2.520058305600382242e-01
3.764173433776464850e-01
3.664096588896835760e-01
2.393072573650222856e-01
6.945725608707950527e-02
-6.644718079002140398e-02
-1.273115337767896649e-01
-1.151636347672526928e-01
-5.243125899666009615e-02
4.321351087824406439e-02
1.558067143786589781e-01
2.512938820590789324e-01
2.788835136325317210e-01
2.074979055062288746e-01
6.122299100123046456e-02
-8.887026246008970787e-02
-1.700727707876337202e-01
-1.601051118902973025e-01
-1.086789433304812674e-01
-7.330039740127233805e-02
-1.751967137943784281e-02
1.270777188299119509e-01
2.479523596037309929e-01
9.541077119559128461e-02
-3.390505224120525796e-01
-7.191142276646909082e-01
-7.559154761475693762e-01
-4.913127038834382287e-01
-1.535282896265205976e-01
8.847937328513968969e-02
2.084731486624657182e-01
2.578095639985547582e-01
2.647394996743842599e-01
2.127772889107564791e-01
9.626931788910179921e-02
-4.729030257607695631e-02
-1.643561883120063516e-01
-2.174446763432723029e-01
-1.930946728316071948e-01
-1.049413099067122712e-01
9.003766012434270480e-03
1.063546464882126619e-01
1.592503030454572865e-01
1.556986189836314927e-01
9.595075279508706589e-02
-3.256614031524900435e-03
-1.048612343536397679e-01
-1.630975794165774040e-01
-1.493099848875140689e-01
-6.720550178670983699e-02
6.061015456779742655e-02
2.092528371914592900e-01
3.388049298185383251e-01
3.834091661349022795e-01
2.947323683335399958e-01
1.028754747133166503e-01
-9.427701294453073866e-02
-2.091517698313533902e-01
-2.182306379044728906e-01
-1.468539408030872795e-01
-2.947148893705318906e-02
1.022327673017659477e-01
2.117746316117445626e-01
2.616409321685178591e-01
2.265835691640699645e-01
1.090263380370303375e-01
-4.793086438129740001e-02
-1.724690239930146696e-01
-2.067192774810572287e-01
-1.496696947508819320e-01
-6.191635556071958812e-02
-5.036160381942452954e-03
4.727328743432478858e-02
1.721998378793063444e-01
2.915185594056687313e-01
1.504768725669662355e-01
-3.033455445431029185e-01
-7.133056612567566512e-01
-7.165814325601321810e-01
-3.524986597892981743e-01
7.921759976237348344e-02
3.575193165822163621e-01
4.448005252162090528e-01
4.025091091850180325e-01
2.925178015080416305e-01
1.449992128142729431e-01
-1.311275502037256152e-02
-1.373800474254329440e-01
-1.874174495186209655e-01
-1.538211181809612804e-01
-5.924101257887431915e-02
5.892363663554898295e-02
1.636605164879434138e-01
2.196359599565004261e-01
1.982751033428839238e-01
1.013994612569895648e-01
-2.863790206012885309e-02
-1.354549552858015649e-01
-1.792083867281887843e-01
-1.461780093920912460e-01
-5.185019218719418010e-02
6.140041073463187171e-02
1.480436493571531120e-01
1.905295286579438141e-01
2.038253833727346476e-01
2.002013135469420113e-01
1.532368704259093328e-01
3.111020620675629400e-02
-1.273538209078064476e-01
-2.172632251617529209e-01
-1.647849815834158127e-01
6.231007414317927401e-03
2.016796158371780556e-01
3.269358342200167078e-01
3.336592318165598203e-01
2.310874562145493749e-01
7.464829627343047558e-02
-6.712460843249669351e-02
-1.520383553384420938e-01
-1.705600150564419437e-01
-1.222119329767001605e-01
-1.895645560508592634e-02
8.372271398748246107e-02
1.167201080822218157e-01
1.056332246225960558e-01
1.786120099134236028e-01
3.358769954080347286e-01
2.972321025656545768e-01
-1.524799560147736821e-01
-7.346966468791870097e-01
-9.357116530427047607e-01
-6.236604263904497181e-01
-1.145388165431055483e-01
2.512624173697677876e-01
3.636669211687597603e-01
2.863967239398104714e-01
1.261708634303210508e-01
-4.291182274086528109e-02
-1.839506815728670364e-01
-2.660493439327344944e-01
-2.654446623453567411e-01
-1.985837447309727888e-01
-1.069365942091611565e-01
9.938333495591211014e-03
1.858796607771921183e-01
3.691474270751344822e-01
3.996097406376102890e-01
1.992047392704304754e-01
-9.456749016295286359e-02
-2.778244498542073448e-01
-2.853271187603981796e-01
-1.886997673552626154e-01
-7.429259183559509816e-02
2.211526564642960976e-02
1.040631852837818061e-01
1.792137315270785070e-01
2.271013452184627301e-01
1.960437508852924393e-01
5.777457902884701457e-02
-1.280821578688960127e-01
-2.414595717526069607e-01
-2.102194880192886639e-01
-6.691314083201906071e-02
9.973145001382804908e-02
2.172985248448697226e-01
2.552955986925581899e-01
2.136884713311846262e-01
1.102300801605512609e-01
-2.089042895250683290e-02
-1.335635731484340616e-01
-1.879362969136227357e-01
-1.653042299164373674e-01
-6.725981400331024207e-02
7.740244430036041789e-02
1.909860109685372065e-01
1.768544005178215028e-01
4.211341024798724575e-02
-3.826207623535251429e-02
7.351317591546679964e-02
1.960371511205618589e-01
1.375749905806205329e-03
-4.590574068483818104e-01
-7.269605335076936292e-01
-5.242370156813965787e-01
-5.311809955738866496e-02
3.200529664481989167e-01
4.183285537456425396e-01
2.887994372177880020e-01
6.990219730157801181e-02
-1.239361819061686049e-01
-2.435066442977443790e-01
-2.826456451368031253e-01
-2.454090330385888807e-01
-1.429361115645201852e-01
-6.090061864231300151e-03
1.134528830688887602e-01
1.623511519046254015e-01
1.168859667426667692e-01
-1.762877872558719222e-03
-1.417106246774194334e-01
-2.433139816168036762e-01
-2.608265147871152712e-01
-1.852109933752244531e-01
-5.112129205820702127e-02
8.279297887899893238e-02
1.656499812789684334e-01
1.825796742355821622e-01
1.602766822214354847e-01
1.311015110163594177e-01
9.283213103540527422e-02
3.076641851093412858e-02
-2.779739026996970452e-02
-2.798980832853060347e-02
4.075389118929200610e-02
1.314108213084920485e-01
1.991067691705090403e-01
2.334109187490510662e-01
2.320802752370594579e-01
1.819021939243730956e-01
7.794878121910681079e-02
-5.143010629327335326e-02
-1.475944710357823819e-01
-1.610895292303077542e-01
-9.231173569998188388e-02
2.109177518522879075e-02
1.440940496065941379e-01
2.354267079536349061e-01
2.239439015831425905e-01
7.771371536769755561e-02
-8.963933554228507850e-02
-1.099904046472183622e-01
-3.462447446833534503e-02
-1.232415170353546030e-01
-4.224924572686652446e-01
-6.178368833485392564e-01
-4.589703062063968386e-01
-7.095216028662074126e-02
2.503449615505982662e-01
3.422272033282248715e-01
2.338869436782480271e-01
4.476930441456778570e-02
-1.128114325659535927e-01
-1.761998179295561351e-01
-1.405788992055549691e-01
-4.558153498136084669e-02
5.867820789556151689e-02
1.385640594351668642e-01
1.719714759839024998e-01
1.375378812642407134e-01
3.064814698350359912e-02
-1.130139462141430545e-01
-2.264658226779495964e-01
-2.554125957162599603e-01
-1.931985106145040487e-01
-7.135288172650743055e-02
7.109738078287916596e-02
1.980800658120929203e-01
2.687878981156452407e-01
2.483526343813295123e-01
1.457255370425801777e-01
2.574877575013504588e-02
-4.452433277356325492e-02
-5.641927079813407325e-02
-4.260015372112588294e-02
-1.022323114420965740e-02
6.492200763501555782e-02
1.731092773297040477e-01
2.509595782749048376e-01
2.434945526639646363e-01
1.509673178784463055e-01
1.189854179521975322e-02
-1.289758964185223067e-01
-2.298498703910626106e-01
-2.524872753622826038e-01
-1.805662845629101287e-01
-4.050300864452423266e-02
1.132874932566472481e-01
2.309745616457751782e-01
2.706870875694185052e-01
1.921239364829061547e-01
-4.182379312374962660e-03
-2.164454673924244010e-01
-2.880013357265219232e-01
-2.011898342770660209e-01
-1.499673619143102599e-01
-2.694632378203709600e-01
-4.013343176904772824e-01
-3.150037589220180956e-01
-3.572590171145323401e-02
2.078354867062463252e-01
2.531993952645888446e-01
1.237809012374219975e-01
-4.643679503454212903e-02
-1.401568696809054881e-01
-1.233466394584402381e-01
-2.766705234360849336e-02
1.003459501457736880e-01
2.201181734081175401e-01
2.837887851440873410e-01
2.454193714626156930e-01
1.063659007144714952e-01
-7.019189306384249205e-02
-2.033085801628610467e-01
-2.430920151001300655e-01
-1.892016653913211610e-01
-8.181487219974793723e-02
3.287527636683298948e-02
1.318131341817182500e-01
2.014774340660623331e-01
2.132034821624644305e-01
1.430510453243245272e-01
1.728672998070835895e-02
-8.666780607766594313e-02
-1.040720995936542381e-01
-4.236727858860225154e-02
4.233387345945836822e-02
1.192237180655524587e-01
1.963177271655431877e-01
2.648645303695120190e-01
2.817670277761434305e-01
2.197515842154917354e-01
1.020143146156415881e-01
-1.887114273907328221e-02
-9.701145787214596194e-02
-1.108371286522088772e-01
-6.375832576125509132e-02
2.525578846267056976e-02
1.344000326710769466e-01
2.435433632532724157e-01
3.275886342768521975e-01
3.456283750480937944e-01
2.433740813343213960e-01
6.387199977191993644e-03
-2.504265088886232227e-01
-3.064954519693729451e-01
-8.481843332122711299e-02
1.465435549934822057e-01
5.548123473335314637e-02
-2.712000282443763344e-01
-4.305417473922756311e-01
-2.648908715283848636e-01
-4.439763973626706384e-03
9.729253835979442822e-02
2.035145939005142054e-02
-8.895752537239373647e-02
-9.891701247389345086e-02
-6.174799970167805380e-04
1.208903232325400090e-01
1.906783029942895336e-01
1.968749267377312151e-01
1.598881128058529943e-01
9.100820546128682298e-02
-7.481126248795681374e-03
-1.193343904570558361e-01
-2.076553844026652884e-01
-2.350245756727294966e-01
-1.886992276351096010e-01
-8.865246885897418161e-02
2.128658412807663686e-02
9.233398219655843120e-02
9.467055102715395132e-02
2.698255130708419186e-02
-9.467636255985747984e-02
-2.366011853678235410e-01
-3.342863930225827285e-01
-3.210582594692121816e-01
-1.951806903482325717e-01
-3.370742088115440127e-02
7.867098952153968316e-02
1.154861422071778720e-01
9.606275460515135978e-02
3.981258589082074806e-02
-4.219283744318581136e-02
-1.310920593451148364e-01
-2.003667583692641807e-01
-2.250796007986168024e-01
-1.884556995160668047e-01
-9.451097178864040216e-02
2.248837788616633859e-02
1.129455265785957174e-01
1.462977999268458562e-01
1.295100628369571794e-01
8.230781976361953300e-02
-8.798984425529031428e-03
-1.796311235297461673e-01
-3.697555919701011606e-01
-3.492564412529458040e-01
3.945633816022659640e-02
5.120181893745979762e-01
5.326792046292017080e-01
2.806932155434882503e-02
-4.675081191784438706e-01
-5.220997062556564927e-01
-2.664629267810076918e-01
-6.344487704332466005e-02
-5.685557078137164211e-02
-1.333786278771856848e-01
-1.439745113331124537e-01
-5.970320198080707186e-02
4.957870673048765664e-02
1.069645640790069518e-01
7.496713862720048860e-02
-3.939710995601000687e-02
-1.899150418884687219e-01
-3.159685248902651122e-01
-3.769489916427411491e-01
-3.639828982315100880e-01
-2.874316719133173659e-01
-1.621253926076204332e-01
-6.618930705885140570e-03
1.444599507443189990e-01
2.393498937171576746e-01
2.354627948235322732e-01
1.274892854496224859e-01
-4.749586917917961171e-02
-2.127793826094137031e-01
-2.662648483001289756e-01
-1.450049601555675194e-01
9.866267424568189726e-02
3.202937058031060658e-01
4.066436373575588736e-01
3.592851880476653492e-01
2.506572108943988519e-01
1.316828800327586035e-01
1.197230381064334076e-02
-9.498359546916429474e-02
-1.528714992208086709e-01
-1.308786799229370024e-01
-3.183761333009899053e-02
1.073724937554048631e-01
2.374261473796620836e-01
3.180338492682239782e-01
3.265646701317809764e-01
2.676515053761674978e-01
1.755570756178478353e-01
7.944781769155871698e-02
-2.867049241929336273e-02
-1.423154640876368726e-01
-1.547774527925377119e-01
6.304515243008285141e-02
4.076480918494678751e-01
5.164914107526442644e-01
1.915270413655986992e-01
-3.033174340240851197e-01
-5.635012974666839813e-01
-4.856587257363954580e-01
-2.510937043480913622e-01
-5.287298887513718765e-02
5.152422727144304049e-02
1.153874150315157415e-01
1.991989980649128689e-01
2.890898428767332273e-01
3.172321740482955676e-01
2.446421402531833988e-01
9.831568248650916775e-02
-6.216607967846575489e-02
-1.859738020720913820e-01
-2.366519871497079763e-01
-1.899029508250497655e-01
-5.755057209322313877e-02
9.953731922587076564e-02
2.125426903707006432e-01
2.545252539596785657e-01
2.367393107174301792e-01
1.772007530157171939e-01
9.326532942102841450e-02
6.135597033991937316e-03
-5.903485887794319986e-02
-6.218889945564626265e-02
4.244720061214750373e-02
2.454405803612555725e-01
4.483838387840735074e-01
5.358873596231027436e-01
4.774996469324068737e-01
3.333772505773577866e-01
1.765593446240512066e-01
4.868210505873950267e-02
-2.093981613969073813e-02
-9.544623527532637708e-03
7.214699463440578386e-02
1.821126500639000945e-01
2.823426398726709419e-01
3.465917208567579899e-01
3.442844007303407783e-01
2.591383731896100273e-01
1.259079418088739077e-01
1.346181160175057533e-02
-3.933811809619448124e-02
-5.426842635235662460e-02
-6.651567096326437001e-02
-4.146462987798265470e-02
1.203365642422890153e-01
4.072227947436190543e-01
5.679296688301558316e-01
3.609520473381337968e-01
-7.638017873533764490e-02
-3.552767231054181907e-01
-3.012841725588254471e-01
-6.049821725485341611e-02
1.716010885796919738e-01
3.209977588630804624e-01
4.010573416336266628e-01
4.431044407408336050e-01
4.581739070071368380e-01
4.301031025008857922e-01
3.413303360321258695e-01
2.062331585289469416e-01
7.677565908053628208e-02
9.126970194873077619e-03
1.849479900980174202e-02
7.838282273704634540e-02
1.755191056902396241e-01
3.297052040743531642e-01
5.157036080556391955e-01
6.144120532459304007e-01
5.234491888298360429e-01
2.852437185226019412e-01
4.641766065970236166e-02
-7.489716483999799002e-02
-5.912826831897230462e-02
3.732914405709440719e-02
1.552519366914156818e-01
2.770256061519850155e-01
3.909979947537726153e-01
4.409725843184013616e-01
3.581106418048893847e-01
1.489715211834606867e-01
-8.618624172335638545e-02
-2.371218261097823021e-01
-2.596357269928106781e-01
-1.757440380781206679e-01
-3.893935036025604479e-02
9.664138455607440559e-02
1.917091302401619513e-01
2.172290021491857515e-01
1.532452410426907441e-01
7.556246848563834620e-03
-1.684405169281243952e-01
-2.906398935569140529e-01
-2.904515584008625639e-01
-1.845999074543758500e-01
-8.415420975558725314e-02
-6.831425639441786324e-02
-4.369907193015452884e-02
1.299957645474452417e-01
3.040386819240001870e-01
9.673484892477574038e-02
-5.242179465389099624e-01
-1.057801685864125263e+00
-1.085030332401091480e+00
-7.198208883949867021e-01
-3.285477666589273760e-01
-1.227578399962088868e-01
-9.862321136134417909e-02
-1.680363645985542553e-01
-2.660699217595069443e-01
-3.758099520079713485e-01
-4.931479034612021306e-01
-6.006172640407965169e-01
-6.786648247394314604e-01
-7.137304824853288876e-01
-6.926220530436919542e-01
-6.157009992568731604e-01
-5.213542429155346714e-01
-4.776919428314420624e-01
-5.301420361521054225e-01
-6.561977728077038607e-01
-7.873669366782677370e-01
-8.756466873231220083e-01
-9.208515039376402589e-01
-9.380013325739412489e-01
-9.249764980456330887e-01
-8.693815444305674767e-01
-7.738068730150602370e-01
-6.680905170104693980e-01
-5.997382286582133570e-01
-6.125321564563731558e-01
-7.265497003831481448e-01
-9.241263149778327080e-01
-1.141231132160895445e+00
-1.281037849645367377e+00
-1.277278606347555634e+00
-1.166959436479182211e+00
-1.065698008421547938e+00
-1.044434748771941868e+00
-1.060041122602637609e+00
-1.040092488919627245e+00
-1.017181029308539930e+00
-1.109009436608808796e+00
-1.334566939542204400e+00
-1.536827934773394855e+00
-1.553181691615490134e+00
-1.403318794578717776e+00
-1.269877409516450673e+00
-1.306486515207911703e+00
-1.434567992659482760e+00
-1.365728200750569998e+00
-9.740945603766296701e-01
-6.053997253950906821e-01
-7.290016619713992618e-01
-1.286619087494135227e+00
-1.772206145186459025e+00
-1.883310712093899886e+00
-1.522406608484777601e+00
-4.765476820213024323e-01
9.396769480787527939e-01
1.490178208953578665e+00
5.469500444341077738e-01
-6.584315042291450926e-01
-5.694511373575374957e-01
5.664391547638936153e-01
1.210628195569589227e+00
7.481823841695263155e-01
1.804776379547453624e-01
5.911832321251941913e-01
1.780537893642466285e+00
2.782106091566916461e+00
3.086603075523754125e+00
2.919843530465398018e+00
2.704025023383658244e+00
2.588045150624143975e+00
2.438134236515054454e+00
2.144343441669186223e+00
1.808265384368222151e+00
1.603545603217771065e+00
1.558975170374087060e+00
1.541359324708082346e+00
1.414062230443059009e+00
1.172260874688916932e+00
9.537355216057877838e-01
9.359015055326032062e-01
1.147922386447102205e+00
1.404248255432159809e+00
1.533803983575299457e+00
1.575341647046229587e+00
1.620622240390751756e+00
1.629549990897738665e+00
1.532584084303675320e+00
1.372178985452764843e+00
1.243076964265514395e+00
1.178378042708758233e+00
1.142079829234708965e+00
1.091121300972775154e+00
1.035216363651458860e+00
1.037578751728330806e+00
1.131976227418630243e+00
1.243963391090929127e+00
1.221972725421276218e+00
1.002319032191090420e+00
7.259024555082289609e-01
5.255713289995043169e-01
2.883733015914654030e-01
-8.257449329609642397e-02
-3.621273020204207049e-01
-2.839668294050385899e-01
7.934738902284302342e-02
4.552117339997405754e-01
7.107654144089311510e-01
8.858997607374234917e-01
1.013425331757132897e+00
1.058083018517881779e+00
1.004185145318194472e+00
9.091112118394251151e-01
8.429652149452842025e-01
8.101682293285792369e-01
7.625022441887461255e-01
6.722909721623856472e-01
5.529948773142041585e-01
4.019960358377947518e-01
1.747140693430742353e-01
-1.380052702765830475e-01
-4.425573766679208321e-01
-6.053619569331760708e-01
-5.771632621156232990e-01
-4.384486998225994858e-01
-3.262111599255887451e-01
-3.261958682771112228e-01
-4.318980955158550072e-01
-5.742756260011390168e-01
-6.795585216055887168e-01
-7.293601405725564923e-01
-7.713276208020681812e-01
-8.518458599431519840e-01
-9.456008161170770254e-01
-9.719852830321433768e-01
-8.810917880140827219e-01
-7.153958620479674568e-01
-5.850364870813942186e-01
-5.761564370645805289e-01
-6.802505392374034177e-01
-8.177283136054492862e-01
-9.163771767187877115e-01
-9.504012858429446986e-01
-9.240703198126111184e-01
-8.459590471433615644e-01
-7.212442191981923711e-01
-5.667926244169974037e-01
-4.298332881622236590e-01
-3.796871770747657915e-01
-4.653363722031325644e-01
-6.544472181107727771e-01
-8.384679039630869024e-01
-9.681232071927347027e-01
-1.113246640007506505e+00
-1.275909368217824191e+00
-1.286531002646727817e+00
-1.028505558040916812e+00
-6.231584620391658058e-01
-3.011201035359278855e-01
-1.946154221655195249e-01
-2.770569763542682362e-01
-4.317327062915509717e-01
-5.537327886694024537e-01
-5.996815722397258464e-01
-5.708895836461266304e-01
-4.868431800323783087e-01
-3.765758060046516809e-01
-2.710850057263782809e-01
-1.967461276914603541e-01
-1.768620392269750208e-01
-2.288990915860077136e-01
-3.463731243795181713e-01
-4.832143692271481106e-01
-5.706385640794275904e-01
-5.570215592028069373e-01
-4.369808537651369562e-01
-2.574781574608185908e-01
-9.808950242846820045e-02
-3.302254812736592215e-02
-9.161743077063719265e-02
-2.293131913005928002e-01
-3.462446403668212325e-01
-3.704047997392880820e-01
-3.179431415443512154e-01
-2.462696707187430889e-01
-1.714124291696765556e-01
-6.878004766897481692e-02
6.481264146194529174e-02
1.874626457873929397e-01
2.427321838390774089e-01
1.979596888860400417e-01
6.733995090565680908e-02
-8.969209236440385535e-02
-2.008925505697111979e-01
-2.195938217076709442e-01
-1.385376032995166706e-01
1.302168088755847886e-02
1.753891450962810905e-01
2.868475582514549149e-01
3.237992657888370540e-01
2.913165405493203242e-01
1.801350560422882718e-01
-1.116404323113662223e-02
-2.179288678401241075e-01
-3.595064237892649506e-01
-4.375884224819244772e-01
-4.848669740315131316e-01
-4.608651061405078520e-01
-3.103143497433279996e-01
-7.247694882428420970e-02
1.394871479035134088e-01
2.303287157285780484e-01
1.817576534066981941e-01
5.460626826108359866e-02
-5.485532026187943389e-02
-7.030136059242354796e-02
2.642677763895122378e-02
1.882648495163464220e-01
3.321947698826445139e-01
3.893651393462085886e-01
3.461601729669455674e-01
2.451786176767393188e-01
1.401817583023705072e-01
5.327885825426108279e-02
-1.443859874189170472e-02
-4.801612612501839072e-02
-2.392152568709643434e-02
5.826245062287552234e-02
1.729576047159335217e-01
2.817057308250218162e-01
3.302255852965979566e-01
2.647533784473447005e-01
9.389472147972553751e-02
-7.896827737554129589e-02
-1.339390147901957928e-01
-5.204961543770226379e-02
8.481383113327020662e-02
2.106088866152986683e-01
3.317669167001660591e-01
4.476816008506700473e-01
4.888212895768868638e-01
3.946210486411969032e-01
2.052976513848256135e-01
2.311680582009815327e-02
-8.201928674263832264e-02
-9.982152965547597123e-02
-4.905464079251858206e-02
4.986291522758583977e-02
1.741734315987497617e-01
2.854775138031300230e-01
3.361365395118206534e-01
2.971333677272655072e-01
1.754889747025947244e-01
5.281232085009204824e-03
-1.688845608567873247e-01
-3.002041278911815048e-01
-3.574504522820076691e-01
-3.475281592367248096e-01
-2.942453543934827054e-01
-1.990879120614159614e-01
-6.171767574936033729e-02
8.075856647206573757e-02
1.736379704120980527e-01
1.869650180933620509e-01
1.308293688572768620e-01
5.379725734337734155e-02
2.347161924146299802e-02
8.336725678276959983e-02
2.182291696518727786e-01
3.623910971718776186e-01
4.455792017827746032e-01
4.356647611931669384e-01
3.448364386392689940e-01
2.093866882866958767e-01
7.142827561227978184e-02
-2.913290063633360016e-02
-5.801812970750379328e-02
9.262527974893373928e-04
1.222108432028444491e-01
2.432986084379669678e-01
3.164855135514390572e-01
3.405069295579024602e-01
3.211070396556926498e-01
2.362040988842060152e-01
8.406016058992918372e-02
-5.678082228206559473e-02
-7.531547125223186923e-02
5.035000688124678658e-02
2.223715947654553993e-01
3.321059290832263367e-01
3.552973469767534698e-01
3.238636785944585261e-01
2.613007872866525694e-01
1.747419727897728536e-01
7.247113105062025218e-02
-2.702961739153028967e-02
-8.817631444037687949e-02
-7.649172783252343455e-02
-4.779355273532681636e-03
6.274238314169512665e-02
8.127365600775658672e-02
7.635595483256200910e-02
8.867904333125961602e-02
9.726858238937283185e-02
3.867181524741114540e-02
-1.163501284672253111e-01
-3.186765745410169992e-01
-4.594275886688767296e-01
-4.601837548165542691e-01
-3.641390601670807525e-01
-2.922915418319244063e-01
-3.006995325776435912e-01
-3.292800579987160692e-01
-2.887186597022647350e-01
-1.710995983935586773e-01
-7.044026839859107714e-02
-7.180971762810078873e-02
-1.326361548551434066e-01
-1.275115387597912653e-01
2.467710812367331086e-03
1.897643892697183365e-01
3.127894398674726517e-01
3.026723616219937907e-01
1.942942200451229506e-01
8.115768301581972877e-02
1.309985232602106989e-02
-3.869379487101168302e-02
-1.003195799242712072e-01
-1.314551223528583335e-01
-8.096982572361811903e-02
3.739622373654971632e-02
1.562898250675752998e-01
2.157956707384754425e-01
1.955931326944360116e-01
9.984748310727918630e-02
-5.664488717780238880e-02
-2.215462094710911600e-01
-2.923480993202460798e-01
-1.900562954209927269e-01
4.303299135304736178e-02
2.619190702876037502e-01
3.522038734188346898e-01
3.141637351337632778e-01
2.136170166093320222e-01
9.805211000846726643e-02
-2.088127229629206660e-02
-1.346161520496971520e-01
-2.113092467655611206e-01
-2.054073870197106744e-01
-1.010843046494692837e-01
5.518953546134897081e-02
1.825108649030841024e-01
2.297051853141348354e-01
2.007704324564866805e-01
1.235592550905706827e-01
1.739061713436597031e-02
-1.033483784123445659e-01
-2.133862683741445665e-01
-2.806939164886295135e-01
-2.899146288002422689e-01
-2.614199975087921346e-01
-2.392598546086071865e-01
-2.490900707891466337e-01
-2.765728956450130283e-01
-2.934634010182690655e-01
-2.807438498504834512e-01
-2.292971368895633522e-01
-1.528544695570917267e-01
-8.474909565590489635e-02
-3.459997633575800924e-02
2.414317431553722818e-02
1.098767654672475336e-01
2.021676125056607043e-01
2.569002610136424392e-01
2.387336982684004627e-01
1.457281787654316207e-01
7.654260477586213168e-03
-1.343558624529033463e-01
-2.278682608011727284e-01
-2.005931798800928145e-01
-1.152612287304521921e-02
2.589909689431461048e-01
4.338504612697104412e-01
4.151542917964622381e-01
2.785183174273029860e-01
1.432763207809608363e-01
3.182638383478372107e-02
-9.043847811340446907e-02
-2.061232100088131181e-01
-2.302421020738136814e-01
-9.666438556781525859e-02
1.491949915008087268e-01
3.626030960556581029e-01
4.247215055111429605e-01
3.386812885478645563e-01
1.852724043010704202e-01
2.625321961460233555e-02
-1.099608664600428554e-01
-1.899232811086850881e-01
-1.793878779526400791e-01
-8.182719402838421752e-02
5.122143167935227365e-02
1.566162027678834612e-01
2.087697527934456732e-01
2.251653426697781402e-01
2.190700368558206879e-01
1.681913677461588097e-01
4.496199925881187026e-02
-1.348976968758900941e-01
-2.953518939425874845e-01
-3.307467921914729603e-01
-1.949149441772400904e-01
5.688550976603840015e-03
5.828676044754924068e-02
-1.345060597610859277e-01
-4.133096591402108944e-01
-5.394245154483316984e-01
-4.585898540410336954e-01
-2.931091301213510358e-01
-1.574976547643212599e-01
-6.983246258203537615e-02
1.439604445458114029e-02
1.308210901813431082e-01
2.542738687863899116e-01
3.147735475531817650e-01
2.634454269303300733e-01
1.139814512552172060e-01
-7.002842304381953764e-02
-2.185713596581074780e-01
-2.935612705452141924e-01
-2.908057778867253473e-01
-2.183482312205493048e-01
-9.487990677863955558e-02
3.893340686242389298e-02
1.342757494062304380e-01
1.606745696556759195e-01
1.163273089656496617e-01
2.533781103894256967e-02
-7.633340460887702572e-02
-1.603956386216137953e-01
-2.029545027617587483e-01
-1.641150164257606514e-01
-6.899705448467696040e-03
2.333458576200571344e-01
4.241763193146762534e-01
4.366242788513957085e-01
2.754696354321694018e-01
6.498337297324065231e-02
-8.988915422182154613e-02
-1.713131002802194269e-01
-1.893303777390963338e-01
-1.341372380105100015e-01
-7.534848661796229169e-03
1.452340625935384100e-01
2.593221017055420963e-01
2.935782472386659903e-01
2.447593567953993410e-01
1.365772795108986803e-01
1.016288262576615226e-02
-9.019852562666628992e-02
-1.463523976266180027e-01
-1.735977496797374287e-01
-1.666191970047505855e-01
-4.463248545421331231e-02
2.474896621178720169e-01
5.185851730039664487e-01
4.080664234996144168e-01
-1.283643597431773364e-01
-6.466629481132945001e-01
-7.347561417735132272e-01
-4.470332774897260997e-01
-9.525921903660281020e-02
1.279914641777375461e-01
2.253503540669870853e-01
2.681206300747959737e-01
2.851214682753022145e-01
2.515288766422680844e-01
1.507363963905050674e-01
1.015550774676951887e-02
-1.335853116290908749e-01
-2.641853656199900646e-01
-3.538632530974611390e-01
-3.464733439663976733e-01
-2.207552261855934284e-01
-3.732263568644206275e-02
1.161279824685344103e-01
1.900507346277960363e-01
1.724432133446296145e-01
7.910299252888364219e-02
-4.062676114066783584e-02
-1.250818070264343163e-01
-1.417154473714654639e-01
-9.776574885849514951e-02
-8.352213749711092511e-03
1.262337978387893245e-01
2.871584267160992576e-01
3.967608262468469982e-01
3.624593425367929056e-01
1.779491148787794019e-01
-5.180145129771296375e-02
-2.031141442287593413e-01
-2.277012018656710268e-01
-1.513025748467058396e-01
-1.869237326484040132e-02
1.335169412468686645e-01
2.663053112474343953e-01
3.332362213282490382e-01
3.026220858825534599e-01
1.807979916410550336e-01
1.186834021003035922e-02
-1.363465985166456840e-01
-1.917779178169903287e-01
-1.207325860301773635e-01
2.166339702551836957e-02
1.243824395751280676e-01
1.598112534269482132e-01
2.360025624919173115e-01
3.964261576486239891e-01
4.306407327095548299e-01
1.033309693696943393e-01
-4.437643085467886106e-01
-7.774267981693865348e-01
-6.658585278782386263e-01
-2.731292159219427251e-01
1.039982993204067174e-01
3.117545100580302320e-01
3.599891064838855459e-01
3.016555349156395671e-01
1.665792645181421727e-01
-1.545960643540513976e-02
-1.943326131292010817e-01
-3.200417922047535391e-01
-3.664907260872400374e-01
-3.350426413924206259e-01
-2.418608997319278697e-01
-1.086774567451778695e-01
2.630861795108829435e-02
1.054791077882246825e-01
8.754425151437399133e-02
-1.577562077055498502e-02
-1.489015582009911853e-01
-2.488870687566019924e-01
-2.727360346154351634e-01
-2.112586861452977749e-01
-9.375056546915741529e-02
3.005906510770787674e-02
1.307256572283626572e-01
2.110219634038500991e-01
2.617828045030797801e-01
2.374654440703694580e-01
1.129935208976463323e-01
-5.660540600844364556e-02
-1.719486735625165852e-01
-1.751526621333781564e-01
-7.996113084020869954e-02
6.034420805883533578e-02
1.901881918945424743e-01
2.693626684972255658e-01
2.732689403133532480e-01
1.927677075729926359e-01
4.970150949206558061e-02
-9.733761448367726776e-02
-1.828752713166678368e-01
-1.695426924551195202e-01
-6.175354904056844230e-02
8.365678900586574762e-02
1.688989345310915324e-01
1.420191715553910938e-01
8.713583434517924164e-02
1.260114557753625741e-01
1.775572778355633818e-01
-3.511864586607547651e-03
-4.262368266492476687e-01
-7.399812079645524676e-01
-6.548976200186218399e-01
-2.596726821917687000e-01
1.513781326410034433e-01
3.742776974688907243e-01
3.847470282534163344e-01
2.609711675493816552e-01
8.729477537589641623e-02
-7.803418506287090883e-02
-1.925851352873998723e-01
-2.305779745821817661e-01
-1.923866144159571967e-01
-9.860131793589932414e-02
2.055081158542207409e-02
1.235091840413185260e-01
1.610094906296435369e-01
1.065912754782260552e-01
-1.205051336458836872e-02
-1.291515736380342561e-01
-1.963655048343666276e-01
-2.135168007370166210e-01
-2.025147229095784207e-01
-1.619574904045802122e-01
-6.563048071503881087e-02
8.179393378995727937e-02
2.156460878933375291e-01
2.720812873207980598e-01
2.487302822134420111e-01
1.762006429677702157e-01
7.630053978609643850e-02
-1.938631608138134677e-02
-5.851554736961733783e-02
-1.341002770785410317e-02
8.871249213772142150e-02
1.959321618992226899e-01
2.657032717354309570e-01
2.682695110835436880e-01
1.930513733494884088e-01
6.232381813073836763e-02
-7.790096066757158655e-02
-1.813784747665487807e-01
-2.141816443339954190e-01
-1.582023054085598401e-01
-2.021352560687563610e-02
1.500033979244161930e-01
2.598254188240582963e-01
2.315413451526139588e-01
9.536122455642299933e-02
-7.732088556698858695e-03
-1.012372977384375441e-02
-7.268186601330406393e-02
-3.611486930624197011e-01
-6.991335716194657657e-01
-7.261057209768339016e-01
-3.717262632320338378e-01
8.292196019705874721e-02
3.461684895558125308e-01
3.375814659829860509e-01
1.556025972685034231e-01
-5.055210254130901304e-02
-1.887996618246398639e-01
-2.454018808675218488e-01
-2.309340722617131691e-01
-1.425296359308963756e-01
9.509067153792748889e-03
1.639434993286439102e-01
2.332581104111625392e-01
1.788267614389543181e-01
4.424039765001104574e-02
-9.357229305265109265e-02
-1.825726893409583274e-01
-2.021585543055425260e-01
-1.515887851313184043e-01
-5.088881400465725818e-02
6.821246527947592841e-02
1.786678078240238610e-01
2.552251088449078997e-01
2.692914860760444729e-01
2.110273044531298658e-01
1.135238122793192916e-01
2.951122578386395495e-02
-1.886046875724831443e-02
-3.895999591687255431e-02
-2.246746058187269746e-02
5.017758053202114876e-02
1.591122997336155698e-01
2.482917909115029964e-01
2.802294403331317962e-01
2.511105295687901529e-01
1.678193281912880308e-01
4.935386991557207115e-02
-6.250559578373522662e-02
-1.250937083137682038e-01
-1.215619308211228489e-01
-5.645446452853662700e-02
5.743202742079821232e-02
1.904068705355399238e-01
2.751236299835959076e-01
2.223520286746391850e-01
2.073379392771784735e-02
-1.585086138661563060e-01
-8.753326869505613506e-02
1.639069392827876004e-01
1.993007684830558068e-01
-1.467026287055225309e-01
-4.908007075550133713e-01
-4.191217233880602522e-01
-2.403426313535944603e-02
3.006962802525139367e-01
3.354363748228326170e-01
1.540191742146950205e-01
-5.515030694603055561e-02
-1.630579905727122803e-01
-1.480139055487039446e-01
-5.682187969287590124e-02
4.925972862726251539e-02
1.283051270001811517e-01
1.641670071543019915e-01
1.506686393537950697e-01
7.987668375787020103e-02
-4.248539046400730268e-02
-1.750410487323430520e-01
-2.526325379491995426e-01
-2.319880384414541030e-01
-1.240682515313202977e-01
2.453757032880215377e-02
1.748029986545934777e-01
2.937016988958635055e-01
3.077601794232538435e-01
1.294270250058655036e-01
-1.978317595879982571e-01
-4.468131435746093283e-01
-4.227761539768244425e-01
-1.892568976026063332e-01
3.406625412681044129e-02
1.366663411660586636e-01
1.736678222950239769e-01
2.148878723835654370e-01
2.457604914800664286e-01
2.148152361820275524e-01
1.088089928336739703e-01
-3.702915677579790565e-02
-1.640473566055928034e-01
-2.155092828086402346e-01
-1.673710837546664720e-01
-4.383969148693876716e-02
1.048536080013091482e-01
2.301162075746271130e-01
2.922841987902418115e-01
2.666350373589470024e-01
1.486997620675768461e-01
-4.209226153997738806e-02
-2.257406119442429693e-01
-2.544277683212957664e-01
-7.679349785518714555e-02
8.891602172511847701e-02
-3.569136636748054120e-02
-3.777167171493313047e-01
-5.639835385414411206e-01
-4.035670834928566930e-01
-8.864925356814379320e-02
8.807804955383549683e-02
3.992711233092389317e-02
-1.079445545343395430e-01
-2.006541337572786965e-01
-1.769010628365528526e-01
-6.369777301803614122e-02
6.992471916080640615e-02
1.484595993557653038e-01
1.292548552197651801e-01
3.199737157983514879e-02
-8.221785969055780963e-02
-1.711011468988291040e-01
-2.432249273374407772e-01
-3.171866736499464601e-01
-3.528817364664300071e-01
-2.664705588818887527e-01
-4.675727231842818910e-02
1.907885635181870432e-01
3.106657954221773710e-01
2.753518041295809349e-01
1.399399250906553649e-01
-1.189535383979110558e-02
-1.075988094224686747e-01
-1.065249446401630579e-01
-1.644267285824077898e-02
1.115259862871396529e-01
2.254739254656859260e-01
3.108091361020311472e-01
3.615585810989628834e-01
3.356895112263787451e-01
1.974336062361035093e-01
-3.759410150571393383e-03
-1.444987140261597691e-01
-1.273846549771301684e-01
2.417110600356811925e-02
1.770092589398456762e-01
2.279638552519591133e-01
2.039533697175693050e-01
1.830414460095127205e-01
1.791571925537583931e-01
1.493678050609639207e-01
5.393710769759327284e-02
-1.180339844520759823e-01
-3.170479261026358797e-01
-4.005263155231528205e-01
-2.419457668815075402e-01
3.924444700362598321e-02
1.208614841846349514e-01
-9.892673251804724732e-02
-3.387492381515572193e-01
-3.351484284519834489e-01
-1.523545887392282749e-01
-1.967512362964957823e-03
2.136335680829946557e-02
-2.954622154381661425e-02
-5.431295631039044502e-02
2.905644935043972133e-03
1.183656919256057816e-01
2.235062161668410208e-01
