-3.495526578188706823e-02
8.298769805881109352e-03
-3.878697980194655281e-01
-8.541638163062629241e-01
-5.926092134343615703e-01
3.999744554234430094e-01
1.109493096068305151e+00
8.124426617870916800e-01
-4.820509295473504596e-02
-6.069303515088134704e-01
-5.886310395368461457e-01
-3.018351133675346576e-01
-7.051865347650737581e-02
3.006190454885798030e-02
5.976678479633455721e-02
7.306330163171816106e-02
8.536516320253351164e-02
8.296420131881640514e-02
4.878811074905004680e-02
-1.056689853477555015e-02
-6.410749776848789772e-02
-7.564937091651546819e-02
-2.800036937524212274e-02
5.986805681394973683e-02
1.428871968794965808e-01
1.830731995584367888e-01
1.708969711171370864e-01
1.169373437576496921e-01
3.619490882307638269e-02
-5.009457404217975557e-02
-1.057828672902928757e-01
-9.758514797313841416e-02
-3.928046968800305572e-02
3.271988181780056265e-03
-1.747077145391455824e-02
-7.257820527436735503e-02
-9.641169756187624451e-02
-6.641137820537316994e-02
-2.205898255631041915e-02
-1.407207737221258248e-02
-4.541632359297257532e-02
-6.847852323676661968e-02
-4.198180238612936321e-02
2.786651817766917089e-02
1.068653709268893304e-01
1.623925383862712679e-01
1.651980911106418204e-01
9.717508184045201003e-02
-1.476072070164920202e-02
-8.532524634126627261e-02
-3.424688302461174200e-02
1.106235553557434470e-01
2.172008673371199905e-01
2.069036130528076056e-01
1.509532354660262365e-01
1.474980569149641485e-01
1.762136793285996317e-01
1.421096042981705443e-01
1.763490361990632110e-02
-9.997391288538007292e-02
-8.073824866280447654e-02
4.714527120937998805e-02
1.694062383164237490e-02
-3.772162709424210503e-01
-8.139600983753609853e-01
-6.298963680998524994e-01
2.432768873744236005e-01
9.672918620626859143e-01
8.212017888500138252e-01
7.376130989916120095e-02
-5.148487123892850903e-01
-6.001871351900629481e-01
-3.712885601460365614e-01
-1.170967515837848111e-01
4.291936330420607210e-02
1.226297479658681189e-01
1.570568049548906608e-01
1.562799234186402486e-01
1.176624655698935151e-01
5.019607755859126219e-02
-1.912279850199774187e-02
-5.911592751123128514e-02
-5.234355179510005729e-02
-3.249720466403587839e-03
6.754849837774366816e-02
1.350022172716377755e-01
1.770509472204505885e-01
1.787549170031141055e-01
1.366473886669294924e-01
6.072121536984008416e-02
-2.421934212318790219e-02
-7.921895354782731991e-02
-7.242677101050663813e-02
-1.694094248650954843e-02
2.850662255392383965e-02
1.772543590427584984e-02
-3.440671064822670155e-02
-7.456219841978442564e-02
-7.010222869677401603e-02
-3.712666850210705194e-02
-1.697203787473110584e-02
-2.799743934023573091e-02
-4.412130616463071087e-02
-2.503798381617732688e-02
4.151474928794890440e-02
1.311613024778545133e-01
2.048052764076842558e-01
2.346330262092821972e-01
2.136324858807720772e-01
1.481432972128783054e-01
5.609759175590241231e-02
-2.643019642272115971e-02
-5.992653848793734472e-02
-3.349793027720589234e-02
2.787767011653963928e-02
8.947654050511023860e-02
1.334587399484562509e-01
1.575039220485614788e-01
1.505642288385500016e-01
9.285488753231280201e-02
8.331279293609758496e-03
-1.535954211847606957e-02
5.069653625980107686e-02
3.374557206229437945e-02
-2.809230284431496472e-01
-7.192070443398245194e-01
-7.063813419682100081e-01
-2.131806684263029550e-02
7.118876242038676416e-01
7.459479607728375372e-01
1.400927007359037968e-01
-4.583271129313962744e-01
-6.406581458647822025e-01
-4.865399844439631249e-01
-2.442777784740390035e-01
-5.953269185824249660e-02
4.611370307177618810e-02
9.464886941774858231e-02
1.031618376305062645e-01
8.238067717503233522e-02
4.226085755279076345e-02
-7.968677105955408041e-03
-5.311287928651621526e-02
-6.788188248811896641e-02
-3.306635368594330882e-02
4.331234327474241252e-02
1.284843230057353680e-01
1.878973196350336994e-01
2.013144905961950781e-01
1.612555396285187403e-01
7.261496935166442124e-02
-3.651168175727487891e-02
-1.171450391890776349e-01
-1.291585711970471007e-01
-7.581717758059539070e-02
-1.249492835386564402e-02
-6.388612186270382909e-03
-6.931469715379064145e-02
-1.450419229365072227e-01
-1.736130402657583005e-01
-1.473067661586591470e-01
-1.034653313306449079e-01
-8.510936508307707926e-02
-1.034655303537527216e-01
-1.218425058543346068e-01
-8.119026822502729834e-02
4.184239928251667906e-02
1.936194751801499636e-01
2.762607624319884936e-01
2.435194775561823899e-01
1.444170723264240896e-01
5.175872526637381038e-02
-9.644849935470491478e-03
-3.933462948666451714e-02
-2.521887840705171885e-02
3.210636555751744670e-02
1.011124857711686864e-01
1.521846530071153947e-01
1.808678185749462153e-01
1.819751566458662762e-01
1.285248894966923017e-01
1.716573963694122823e-02
-6.828156504103075064e-02
-2.686612089568937711e-02
4.877001233045641371e-02
-1.340505756063600229e-01
-6.161204727394248293e-01
-8.528142681750566778e-01
-3.204339193602432356e-01
5.841580925060759766e-01
9.048502928788122457e-01
3.839669858636237110e-01
-3.175652112334653165e-01
-6.035417205249848926e-01
-5.220705168450653355e-01
-3.791675645173542830e-01
-2.686351988284073622e-01
-1.200162634332413436e-01
5.610815866316641587e-02
1.601143974720488083e-01
1.528362410347789968e-01
8.773961591089241008e-02
1.908109535602080936e-02
-4.227891889744885001e-02
-8.538544056698721407e-02
-8.139781909402298010e-02
-2.696613394293904953e-02
4.387246140719035237e-02
1.035148826620844315e-01
1.501778752440105780e-01
1.781525563169032711e-01
1.606561731308704388e-01
8.404943601843561929e-02
-1.068325875752784704e-02
-5.355832015573931681e-02
-2.928741362090276495e-02
-3.532711275988119522e-03
-3.217475356505705014e-02
-8.119463122716878700e-02
-8.459176403689099011e-02
-3.918932158071345567e-02
5.955246275677261378e-03
1.467723675256490251e-02
-8.958636294769041497e-03
-3.200670941241513801e-02
-2.572005615037210521e-02
9.203483771837196736e-03
5.835277421918375063e-02
1.191301729420982114e-01
1.895710914228711796e-01
2.443307642465297747e-01
2.464405634421473756e-01
1.832765479274919007e-01
7.955752547501249161e-02
-2.066925643900949586e-02
-7.619101166105746170e-02
-6.368834560218471219e-02
1.045795356525576307e-02
1.106355313375413929e-01
1.912525506870519088e-01
2.160187324887162252e-01
1.668924748091241694e-01
6.565883036409879414e-02
-3.747014084574987539e-03
3.594810379605086620e-02
8.879699212794547880e-02
-1.150135138971332960e-01
-6.248329881813027287e-01
-9.307784289005710532e-01
-4.680409123380960823e-01
4.755709289499060466e-01
9.516044857862273609e-01
5.572629969517870485e-01
-1.657126909305502993e-01
-5.624981519249472317e-01
-5.255905307492040324e-01
-3.120155062830870518e-01
-1.297998578153020388e-01
-1.411536621977870637e-02
7.318160953538746516e-02
1.462220590357267147e-01
1.836022749826341505e-01
1.618644857821024130e-01
8.525674226123131083e-02
-6.632028994115857223e-03
-6.322735647074007037e-02
-6.175374640323905845e-02
-1.554871694350339582e-02
4.997241774929883640e-02
1.118307090542824123e-01
1.512157730057916982e-01
1.619267710872696053e-01
1.462636581269187719e-01
9.633117839023511153e-02
3.747076750996431935e-03
-1.063975568114010756e-01
-1.722202980303206843e-01
-1.419532276187983610e-01
-3.581007370545739171e-02
5.609634603802519243e-02
7.038290043626965753e-02
3.798170489202142008e-02
2.105380557885798767e-02
2.508484959886654944e-02
9.537314917219187616e-03
-4.425467788409519904e-02
-1.023717082590385047e-01
-1.089265976087254312e-01
-3.912289869053622166e-02
7.869366620689416392e-02
1.893773466693782215e-01
2.470351779971330930e-01
2.219108238901667807e-01
1.054110662760344153e-01
-5.528023849647262233e-02
-1.591908234072782757e-01
-1.438396028965439888e-01
-5.462013226664673426e-02
2.286218245529976142e-02
6.812044457441547574e-02
1.158265935304586824e-01
1.650326148936949733e-01
1.563144510891812111e-01
6.159504924955970517e-02
-3.693482106766739215e-02
-2.726847706132998900e-02
3.646378243988183249e-02
-9.507381810250406518e-02
-5.207984875818032489e-01
-8.345104002117139652e-01
-4.842445720543459564e-01
3.860490499629964933e-01
9.378890555643062399e-01
6.751989272208985815e-01
-1.672342707670568251e-02
-4.924653078616264557e-01
-5.393964322701187974e-01
-3.519774605291142722e-01
-1.598024242875844825e-01
-3.618821526596258109e-02
4.702501580194638764e-02
1.116973871665003365e-01
1.473384073385887449e-01
1.392835057173470725e-01
8.521501209207901772e-02
1.144533654032530920e-03
-7.383319351181806545e-02
-9.568828076686049233e-02
-4.932496707512606937e-02
4.180688564119475203e-02
1.361977143378161892e-01
1.957426684647155246e-01
1.974665457007233893e-01
1.411704270945322859e-01
4.878717795196730461e-02
-4.571334967363089447e-02
-1.107662149608275859e-01
-1.324353070826962131e-01
-1.193396870524951331e-01
-9.498263577670390534e-02
-8.586964067584741678e-02
-1.013553143665809064e-01
-1.182103208452756071e-01
-1.014745319583714861e-01
-4.921809130285614842e-02
-5.330971068278666895e-03
-1.186933690895422035e-02
-5.310305328630278432e-02
-6.921350242988827395e-02
-2.360111382624998852e-02
6.408589321541996453e-02
1.482123745762579659e-01
2.005640882418302795e-01
2.188105744309563061e-01
2.048151962442914809e-01
1.502416678491548807e-01
5.158048325748701424e-02
-6.084391642870821265e-02
-1.221719462289205665e-01
-8.390213759396683568e-02
3.186058546007675130e-02
1.501994713862763731e-01
2.128606046823837139e-01
2.057788934058967234e-01
1.418664181955044956e-01
6.663124786199409177e-02
5.288729569840975447e-02
1.007946898468828345e-01
4.046568879218039733e-02
-2.988973503169973234e-01
-7.016772743936613432e-01
-6.077359380554540058e-01
1.361594300635481647e-01
8.560488727299716549e-01
8.193815365760355185e-01
1.342669260174690349e-01
-5.097572275903186068e-01
-6.897537790793594192e-01
-5.109201017901929820e-01
-2.562903756052044013e-01
-7.097533367360896184e-02
3.805848275952210258e-02
7.715938694852153557e-02
4.675592314783727499e-02
-1.072980642252622033e-02
-4.470621171815801487e-02
-5.856357522834599455e-02
-7.767795929928347776e-02
-9.355509632476895210e-02
-8.032352297793135532e-02
-3.207348386249218863e-02
3.594463910952073321e-02
1.040826036942010535e-01
1.583506651179268365e-01
1.882949750306096293e-01
1.813447750808437897e-01
1.293181142634201863e-01
4.482755728284548713e-02
-3.438412742726378035e-02
-6.871396104834497087e-02
-5.495508661715294701e-02
-3.616577640517360664e-02
-5.472011051887598621e-02
-9.628877272671285126e-02
-1.052118578244218144e-01
-5.656993087917461249e-02
1.599665103337905361e-02
6.293523687489785412e-02
6.147771227715569109e-02
2.171644462996534172e-02
-2.742027622436310486e-02
-5.462566213813490473e-02
-3.197961759227640338e-02
5.371733019049764607e-02
1.696824258322357226e-01
2.422701505125875177e-01
2.230830072999333280e-01
1.303456889344472291e-01
1.949842029776198415e-02
-6.136550452599603966e-02
-8.991284518666196879e-02
-6.533749650341066917e-02
4.881400339590497364e-03
1.035548439323834558e-01
1.838893806228742989e-01
1.805274403124634552e-01
8.782233792096993952e-02
1.817131800167024608e-02
9.121402689999763558e-02
2.025453386846370329e-01
2.195329577417990535e-02
-5.389158835962718497e-01
-9.149892225598666995e-01
-4.361182589573261437e-01
6.110345843224446183e-01
1.137016938405787991e+00
6.481628411144191304e-01
-2.131547347351346877e-01
-6.433217658398782124e-01
-5.333479666732077185e-01
-2.530793715554893186e-01
-8.000345141107054192e-02
-1.945778658699561306e-02
3.035840495382421955e-02
1.094264249747109174e-01
1.786389027924298323e-01
1.891315638952302813e-01
1.290116493688258648e-01
2.738828243475854851e-02
-6.071066960812310925e-02
-8.756024770825253378e-02
-4.273302306290466257e-02
4.930650093921822019e-02
1.452035794150444425e-01
1.984728079316958049e-01
1.879107185326535090e-01
1.314490844626726163e-01
5.561897050498647299e-02
-3.257748054629286405e-02
-1.244557899119816818e-01
-1.859134871803133637e-01
-1.892459043536650898e-01
-1.573644215353684483e-01
-1.403771600910430073e-01
-1.476233435154504781e-01
-1.357702879240470784e-01
-7.539624692527027716e-02
-5.361120967840936336e-03
2.958765658296299769e-03
-6.715640308372054779e-02
-1.478498657613815104e-01
-1.533540604989740430e-01
-6.305491043602204360e-02
7.260081372070102679e-02
1.905817441360544984e-01
2.521734733128238592e-01
2.369499751339507743e-01
1.479727053670241432e-01
2.901046121077604026e-02
-6.192909963740290957e-02
-1.040652567937834921e-01
-1.112504885509455754e-01
-8.252527058816025440e-02
1.900870905735249639e-03
1.248444146162402263e-01
2.138446093000778148e-01
2.037571080669629831e-01
1.088849993555572881e-01
3.072547280435721645e-02
6.263036608267050220e-02
1.203905406782861121e-01
-7.266573199115010373e-02
-6.121195280822568918e-01
-1.024682839665161271e+00
-6.750946112426542411e-01
2.888034035303514990e-01
9.343701653135844110e-01
6.970924251931118754e-01
-1.775073797977810841e-02
-5.163996982193730378e-01
-5.724726368542425448e-01
-3.901391761602407970e-01
-2.000156962565998175e-01
-6.609976096313184557e-02
4.469532498855031954e-02
1.459682344417637112e-01
2.072778124731440019e-01
1.995338496585143673e-01
1.307677895779935373e-01
4.120011439417951837e-02
-2.478016213716318500e-02
-4.431782873332242023e-02
-2.044930077067307408e-02
3.367505562587855966e-02
1.049586424127239848e-01
1.737720378585848047e-01
2.115574824217961447e-01
1.945423807923121196e-01
1.223200566494528074e-01
3.027186698950911151e-02
-2.470372056134673144e-02
-2.015101682308865355e-02
-5.451957951884931451e-03
-4.291400800083375322e-02
-1.171083319822686653e-01
-1.479247037415119259e-01
-8.956645084106670818e-02
1.890404705513012290e-02
9.729530654122657551e-02
9.697185104919887888e-02
3.348133120194220907e-02
-3.819838435834291279e-02
-7.018230006713314928e-02
-4.378491670544568115e-02
3.492296615082456784e-02
1.388693011712658631e-01
2.218744793734101495e-01
2.409106619933026050e-01
1.899627748495209822e-01
1.042695329838447815e-01
2.761831956938157889e-02
-1.804903002208809587e-02
-3.414918494528648707e-02
-2.710719338431056072e-02
5.618528268633637274e-03
6.579987337380188706e-02
1.311307119346499794e-01
1.561266576234340842e-01
1.144624353109700288e-01
4.445205747323242168e-02
2.381679625787495869e-02
4.262346658850544451e-02
-8.166465446987579424e-02
-4.835320285357507242e-01
-8.605442112631823681e-01
-6.372055683746205013e-01
2.118743265662344499e-01
9.078123477083802628e-01
7.962301589327764884e-01
1.144408834340706060e-01
-4.577603933663102476e-01
-5.956274297281051178e-01
-4.421338667259849808e-01
-2.394063251807619919e-01
-9.043290929539912759e-02
9.174758858311288234e-03
7.696345297392595541e-02
1.220324664534209180e-01
1.505335618280925214e-01
1.550846784856269034e-01
1.205705748729998805e-01
4.778633593214564462e-02
-3.955870073407667664e-02
-1.038761047801737697e-01
-1.075844118198187316e-01
-3.776085729402316182e-02
7.176451479936138411e-02
1.557055772906040803e-01
1.681508014884681712e-01
1.135865735635198104e-01
2.901754078537544662e-02
-4.695787645898635843e-02
-9.143626579091118645e-02
-1.062728969974506693e-01
-1.113776074770057578e-01
-1.216562192285325361e-01
-1.315231641439596477e-01
-1.192208897192946482e-01
-6.973575659449487985e-02
-3.825003065021090505e-03
2.524929228256349648e-02
-1.669747551207597519e-02
-9.856915631541206257e-02
-1.429332338002339275e-01
-9.400968830753868299e-02
3.301617091239103519e-02
1.656171311826072079e-01
2.365453025125463793e-01
2.341768544630246918e-01
1.867974034061942457e-01
1.097494638497099329e-01
1.862394172508148246e-03
-1.064705310743687683e-01
-1.495638670636560696e-01
-9.154327940368554850e-02
3.205967727457151306e-02
1.530618765997742714e-01
2.288356474628917558e-01
2.423830859344722199e-01
1.779903564028099683e-01
5.876296605724738720e-02
-6.527192260636555110e-03
7.270005023502165709e-02
1.604179693224110637e-01
-6.203597263077374746e-02
-6.177785786941534241e-01
-9.175340988496109018e-01
-3.939845404382616989e-01
5.609609772645749448e-01
9.531224862067335657e-01
4.976937283731093786e-01
-1.489608552633918670e-01
-4.095432658862657727e-01
-3.352053224520174513e-01
-1.980299072429070883e-01
-9.583655341931265892e-02
-4.029842299943539249e-03
7.834289375995595606e-02
1.196005771675580504e-01
1.088763492560103074e-01
7.154956711282500770e-02
3.567076881374265512e-02
2.002540351152934991e-03
-4.144742865602125959e-02
-8.443900321705800904e-02
-9.205346793730848076e-02
-4.236506927318160060e-02
4.352113876228468764e-02
1.142354179535138292e-01
1.263248497972447315e-01
7.392355696050362246e-02
-7.796202173195919752e-03
-6.762975030784069974e-02
-7.825917984521592319e-02
-6.120168315860945868e-02
-6.632532085847721304e-02
-1.156182173195880458e-01
-1.735024297382286029e-01
-1.830116778468331984e-01
-1.235073529541811377e-01
-2.808440653316880004e-02
4.145232748892276747e-02
3.758310474309446703e-02
-3.072661706877491405e-02
-9.658419716620288142e-02
-9.378451283345289047e-02
-1.493176975466030398e-02
9.386717610064172768e-02
1.777326240883134179e-01
2.029777537714113067e-01
1.657635884662384262e-01
9.157424901045223276e-02
1.907912939141466480e-02
-2.727893976852583877e-02
-4.899169704855281526e-02
-5.687802410352437582e-02
-4.639034276632256898e-02
3.165359809109983408e-03
9.637981991938872339e-02
1.907659649843946870e-01
2.151280609660144172e-01
1.392156732670875030e-01
2.888873468498425953e-02
-1.216701491447389795e-02
-2.056823912882374886e-02
-2.250353028019441703e-01
-7.006146824157307718e-01
-9.985484232837039675e-01
-5.657421998535540064e-01
3.677518574129801099e-01
9.009289105158274635e-01
6.010081656897371394e-01
-5.746059536851437499e-02
-4.458002621871243742e-01
-4.351230511672357637e-01
-2.578723554436878618e-01
-1.108589540433121134e-01
-1.776843672762793910e-02
7.217799207445553533e-02
1.708806031374840717e-01
2.399501163007003446e-01
2.458827943087911749e-01
1.948591340080298162e-01
1.188920315612358863e-01
4.858943803837535713e-02
3.926263525705495777e-03
-2.646979442524965281e-03
3.234074670377187766e-02
9.818044617603709223e-02
1.715877742983971666e-01
2.252750976702309338e-01
2.358326878896754020e-01
1.916978691024346926e-01
1.029345578192319699e-01
-5.733194610507315325e-04
-8.670518264736938596e-02
-1.352898670065062203e-01
-1.420114230244768627e-01
-1.184984111954496960e-01
-8.058915674256279804e-02
-3.090034522883486345e-02
3.057428248373127502e-02
7.595972477088866470e-02
6.104144835477640779e-02
-1.750993166992516684e-02
-1.031877085687779166e-01
-1.326084031953532472e-01
-8.925972232077117319e-02
-1.079046385022935581e-03
9.506049657097812022e-02
1.751200003196566324e-01
2.202944632545945913e-01
2.082552925026507074e-01
1.347159999302924294e-01
3.633723978096941448e-02
-3.466819052116978245e-02
-5.652489054974489668e-02
-3.987435629223103073e-02
3.739251339793320944e-03
6.734243790775197580e-02
1.247033133720793496e-01
1.339465717502421049e-01
9.162360782039741247e-02
6.576501550911559302e-02
1.152694072668326575e-01
1.450721166000661644e-01
-7.270125419684607404e-02
-5.634972803272519926e-01
-8.663559993860570074e-01
-4.583211601661724699e-01
4.273670238813215838e-01
9.163213745921464648e-01
5.878371155759740674e-01
-8.917455594073132874e-02
-4.975257127771107180e-01
-5.203167736451013159e-01
-3.829275967073311193e-01
-2.555560082452905668e-01
-1.497183102059690962e-01
-3.079900056239595271e-02
9.346845670656374339e-02
1.828091473125595667e-01
2.097986502691525923e-01
1.696796085312729796e-01
6.721792164179885010e-02
-7.059800130723463407e-02
-1.794477790743657097e-01
-1.958649690843171920e-01
-1.165328264508939948e-01
3.443219471139168444e-03
1.056026148542471982e-01
1.599625430598786147e-01
1.597367824473930054e-01
1.142222735449206494e-01
4.244914693366229341e-02
-3.491193755157179224e-02
-9.628235547493885216e-02
-1.265503377188226253e-01
-1.329661340787371415e-01
-1.387816740103451352e-01
-1.517320307200200058e-01
-1.473409513748785704e-01
-9.534458304201941237e-02
-5.494782614552582573e-03
6.612880057285695778e-02
7.073823332859548174e-02
1.803891298318694922e-02
-3.807783737973533672e-02
-4.923302727667391854e-02
-5.876501977687105874e-04
8.568706114955368380e-02
1.688642425391252144e-01
2.231748696858223413e-01
2.414534263938251657e-01
2.128855837118819039e-01
1.330705483477335749e-01
2.976410117429968694e-02
-5.264059119272578718e-02
-8.602596667777999417e-02
-6.167994208015870755e-02
1.762220847531856607e-02
1.259489969360723660e-01
2.062346452866112567e-01
2.072994723714292331e-01
1.493823254871557149e-01
1.225256879348583239e-01
1.462907123763360628e-01
3.568517168094808428e-02
-4.042727998545537216e-01
-9.149952195272137434e-01
-8.287702973906657666e-01
3.915101423518636825e-02
8.974873632534392520e-01
9.041853672686482879e-01
2.067228958396438721e-01
-4.241668365763928694e-01
-5.800067201751323287e-01
-4.218141162988600090e-01
-2.360546577568241600e-01
-1.339389805785778931e-01
-7.953192037001659276e-02
-1.026186729037135807e-02
9.005989272465279860e-02
1.768381959833513206e-01
1.876443303039151689e-01
1.105619306450584816e-01
3.460414347463299650e-03
-6.309257310017439557e-02
-6.992449827134245011e-02
-4.476145156058988078e-02
-1.115252002178350466e-02
3.210957945866239199e-02
8.562931933589691680e-02
1.298364995115721676e-01
1.377657614874287784e-01
9.558791273560859891e-02
1.343745976624383630e-02
-7.138587390043786562e-02
-1.156760638690556842e-01
-1.150113758676990505e-01
-1.091325060751593828e-01
-1.273664505725869978e-01
-1.516691434664065863e-01
-1.384156367611555083e-01
-6.519859660183788264e-02
3.041972279785671446e-02
7.199102046057040405e-02
3.272361057793974487e-02
-2.979479093580220811e-02
-4.880018214896406081e-02
-1.111600606710837214e-02
6.399075497692029157e-02
1.577627749244765176e-01
2.462202699747251811e-01
2.872013112652357369e-01
2.440063412912533702e-01
1.322980477506416619e-01
1.661005849374244669e-02
-5.347701202087094124e-02
-7.224676351624334525e-02
-4.301584235174620019e-02
3.159276057014248629e-02
1.145880634648307889e-01
1.492466613103421158e-01
1.263532978791273298e-01
9.434930152107874612e-02
1.117743867622240234e-01
1.908420428622521203e-01
2.014941447117142570e-01
-1.057045802527385031e-01
-7.173407644427941543e-01
-1.050914687403655456e+00
-5.279414630043224310e-01
4.929760537334763049e-01
9.909015261764937410e-01
5.712622644871413469e-01
-1.680372130009037401e-01
-5.533384767941592619e-01
-5.146100491960869938e-01
-3.428278541137281255e-01
-2.137064703326023996e-01
-7.390235771569181322e-02
1.632202548513833895e-01
4.287630122660360810e-01
5.431055485319383758e-01
4.308261678213396451e-01
2.109588808841251495e-01
4.627211874553386478e-02
-1.742287603207461413e-02
-2.918671995572359734e-02
-2.684683331591317113e-02
-6.700224941246903619e-03
3.511139871794836248e-02
8.181083316297652064e-02
1.137484826991477516e-01
1.175040875982684974e-01
8.207734513772818596e-02
8.130071860031888586e-03
-8.162174368327430873e-02
-1.544186359806492825e-01
-1.916891319061541088e-01
-1.974504345870561894e-01
-1.839638539051729749e-01
-1.573178403131919312e-01
-1.176765565886686571e-01
-6.639839888065530993e-02
-1.743852795174534800e-02
1.036799430740664198e-03
-2.147730706066559164e-02
-5.282205746790515077e-02
-5.593436077040045418e-02
-3.385014407468086434e-02
-3.446765257665680530e-03
4.653167932186721978e-02
1.282111963315462899e-01
2.069020814018437959e-01
2.199727404725493607e-01
1.398156910003807429e-01
4.739160440042682054e-03
-1.095701146172094048e-01
-1.488315779519290838e-01
-1.127550749052734780e-01
-3.518326516617267807e-02
4.823133739084375232e-02
1.054144201495135075e-01
1.086649305737377169e-01
6.346223332709030607e-02
3.189906354712995079e-02
7.178271467864132116e-02
1.025249273757321555e-01
-1.013931600839330788e-01
-6.007186751494869581e-01
-9.662422551910340163e-01
-6.234016556298904721e-01
3.031431570928119212e-01
9.476345765828321221e-01
7.498502697017074281e-01
6.558489159316711892e-02
-4.397791859646770218e-01
-5.332346287482013780e-01
-4.001987309494162703e-01
-2.516336850431994954e-01
-1.414471568654712963e-01
-3.645818957376474601e-02
7.991499934535192806e-02
1.787116486620481670e-01
2.180241226502362129e-01
1.891557400330551864e-01
1.250952956273885808e-01
6.508592646551511485e-02
2.478094482630510340e-02
4.758977663154275589e-03
1.331080945847263469e-02
6.234718102916456117e-02
1.390988768988665192e-01
2.036530362100321123e-01
2.254567708796985648e-01
2.025718211114510559e-01
1.412811491997928992e-01
4.847242371487247431e-02
-5.000122050450038491e-02
-1.186422628352303416e-01
-1.457087745426347003e-01
-1.423548233338442215e-01
-1.177653277477455629e-01
-7.550964824402472964e-02
-2.110661816244790295e-02
3.348091418703081495e-02
6.355484337308972553e-02
4.696635986826024067e-02
-7.101835592193776574e-03
-7.707023549890562597e-02
-1.633727655791465394e-01
-2.435540465580296465e-01
-2.322570958754664183e-01
-8.391063473529568328e-02
1.077530747226917163e-01
2.044669870052843175e-01
1.698882318181182405e-01
6.671798969425053738e-02
-3.550471363567347938e-02
-1.031381659404971007e-01
-1.175042273194646519e-01
-6.092866662231543468e-02
5.636897469474039940e-02
1.804722197505553294e-01
2.482367991173555222e-01
2.343992904223849150e-01
1.760631804802531564e-01
1.507840220419276178e-01
1.671910097575178278e-01
6.441598708430232301e-02
-3.142935959820985503e-01
-7.334248507120177951e-01
-6.325520536988235021e-01
1.072595450977381626e-01
7.923093759416681703e-01
7.391950853252301501e-01
1.205093947104639296e-01
-4.034265979265542201e-01
-5.185287094854529322e-01
-3.871144189001738956e-01
-2.471427890976778952e-01
-1.698733576765271980e-01
-1.063329507177944860e-01
-8.180181452324603031e-03
1.098871245216877512e-01
1.913584459936736315e-01
1.987282849831051301e-01
1.390706543891593316e-01
4.670347694921200832e-02
-3.619290686176549615e-02
-7.720919855844375623e-02
-7.071525207195011875e-02
-2.782663314468154792e-02
4.717945856166310542e-02
1.441733084172620860e-01
2.186787414923837269e-01
2.171385246894564081e-01
1.367188732848199084e-01
3.387344561339809129e-02
-3.132239873681261916e-02
-5.062824623539766145e-02
-6.732300862427323396e-02
-1.170335136217987293e-01
-1.740732902659311021e-01
-1.771630062124336102e-01
-1.048780096884644186e-01
-1.236047251027978452e-03
7.020913934534758760e-02
7.554504267049298727e-02
1.904523505016664925e-02
-6.577122954976055702e-02
-1.235218590837148384e-01
-1.047631094743628893e-01
-8.000481864233419463e-03
1.164761452071666203e-01
2.081047927789699825e-01
2.317505259639668358e-01
1.880860287128306163e-01
1.119370110961516313e-01
4.765342636795657366e-02
9.579731811352854010e-03
-1.585883975917539226e-02
-2.199575284700676370e-02
2.786809755468881364e-02
1.384255769075932452e-01
2.407483802801906325e-01
2.490652104487219576e-01
1.649389704944762003e-01
1.092468936313798489e-01
1.881352398810172410e-01
2.637750564167128386e-01
-1.638614177540805364e-02
-6.980826333174923182e-01
-1.123156927188044829e+00
-5.891325680296063405e-01
5.461738215804798902e-01
1.122967445569552858e+00
6.574675880160010255e-01
-1.729720153292966245e-01
-5.751260743260206976e-01
-4.737474752790482579e-01
-2.405918654385741928e-01
-1.252858780188792487e-01
-1.129489528723168490e-01
-9.303018436305816874e-02
-1.140845892573066726e-02
9.671677052880149617e-02
1.567266232240780710e-01
1.292160175597721616e-01
4.036428624868425297e-02
-5.459427176533999948e-02
-1.168089731209050325e-01
-1.292276293473403059e-01
-8.516703788740143111e-02
4.521608752020849983e-03
1.016070542133505061e-01
1.608286075949047766e-01
1.636592954528443000e-01
1.226147836831701921e-01
5.865589637088843705e-02
-1.176003405795779388e-02
-7.371075169040125497e-02
-1.171626659326941572e-01
-1.430236618211920829e-01
-1.527075985767305522e-01
-1.380085363715800040e-01
-9.079512185691702986e-02
-1.625061923019753204e-02
5.763680446027583809e-02
8.084696407346277092e-02
2.176083375121148217e-02
-8.667397675942224711e-02
-1.727902302614469920e-01
-1.904220486234609322e-01
-1.337898979398509658e-01
-2.281093925709845247e-02
9.584119288081048571e-02
1.640934243047146024e-01
1.551371994169556678e-01
8.994286922044662791e-02
8.002837685988235458e-03
-6.449228417489218101e-02
-1.138035564289907042e-01
-1.223901922453093233e-01
-7.407983910585501375e-02
2.109800963894130355e-02
1.195170571956094413e-01
1.711191383438831204e-01
1.628397021454930926e-01
1.434042867787068687e-01
1.710741493057647000e-01
1.730572096946543792e-01
-7.931146283707757316e-02
-6.361781120077103502e-01
-1.019655961447199832e+00
-6.374339785395630731e-01
3.180628242098814118e-01
9.306169910258524913e-01
6.995066974979065044e-01
4.998167545670981204e-02
-3.839821965916361268e-01
-4.413627195218811083e-01
-3.222932910882352897e-01
-2.021908158120934440e-01
-1.092782772148405135e-01
-1.815079807811386531e-02
7.347604695294095156e-02
1.461889082119308403e-01
1.805075144884989435e-01
1.708472905550622867e-01
1.308559615365544881e-01
8.129163428883384723e-02
3.453579356326544336e-02
1.504861376668235797e-03
4.659598149566912713e-04
3.857899572175907399e-02
9.676234721782098203e-02
1.461337233353753318e-01
1.652553063625546159e-01
1.405621954983087285e-01
7.295623799319431169e-02
-1.148345461274706547e-02
-7.572139163695600084e-02
-1.063658069997683170e-01
-1.220186089026896042e-01
-1.356998864255336279e-01
-1.273594000983138130e-01
-7.525106845426375590e-02
1.610220833102504398e-03
5.684181948280348645e-02
6.716410290535966554e-02
5.063723913170527918e-02
3.322732562893494085e-02
1.659106028915630776e-02
-1.083103313674496117e-02
-4.207616761191587673e-02
-4.212381885539441539e-02
1.932055922116326929e-02
1.199223674139331397e-01
1.919014380197852365e-01
1.888836664928551234e-01
1.204581334767547696e-01
2.408447742196262800e-02
-6.127378367246947427e-02
-9.993790000236474347e-02
-7.174691822973977562e-02
1.200218914505368772e-02
1.089991336976411651e-01
1.683690546960125156e-01
1.710528235893465643e-01
1.576683221945469060e-01
1.849696190394921058e-01
2.070810845949520029e-01
4.023817616825184351e-02
-3.916361901497016906e-01
-7.449464761317511341e-01
-5.073718285302778463e-01
2.559555329998353113e-01
8.089616287138664541e-01
6.440762337226416667e-01
5.512641329144757352e-02
-3.708141060802759292e-01
-4.233704409571050209e-01
-2.800633343010744403e-01
-1.519476538762955242e-01
-9.035867061146653223e-02
-4.116342391799745343e-02
3.410196720336850645e-02
1.175690784174576869e-01
1.740793641396684854e-01
1.850834548562453052e-01
1.469824231378667745e-01
7.016260910451442567e-02
-1.429841361513970073e-02
-6.811762594242963542e-02
-7.050520155922609944e-02
-2.484334824339906253e-02
4.730863513122358921e-02
1.153440851852130383e-01
1.564097487054000313e-01
1.640798458838930718e-01
1.384277111610378586e-01
8.154447960663947781e-02
6.212633729258809981e-03
-6.773392547433515487e-02
-1.285744958096667057e-01
-1.687702673897742423e-01
-1.711512195528475389e-01
-1.222112045867735364e-01
-3.472503951562425778e-02
5.771243394306879715e-02
1.152048148011519946e-01
1.003172409338150689e-01
8.383594227228377896e-03
-1.018283893674082757e-01
-1.442157840953973702e-01
-8.691687813311178845e-02
2.548967849006145842e-02
1.306447897609094300e-01
1.989943441758074139e-01
2.251444569763931536e-01
2.039400090942924682e-01
1.372414478360333145e-01
4.901543802911941666e-02
-2.854860891402744363e-02
-7.567449923879759899e-02
-7.611750946312309529e-02
-9.904815960882103892e-03
1.104328934637052034e-01
2.139633162671812083e-01
2.310960285085142396e-01
1.831347729720989581e-01
1.673389265403513460e-01
2.068943755464296708e-01
1.299341317223251246e-01
-2.552015630747579977e-01
-7.392520545582740299e-01
-7.140866538888862580e-01
4.018822661004876895e-02
8.357139757324623108e-01
8.587798860630301290e-01
1.957251233183005812e-01
-4.204813921863837511e-01
-5.723266058270022327e-01
-4.277512187543994204e-01
-2.943030134234393969e-01
-2.629066433697717642e-01
-2.430824578441142247e-01
-1.530773625307955133e-01
-1.469549677661622679e-02
8.914009711229334276e-02
1.052291962389789309e-01
5.508933386482459116e-02
-4.151659219687707514e-03
-4.655947621961799981e-02
-8.308137529901379881e-02
-1.178352055783352254e-01
-1.305378538153693369e-01
-9.862109552458044048e-02
-2.026763035991068634e-02
7.842081479280711698e-02
1.460923343388425555e-01
1.319386283999556819e-01
3.284290962909407197e-02
-9.531966553864049119e-02
-1.897062313500081643e-01
-2.362454943387824469e-01
-2.609869687004267580e-01
-2.706313329051177607e-01
-2.333662157472752297e-01
-1.394191072181857338e-01
-4.461757824926820826e-02
-1.291407461860099790e-02
-4.087369720414606861e-02
-7.867663425298211666e-02
-9.699052684315995210e-02
-9.545264528164930373e-02
-7.629947969575490152e-02
-3.468694778479095020e-02
4.626987544535624691e-02
1.793493514468398886e-01
3.258700152463680499e-01
3.988807603399940338e-01
3.483672113111489499e-01
2.141408135091552312e-01
7.677688615709030162e-02
-1.292969235333405256e-02
-4.769628337950671676e-02
-3.293839976858239926e-02
3.241484469304447419e-02
1.297461595093931941e-01
2.015188292380374058e-01
2.083277309365496877e-01
1.981537079537507573e-01
2.429853726390795721e-01
2.543619740215229963e-01
-3.475628315353881947e-02
-6.680048433556212695e-01
-1.079472998215714075e+00
-6.024767652065230461e-01
4.917372891014594183e-01
1.107908852519459142e+00
7.003565995531682020e-01
-1.302177667413395301e-01
-5.507746956966994567e-01
-3.926261731004334621e-01
-4.130234865797281774e-02
1.252428647497441927e-01
5.436379269201759706e-02
-6.138544867536092908e-02
-6.196815608252155549e-02
3.553270342341705024e-02
1.291857849189053664e-01
1.585988818138881484e-01
1.213171240785393123e-01
4.170546173173309001e-02
-3.954973309568688561e-02
-7.883683570641404625e-02
-5.982521687392088061e-02
-2.556673733518503508e-03
5.985592265153948793e-02
1.039454432452911747e-01
1.190082452684925740e-01
9.761399171617352044e-02
3.279878874709334091e-02
-6.178585464567210028e-02
-1.404423113943694401e-01
-1.708380737108312342e-01
-1.829197855690505858e-01
-2.229150651004636607e-01
-2.679606608213724872e-01
-2.440960669508821512e-01
-1.272015411408684848e-01
1.665371173173813696e-02
9.219205427205809378e-02
5.720021762191465631e-02
-5.161337879111643767e-02
-1.584677431875338993e-01
-2.031151872552438287e-01
-1.658029254874183456e-01
-6.556271762665245861e-02
5.260806561393702174e-02
1.362134035295963497e-01
1.464013607280291729e-01
8.383510986700216938e-02
7.287249521483971440e-03
-3.162214421557346319e-03
5.437558885526126706e-02
7.430163623030866527e-02
-1.492583930787969373e-02
-1.280926223167400679e-01
-1.335888100933795009e-01
-3.335952758644385868e-02
5.161307415522961572e-02
3.407537228687444741e-02
-5.988318766034529672e-02
-1.439286903953697905e-01
-1.671918946543746454e-01
-1.458271751477877853e-01
-1.117948747530132514e-01
-6.571482553522822734e-02
1.807049089102609214e-03
7.371506704683747357e-02
1.262462300735663900e-01
1.751686866128924769e-01
2.556643313967070785e-01
3.336868542547036798e-01
3.053424780564474861e-01
1.473910649177793963e-01
-1.442066142177490101e-02
-6.059649112571911800e-02
-9.938657397597121940e-03
5.490427787429718459e-02
9.729524581073496770e-02
1.247904719218662500e-01
1.574417475271150946e-01
2.163248086814197890e-01
2.581474944413211237e-01
1.133844109862975486e-01
-3.364608427955794734e-01
-8.073846561549810064e-01
-7.128735608294463066e-01
6.780357358138722201e-02
8.219089468704958712e-01
8.265653703501606442e-01
2.183161620150962379e-01
-3.385668965193496804e-01
-4.916288169983913381e-01
-3.760887554042210423e-01
-2.324265076307033828e-01
-1.456744521481070920e-01
-8.408556407499137575e-02
-1.526085068360182213e-02
5.561301310617793037e-02
1.103394959269202169e-01
1.420520906301622754e-01
1.514031893281929664e-01
1.301471676772756880e-01
6.503189530734854173e-02
-3.164751196394804955e-02
-1.080764792716854134e-01
-1.118317624655031095e-01
-3.996225964731009439e-02
6.103687711490184131e-02
1.338026786787278599e-01
1.456044628700607635e-01
1.061347507053686939e-01
5.462991045204376728e-02
1.772254877159317246e-02
-1.606173718519407143e-02
-7.194344714352803039e-02
-1.469416124779867605e-01
-2.033784140809563878e-01
-2.019161098532124832e-01
-1.303818793572767698e-01
-9.155461731336873160e-03
1.045239566374039919e-01
1.323357722885173393e-01
5.041869975577980417e-02
-4.926795914734819620e-02
-3.382026198104282066e-02
1.129275848129519394e-01
2.608374167811459698e-01
2.931602904430118395e-01
2.345405017234878375e-01
1.816922325579214126e-01
1.773613761991736648e-01
1.936434108271481991e-01
1.867724851723235602e-01
1.353003824535611854e-01
4.810662010963663582e-02
-3.707065685942818184e-02
-6.404533234574753819e-02
1.372966960530859482e-03
1.197277702105919023e-01
1.926925248524015699e-01
1.717452298913257069e-01
1.403345851649213938e-01
2.072929424080742766e-01
2.687135835711857990e-01
1.233997293128013747e-03
-6.664969684208009726e-01
-1.133948328786414494e+00
-6.815614007701688015e-01
4.299969886500870087e-01
1.073305434731948171e+00
6.779766291069112549e-01
-1.543069517167029447e-01
-5.997459766024876293e-01
-5.148354180586702800e-01
-2.628581549391188488e-01
-1.385174527524008214e-01
-1.597474720548331117e-01
-2.054829036054504621e-01
-1.815379130583981981e-01
-7.929674720210098948e-02
4.471263166844122866e-02
1.208959820748698177e-01
1.158940753847568644e-01
4.821816371860979111e-02
-3.690970635582621617e-02
-1.006873900645385289e-01
-1.201864403290802685e-01
-8.500550450844825134e-02
-1.923667183227247175e-03
9.913274420379422636e-02
1.728582855634194781e-01
1.817738478016649173e-01
1.221903849520037666e-01
2.690144989032648010e-02
-6.626374947019075812e-02
-1.422034831923734977e-01
-1.944681840810570106e-01
-2.054625722477133043e-01
-1.668575492998655707e-01
-9.423120568790492591e-02
-2.685347066134456673e-03
8.698431782235810372e-02
1.171832445281468932e-01
4.596446780436720669e-02
-6.332461536606441566e-02
-8.597376555601767001e-02
8.051127960624010829e-03
1.115468270133935930e-01
1.288631357745365913e-01
9.473868103241059324e-02
9.453074041360931545e-02
1.361065567747788974e-01
1.580997453212302228e-01
1.204458887395729594e-01
3.916468088514027390e-02
-4.835059665170639287e-02
-1.118609892385035443e-01
-1.272336400249699240e-01
-8.445348563986240786e-02
-4.444442529750137691e-03
7.010076932027947683e-02
1.100893416804700903e-01
1.326535929687759074e-01
1.766303320168163826e-01
1.874853759112479756e-01
-3.509611035734042095e-02
-5.737518255632361175e-01
-1.024748251388611253e+00
-7.660658347299338367e-01
1.621850320569239168e-01
8.989138359612808271e-01
8.028462421753957967e-01
1.711513759978191829e-01
-3.249106104768944014e-01
-4.322468484727313709e-01
-3.368905343216461734e-01
-2.558473854850459306e-01
-2.268713707534115165e-01
-1.819739040029737243e-01
-8.227996836137485559e-02
4.246296179573414570e-02
1.424867908678437434e-01
1.969484535130055225e-01
2.093568789935982000e-01
1.787644605089132588e-01
1.035254421835722083e-01
9.416165091878491572e-03
-5.505915661342331707e-02
-5.846271571763436009e-02
-3.289893693569604857e-03
9.483074902666874251e-02
2.153204072668995217e-01
3.104511111429337777e-01
3.134164194323650898e-01
2.074074719242712805e-01
6.008500179721774914e-02
-5.123303386387979830e-02
-1.183679777559684676e-01
-1.717950887463665366e-01
-2.081578116657988309e-01
-1.882940634672317648e-01
-9.504225566539717396e-02
3.112018697504997933e-02
1.180997708459061851e-01
1.200553558201445381e-01
4.841332351156080183e-02
-4.535190198077703599e-02
-1.033392399517464866e-01
-8.953741790764101205e-02
-1.193431473683543957e-02
8.659616122197337507e-02
1.711496962415110235e-01
2.337485555419032135e-01
2.660216444018754234e-01
2.423060667737108875e-01
1.495288564890395744e-01
2.261921030418426182e-02
-6.949611949944711764e-02
-8.015969922553872751e-02
-1.975442756191381211e-02
6.547844724285710460e-02
1.323381435837986120e-01
1.624349066627862881e-01
1.767627422777598711e-01
2.186567728356434703e-01
2.565678594588979844e-01
1.131039810290363212e-01
-3.402123076224957132e-01
-8.244782989372481108e-01
-7.624290610416104563e-01
-2.747012816970217930e-02
7.092019905822101178e-01
7.573774489932411091e-01
2.279719729641880854e-01
-2.684865540980059806e-01
-4.043096845201912815e-01
-3.072565162048300769e-01
-2.093173695738372031e-01
-1.887318308894780361e-01
-1.862077576579646288e-01
-1.305398591251580587e-01
-1.746940970515670211e-02
1.047529262594538019e-01
1.897923233279090460e-01
2.134191479286748350e-01
1.661391556277334314e-01
6.264077137742030121e-02
-4.861872714282858970e-02
-1.113859518901592072e-01
-1.029639866557438416e-01
-4.382997584107864442e-02
3.350558761197172664e-02
1.116264770280274987e-01
1.751374519549009356e-01
1.928425760849760973e-01
1.431044435834059880e-01
4.714012268792980298e-02
-5.154741731506874702e-02
-1.313816510134445115e-01
-1.904184083706855490e-01
-2.139302456143865883e-01
-1.764303224310946883e-01
-7.710938582455115209e-02
4.503312737322683057e-02
1.361168631064253454e-01
1.616537284299788824e-01
1.186019181578660958e-01
2.859103025510883328e-02
-6.772594176520453646e-02
-1.184022053983493222e-01
-8.578899104572523804e-02
1.990208274153787774e-02
1.342124801425874370e-01
1.857005977636725924e-01
1.615994299717394278e-01
1.072794733794519839e-01
5.828118414504854239e-02
9.277217267766693296e-03
-4.700368852735484909e-02
-8.944009499609485714e-02
-8.491136610179668420e-02
-2.052621716792298046e-02
7.299681946336153415e-02
1.321325499395651359e-01
1.254401174309438538e-01
1.083693255012472823e-01
1.465581540699817387e-01
1.435876007108348451e-01
-1.229567278262217456e-01
-6.017917621752715274e-01
-7.589282372131381793e-01
-1.962654148606122473e-01
6.171836524587436257e-01
8.155968367613346537e-01
2.624124639007011650e-01
-3.788365188729754252e-01
-5.765324762450372287e-01
-4.291156632020738937e-01
-3.109648953512504921e-01
-3.705465763571951787e-01
-4.457237221326631471e-01
-3.504180250089634074e-01
-1.138570272722429777e-01
9.259814115842532334e-02
1.636343731223621756e-01
1.285795422112223640e-01
6.793938118826921280e-02
1.910594151406723104e-02
-3.663597416231728632e-02
-1.141077586085097045e-01
-1.764975994118704317e-01
-1.674652518630247167e-01
-8.093043351775186522e-02
2.424514272976006912e-02
8.006735622908089933e-02
6.680847147020668730e-02
1.111949834110538896e-02
-5.634314443945734330e-02
-1.214686334620542901e-01
-1.807855273490791004e-01
-2.379959939334476138e-01
-2.891126286588326377e-01
-3.027771133007978177e-01
-2.448655411179102848e-01
-1.271311422104145217e-01
-3.927565779270892656e-03
7.811793870239092108e-02
9.553282149782188482e-02
1.081412581900244307e-02
-2.042804073747972460e-01
-4.104102362928290781e-01
-2.502115831326926498e-01
4.585871000391477659e-01
1.259508551873915083e+00
1.401286403038092043e+00
7.556965135783636489e-01
-3.191529430965500680e-02
-3.685465601028306559e-01
-2.738117854573031695e-01
-9.401841671988547811e-02
-3.255331733645291936e-02
-6.817555266555991311e-02
-1.113745902319521058e-01
-7.827621545100922618e-02
9.960799681520886295e-02
3.775141418148091343e-01
5.488743400468645284e-01
4.434229074364592904e-01
1.429824409677042940e-01
-1.129346954876234294e-01
-1.858711362311774029e-01
-1.199920232525952812e-01
-2.235681082365951686e-02
5.258257998681750006e-02
1.026668593968960153e-01
1.270928854910719774e-01
1.210087976634145468e-01
9.714637714368913601e-02
6.897161814717134298e-02
2.439247805623937990e-02
-5.644063259858810022e-02
-1.707194732402959880e-01
-2.862851077835110725e-01
-3.499572609133426715e-01
-3.149263220422832132e-01
-1.855838516568477647e-01
-3.134496706006348332e-02
6.571144951382222599e-02
7.853579191623899503e-02
4.079317426058414603e-02
-3.450558457497015369e-04
-1.880875336311457757e-02
-8.971241469803718088e-03
2.705080628201945309e-02
8.221317441822433014e-02
1.418694977385519529e-01
1.890843861215160404e-01
2.083379706809161958e-01
1.832200369393444661e-01
1.103674062159526598e-01
1.991108212641212044e-02
-3.914684557286524785e-02
-3.964343847285924094e-02
7.128468884461596627e-03
6.977511538495559384e-02
1.186789998803333829e-01
1.393568271448265006e-01
1.511090610154830483e-01
1.948894387991075006e-01
2.308871706895808673e-01
6.308412709414389086e-02
-4.393238414518058632e-01
-9.474024443795918682e-01
-8.325171974862778379e-01
-2.169891789054992359e-02
7.013700344870361647e-01
6.504218960797794047e-01
6.500506571735721606e-02
-3.715821645106047733e-01
-3.949831734106444836e-01
-2.246193668655032671e-01
-1.094910123541102398e-01
-9.222215423778042098e-02
-9.248519244001991713e-02
-4.557022157888208913e-02
4.978619119689216971e-02
1.577427525177390044e-01
2.412196087201881611e-01
2.716852208305513550e-01
2.291945479914641037e-01
1.192240493119911815e-01
-1.058621825738507473e-02
-9.115611325707782819e-02
-8.174404027541559703e-02
1.699148693995041273e-03
1.061659115693684291e-01
1.832585128460733903e-01
2.125488983493797057e-01
1.983325321255642870e-01
1.565458755469353314e-01
1.027507449915848470e-01
4.348507203925974091e-02
-3.085759569705569597e-02
-1.475716145432953985e-01
-3.184596791079262745e-01
-4.699938931051466651e-01
-4.536965773029799642e-01
-2.165248025622619754e-01
8.334314167812917340e-02
2.325195813876196338e-01
1.821071224783289977e-01
4.107168124899777256e-02
-7.417757729608706607e-02
-1.166707197332623736e-01
-8.641911718795844410e-02
-1.512980193679493157e-03
9.992514429225675399e-02
1.649379279687988864e-01
1.583606613634176430e-01
8.810116844904718192e-02
-7.300675144328317920e-03
-9.321517868398064566e-02
-1.557685982605999109e-01
-1.878246320534710245e-01
-1.747145171343254255e-01
-1.087534848002049970e-01
-1.791034631482707126e-02
4.314762993168277244e-02
6.071223881338652650e-02
9.993056981118547677e-02
1.989360232076545776e-01
2.107848289540823206e-01
-9.956357592297100656e-02
-6.379687011248016404e-01
-8.322593432315458228e-01
-2.866149846046738836e-01
5.360068057741834702e-01
8.076497054953525323e-01
3.855422610118029447e-01
-1.599614214884147456e-01
-3.765762506638714591e-01
-3.108383231431345872e-01
-2.054257754088559540e-01
-1.756447105899236472e-01
-1.805984488886027417e-01
-1.435805938486343358e-01
-4.107878974843239689e-02
9.213429838282261031e-02
1.995750271325011649e-01
2.346153816194643249e-01
1.840760659097528118e-01
8.150992277436509836e-02
-1.177024819345510662e-02
-5.332265937611456452e-02
-4.578003243223149887e-02
-1.414793426018495608e-02
2.706268043963155207e-02
7.693201013047473724e-02
1.330008037034441370e-01
1.768639680224007860e-01
1.755526165578645548e-01
1.137267927542283119e-01
2.209304948896344614e-02
-5.214751297875884484e-02
-1.005239090907942556e-01
-1.510191340821691042e-01
-2.137451458325148601e-01
-2.526093308836854789e-01
-2.129644965557395686e-01
-8.261058573915366909e-02
6.502501000514378238e-02
1.220577217449524549e-01
6.362270685421847483e-02
-2.587572296908384126e-02
-5.558421790723179490e-02
-1.123436483420876125e-02
6.737902786673810596e-02
1.411275468068444172e-01
1.912674418544055843e-01
2.231737634848617313e-01
2.580165156428703144e-01
2.905748181564931087e-01
2.731234601944930174e-01
1.802055635802408684e-01
5.866391632357773056e-02
-2.077346079819700209e-02
-2.907228329947031398e-02
1.817343436456148043e-02
8.766830850491996729e-02
1.517634285249304382e-01
2.178902950141285988e-01
3.227581085734783084e-01
4.179703983617856777e-01
2.740638471538906495e-01
-2.738024337538043640e-01
-8.622213947526411459e-01
-7.659083788666736226e-01
1.181429260693384747e-01
9.058715462570413601e-01
8.134705691484581669e-01
1.181540183712165293e-01
-3.929290726567026271e-01
-4.264119059172113424e-01
-2.544671029550715780e-01
-1.630265358374575202e-01
-1.753861111731881417e-01
-1.859706043182304258e-01
-1.349868323470982123e-01
-3.763562742495003832e-02
5.723478470719183669e-02
1.020284872637790274e-01
7.846273058006419943e-02
1.244425058614766211e-02
-4.751153039104144549e-02
-7.405075415194095623e-02
-7.730115023528123797e-02
-7.442224845172075443e-02
-5.591436667027975538e-02
2.578772987004854592e-04
8.339707390852250934e-02
1.436587486109373035e-01
1.434572189922563301e-01
9.618389794650479552e-02
3.899830989993136043e-02
-1.702121586734251651e-02
-8.968271333501318110e-02
-1.824459762280962738e-01
-2.598371996296066633e-01
-2.729417056122622753e-01
-1.951518658808036044e-01
-3.679437478411939910e-02
1.486469567307361628e-01
2.661876595184286542e-01
2.278389201814033926e-01
4.805274210758531117e-02
-1.331081204610679580e-01
-1.769276055620278565e-01
-8.380555973424819172e-02
1.881296663893080451e-02
1.334939025931930652e-02
-8.105366562201055114e-02
-1.346627532246138792e-01
-8.250799198752081787e-02
-7.793166825046535240e-03
-8.398517096851736141e-03
-6.942950822377134956e-02
-1.093400645603162247e-01
-7.759184105776061047e-02
1.638723825812177237e-02
1.198680964129908294e-01
1.743626567565586816e-01
1.761446823958814634e-01
1.911902657465197053e-01
2.432897514711175324e-01
1.767677093499245844e-01
-2.263078796592907782e-01
-8.281212955246226581e-01
-1.014195409597790976e+00
-3.959796852848712634e-01
5.071239307396497864e-01
8.241161834236793160e-01
4.118828589156412479e-01
-1.448192598820891575e-01
-3.857265984192067010e-01
-3.506338808467411861e-01
-2.622650887309449508e-01
-2.099508577637172191e-01
-1.631581279776937732e-01
-1.001487425465256847e-01
-3.059725707594164457e-02
4.461401610297306697e-02
1.265164126746212148e-01
1.903367043074032094e-01
2.005012753589763552e-01
1.435911164940800178e-01
3.909005822996373947e-02
-6.473029302364438631e-02
-1.108420314408314344e-01
-7.417616766963508468e-02
1.848383527012927366e-02
1.186980773899792840e-01
1.940931819999194008e-01
2.289105659724257336e-01
2.091467279512968236e-01
1.299450319421990019e-01
1.163222447389049979e-02
-1.075154605036941630e-01
-1.925022676734113869e-01
-2.199995350420188844e-01
-1.771423345651278736e-01
-6.921998489475053584e-02
6.767052681475174691e-02
1.741772134255755999e-01
2.029844774188095391e-01
1.505400136858887905e-01
5.431998643413035732e-02
-3.555137764531531019e-02
-8.221585210770392116e-02
-7.203414656604065214e-02
-1.267821426759684587e-02
7.415831167137842961e-02
1.620735257929289963e-01
2.238371597259799228e-01
2.306351669248498659e-01
1.666025017872501401e-01
5.518757347494338689e-02
-4.619303725703483021e-02
-9.057159141034971939e-02
-7.160592184778231950e-02
-1.204142159087151845e-02
5.897625917381273120e-02
1.153473860869544121e-01
1.493889176835161703e-01
1.949108319238145037e-01
2.792803084287271975e-01
2.905787960359043076e-01
1.645618249418382383e-03
-5.621653092634772975e-01
-8.723215942516757693e-01
-4.363828849877204319e-01
4.088831026967800208e-01
7.974419226637682323e-01
4.444414441689453765e-01
-1.248031320801597094e-01
-3.929348925090535571e-01
-3.523531687649836264e-01
-2.433141388296016783e-01
-1.980877457176762335e-01
-1.952875948929713446e-01
-1.748860888034622918e-01
-1.127006405853623050e-01
-2.093475030996274494e-02
7.447093547874869546e-02
1.409981991371510035e-01
1.461723604783507491e-01
8.644964146597303167e-02
-1.412500002735952651e-03
-7.420636402237169860e-02
-1.078926415909720327e-01
-8.988628606666168586e-02
-2.131138815700224162e-02
6.903859771115997135e-02
1.387274413566211562e-01
1.653183128972238458e-01
1.566094046087959102e-01
1.274916227619898312e-01
7.808637867289636159e-02
1.947226921994872628e-03
-9.414999339295988812e-02
-1.868696716372634237e-01
-2.438937302182953015e-01
-2.310229798931532907e-01
-1.273086929728617367e-01
4.525530980056967356e-02
2.057985992964208033e-01
2.599443746379098696e-01
1.836503067692715485e-01
4.445945772267011209e-02
-6.807809253327010146e-02
-1.084772678853629380e-01
-7.289875016713193157e-02
2.495103965420286327e-02
1.480689620827522479e-01
2.361513618471937637e-01
2.498721169884187965e-01
2.040495297074945980e-01
1.361714875586975959e-01
6.399352646763062369e-02
-5.987480723815824003e-03
-4.971599449479939536e-02
-3.309114323662238483e-02
4.232930601281945787e-02
1.145376769566049946e-01
1.199359922153524771e-01
9.183327294318155420e-02
1.432746612277941978e-01
2.760980260778108653e-01
2.431204646550430559e-01
-2.046164401447641279e-01
-8.115101011292419342e-01
-8.469221644273848826e-01
-2.564015614510578578e-02
8.933037647624906263e-01
9.818301365255573954e-01
3.152022291473804971e-01
-2.999153353117879339e-01
-4.364722571195555623e-01
-3.401464705715660508e-01
-3.328614585475432319e-01
-3.971389689040780713e-01
-3.642853448209638079e-01
-2.101787281856066503e-01
-3.529647319637448100e-02
9.258896459431301129e-02
1.623335499700524764e-01
1.688881688234707967e-01
1.143931463444746860e-01
2.800617090414511332e-02
-4.950504725821259361e-02
-9.057472474609355728e-02
-8.496650546134613957e-02
-3.376755872898880989e-02
5.077449294165770760e-02
1.401192063783463782e-01
1.944730907743092430e-01
1.876332401584140108e-01
1.286706408478722474e-01
4.979053643374022065e-02
-2.768119139450119642e-02
-1.045761285989670053e-01
-1.794567152774192154e-01
-2.282205773499484946e-01
-2.174982658606832986e-01
-1.327307176992114923e-01
3.340912090041682145e-03
1.301902022109291956e-01
1.805850487006868399e-01
1.321537843950823521e-01
2.467792956984951602e-02
-7.635047602711066139e-02
-1.206781979336036120e-01
-8.804832218067287775e-02
7.573617852825158953e-03
1.220390632134941145e-01
2.043823537326375506e-01
2.270748708854204712e-01
1.951848308373040908e-01
1.292377576714252019e-01
5.002584411743238313e-02
-2.278645560014587110e-02
-7.359060453575907990e-02
-9.076533915495502147e-02
-6.365732031427946691e-02
2.883490605800368908e-03
7.907137445367538875e-02
1.374828102203367874e-01
1.696825465665884047e-01
1.434096798368567627e-01
-3.580000151408511966e-02
-4.424894578448201887e-01
-9.141316997636959041e-01
-9.839914446837779716e-01
-3.506969778571036866e-01
5.550244918770577129e-01
9.313971282917600236e-01
5.702183074576899768e-01
-4.188761912849045532e-03
-2.854821610081250682e-01
-2.447374680061568109e-01
-1.292495520978156898e-01
-1.298055114656929410e-01
-2.531655219079952945e-01
-3.759924156192068212e-01
-3.835795283146142265e-01
-2.633070634380653141e-01
-7.664609409442861565e-02
1.022764437011700750e-01
2.055367756303893567e-01
1.957359673738292005e-01
9.953646337832403046e-02
-1.114048614369712517e-02
-7.558146370147517112e-02
-7.486585899199861560e-02
-2.215011399482107873e-02
5.959115880832301093e-02
1.462640493100437755e-01
2.078353244134853173e-01
2.141191185535993580e-01
1.588062283377423278e-01
7.056115657664766005e-02
-7.313036722326955383e-03
-4.362249394735411012e-02
-3.431645966221729543e-02
-3.025007707863773803e-03
2.453830776452854689e-02
5.154412011777536468e-02
1.053845648090466491e-01
2.070426752675501580e-01
3.298973318809930722e-01
3.421706404106782951e-01
4.701829076623750825e-02
-5.283840430993979043e-01
-8.962853724767800845e-01
-5.410349800369060880e-01
3.044855842246430577e-01
8.019423364907181107e-01
5.609238713005305632e-01
2.974462484522830130e-02
-2.394058962194057782e-01
-2.067563132844687790e-01
-1.344210381329553616e-01
-1.520928221367967570e-01
-1.965001052720562191e-01
-1.872403932858661690e-01
-1.133484250518939640e-01
-3.339190469874350059e-03
1.083056851432961654e-01
1.873342232758828663e-01
2.052855639428468881e-01
1.541214102434798339e-01
5.516810401717282819e-02
-4.826107029322680708e-02
-1.104928942049581003e-01
-1.071004900764630230e-01
-4.639997443185575610e-02
4.388877680302000206e-02
1.348584596336547259e-01
1.943661940413891898e-01
1.851927333866759395e-01
1.013160350123989140e-01
1.521950124665183077e-02
3.228930609944542091e-02
1.398304800644368240e-01
1.725719369464691899e-01
2.922999606175693404e-02
-1.611615108319918444e-01
-1.977868772718836821e-01
-4.931563654561454957e-02
1.381148763700747462e-01
2.086253846395311196e-01
1.294223389666526169e-01
-1.446802047379674300e-02
-1.211616249271094542e-01
-1.437720273769719781e-01
-8.154745221083603557e-02
4.280531004574932019e-02
1.780403756075467914e-01
2.564221086476390354e-01
2.446902987969362397e-01
1.745507178461441489e-01
1.025995349226816872e-01
4.788509854285171591e-02
-8.591768456226264727e-03
-6.629382311774328906e-02
-7.755310443749402483e-02
-3.751268415525844946e-03
1.125741358261928282e-01
1.789158296404163573e-01
1.727061592642931409e-01
1.816445821419543916e-01
2.579590050898019071e-01
2.320535484318271835e-01
-1.700514472632981833e-01
-8.331417207632563215e-01
-1.073037579941431785e+00
-4.189279637110195353e-01
5.622281617314760505e-01
8.597785228053386186e-01
3.104521717632397482e-01
-3.533861139103436355e-01
-5.617817863656436872e-01
-4.138207418276017568e-01
-2.539518244692808846e-01
-2.172328487821339749e-01
-2.317046621266530548e-01
-2.079301838002232949e-01
-1.208129313608395650e-01
1.597577558305374353e-03
1.071186352388397989e-01
1.590591132081860259e-01
1.539320711887307846e-01
1.024880558061826014e-01
2.101527430026709983e-02
-5.954721467703380511e-02
-1.016445298054790142e-01
-8.154303043524885330e-02
-2.271111489138351487e-03
1.024192996656713567e-01
1.835446625899029849e-01
2.081401150851731607e-01
1.711152900543516930e-01
8.445687010009368667e-02
-2.902494139099499187e-02
-1.418376600660203879e-01
-2.331980093559756217e-01
-2.848804508117004364e-01
-2.713933507944291113e-01
-1.756353531419158065e-01
-1.946458579500380537e-02
1.297666408618947942e-01
1.954920494311168100e-01
1.471488499181270726e-01
2.544588772530151713e-02
-8.743388192250295399e-02
-1.279431956530191483e-01
-8.629693310630744130e-02
7.959818335580003471e-03
1.165747492174714212e-01
2.086839658117271568e-01
2.631939994583590292e-01
2.644595474519124134e-01
2.068679391592961880e-01
1.101504718753615469e-01
1.444990426016228360e-02
-4.697999170236949462e-02
-5.992779661167505628e-02
-2.572567507051329305e-02
3.198961528964614637e-02
7.250922426723820091e-02
8.420641253901625656e-02
1.142090606925969531e-01
1.914651917028111217e-01
1.896351961141903020e-01
-1.280125824437869375e-01
-7.358133212206633411e-01
-1.088869428402318151e+00
-6.513536895989617825e-01
2.771955320561434455e-01
8.006309391122076180e-01
5.451340918563832849e-01
-1.674822107819165518e-02
-3.299315054163930450e-01
-3.211715060523990251e-01
-2.138230003066455831e-01
-1.626918790922683433e-01
-1.587830553567957381e-01
-1.315492036363884731e-01
-4.639700824149499414e-02
7.605805785589676848e-02
1.889947720708188283e-01
2.513878027964014938e-01
2.459341826561488586e-01
1.859581857371629676e-01
1.059195426251077349e-01
3.356419024558860570e-02
-2.570013899758499115e-02
-6.734887668215235046e-02
-6.704247888868172800e-02
-8.212462178422695255e-03
7.957923874280224685e-02
1.408176797676890801e-01
1.474631182763163351e-01
1.084308453529584104e-01
3.928502231563936464e-02
-5.053052613749527133e-02
-1.456736359951796012e-01
-2.173133532795341605e-01
-2.321694183059437588e-01
-1.693447785840183351e-01
-3.625488836360958589e-02
1.160571137816031467e-01
2.031479424668348743e-01
1.714322441935741126e-01
5.556070406487224195e-02
-5.725324712805662797e-02
-1.094701169500666704e-01
-9.553322142044415322e-02
-2.936002820441783664e-02
7.325136453644873202e-02
1.852257952281470277e-01
2.635373933358808318e-01
2.697383941378908578e-01
2.017737864570393336e-01
9.673995767031914883e-02
-3.106409644112207227e-03
-7.729554388452529456e-02
-1.170104368130025496e-01
-1.044182930922480934e-01
-2.886383228379288055e-02
7.517587642105368062e-02
1.476492469133945662e-01
1.795463861090478286e-01
2.154841647955627604e-01
2.228189218060098453e-01
2.719061348574323272e-02
-4.365121428148148186e-01
-8.048357721610159832e-01
-5.657080460791115151e-01
1.913559788047064780e-01
7.369407106010769093e-01
6.097652919008058614e-01
1.091310428347010836e-01
-2.473272427124753314e-01
-3.139320779021433361e-01
-2.525091131411532630e-01
-2.056872334096508381e-01
-1.851535541214627545e-01
-1.520771129180197301e-01
-8.746473679721537831e-02
4.541513175044630327e-03
1.065712892977512677e-01
1.883229385122422717e-01
2.157310835166263985e-01
1.704911659224206399e-01
6.743784729993497484e-02
-4.223644993142945669e-02
-9.963804852316647531e-02
-8.348586368923673062e-02
-1.787085325130581548e-02
6.486222693045284871e-02
1.467737762381962907e-01
2.058601796424074926e-01
2.073787089202875356e-01
1.397765152412936418e-01
3.938284670776254909e-02
-4.945611852040001505e-02
-1.226935125440704044e-01
-1.956369366017102485e-01
-2.492483212421514605e-01
-2.349952086444116739e-01
-1.341307109718534452e-01
1.111870928498820757e-02
1.246372479501027808e-01
1.480092984413030610e-01
7.933848344434750455e-02
-3.220236674276102246e-02
-1.298210043963254068e-01
-1.768340452625650483e-01
-1.535735365374213401e-01
-6.095087305637994501e-02
6.585474813515723724e-02
1.708037801988968318e-01
2.276889308763380138e-01
2.710676341455195426e-01
3.197996326580456183e-01
2.458848581418489609e-01
-1.339159931783950874e-01
-6.644352666436968979e-01
-7.551392925274905688e-01
-9.362695157437068982e-02
7.113545956717642893e-01
7.773068663890736474e-01
9.577475330227801231e-02
-5.504845860035042504e-01
-6.445727242587933059e-01
-3.792200728650794161e-01
-1.672864331551404127e-01
-1.438996219424331924e-01
-1.843044247916778566e-01
-1.611976078385934374e-01
-6.621052530110774215e-02
4.614935098484675841e-02
1.337175988335747856e-01
1.739549942503422209e-01
1.522039933854069105e-01
7.553188698333168638e-02
-1.995577027946666970e-02
-9.113632109730679387e-02
-1.116674151528337933e-01
-7.676520657400934255e-02
2.683624009718615575e-03
1.038646525296777756e-01
1.937674335874381426e-01
2.416345880489522147e-01
2.381620469931515216e-01
1.942262109194678454e-01
1.194355770557399971e-01
1.375365736424164452e-02
-1.157450380498943332e-01
-2.332118571640051374e-01
-2.774086624703130943e-01
-2.023771462668012833e-01
-2.369414050058732055e-02
1.755141535543964515e-01
2.905300475327171061e-01
2.634854482311521640e-01
1.214294554600825055e-01
-4.366157558728444438e-02
-1.337832966098672360e-01
-1.101492962263201508e-01
-1.819618678510880050e-02
6.535235968862754263e-02
1.112427436496590122e-01
1.424842877334224489e-01
1.694920416807881303e-01
1.635960017111309783e-01
1.028550206679015866e-01
7.258972569071238737e-03
-7.685780184391423353e-02
-1.043196435949526185e-01
-5.552972597136024424e-02
3.926120765896003867e-02
1.097465025935250721e-01
1.159237806913799990e-01
1.135436906955641784e-01
1.922687699148892537e-01
2.906943238505695914e-01
1.331634367884195203e-01
-4.390723595373470234e-01
-1.006743960338960964e+00
-8.321002185723012090e-01
1.265626902524232822e-01
9.389542517759461582e-01
8.424903822057547842e-01
1.432372489036282115e-01
-3.759161135959049327e-01
-4.279306277857992113e-01
-2.744238607763535009e-01
-1.883663778534426514e-01
-1.887908989506887347e-01
-1.751055832369733112e-01
-9.880412368869230522e-02
1.372722673724653328e-02
1.087281209536321291e-01
1.377955010436405781e-01
8.779502796281041244e-02
1.359653988892889874e-02
4.936456396558172241e-03
7.561250354365511850e-02
1.292898941989303885e-01
9.108681744811608638e-02
1.419724052811641851e-02
-2.598446709147691873e-03
6.003295345511426573e-02
1.438737847304687734e-01
1.882509686598353438e-01
1.727569189612924438e-01
1.101047418479263323e-01
1.969121235667412734e-02
-8.343123371786946574e-02
-1.742501293009115493e-01
-2.089261450290375022e-01
-1.507864562072130932e-01
-9.599467963892389932e-03
1.475018332871517734e-01
2.299763908575618854e-01
1.923316934323489880e-01
7.779773556292916836e-02
-2.757945170041647964e-02
-7.735839002105895923e-02
-7.595143452045421961e-02
-3.630737669965771602e-02
3.201539849348072897e-02
1.076232577221469255e-01
1.588619525382268527e-01
1.619918047711670639e-01
1.162019303043747148e-01
4.242466298435005473e-02
-3.294827120298272211e-02
-8.922160650160226858e-02
-1.103312827560884724e-01
-8.733331439822390740e-02
-2.590431475143403772e-02
5.259263841214181084e-02
1.211598200710466422e-01
1.724273733322542745e-01
2.261857290378484764e-01
2.516730173052063035e-01
8.484576682943958947e-02
-3.941926248632329211e-01
-8.882678805286740031e-01
-7.965017170969287408e-01
-1.210357700476570597e-02
7.419148278399380070e-01
7.698938581863681296e-01
2.279429648343455628e-01
-2.468108676248360611e-01
-3.458692438402103941e-01
-2.328161772824661746e-01
-1.528315015414995204e-01
-1.642019258471796861e-01
-1.894243425207200460e-01
-1.666929941513206614e-01
-9.722674037101691757e-02
-5.238171867172127308e-03
8.301303400875409411e-02
1.381899345655867306e-01
1.447934183876848357e-01
1.055704023575715356e-01
2.403348144823568705e-02
-8.508652918307918478e-02
-1.701320804525435493e-01
-1.695156393731733213e-01
-7.550522340726667503e-02
5.783798672453557138e-02
1.710702108952905920e-01
2.303630015468025316e-01
2.152555326700238691e-01
1.257024790438919792e-01
-4.006416901233020994e-03
-1.349170041652664465e-01
-2.501516642802915635e-01
-3.268425157484782240e-01
-3.168882820069177098e-01
-1.931313112096408047e-01
9.067431993509678101e-04
1.694961022785637927e-01
2.314106336845461187e-01
1.726383400250304789e-01
4.884374406917026123e-02
-6.119509418721615773e-02
-1.104055550604049057e-01
-9.319730342771836984e-02
-1.885198996694044046e-02
9.342596173909654966e-02
2.006773412135452739e-01
2.543883768595038841e-01
2.365916186177567937e-01
1.630456951449961722e-01
6.108974908378699692e-02
-4.192645102618363512e-02
-1.183029851249992465e-01
-1.437199755838896864e-01
-1.075434537011171754e-01
-2.413017395027473172e-02
6.865665517719882205e-02
1.436042994171792542e-01
2.179876124263390169e-01
2.925610128827723644e-01
2.253292629775441591e-01
-1.865446510784340983e-01
-8.091375613877649364e-01
-1.034591902126397844e+00
-4.603692463436862004e-01
4.216225117969684688e-01
7.475119475780205303e-01
3.511880002404790257e-01
-2.027127186929058578e-01
-4.405610840459480149e-01
-3.764335722838250131e-01
-2.486579058071513582e-01
-1.989092479869658814e-01
-2.057270552065679492e-01
-1.842785546963770782e-01
-9.060299548262278069e-02
5.158555863612100667e-02
1.849738779963355784e-01
2.609247938228653751e-01
2.590882150459040689e-01
1.837563403326328004e-01
5.865620400155552305e-02
-6.825173098300095498e-02
-1.354436726023812154e-01
-1.057660766342232855e-01
8.117379611275883297e-03
1.514467398956855781e-01
2.515757478300321148e-01
2.626978990719891494e-01
2.074445435044476316e-01
1.464338758526555484e-01
9.831784116385228200e-02
2.610217862229067751e-02
-9.341158242723895944e-02
-2.266249851899462819e-01
-3.122785012752112843e-01
-2.985853753002907784e-01
-1.692515478045561739e-01
1.995755672851672394e-02
1.579083586781772630e-01
1.744204616711839406e-01
9.035237926722294866e-02
-3.405168885279305502e-02
-1.431887153357741804e-01
-1.807427024173114405e-01
-1.124502250295010830e-01
2.625789148484333063e-02
1.539992750283317724e-01
2.266924384147148974e-01
2.560359831087354876e-01
2.489587667055097597e-01
1.854169414332142440e-01
6.872276564854029601e-02
-4.555923297597569421e-02
-9.082331858791013734e-02
-4.295179471459183163e-02
6.555036042204012703e-02
1.686620146374281926e-01
2.214319427185709455e-01
2.561255371848811802e-01
3.385264065295302549e-01
3.923948612481305553e-01
1.455677608729355477e-01
-4.993676945193050720e-01
-1.030172761423722605e+00
-7.301176768884045654e-01
2.750225256978292565e-01
9.701397583354232079e-01
7.388549555202852392e-01
5.515023609264148308e-02
-3.378516645746209579e-01
-3.082251391746940183e-01
-1.797629340278978638e-01
-1.625299528351789591e-01
-1.967415077111995814e-01
-1.691533023837288596e-01
-6.637544633145225914e-02
6.685110259503625196e-02
1.904875680044843533e-01
2.655490657835775647e-01
2.605750571883269640e-01
1.869887257001274783e-01
9.336560135663173055e-02
1.740232531163564758e-02
-3.399711250851635697e-02
-6.253307045432539291e-02
-6.131227353580702422e-02
-2.469229542771752065e-02
3.084077317236620305e-02
6.491731871765459017e-02
4.957294624189818866e-02
1.685664446958948064e-03
-4.775389322276565873e-02
-1.037475036868676648e-01
-1.856652058306936526e-01
-2.671646582142290782e-01
-2.852009609932760759e-01
-2.086304404647726651e-01
-6.647079002289088545e-02
8.318698182987734058e-02
1.865321017012345761e-01
2.111184223266673599e-01
1.601332299861895347e-01
7.206606321913980318e-02
-6.894149641349682153e-03
-5.028843032998464579e-02
-4.721771444538679086e-02
8.658026838909092457e-03
1.030045901760829608e-01
1.937556273001216078e-01
2.444032956164815806e-01
2.445433070592771541e-01
1.889776149533443084e-01
7.340197728121039544e-02
-7.140216796394943666e-02
-1.716767553602605856e-01
-1.674785456098893399e-01
-7.341864204344605849e-02
3.485642763879540085e-02
9.840272228287025302e-02
1.360198762342949008e-01
2.124398679017928671e-01
3.048123615574761525e-01
2.116892482677268650e-01
-2.471901789392022819e-01
-8.243419710605796036e-01
-9.050721049413689157e-01
-2.929864529447001043e-01
3.844684940978470578e-01
4.655328063737944055e-01
6.295057332340749101e-02
-2.845140365972450569e-01
-3.415918796552749326e-01
-2.498692257729366595e-01
-1.857160508615078587e-01
-1.849262741357509399e-01
-1.942870699465135687e-01
-1.596381937100180837e-01
-6.470564346891574670e-02
6.372164483247390321e-02
1.739951628354554358e-01
2.232860648801311410e-01
1.989898493631268861e-01
1.184678212643206219e-01
2.074068366822305609e-02
-4.753533373677770041e-02
-5.777535299868123003e-02
-1.849951040679552808e-02
4.017672418395387690e-02
9.682041379950499793e-02
1.411533270540313578e-01
1.610992229632312034e-01
1.490445692047850101e-01
1.092309162818576596e-01
4.114373767881664840e-02
-6.429901262904189063e-02
-1.883242186516542738e-01
-2.681146130131289440e-01
-2.483891591839036683e-01
-1.370829417956243024e-01
5.410877083153365838e-03
1.154715965681222672e-01
1.565827263034954286e-01
1.228103529132634902e-01
3.449360627383708106e-02
-6.541656822637315072e-02
-1.257942641412873319e-01
-1.180420152913893156e-01
-5.283076280180237783e-02
4.009900266226673615e-02
1.362097301639966507e-01
2.101983091351754540e-01
2.275261371651894071e-01
1.684350823404615616e-01
5.389182991466007211e-02
-6.723900686904714374e-02
-1.483589463336922043e-01
-1.612049639558958691e-01
-1.064046764345111112e-01
-1.861946961542527632e-02
5.686397097888971908e-02
1.098387603538125007e-01
1.792958473561046540e-01
2.741812091581787847e-01
2.551054687175265401e-01
-7.897911017849938708e-02
-6.179673137133721017e-01
-8.134304673611336689e-01
-2.992148490429100138e-01
4.798256783432121586e-01
7.473226947256720321e-01
3.713721628260190921e-01
-1.213161800043498911e-01
-3.143000962425002154e-01
-2.541383845778724115e-01
-1.730452109786941306e-01
-1.750666416061778252e-01
-2.037452435567653208e-01
-1.747260400865510155e-01
-6.964788201067546869e-02
7.039639426039694114e-02
1.895125822150125483e-01
2.476846762654229817e-01
2.354959228625321532e-01
1.740087992019627439e-01
9.444850503240334594e-02
1.325970363473514234e-02
-6.497960645883046893e-02
-1.170566135022698823e-01
-9.845360363197590281e-02
5.402607134034825148e-03
1.439050558497092236e-01
2.392180712558423794e-01
2.480968123035776074e-01
1.826347403478897624e-01
8.561114164036361107e-02
-1.197898345790743106e-02
-1.101212125663704605e-01
-2.111987335937372812e-01
-2.803637561848886794e-01
-2.558544165134980508e-01
-1.157271739927832194e-01
7.124754840037557380e-02
1.903990109484207660e-01
1.834382167628726690e-01
8.298639354313025462e-02
-4.121923303815228090e-02
-1.314410935296511929e-01
-1.511537237059260019e-01
-9.346180746291550545e-02
8.239270824996572720e-03
1.011909819166119107e-01
1.560275398852691286e-01
1.759917799009373118e-01
1.608655022624224107e-01
9.268076511470256518e-02
-2.118689967267908814e-02
-1.233885205152076420e-01
-1.574930120470982298e-01
-1.198613384196025589e-01
-4.268251936917905054e-02
4.424199815817066173e-02
1.286160720903090082e-01
2.236236515021094440e-01
3.361124564227986333e-01
3.691235366831334130e-01
1.218683671613154940e-01
-4.214225562764510324e-01
-8.088505109448558272e-01
-5.050502997430479368e-01
3.037080877539822255e-01
7.793449192653862934e-01
4.873401900753804306e-01
-1.402244729233149967e-01
-4.953173629522551469e-01
-4.504110408559531820e-01
-2.565873320589812101e-01
-1.461779780728882649e-01
-1.496993935132584497e-01
-1.688088035273841436e-01
-1.247820294832580057e-01
-2.007422704048689166e-02
9.736288822952163247e-02
1.768848750032953610e-01
1.849035857108986269e-01
1.252060227354420963e-01
3.929244476103416206e-02
-3.425953766027763081e-02
-8.810621365736885646e-02
-1.179668888478561523e-01
-9.718682459632276005e-02
-1.596606353514491358e-02
7.894611018501371258e-02
1.272918820130396755e-01
1.226860934038720014e-01
9.967992092910671342e-02
6.956034526968175868e-02
1.332255330667318077e-02
-6.846321588974300931e-02
-1.450875261186726772e-01
-1.908238497241195042e-01
-1.902200663197711750e-01
-1.235430105216006602e-01
5.803163142665311927e-03
1.363212448524983578e-01
1.859234770279085958e-01
1.327389555346359939e-01
3.104386743792935527e-02
-5.365499379200762420e-02
-9.438984918272669278e-02
-8.683572579108161937e-02
-2.622098043464010653e-02
7.692337534018145462e-02
1.839908822124799448e-01
2.509663543123243912e-01
2.521561946653920194e-01
1.846064878976311219e-01
7.069907041908407574e-02
-4.386910694909634117e-02
-1.110131284982748129e-01
-1.044565636641860834e-01
-2.783887212260558602e-02
8.394112873815616493e-02
1.745175999177450699e-01
2.176680442558341921e-01
2.663532066828071532e-01
3.690599993513097310e-01
3.807770763855826135e-01
1.517336461812638163e-02
-6.702104097115593184e-01
-1.010781990016310417e+00
-4.652779616046772149e-01
4.896895505541046800e-01
8.545902180437663365e-01
3.982592277601282316e-01
-2.149235595250724717e-01
-4.282258289993685629e-01
-3.097887664886115333e-01
-1.727292532879347031e-01
-1.462927626324640185e-01
-1.674273589823227493e-01
-1.543561694735292034e-01
-8.655007154210185571e-02
1.378214221951530941e-02
1.117096415847416563e-01
1.749705755385202455e-01
1.838489589032642202e-01
1.380939706658290689e-01
5.796718330586640711e-02
-2.417258440827196181e-02
-8.003052952372359530e-02
-9.374769525076748211e-02
-5.488745886071833002e-02
3.739367971679187497e-02
1.496858183352415828e-01
2.212646966861009368e-01
2.195288030163820292e-01
1.645434845974114713e-01
8.311489709729667774e-02
-2.673283060643182746e-02
-1.615840662080865742e-01
-2.714083789269229885e-01
-2.855771952130361502e-01
-1.774214359917930528e-01
8.243829898029676057e-03
1.837633998988182082e-01
2.704400351644423717e-01
2.388106136140805136e-01
1.181470183657843259e-01
-2.301538368414229874e-02
-1.124642648487409607e-01
-1.133812317516987855e-01
-4.316689898534264991e-02
4.788004475611318256e-02
1.200331296040136192e-01
1.657490054751734054e-01
1.889005904575672967e-01
1.767062795442767009e-01
1.132006044670104267e-01
1.550400495997302994e-02
-7.044608060176342501e-02
-1.134886176597164342e-01
-1.146183695526794000e-01
-8.318054480650334537e-02
-2.396318367470837152e-02
5.832500546790164719e-02
1.701438557495559833e-01
3.013988734630793087e-01
3.166668666302547841e-01
-2.482169456249690848e-02
-6.996831611277195551e-01
-1.130178784425612148e+00
-7.272005827054589533e-01
2.178429279959174236e-01
7.692066735452164350e-01
5.337130086230166270e-01
-1.421238444741165785e-03
-2.865579236820112730e-01
-2.834813680041459727e-01
-2.234856199215613237e-01
-2.180591334258110969e-01
-2.199930616399138061e-01
-1.789324092381446851e-01
-1.038306848349502959e-01
-1.495912099363698108e-02
8.206869745594300158e-02
1.709180005066630037e-01
2.113355912997605945e-01
1.687811410451501570e-01
5.988053816313417682e-02
-4.408187204136305298e-02
-8.446319500806816205e-02
-8.439315767551205938e-02
-1.130171752845058608e-01
-1.679835756511002809e-01
-1.534228061546608346e-01
-2.065170280121033167e-02
1.363660080704716393e-01
1.835976033914875627e-01
8.673907924632490163e-02
-8.467674912169480261e-02
-2.381088259620544323e-01
-3.156113695967190935e-01
-3.017212255755287176e-01
-2.079114760157947384e-01
-6.037546066162766123e-02
1.024469683499264205e-01
2.318025114270800269e-01
2.819985999812253952e-01
2.325446110263099386e-01
1.073250828472081669e-01
-2.427871597400379014e-02
-8.668759784833662829e-02
-5.692385613375529341e-02
2.529328310930984217e-02
1.075886448956735048e-01
1.674253881573576075e-01
2.017980997095613072e-01
1.982269831743364574e-01
1.387715675959040884e-01
2.829327185773617553e-02
-9.008100245089667446e-02
-1.398914848014992940e-01
-5.421179265538866171e-02
1.352983841834421996e-01
2.797001002732079633e-01
2.701559643055103099e-01
1.908097980694518914e-01
2.024959405756688868e-01
2.602912303678274197e-01
7.407655809991985085e-02
-4.852543087316096848e-01
-9.786487839472942651e-01
-7.638730300319261923e-01
9.311370278522240751e-02
7.495129595581992987e-01
6.362673342465529069e-01
6.949025969987766838e-02
-3.320748897723087012e-01
-3.559729856881467813e-01
-1.982516797940818143e-01
-9.312406334564063415e-02
-9.391742345234477263e-02
-1.130145792601958549e-01
-6.720557832607754190e-02
3.841570997521724651e-02
1.384083790879478970e-01
1.852624546168155639e-01
1.881117946525205642e-01
1.783290669239514237e-01
1.555469210483360898e-01
8.894110322319025153e-02
-2.609105684162845926e-02
