3.937856166967916849e-01
-3.002274787240324372e-01
-2.949283091829409398e-01
5.998793229179183450e-02
3.064346148100387524e-01
3.170358030688013584e-01
1.666093470560932321e-01
-4.528695928501663692e-02
-1.808570977890733567e-01
-8.602094138466739870e-02
2.476913953006524283e-01
5.932063444404741537e-01
6.604966307502653233e-01
3.878512904622149482e-01
-5.902863729880247767e-03
-2.735117636254872364e-01
-3.509611361112183747e-01
-3.103077352182946336e-01
-2.189979595743055674e-01
-1.089626053384011584e-01
-2.250480819623935577e-02
5.211933764963910115e-04
-2.596167059193959722e-02
-6.530432412158068689e-02
-1.272882667739514140e-01
-2.338060049497454052e-01
-3.316963971975425696e-01
-3.229281303034761130e-01
-1.871431027695050764e-01
-8.183004334148976516e-03
1.303853603930602290e-01
2.190957305603144778e-01
2.712310165559463915e-01
2.527940377005318817e-01
1.211494766716629673e-01
-9.386496014250057807e-02
-3.025872840027617472e-01
-4.284737483908038769e-01
-4.346245737922898034e-01
-3.186194838552647846e-01
-1.335926229863160508e-01
1.153735830881020066e-02
4.041587203415612090e-02
-9.349734309196723950e-03
-5.344660126670852662e-02
-8.300702445115740180e-02
-1.474961166333990104e-01
-2.448004149000364560e-01
-3.024853499637140675e-01
-2.656919925710122810e-01
-1.621007685605298509e-01
-6.952052903922054106e-02
-3.491570046105960806e-02
-4.284276449282192756e-02
-5.800188662356822733e-02
-7.130990308027920777e-02
-1.072872437894362985e-01
-2.216585563001099157e-01
-4.464196296098805194e-01
-6.060085266987375041e-01
-2.570715169302977277e-01
8.274357553503588480e-01
2.027563311436750393e+00
2.242258012298969039e+00
1.187976145247743309e+00
-1.570679626131218642e-01
-7.316304464019348641e-01
-4.995762468471264817e-01
-8.983457143949333257e-02
1.159913779201710016e-01
1.790896865609080957e-01
2.454877480759888042e-01
3.242660482132445066e-01
3.453378044549597625e-01
2.665055720965124331e-01
9.266835531633527134e-02
-1.396482081892897742e-01
-3.575346590995091556e-01
-4.698097111174435736e-01
-4.329444930385924484e-01
-2.960801552660963232e-01
-1.555722120674771780e-01
-6.562891168275278297e-02
-1.690470113910447908e-02
5.894998413226883519e-03
-1.761228088340093326e-02
-1.192643265179300222e-01
-2.931120569224688888e-01
-4.728238315389131086e-01
-5.584214057880085846e-01
-4.894068813201238322e-01
-3.033528664480136250e-01
-9.598367166760241043e-02
7.779524911014479294e-02
2.219807115732254366e-01
3.207836151547338033e-01
2.973946054589828858e-01
9.212187956503284370e-02
-2.208924970230531082e-01
-4.460152695560048453e-01
-4.436438019009644185e-01
-2.637944918219601864e-01
-6.444722555327553337e-02
4.945767033488794595e-02
6.811430461140337289e-02
2.013868427465166644e-02
-7.384593425340175987e-02
-1.957840907614415427e-01
-2.992760691818587837e-01
-3.240577314063144421e-01
-2.585806397180439031e-01
-1.508664205630396715e-01
-4.934189921904232751e-02
3.050223469467702730e-02
8.614580235552683762e-02
1.097028792059871194e-01
9.056351848781135638e-02
2.293480009299758010e-02
-8.101487690924384644e-02
-1.701124657401296147e-01
-1.688315673243623860e-01
-6.729942753580915593e-02
1.663618153713245992e-02
-2.545953859994592311e-02
-4.351676959450479637e-02
3.312335754349052808e-01
1.172240527204544192e+00
1.863820061886235058e+00
1.638231213158614086e+00
5.721153278624254712e-01
-4.267133291499788927e-01
-6.946312804287376741e-01
-3.842535688341566780e-01
3.721614648076469745e-02
3.481694853128942668e-01
5.377304563404740056e-01
5.759263971611999766e-01
4.202306630662291376e-01
1.348684270980796129e-01
-1.369411601838173287e-01
-2.990325820387123024e-01
-3.396794380765774113e-01
-2.880180842758529591e-01
-1.920689374751553269e-01
-8.788377196957725124e-02
3.933552441991404469e-02
1.752406632230282257e-01
1.888497834396679342e-01
-1.360188172904108934e-02
-3.040955394786459820e-01
-4.682616115135351254e-01
-4.462684594627688295e-01
-3.226237446835280576e-01
-1.813525284932520076e-01
-5.997575693521103174e-02
3.042848192252759626e-02
8.989647257241234479e-02
1.042422442652945480e-01
5.060866340333901314e-02
-4.514433524540612669e-02
-9.962348570395763991e-02
-5.779847854942913449e-02
4.089235474003680149e-02
1.128537384508568331e-01
1.241767912600301865e-01
1.012854759371811242e-01
6.724847693542057581e-02
1.156066996558452638e-02
-7.708414658290214938e-02
-1.795055555984656215e-01
-2.528088786106343910e-01
-2.593513836052293575e-01
-1.990003956757979142e-01
-1.130359584694033692e-01
-4.083648366886781511e-02
1.171933796914549283e-02
4.310575663701726734e-02
2.933835253569054904e-02
-4.038046136372994144e-02
-1.275651466847941284e-01
-1.820040980979252265e-01
-1.956466064590396958e-01
-1.852541915614025481e-01
-1.457461874355183429e-01
-5.741885836600907345e-02
6.293717363466423687e-02
1.287318919932091688e-01
2.375127923498662752e-02
-2.450634314943067604e-01
-3.806183841612720831e-01
4.628176347609706115e-02
9.979336162183185532e-01
1.687497511253717386e+00
1.380338960283229000e+00
3.787867372577778946e-01
-3.386734231216113056e-01
-3.174962281877342640e-01
7.008890926777253116e-02
3.282969742574737837e-01
3.369039606678823073e-01
2.305758351444092968e-01
1.367499933668165635e-01
8.861939639880343778e-02
6.184889589229859708e-02
2.972697700252322633e-02
-1.063426276879844527e-02
-4.591806587541902296e-02
-7.067592712003575861e-02
-9.887600534061022350e-02
-1.442585521569482720e-01
-2.068548461574462594e-01
-2.880732718920195889e-01
-3.799818583778810654e-01
-4.326800233546587160e-01
-3.859111427209058198e-01
-2.485973561947500410e-01
-1.076759147703748587e-01
-4.635105305295020989e-02
-7.586111752697966004e-02
-1.470813970040754093e-01
-2.104162295361042267e-01
-2.548944349668425535e-01
-2.861949610904676589e-01
-2.794938579933480827e-01
-1.818536728765261512e-01
1.070513431070000028e-02
1.886482405657271266e-01
2.134901605325972285e-01
7.896126469283135108e-02
-1.024668613252167348e-01
-2.576886805981777884e-01
-3.785681920546563606e-01
-4.277736428821697356e-01
-3.599595214946634258e-01
-2.231445550285827695e-01
-1.222655697430438670e-01
-8.234000618747909506e-02
-4.271772488169327253e-02
1.281879708148557333e-02
1.383298231090095490e-02
-8.992022879570847615e-02
-2.476591906735390591e-01
-3.602802614391776292e-01
-3.736118497595525834e-01
-2.936918918102381371e-01
-1.493055937302807668e-01
8.641246321502218941e-03
1.027555994636630554e-01
9.134836589425149311e-02
1.443340373315600209e-02
-7.209418794955302356e-02
-1.829806138588415676e-01
-3.609948029546434789e-01
-5.015995118061756797e-01
-2.783116409993753315e-01
5.286052908560047170e-01
1.525934830628642214e+00
1.866952605257559128e+00
1.208130741145946541e+00
1.781833361546497907e-01
-4.047807297713560404e-01
-4.025923394287603818e-01
-1.898821504033705310e-01
-3.597972959060687786e-02
5.330202026698214329e-02
1.253578926829798101e-01
1.670982743357284361e-01
1.597394935964643048e-01
1.250839133367789846e-01
9.372350443137714149e-02
5.976909576952810915e-02
-2.099435144401243583e-02
-1.780168129208814787e-01
-3.542329464584102472e-01
-4.242028353410576824e-01
-3.325979138204080976e-01
-1.742343530863122436e-01
-8.397536766701559074e-02
-8.812966295461158173e-02
-1.146641059596335832e-01
-1.165777471747787564e-01
-1.230809549419719234e-01
-1.675106405043446378e-01
-2.165298977729368801e-01
-1.985914827983348285e-01
-8.652943017467049081e-02
6.921866757011599369e-02
1.932046820985884594e-01
2.535726653006286080e-01
2.655351476979506131e-01
2.418400194655197510e-01
1.650041571915251692e-01
2.491184665526101003e-02
-1.295017062280733044e-01
-2.158428330790085892e-01
-1.976496021622877741e-01
-1.063116772212045064e-01
3.153643779508011336e-03
8.491192999214094983e-02
1.123358731601529770e-01
8.827017985322596627e-02
3.254970779012136828e-02
-4.515901662167205732e-02
-1.358160195027447448e-01
-2.074236332088650880e-01
-2.191571031379218326e-01
-1.493875199689901345e-01
-1.073021501206560674e-02
1.402333644457519346e-01
2.205166451562725616e-01
1.809825733237510892e-01
5.156094814564787798e-02
-8.609331286788478310e-02
-1.598763043409414664e-01
-1.377089265249366867e-01
-4.319432162824316662e-02
3.059859080584780011e-02
1.645632671507417377e-02
7.600620951102431133e-02
5.432010730567030654e-01
1.409834427231235976e+00
2.018148457079444569e+00
1.688800927740140345e+00
6.105541026122708326e-01
-3.335279716814851247e-01
-5.766379821567517716e-01
-2.934767013778106781e-01
7.655924379340744990e-02
3.124071282318203746e-01
4.200954507338500177e-01
4.475560307947353822e-01
3.952680876100538865e-01
2.358849424859803812e-01
-1.522249867357170633e-02
-2.481669241003958415e-01
-3.250551578185826851e-01
-2.251446965638856657e-01
-7.192032329870620688e-02
1.011091895022694226e-02
1.039195161068535642e-02
-1.843639574607037687e-02
-5.846499138260266570e-02
-1.295195815600534706e-01
-2.367329501608766429e-01
-3.516969186712693984e-01
-4.235857458825334487e-01
-3.970525858730419300e-01
-2.501614432827047874e-01
-2.858575253366633928e-02
1.764473969871008241e-01
2.902479520939615365e-01
2.910874902620161353e-01
2.031898210212928491e-01
7.871133932452215043e-02
-2.378463369985174547e-02
-7.523321009800977566e-02
-8.793642967841266977e-02
-7.777451652821150418e-02
-4.342950696909357589e-02
6.935548136903918470e-04
1.512647278496547648e-02
-2.249863736799671832e-02
-1.080047631051287010e-01
-2.363396138607374852e-01
-3.780216240566596775e-01
-4.514166391038436088e-01
-3.913890273857661972e-01
-2.383332219382780226e-01
-1.077020710837532230e-01
-7.414724572983663609e-02
-1.107893787793208240e-01
-1.401292613574082746e-01
-1.342997825391770705e-01
-1.466938084402495679e-01
-2.294069550262941570e-01
-3.503130032846744624e-01
-4.257022120116814023e-01
-4.045225687398570358e-01
-2.854346293498061793e-01
-9.663762670738507143e-02
7.824139699405220638e-02
9.704115442869766517e-02
-8.753563046016947513e-02
-2.216819959842141474e-01
1.154398051193136765e-01
9.216413056095141831e-01
1.480774847687235107e+00
1.118663194591132060e+00
1.460650799730545679e-01
-4.972882866353630082e-01
-4.081666261135178386e-01
1.899721304342270878e-02
3.080893220604454252e-01
3.486649731128707019e-01
2.283106042257888602e-01
3.213876174945704683e-02
-1.472725737681371827e-01
-2.195030559305789497e-01
-1.840251204178223188e-01
-1.190270240517272426e-01
-7.467306667878387261e-02
-4.402429914610053036e-02
-2.825368668349775153e-02
-6.462394825428117995e-02
-1.765924279302714395e-01
-3.373303797935879311e-01
-4.919995487336708551e-01
-5.784856418234521902e-01
-5.413319439328801996e-01
-3.871374068153102810e-01
-2.117048331729732835e-01
-1.143360040012062762e-01
-1.079531326028623089e-01
-1.527685035645260647e-01
-2.168462492731273450e-01
-2.423533909578627077e-01
-1.246734837370201271e-01
1.614548850172794758e-01
4.419712279472278182e-01
4.907213629563133006e-01
3.056628960494013891e-01
9.569854474351871532e-02
-2.018928554439417683e-03
-4.328736505356303027e-02
-1.302373516358960870e-01
-2.730829487035908998e-01
-4.030245856812770811e-01
-4.533529723799596400e-01
-4.117274829086216004e-01
-3.074460115682341455e-01
-1.703635006668989260e-01
-2.647369754812442175e-02
7.910209133752491018e-02
9.380735742410428735e-02
7.335448862273365178e-03
-1.276760590275305141e-01
-2.403285000777459213e-01
-2.950853930427076999e-01
-2.881925641330980725e-01
-2.189211320655687076e-01
-1.018072118785491864e-01
1.393088382743989245e-02
8.634675186191723140e-02
1.229364062892291387e-01
1.195324708484649529e-01
-8.477939356467508597e-03
-3.009364997024576716e-01
-5.160372038488139079e-01
-1.915378473439869611e-01
8.044603143715278737e-01
1.818663347820323128e+00
1.920578905468999453e+00
1.003222539699583971e+00
-6.814545944067357253e-02
-5.299435102528092800e-01
-4.382914148631389395e-01
-2.348984245367971568e-01
-1.267155606965240655e-01
-6.495440599423632499e-02
9.543622790089426045e-03
1.037128105880883444e-01
2.190190879805172519e-01
3.237883218871482893e-01
3.322400360667769337e-01
1.942536327476696023e-01
-3.319625950788344937e-02
-2.413181577845623926e-01
-3.498785290592425490e-01
-3.449696090812569560e-01
-2.930887801835755924e-01
-2.663182873290484975e-01
-2.185644916928276282e-01
-6.357505614156652718e-02
7.415522617315488396e-02
-1.046561975710602610e-01
-6.231263141353778900e-01
-1.005812156805064861e+00
-7.852046785985291599e-01
-1.154443037882212225e-01
4.108832048379776336e-01
4.789469304220020374e-01
3.096446608370364562e-01
2.398958843575142719e-01
3.154353481348931565e-01
3.610609822980804795e-01
2.536170851059126319e-01
1.917274407137511960e-02
-2.290457827304102356e-01
-3.598759436011621515e-01
-2.919601005511172076e-01
-7.220852046815054437e-02
1.366079638216421976e-01
2.049271787124305466e-01
1.518985683007915422e-01
7.896466004206144362e-02
3.571424588729695676e-02
-9.657855995634137547e-03
-9.439379027019653701e-02
-1.760201732672950492e-01
-1.359769421858420813e-01
8.509201950972399009e-02
3.616280546373919491e-01
4.852914366201642737e-01
3.970278671180611507e-01
2.130763087064055927e-01
4.414521261163596721e-02
-8.488575831617621581e-02
-1.609238781646423477e-01
-1.650788291386926510e-01
-1.492427916617447281e-01
-2.099071901047221689e-01
-2.877641544588842581e-01
-6.286059800080751048e-02
7.274658985916107046e-01
1.755730816279053474e+00
2.166778582001446019e+00
1.492672374493718479e+00
2.789261141071691652e-01
-5.434379036973003840e-01
-6.367935800129571611e-01
-3.050946992133150015e-01
8.249713799313200535e-02
3.680014792721361117e-01
5.148729307378774323e-01
5.147501529609780357e-01
3.738389965986345098e-01
1.217300221517635117e-01
-1.726326687182440922e-01
-4.065203072088481306e-01
-4.948170684176266820e-01
-4.277646943891482145e-01
-2.791685344291617854e-01
-1.564542163675400055e-01
-1.200079752043415326e-01
-1.370221598702390797e-01
-1.382221376449045969e-01
-1.191956427794264167e-01
-1.406823107221260027e-01
-2.309133463988280177e-01
-3.397781540704929437e-01
-3.889603579146821977e-01
-3.294970092528241024e-01
-1.662255818151144315e-01
3.862275665016640797e-02
2.006353203712507860e-01
2.705036245377691606e-01
2.428697290620155380e-01
1.270342293661005095e-01
-4.702793070431190992e-02
-2.126520424209854543e-01
-3.049997808448500769e-01
-3.097108676313946041e-01
-2.558052718239736678e-01
-1.789456947129911268e-01
-1.046046229383313514e-01
-5.585977464609642035e-02
-6.010209718482647373e-02
-1.317421267093767667e-01
-2.487704537260392312e-01
-3.550338708291353451e-01
-3.899350588754193492e-01
-3.388323797231754253e-01
-2.591228121074657387e-01
-2.141281267640848529e-01
-1.884377535163826445e-01
-1.301206711224229540e-01
-5.331823621100388599e-02
-2.862090339873126638e-02
-9.545577477864744531e-02
-2.283843138903988712e-01
-3.555891175911733981e-01
-3.895186684293887036e-01
-2.822859103612032627e-01
-8.637452236731503474e-02
4.244574368546036314e-02
-3.170427319646608455e-02
-1.959858723875450570e-01
-4.492158610389555828e-02
6.661848581581102380e-01
1.477435204055736140e+00
1.545763221138329202e+00
7.136324173512571534e-01
-2.048073390000428595e-01
-4.471769695041536985e-01
-1.180217092509143612e-01
2.383745422180725271e-01
3.904025682658118224e-01
4.618025233980416755e-01
5.283761671827482687e-01
4.866064053197954875e-01
2.757439002597910638e-01
1.630929958740006194e-02
-1.315095144447285536e-01
-1.320453392460548270e-01
-5.497336741146575945e-02
1.890133986153787887e-02
3.771237756413280129e-02
-1.733861977710023788e-02
-1.292480871162173806e-01
-2.529833941329178715e-01
-3.373743827078639068e-01
-3.469813018275150762e-01
-2.770594947671076169e-01
-1.641972522028390669e-01
-7.289977499978091136e-02
-3.915275795843915080e-02
-3.026743864767299924e-02
4.266525670097207068e-03
5.437119604116451982e-02
6.583151218969587881e-02
2.326306515338586248e-02
-2.613930574394804363e-02
-2.854937325612334070e-02
2.182446722607939149e-02
8.141633798436576086e-02
1.034801417114715322e-01
8.549972859727025809e-02
5.483986952519618457e-02
1.082879802878673747e-02
-7.710103254255130933e-02
-2.053839632349212518e-01
-3.081223231561304732e-01
-3.083431153711963524e-01
-1.900896457770820391e-01
-2.315341499549989149e-02
8.561058616942023025e-02
8.060033795455937011e-02
-2.209808558848135041e-03
-8.633146517890992466e-02
-1.304420619728638153e-01
-1.526891551590189577e-01
-1.904813443804867223e-01
-2.313477335247467181e-01
-2.116590207326392026e-01
-1.129692522625162648e-01
-4.006924222761836137e-03
5.475686685052056496e-02
7.546505566616633354e-02
5.341515069139538691e-02
-9.807384813577509075e-02
-3.792968270009002829e-01
-4.811519678152014201e-01
2.664682750276033130e-02
1.063839355539626608e+00
1.805886842115843605e+00
1.511538482819948293e+00
4.629969962190063626e-01
-3.877353818593594625e-01
-5.442403277684684237e-01
-2.782268283884453686e-01
-3.558555757484649362e-02
2.009358728776127617e-02
-3.602012214666248935e-02
-8.119240238117172992e-02
-5.150573981777763211e-02
3.026108836374422767e-02
8.634930944105892459e-02
6.121657097174764556e-02
-2.978570812307193214e-02
-1.360117673264428229e-01
-2.350559355676388740e-01
-3.431177350005366611e-01
-4.684549271274434101e-01
-5.627544119136477230e-01
-5.451236945548328938e-01
-3.963516466205989630e-01
-1.947653505429990939e-01
-3.817583552233044797e-02
2.665900712024736954e-02
-7.691329058803243746e-03
-1.271088035385540826e-01
-2.737767791123091321e-01
-3.516236657669118970e-01
-2.971472310676768758e-01
-1.351542126961198520e-01
5.480879306102428433e-02
2.132722343631611728e-01
3.207383081655515444e-01
3.519951937972656264e-01
2.629521501908771430e-01
6.337241876529872697e-02
-1.429864344889708039e-01
-2.514698518679038819e-01
-2.580698847671847318e-01
-2.209667321375450300e-01
-1.642738653518873437e-01
-7.373299971443644796e-02
4.097370459574237178e-02
1.249516966023898612e-01
1.199387762499351667e-01
1.637613649301636332e-02
-1.335890924479559150e-01
-2.436835883369214417e-01
-2.452690986705663434e-01
-1.457340033768825815e-01
-2.713501476228679515e-02
4.352211706444570477e-02
7.212967664389829947e-02
8.511177572635969524e-02
7.758201481782087128e-02
3.923878875921701925e-02
-1.901792387940159576e-02
-9.681691845082489312e-02
-2.326409072142306411e-01
-4.246877442786676782e-01
-4.787259286723331564e-01
-5.742386008336118619e-02
8.817738953462593843e-01
1.728790568769231095e+00
1.700568919224637821e+00
7.908654622465333128e-01
-1.786283260059887412e-01
-5.375324309196386485e-01
-3.528692403368139385e-01
-2.867291986188884312e-02
2.102267688839611071e-01
3.476733744601731568e-01
4.035305039355307488e-01
3.777758304244662191e-01
2.771662338591185382e-01
1.221131425107458979e-01
-6.150951409416258175e-02
-2.347029642191674759e-01
-3.506843352268532166e-01
-3.918888899448613183e-01
-3.763580813017766147e-01
-3.141549727171815132e-01
-1.998883953236225697e-01
-6.321792949024297725e-02
1.894079809285998880e-02
-9.940806795846732213e-03
-1.263009693731669547e-01
-2.571126004824044742e-01
-3.545411413198224504e-01
-4.093923393105739494e-01
-4.014811916411010206e-01
-2.929273254688969930e-01
-9.881540378941747194e-02
8.331347707873884567e-02
1.704901489893664579e-01
1.895012544992749626e-01
2.058291669482242570e-01
1.908504535392941959e-01
5.975163147962642834e-02
-1.646098556908166255e-01
-3.256644431696702480e-01
-3.030443007914868647e-01
-1.491792212697546360e-01
-1.492500424135414019e-02
2.539362246290357422e-02
1.836807506455859912e-02
1.651805655826416724e-02
-5.768297365049787628e-03
-9.372355546755842259e-02
-2.190278509766141468e-01
-2.938844790054400691e-01
-2.688017446696578938e-01
-1.732265610783518262e-01
-5.088216511530314901e-02
9.486524631942386265e-02
2.475423026943491811e-01
3.135729005206642772e-01
1.992158836051147741e-01
-5.648095470990160960e-02
-2.979053536646997791e-01
-3.881224681940380061e-01
-2.947225052772457499e-01
-1.103311770406344428e-01
-1.387045066046893246e-02
-7.721963565070306956e-02
-4.453027578203112846e-02
4.795031722622157266e-01
1.390795807394128003e+00
1.871963876320861919e+00
1.281158688845418059e+00
9.033501050735803783e-02
-6.186712266613507705e-01
-4.239323533473403627e-01
1.893544356743586676e-01
6.150124240220256056e-01
6.792989118848444807e-01
5.391837419638382256e-01
3.698555590956212891e-01
2.083697312818907632e-01
1.140342495156174314e-02
-2.080254010366341111e-01
-3.507093937966591635e-01
-3.427831922892617955e-01
-2.243982938253211989e-01
-9.472332510900033364e-02
-1.577156607274349601e-02
-8.471941110779770967e-03
-9.144572072678508468e-02
-2.586920579782049923e-01
-4.431887851649342069e-01
-5.544117545470437225e-01
-5.287536291426254698e-01
-3.455488782067669407e-01
-7.437858480702394526e-02
1.286829666956617879e-01
1.823215694973717715e-01
1.748490987239130212e-01
2.104872965550120267e-01
2.566511176230633073e-01
2.214180939552468919e-01
1.059571912027699458e-01
-3.046375221284605694e-03
-6.668704862816417223e-02
-1.117007692395539098e-01
-8.866867214814458387e-02
1.328868408307529170e-01
5.111839405132666547e-01
7.283214751234384776e-01
5.272218326536430855e-01
3.547339528973625367e-02
-4.029422392495631278e-01
-5.780448744584899545e-01
-4.948919985491570528e-01
-2.744791253193532565e-01
-6.002431370345100853e-02
7.677325820621061503e-02
1.630156984784340291e-01
2.212892387731876798e-01
1.915013779887969614e-01
2.335236919092107538e-02
-2.050513964216021112e-01
-3.427179006635732161e-01
-3.176309910899593469e-01
-1.854103036632240020e-01
-4.309255427432379798e-02
6.819558296573859091e-02
1.485212119887616977e-01
1.456959035651280432e-01
-1.529947000696461716e-02
-2.147205603989962019e-01
-6.836558786548273259e-02
6.424844526826547497e-01
1.458804263598093121e+00
1.569293715804013889e+00
8.016912650178201760e-01
-1.303784741852038187e-01
-5.114506848570073982e-01
-3.308033531954894246e-01
-1.697985897730994176e-02
1.283052098879728653e-01
8.917476658385820043e-02
-2.287439053914973319e-02
-1.137329128288656482e-01
-1.503023808257562544e-01
-1.548290759259904614e-01
-1.661646299845462860e-01
-1.935745884349921453e-01
-2.183329835688068155e-01
-2.349892126665665271e-01
-2.742672441681318629e-01
-3.753191512532516594e-01
-5.183419011896996942e-01
-5.978214064250242377e-01
-5.205418673222903525e-01
-3.398260122281774875e-01
-2.188933591687322044e-01
-2.315539053379441492e-01
-2.803119705098406911e-01
-2.495596300146339375e-01
-1.552803453610951678e-01
-9.773438390177371926e-02
-1.255591325015567306e-01
-1.858327984750553774e-01
-1.813929866919277711e-01
-5.963738306270548878e-02
1.362969812824994242e-01
2.968638036415939263e-01
3.358023961017234660e-01
2.443886992395691848e-01
6.186626292294077761e-02
-1.643536565174382180e-01
-3.664775799689971580e-01
-4.530079683866558016e-01
-3.781504379110554037e-01
-2.118834542877462424e-01
-1.003418431756332441e-01
-1.162031821373400442e-01
-1.289177902325440994e-01
8.075043679673048203e-02
4.634725031002535633e-01
6.253669825381202863e-01
3.234484723119465666e-01
-1.734972174465972128e-01
-4.499457190680698493e-01
-4.277961854508345874e-01
-2.934514951686427731e-01
-1.746071705882952518e-01
-7.557393473780839310e-02
-1.648958618775842044e-03
1.515347448854971468e-02
-2.572887101708513230e-02
-1.217105848637219795e-01
-3.150102446742159001e-01
-5.662154653212266853e-01
-5.697561592997985036e-01
5.594841243816134346e-02
1.160961323730918204e+00
1.886874238660878556e+00
1.547528008090080620e+00
5.154350505476626987e-01
-2.591288959535648084e-01
-3.752083737537613706e-01
-1.479518739681597861e-01
4.974728903928768431e-02
1.400433940433786495e-01
1.899997480969481956e-01
2.280737984454483391e-01
2.320348165238423077e-01
1.971881160251339193e-01
1.501720375612632941e-01
9.171673731017258857e-02
-1.853458128688719939e-02
-1.934514978621017511e-01
-3.651605608992066765e-01
-4.300533180848041259e-01
-3.555697735523335457e-01
-2.170767946055343622e-01
-1.050142520721678713e-01
-3.978838868600727274e-02
-6.842778131324629004e-03
-1.145687696224191934e-02
-6.508423402183845241e-02
-1.633295932770020831e-01
-2.806794181950164058e-01
-3.497710001783158607e-01
-2.845083408310176143e-01
-8.929363544342021342e-02
1.042164204192159577e-01
2.005368169562520009e-01
2.749215411620543614e-01
4.064640413457227264e-01
4.621300421216063548e-01
2.616058935949068243e-01
-1.083769346050686144e-01
-3.725874919065313429e-01
-4.055661866298572171e-01
-3.070210332329816327e-01
-1.985708251860269780e-01
-9.815785688790906738e-02
1.587485520877074396e-02
1.086072184653512351e-01
9.336981739328772956e-02
-6.981299739702166718e-02
-3.006105529611257654e-01
-4.551019449908269565e-01
-4.559961162472574436e-01
-3.381314964971270376e-01
-1.812265503224513297e-01
-4.643879057932849552e-02
3.362967947873672647e-02
5.215823139001506820e-02
1.649025293179877047e-02
-6.857700164642963059e-02
-1.798624964867877873e-01
-2.504633640279255724e-01
-2.310092346365930360e-01
-1.863497581423250449e-01
-2.297722058488146646e-01
-2.666455194457529876e-01
7.234716626938454687e-02
9.469888219773028304e-01
1.782134508760261582e+00
1.714105394525990977e+00
6.967645459610579683e-01
-3.657254844075251143e-01
-7.160896892534081015e-01
-4.351580181222637345e-01
8.074876762885721537e-03
3.463692328754086058e-01
5.353205030063044045e-01
5.647994621506696733e-01
4.365711050081126920e-01
2.091004823721332451e-01
-3.095972983914018969e-02
-2.184726355827198430e-01
-3.190633134178394448e-01
-3.238438703831513221e-01
-2.515464167757058278e-01
-1.450271670895556808e-01
-5.985182401108557482e-02
-4.320581289872101050e-02
-1.020482643230636866e-01
-1.985634276798940168e-01
-2.939438918558522906e-01
-3.798695550299070467e-01
-4.512877037484003262e-01
-4.753373942018517817e-01
-4.143898750975084644e-01
-2.692045879807342112e-01
-8.302722433674415703e-02
8.997038972567605875e-02
2.091562055156567790e-01
2.514689195230965235e-01
2.152233863141841674e-01
1.287518893137422349e-01
4.402716024025354197e-02
7.149551952626816489e-03
2.598629408836506532e-02
6.403446148332911370e-02
7.395461884234137695e-02
4.800806634390790417e-02
2.548818245576491004e-02
3.076782603456872794e-02
2.018790923762031272e-02
-6.736203658519292203e-02
-2.079280984226192786e-01
-2.920663823317799501e-01
-2.413478203029348346e-01
-8.526467035299295505e-02
7.895084809368321799e-02
1.671598531992847525e-01
1.573152089582381952e-01
8.459691640417893455e-02
-9.771308866750077343e-03
-1.135566011553112570e-01
-2.165882141488973123e-01
-2.733589348100612382e-01
-2.225577115813541229e-01
-5.618652984761579594e-02
1.385029328473841581e-01
2.319318804249591581e-01
1.585405665628486782e-01
6.198772433543692228e-03
5.375880774634231307e-02
5.814120065619574618e-01
1.408431675717235487e+00
1.798234965833580778e+00
1.237933580030509573e+00
1.624026819418130929e-01
-5.274721500257140150e-01
-4.756631023776329292e-01
-3.543144508902452972e-02
3.213711543305022289e-01
4.080007953728278514e-01
2.838572626209778238e-01
8.884725395212235421e-02
-6.561451665588569071e-02
-1.482859802031603613e-01
-1.869470521821564035e-01
-1.935879493838435772e-01
-1.487018403755061002e-01
-7.008855319368056946e-02
-3.640079704180568254e-02
-1.071605641979857387e-01
-2.453658213895776874e-01
-3.496902609629825576e-01
-3.702030940779229562e-01
-3.575790991876210412e-01
-3.667718966621250631e-01
-3.639148668642274709e-01
-2.870044750557466107e-01
-1.573915286541279213e-01
-6.396150679779802339e-02
-5.445649508379368786e-02
-1.009152956373877141e-01
-1.559368127945459093e-01
-1.834665783616485080e-01
-1.533621960188516209e-01
-6.048093599761644734e-02
5.972938473239697982e-02
1.524483836979369511e-01
1.771908254053266296e-01
1.432095470433125406e-01
9.988302463579457058e-02
5.258218318005177666e-02
-5.950270476873356640e-02
-2.441011651649739045e-01
-3.834346473017438139e-01
-3.536624544546140836e-01
-1.798017551547695658e-01
-1.707422447239310276e-02
1.607629781634665328e-02
-4.127040930126622126e-02
-4.470719015785432071e-02
8.811347769451660650e-02
2.592434891295938293e-01
2.683848685084807562e-01
5.693902916876562859e-02
-1.840296053720925640e-01
-2.331683122488682480e-01
-8.938382114647573651e-02
8.007249676003357075e-02
1.553199245013403840e-01
1.341646407584632383e-01
3.082468777839896326e-02
-1.934533382159530079e-01
-5.328409238304996354e-01
-7.622901707030353968e-01
-4.676237030876313483e-01
5.086475302164947809e-01
1.599806328482161311e+00
1.884726437959973744e+00
1.153392767857168710e+00
1.914169590768637907e-01
-2.089932536709387112e-01
-5.942991649448134406e-02
1.655926318407870690e-01
2.128168295004323196e-01
1.627444871657488801e-01
1.333396332099411608e-01
1.246646657190758345e-01
1.076211632608501806e-01
9.711177903958470581e-02
9.988594308915398068e-02
7.101912714510928704e-02
-3.979291842908519450e-02
-2.193373485943091172e-01
-3.849574843976165672e-01
-4.556957080440797725e-01
-4.221856997147466761e-01
-3.323480894773759298e-01
-2.303962222796717696e-01
-1.427674390540174532e-01
-1.006439850415367931e-01
-1.184976934275977223e-01
-1.482686047260142748e-01
-1.197514378396039997e-01
-5.064772957578997370e-02
-4.118396148338310248e-02
-1.176664183317016887e-01
-1.724355858161568944e-01
-1.087625784450962224e-01
4.366355792298431959e-02
1.832932864872295620e-01
2.262484416220784111e-01
1.373827969403805804e-01
-6.084660490780027797e-02
-2.901794684980208983e-01
-4.518873879446097530e-01
-4.855993605141764591e-01
-4.057562933215552725e-01
-2.769112269610979338e-01
-1.470595272128018549e-01
-2.210957206026658781e-02
8.280475508941026463e-02
1.127940813681335697e-01
3.382662685716326945e-02
-1.128270161898285717e-01
-2.500311974802058579e-01
-3.258269548654609271e-01
-3.171115015861673547e-01
-2.177451914516597420e-01
-5.830251992516513604e-02
8.006701588660382340e-02
1.103142250583477452e-01
2.571666962535478634e-02
-7.670465386177827138e-02
-9.882699536860897749e-02
-5.542848037620879548e-02
-5.993088398388894678e-02
-1.986599616282074265e-01
-3.662577111145867703e-01
-2.008068667019247966e-01
6.033724722333551060e-01
1.720562578502719653e+00
2.215994517821262111e+00
1.540856458680562868e+00
2.785219072885313785e-01
-5.206784295549330421e-01
-5.044578895309825839e-01
-1.280670858169573878e-01
1.227491630693557378e-01
1.863292520629523108e-01
2.149761871316439032e-01
2.603712811700139018e-01
2.500589206648046181e-01
1.369134593792240007e-01
-3.133070255745280808e-02
-1.794527095406809047e-01
-2.784207700644498740e-01
-3.301069885428558059e-01
-3.301457772303262317e-01
-2.853240230585976089e-01
-2.298327833923991814e-01
-1.961712579990108063e-01
-2.055301075535669597e-01
-2.785411537464834164e-01
-3.999358718192264628e-01
-5.027904294960295895e-01
-5.376496297483935871e-01
-5.095964387977804932e-01
-4.292732021202049775e-01
-2.910787046515652121e-01
-1.057968288939084150e-01
8.089362200371486011e-02
2.036417150152688704e-01
2.204434835387736324e-01
1.463059817611742364e-01
3.090953690155257005e-02
-8.153671681999580256e-02
-1.640645329970555899e-01
-2.062586712172553016e-01
-2.057101883418426258e-01
-1.612256722857574320e-01
-8.892553861127241999e-02
-2.443176413633837279e-02
5.732203380413152319e-03
-1.300568296504235263e-02
-1.015358433001736643e-01
-2.555520456588907807e-01
-3.949267664128157107e-01
-4.059339440977923208e-01
-2.594054938945531963e-01
-4.810179114591738025e-02
1.114311721283435114e-01
1.827005660645393825e-01
2.002810819617924232e-01
1.830339671750763342e-01
9.565299967485697830e-02
-8.466560641219061933e-02
-2.897314509780519187e-01
-3.828858957107265648e-01
-2.751004983332907550e-01
-4.108473447858441985e-02
9.539380138344921711e-02
-7.973049648040811399e-03
-1.389680910485071585e-01
1.599182482720332699e-01
9.810842409229832972e-01
1.664263394634144078e+00
1.438325742509751093e+00
4.379181432390915063e-01
-4.089778297196442480e-01
-4.984605903930633408e-01
-7.279759251121449559e-02
3.211167699073178561e-01
4.421960025377056902e-01
3.859138421017991316e-01
2.945339664052785689e-01
1.835217627119328787e-01
1.095975721429920391e-02
-1.830556922282683685e-01
-2.839861935566047046e-01
-2.392149431851544883e-01
-1.126402101139860890e-01
2.358067752702114328e-03
5.832058299323647499e-02
4.699837198532157145e-02
-1.903040672239229847e-02
-1.117938781552424571e-01
-2.051249928771760322e-01
-2.839253865483532535e-01
-3.229360648295922509e-01
-2.832123504760741262e-01
-1.654999038190910210e-01
-3.513794395906619933e-02
5.123885095666812217e-02
1.015757162364658850e-01
1.312785031426818849e-01
1.121106273413577520e-01
2.839960375381896454e-02
-6.382345002212017060e-02
-8.362915077529826935e-02
-1.688052411056013835e-02
6.812214539396968527e-02
9.823781327814097575e-02
6.615536026391209690e-02
1.295980108322459558e-02
-3.653022048655298754e-02
-9.727118111705346237e-02
-1.851653845116221497e-01
-2.724045247966759287e-01
-3.039019538689569644e-01
-2.627913434918325297e-01
-1.917278921845159412e-01
-1.333744896369537247e-01
-8.281604660864910761e-02
-2.531492818420320173e-02
1.354961305412398682e-02
-7.780114723742763069e-03
-9.126110401364252722e-02
-1.880865626698499105e-01
-2.336085564879724075e-01
-1.973247208725894264e-01
-1.066989963156907140e-01
-1.088600729505360271e-02
7.410455983860184115e-02
1.485806276923253288e-01
1.458637169209306972e-01
-5.111526167757543537e-02
-3.800787614015566085e-01
-4.241829970207673939e-01
2.372663911677134752e-01
1.321974738381464176e+00
1.844580712075657436e+00
1.234755643230936784e+00
1.303901444453909320e-01
-4.153657874471675671e-01
-1.665564547126982542e-01
2.963996396683458157e-01
4.480942082728209264e-01
2.751229622466378477e-01
7.513143395089835752e-02
9.202002776772563730e-02
2.970507749507916295e-01
4.411331189321439639e-01
3.567717555003961372e-01
1.454785770657911759e-01
-5.980467006921589765e-03
-6.598628931775873951e-02
-1.243600292676971114e-01
-2.307799226914333257e-01
-3.450343049660763994e-01
-3.971148417027526856e-01
-3.514809117270838446e-01
-2.304355272372570207e-01
-9.898510012038280736e-02
-1.419656318025825856e-02
1.650360251076275764e-02
1.036244272393850585e-02
-3.536360435233080329e-02
-1.237847314122526021e-01
-2.139106858422405444e-01
-2.411435647228392654e-01
-1.762598708797873392e-01
-3.793739400498193776e-02
1.268800647961817463e-01
2.445498132619083886e-01
2.439328075143995800e-01
1.244020915353962753e-01
-4.666386659050841823e-02
-2.103188747759542621e-01
-3.367827049435730968e-01
-3.936897868050158733e-01
-3.609788260365880963e-01
-2.628490185574899329e-01
-1.465215841166299660e-01
-4.744562317532781404e-02
1.302636555553676398e-02
2.336722202546504673e-02
-1.766580969087754721e-02
-1.076659109352374466e-01
-2.300993810252252025e-01
-3.282350182092210189e-01
-3.317126380384052275e-01
-2.336136611927127626e-01
-1.038924693681722577e-01
-7.192392510083078783e-03
6.373342792402358903e-02
1.538517898175349174e-01
2.529786895253875456e-01
2.708818844204844423e-01
1.281536722784235860e-01
-1.615840105329393317e-01
-4.743639481414183567e-01
-5.325791311634153757e-01
9.168316089346782716e-03
1.107864602431501311e+00
2.011566336104184227e+00
1.887024846163145364e+00
8.319291253755962678e-01
-2.246662248320848432e-01
-6.273167912241868205e-01
-5.028251825253386986e-01
-2.501427291019530652e-01
-3.896255097386067817e-02
1.470674165602974537e-01
2.996752549377799113e-01
3.546963787431202664e-01
2.865368728519120389e-01
1.409237219927699514e-01
-3.102864099037566659e-02
-2.099572799982746263e-01
-3.675662082088121951e-01
-4.544261563270112214e-01
-4.529088394600804812e-01
-3.946109075996347415e-01
-3.130417447279388865e-01
-2.227606082217662431e-01
-1.456706106153050351e-01
-1.144763251615598804e-01
-1.497468347801845512e-01
-2.490762489472107821e-01
-3.783022218672264514e-01
-4.700539997772724132e-01
-4.567923548267894263e-01
-3.137204549227480266e-01
-7.638632115853782878e-02
1.730715718752463272e-01
3.479446164784081863e-01
3.974497757176462254e-01
3.171296066734371477e-01
1.410281853293934295e-01
-7.181741991964075977e-02
-2.525568035617001827e-01
-3.366613053181549131e-01
-2.946538244599500311e-01
-1.646862661609296008e-01
-2.749254952246977385e-02
5.567609148259129725e-02
6.072247239489916848e-02
-7.652432287024470842e-03
-1.090254602211219032e-01
-1.950711593585563453e-01
-2.605893540512395079e-01
-3.267873575072647863e-01
-3.823574444330701816e-01
-3.724436641152494287e-01
-2.435964175979546398e-01
-2.008963749824375575e-02
1.633752795039232208e-01
1.724835080032891543e-01
1.737510769832564111e-02
-1.741379574569435762e-01
-2.948053907045719013e-01
-3.187512592207411566e-01
-2.727213002281095311e-01
-2.167109123959785888e-01
-2.301503861404250451e-01
-2.863803745974324300e-01
-1.065025376324868628e-01
5.946906172473972463e-01
1.518724578860986441e+00
1.806852387427164919e+00
1.042827853555932327e+00
-1.199625180801211499e-01
-7.265715327092495679e-01
-5.466246554003626468e-01
-2.948396218249901835e-02
3.700095978137761255e-01
5.146943504796624991e-01
4.696873222589279528e-01
3.391957870481843718e-01
2.210887019315108670e-01
1.875060520399856323e-01
2.158711223739844809e-01
1.876468309421588931e-01
4.266936512678361215e-02
-1.220056243442890764e-01
-1.825982178437542125e-01
-1.372928285995952125e-01
-6.983780684324915333e-02
-4.983369673413800410e-02
-1.031812118330742711e-01
-2.155926737231476653e-01
-3.328158803356505713e-01
-3.856333862124842193e-01
-3.442771446232841259e-01
-2.378799995020026981e-01
-1.066052480421728066e-01
3.054995509947244087e-02
1.459710389723546664e-01
1.926727674886594688e-01
1.519580089033940595e-01
6.880514891755055984e-02
1.813574028342663375e-02
2.866609375611327976e-02
5.119483074544663170e-02
2.557645660785743194e-02
-3.720736478900074640e-02
-7.595890236182155364e-02
-5.477746483690120599e-02
1.563779680811624301e-02
8.831614310700086623e-02
9.178531377325138685e-02
-1.255925637344366963e-02
-1.668814542173653881e-01
-2.509289315852564206e-01
-1.950536266215194270e-01
-4.650791185596454824e-02
7.900365795970874794e-02
1.078928866570940948e-01
6.862429796298211149e-02
3.765378690788019622e-02
3.615299792099010978e-02
5.425904290819323975e-03
-1.085255469978265719e-01
-2.699752579871020353e-01
-3.743516631338059675e-01
-3.438798599291238434e-01
-1.913018160827466008e-01
-2.376677075798195107e-02
4.236561385982350048e-03
-1.469847700374031230e-01
-2.107704672038073490e-01
2.190103798944145752e-01
1.089176900826058336e+00
1.659004424995362381e+00
1.292416086244209561e+00
3.261995281465701613e-01
-3.341352405118332980e-01
-2.976665254034798203e-01
9.856536589893809264e-02
4.078587242859835760e-01
4.621260911346227185e-01
3.106986099140968682e-01
9.624230910717783416e-02
-4.843888985552184667e-02
-1.081889256599319615e-01
-1.543431920780429789e-01
-1.987566236328354163e-01
-1.786283646574218231e-01
-8.920204652721516747e-02
-2.370808935609322252e-02
-6.533698560622176743e-02
-2.077649812345038483e-01
-3.760869031941482254e-01
-4.823843375960114588e-01
-4.822405410321891628e-01
-3.986404133056103416e-01
-2.764147314415457135e-01
-1.383457002606810204e-01
-1.333481407296784917e-02
4.284277824523756439e-02
3.621591319120244512e-03
-8.394615564944710173e-02
-1.490390572253377788e-01
-1.669045231835143972e-01
-1.504278865316877045e-01
-1.006416320434751488e-01
-8.804914986096342225e-03
9.476804838149802124e-02
1.403699009113471841e-01
9.733734894306302066e-02
1.299803248689259880e-02
-6.514015230049220728e-02
-1.527112777873004534e-01
-2.640908214296111556e-01
-3.451157888481475311e-01
-3.320429732554532332e-01
-2.351405548575226379e-01
-1.168867575660531566e-01
-2.025485589296590824e-02
4.504507641045945449e-02
6.735165097785807131e-02
2.196555741056531452e-02
-9.997528961671030279e-02
-2.630661813982040353e-01
-3.940108368837472730e-01
-4.300808686810543291e-01
-3.621088128793749084e-01
-2.169163689473643242e-01
-2.746492928097897870e-02
1.516489426452559408e-01
2.460353074914166382e-01
2.101762650046084535e-01
3.495791058819273933e-02
-2.551870214796602143e-01
-4.823468338152874790e-01
-2.642814669439989550e-01
5.880284647122180353e-01
1.557904131620008403e+00
1.756143204220117049e+00
9.831639893097154914e-01
3.526308070791100979e-03
-4.318047864361511112e-01
-3.389821877335485456e-01
-1.384902125310747412e-01
-4.146428849968165214e-02
2.372604455135771465e-03
5.282677966541459574e-02
8.516915710646381921e-02
6.995348968691840474e-02
3.065704578020362822e-02
5.264877649556699499e-03
-1.205211927780263335e-02
-6.733190189760639155e-02
-1.876215011588137915e-01
-3.338998369427765289e-01
-4.229063392509613273e-01
-4.029137235717283327e-01
-2.979511302601696721e-01
-1.722772978668120902e-01
-7.573184211745802308e-02
-3.179767622252659826e-02
-4.476397593366045896e-02
-1.038726332835610555e-01
-1.925743022111253144e-01
-2.836575223994698414e-01
-3.244484422018444336e-01
-2.582478701902352625e-01
-8.172283492135702654e-02
1.241630998930383645e-01
2.497524387455710704e-01
2.590793638155134970e-01
2.014344621748196951e-01
1.163526659978887240e-01
-5.663466157824745273e-03
-1.558440813322289620e-01
-2.706031443075272436e-01
-2.812578323043474771e-01
-1.671963619388956712e-01
2.784690802881068655e-02
2.116578326144621380e-01
3.019209306019726702e-01
2.766756345872865563e-01
1.536978991381796333e-01
-3.751439213822554963e-02
-2.296899869554066553e-01
-3.273902841981193856e-01
-2.927451658926367162e-01
-1.778599023029062143e-01
-5.391936447195731785e-02
4.465425173146982812e-02
1.059366213177876243e-01
1.224882101528907974e-01
9.636637820223406536e-02
3.309033201019280501e-02
-6.152793294406269653e-02
-1.609348189691054698e-01
-2.408619635713489249e-01
-3.337212638642628737e-01
-4.293180708156968395e-01
-2.665514707785313075e-01
5.083743842335550767e-01
1.695401716585521301e+00
2.335392456530855032e+00
1.700215419095982172e+00
3.179629103621730568e-01
-5.987013356912167517e-01
-5.614412270908410996e-01
-6.764724099959727732e-02
2.888582266148046473e-01
3.878870526322254486e-01
3.772514090784135354e-01
3.436824472415376253e-01
2.775293397707208620e-01
1.756581433039333950e-01
6.099577428917754562e-02
-6.403767298177316658e-02
-2.049238736930162064e-01
-3.139535628239175091e-01
-3.144511247062699577e-01
-2.086581207973137730e-01
-9.981444443858548954e-02
-7.296543618132736442e-02
-9.831464793065380903e-02
-1.026263880923956873e-01
-1.000473640179378038e-01
-1.645401390631829330e-01
-2.868016839722480893e-01
-3.620027028524334112e-01
-3.265382317678224844e-01
-2.188571095578664694e-01
-9.712325718893716209e-02
2.384788850000814364e-02
1.379831937522255914e-01
2.147351945016634511e-01
2.213695522839157215e-01
1.448946389762439113e-01
-1.272706556925439977e-03
-1.609863571057865150e-01
-2.459524313905079307e-01
-2.028658005831064925e-01
-7.042676258432793712e-02
4.932374257451639654e-02
7.886139916434908859e-02
2.009018901791025796e-02
-7.013800047612045452e-02
-1.430010413204127750e-01
-1.921963163271148411e-01
-2.374503134463545329e-01
-2.793265777054237398e-01
-2.753695688193616986e-01
-1.840226980877051333e-01
-3.159964496295673830e-02
1.021493575815465710e-01
1.602696991807733562e-01
1.303656824095520694e-01
1.734814670155968366e-02
-1.506173256175291075e-01
-3.010844914812951245e-01
-3.419190638768568324e-01
-2.334950687236085343e-01
-5.481196717941021201e-02
2.733754779585033379e-02
-7.046176742980650443e-02
-1.552538038203113147e-01
1.688894204780964081e-01
1.002439673579524237e+00
1.744213921655021649e+00
1.599702972617623731e+00
5.975053836167689703e-01
-3.758512050449203112e-01
-6.356316215825114080e-01
-3.045131458274613623e-01
1.319407911005849865e-01
3.803591044430060242e-01
4.009985951650495428e-01
2.582065815820344667e-01
4.806507542158373891e-02
-1.277726528752067547e-01
-2.100562611057084916e-01
-2.112466237959625404e-01
-1.791825589931979879e-01
-1.426387383576879220e-01
-1.112709402589717317e-01
-1.027091611664070758e-01
-1.306839672317700596e-01
-1.860018030978400350e-01
-2.573886644313095884e-01
-3.416657842415830593e-01
-4.150739865751751911e-01
-4.308468181827507237e-01
-3.622013347768862634e-01
-2.292444604794305618e-01
-8.434949328719812400e-02
2.359139581865007246e-02
8.043326543412168683e-02
9.895127655600605143e-02
8.103578168919803315e-02
1.580409825799201223e-02
-7.068577819168744836e-02
-1.015510608637550383e-01
-3.326072719037574676e-02
7.090172434502119148e-02
1.100898403373649775e-01
7.202321438457626179e-02
3.731842987154028457e-02
5.625564462450496211e-02
6.536745413173389307e-02
-2.823507129821470341e-02
-2.006065608269335665e-01
-3.220190040857823233e-01
-3.108376134526498746e-01
-2.041740696404684974e-01
-8.039042389057290960e-02
1.708417851577402960e-02
6.667978687296634288e-02
3.650413126702915789e-02
-8.464222494018551479e-02
-2.382107644214316589e-01
-3.394129042372978633e-01
-3.704530909042652587e-01
-3.597779452722443816e-01
-2.889133819043717133e-01
-1.258504816804972282e-01
6.987079648600495740e-02
1.749185876915284876e-01
1.047658962973980479e-01
-1.440366404787314369e-01
-4.222342196228146549e-01
-3.647179174598474960e-01
3.139390323652710424e-01
1.274091832957284343e+00
1.655618983310328307e+00
1.064560875547391205e+00
1.067364262334753455e-01
-3.841965466100414894e-01
-2.504218545565697895e-01
1.043808196515517983e-01
3.127278852003668175e-01
2.949550854167920511e-01
1.607383777533209213e-01
3.587763014097968689e-02
-3.299349518661956471e-02
-5.031945395622012401e-02
-2.046699345387350405e-02
3.122159049963097593e-02
3.872185873812827861e-02
-4.719379179653399037e-02
-1.979508618829439737e-01
-3.291218329702140788e-01
-3.831870125498790802e-01
-3.803902947144238156e-01
-3.667042671832294043e-01
-3.275505243327814231e-01
-2.135324946990204142e-01
-4.821644475849398703e-02
6.015699368134345970e-02
3.340555059394101356e-02
-8.873071536159003736e-02
-1.985155752414954067e-01
-2.356685562915730725e-01
-2.119852966684092066e-01
-1.419598329223969724e-01
-2.220919500177242351e-02
1.214284432013413711e-01
2.309875564210984999e-01
2.640743738852255884e-01
2.118551332741830662e-01
8.688973420163367822e-02
-7.540247580313040598e-02
-2.152366471981106699e-01
-2.837231229264939869e-01
-2.874635986437532043e-01
-2.698083696202653314e-01
-2.443698285204389531e-01
-1.882300523470970544e-01
-1.025773621109961203e-01
-2.687228967023479881e-02
1.084535335094441444e-02
3.633982860302590462e-03
-6.516431584420283307e-02
-1.943300468080840226e-01
-3.179870193671116563e-01
-3.522383701628684638e-01
-2.783692547926417404e-01
-1.457391399226408146e-01
-2.283779125593066520e-02
3.524069690454614129e-02
1.572593245963888053e-02
-4.133174447823305397e-02
-1.115667063605391418e-01
-2.504523869797316005e-01
-4.727445569637029332e-01
-5.299933874508159226e-01
-2.143003909826695849e-03
1.120295237654828746e+00
2.043895052373269738e+00
1.852484171405402336e+00
6.685275132049195435e-01
-4.019524346546597404e-01
-5.859897822732814676e-01
-1.516260916919676682e-01
2.457297121730405709e-01
3.553266694979375084e-01
3.215429866243140200e-01
2.941543590011274634e-01
3.098331103464169733e-01
3.877377397372804291e-01
4.951811538157231407e-01
4.800975114464937632e-01
2.373602573385651393e-01
-1.100326271755808216e-01
-3.435286384807050841e-01
-3.821867737528256703e-01
-2.935206071665404925e-01
-1.792034994208536458e-01
-1.109792403749942369e-01
-9.503713794779289348e-02
-7.472882199985100837e-02
-2.567699085198284215e-02
-1.827155220532287669e-02
-1.148698023810467567e-01
-2.548059733821490536e-01
-3.125698801962977225e-01
-2.290265312645927698e-01
-4.724264733894370516e-02
1.464541261237809477e-01
2.952726743257948483e-01
3.902565670776302342e-01
4.182271281955268760e-01
3.283356153271007050e-01
1.021903594137840987e-01
-1.648395247606587455e-01
-3.201752228020536828e-01
-2.998815261049393444e-01
-1.822748008280389020e-01
-8.908401710258256889e-02
-6.027024305627307066e-02
-5.286152835979969489e-02
-4.142724672695125010e-02
-5.923057213484082817e-02
-1.297513041833170677e-01
-2.137160140414578746e-01
-2.533762595818839225e-01
-2.336309813983022954e-01
-1.692513470102354201e-01
-6.306014120109632026e-02
7.316497944664010489e-02
1.725086626016504587e-01
1.533043749051293536e-01
1.162189052098672529e-02
-1.684768617147389402e-01
-2.863200697431073083e-01
-2.852468562919991402e-01
-1.897994313847296555e-01
-1.169142909415098325e-01
-1.725139523049655232e-01
-2.365156811742204490e-01
6.644586984990619172e-02
9.155173844085312540e-01
1.777720953071680654e+00
1.770986939151647288e+00
7.574982865965633749e-01
-3.861187706018584520e-01
-8.159601484819596351e-01
-5.586306682945316737e-01
-1.466894517753413174e-01
1.074604467997402474e-01
2.696177289922586651e-01
4.804896418581371953e-01
6.950842119947562292e-01
7.256693852781385123e-01
4.787102972135166556e-01
7.001901660988804621e-02
-2.967196766493742643e-01
-4.867719289213346401e-01
-4.754743607150716533e-01
-3.335347277129322441e-01
-1.937947819472448097e-01
-1.628407821057834270e-01
-2.413398608439855375e-01
-3.527146033998598829e-01
-4.315140076677852488e-01
-4.647483444837458566e-01
-4.713671253730249422e-01
-4.493653265903236327e-01
-3.500170977359527980e-01
-1.540890979133038019e-01
4.848903690846031317e-02
1.437980445654287731e-01
1.215699634544440411e-01
4.232888222274741596e-02
-5.065796234110822582e-02
-1.278991333837799504e-01
-1.594386329216925802e-01
-1.498595473968640512e-01
-1.387396471829521194e-01
-1.424839222697154573e-01
-1.255044865329967285e-01
-5.047806728131237070e-02
4.178561527623770450e-02
2.897120479565774842e-02
-1.593782599935984479e-01
-3.990317399603988680e-01
-4.487323836094905261e-01
-2.285698447632865948e-01
6.350347132295869335e-02
1.961567814265721965e-01
1.623295436013576509e-01
9.667744389173590913e-02
6.033005755586378499e-02
1.261578460816338218e-02
-9.102086287087632344e-02
-2.387023038648367068e-01
-3.619057251781027662e-01
-3.884148501489735894e-01
-3.059617477917990214e-01
-1.552240283742304661e-01
6.560841837755211972e-03
8.583577329722816285e-02
-2.342747960691713219e-02
-2.573607067190546438e-01
-2.534946856683425453e-01
3.456663616850335630e-01
1.298015429136771370e+00
1.752514263929897398e+00
1.191900734491751823e+00
1.309400874989904706e-01
-5.176924285144485216e-01
-4.671844740725742406e-01
-9.102336608349351210e-02
2.050015277783273082e-01
2.798616083809275512e-01
1.557487896197298494e-01
-6.392748528126904195e-02
-2.112206385930273100e-01
-1.697967578597694427e-01
-1.935632548289691057e-03
1.143024375893353234e-01
7.780713749701949344e-02
-4.385314352873465049e-02
-1.186682475610487536e-01
-1.173760867929196372e-01
-1.348320641120724916e-01
-2.448344128526008801e-01
-3.950401727294722831e-01
-4.745758251153419649e-01
-4.280799734273488255e-01
-2.683635820837956265e-01
-4.560093641570578393e-02
1.475963880264748174e-01
2.059742680975489848e-01
1.023400031829253681e-01
-7.788037478519320433e-02
-2.120892131447631446e-01
-2.355544710508698791e-01
-1.642519971540642165e-01
-4.881090083872000052e-02
7.293761145790123024e-02
1.794552925990177128e-01
2.481799060610945518e-01
2.516372743616187013e-01
1.703118843973822627e-01
2.394721384588429855e-02
-1.152528638328478572e-01
-1.821696188422898544e-01
-1.879137770499164639e-01
-1.894105168786763549e-01
-1.976655215750707795e-01
-1.537492130388809775e-01
-7.979011397757938828e-03
1.919626978307484300e-01
3.182852270276992912e-01
2.757323185434625290e-01
7.837477684188154381e-02
-1.689205560632819347e-01
-3.310381187050498997e-01
-3.231586086074544895e-01
-1.808079167471137727e-01
-2.513213292694210441e-02
6.415034475361688915e-02
1.123285208906248805e-01
1.715083545521722264e-01
2.098875133142572014e-01
1.183449999724707213e-01
-1.496997747888227093e-01
-4.246468495677241939e-01
-3.385674671789700163e-01
3.278848427538845756e-01
1.196902397781530070e+00
1.476486868979325129e+00
8.857310241454890987e-01
5.767016600173344165e-02
-2.868714853680584542e-01
-1.307265460298887849e-01
1.174285790161714305e-01
2.237548433340773024e-01
2.173853825210662616e-01
1.845604660625337623e-01
1.675224918881018099e-01
1.686839576848335742e-01
1.751097171811182296e-01
1.807095892044516539e-01
1.658019892552511088e-01
7.789439230003544767e-02
-1.010339508362572414e-01
-2.935617635564742312e-01
-3.916053292562514665e-01
-3.570443833448616600e-01
-2.396546552544123465e-01
-1.222957375815824088e-01
-4.148108941710047098e-02
3.678980383884612737e-02
1.251953940274197485e-01
1.405020518062697621e-01
8.994053688467925148e-03
-1.927155665336346690e-01
-2.981469492416572442e-01
-2.278638672227300821e-01
-4.439148122664938328e-02
1.431760223373333696e-01
2.766298335416980114e-01
3.472247414911792673e-01
3.376954709603425253e-01
2.191194064570769207e-01
1.380010253813395218e-02
-1.901535148704007749e-01
-3.067087863426265493e-01
-3.023356829970296755e-01
-1.930231732007551271e-01
-3.649652196476107363e-02
8.856041929936611656e-02
1.351410338581857107e-01
1.127070583298999257e-01
4.734738976275149752e-02
-5.743555339218639477e-02
-1.977960336282766629e-01
-3.238869932561553866e-01
-3.572459980151422299e-01
-2.727991321659279933e-01
-1.371787363393837667e-01
-4.225228886803945177e-02
-1.920581414711476295e-02
-3.479038437430184705e-02
-5.069194653385646759e-02
-5.671610907222851550e-02
-5.501184804385991084e-02
-6.285706629934745271e-02
-1.465717996149621394e-01
-3.571307767848388992e-01
-5.239969277829061856e-01
-2.232394355782389983e-01
7.462105088021194765e-01
1.818687080111796694e+00
2.021600721692578428e+00
1.098233881973624149e+00
-1.353061382921934008e-01
-7.589606191623241571e-01
-6.445580638467514056e-01
-2.422577752939994444e-01
7.017465513493308105e-02
2.114510024458017001e-01
2.458435373963255843e-01
2.294661048628150735e-01
1.685756096047391628e-01
4.753585734356674530e-02
-1.181776247539243485e-01
-2.655633763569393846e-01
-3.397872536371263075e-01
-3.506025795269568368e-01
-3.429710266137744878e-01
-3.296205395624949852e-01
-2.924618989593628648e-01
-2.361224617084325406e-01
-1.950163217713458963e-01
-1.928684561332476011e-01
-2.277640879984847710e-01
-2.873498903325911735e-01
-3.533362884263619996e-01
-3.936972653343413509e-01
-3.650511597131477215e-01
-2.374423356104631844e-01
-3.193180230685056797e-02
1.678868850681685676e-01
2.677575407814734576e-01
2.414301675361335831e-01
1.395038289956318234e-01
1.894346962596443751e-02
-1.012523054686524648e-01
-2.113890614980520333e-01
-2.784228015650322408e-01
-2.639624224425039523e-01
-1.668599257854310458e-01
-2.948381631366122149e-02
1.023139693747047996e-01
1.901374433039622058e-01
1.766893098027034481e-01
3.323375865519809236e-02
-1.589413637349758324e-01
-2.655007484374716231e-01
-2.350409703729254840e-01
-1.209695751798955804e-01
-2.900414420917232956e-03
7.003515346864937208e-02
8.831343878087140331e-02
6.257660188362075548e-02
-1.089062207742872573e-02
-1.501954763318984198e-01
-3.309930777359049725e-01
-4.554711640184971322e-01
-4.231659721330708335e-01
-2.449237427326756700e-01
-7.601030483485346489e-02
-9.462713405419019563e-02
-2.608704047631523748e-01
-2.064384511609714812e-01
4.080932744258534695e-01
1.292456642550195323e+00
1.603192572514116288e+00
9.278880614815491201e-01
-1.297748149399805817e-01
-6.847879137810927164e-01
-5.337540005674409338e-01
-9.052924617215730996e-02
2.531091315320217472e-01
3.880544374370851202e-01
3.488800433339403484e-01
1.896172984740289169e-01
-2.338042835626399224e-02
-2.078660950629165061e-01
-2.984738989787881769e-01
-2.819613792054534440e-01
-1.959732901032293917e-01
-9.834368079792732420e-02
-3.545347769238496594e-02
-2.334178986035859160e-02
-5.563074205614176176e-02
-1.284057757612271922e-01
-2.331226884790677245e-01
-3.338144655856955523e-01
-3.924499737199746985e-01
-3.968039472074429419e-01
-3.346021691340477222e-01
-1.914314695714426084e-01
-1.666077407410516964e-03
1.502917792871638625e-01
2.041794641336979188e-01
1.736754880020824343e-01
1.142908321899000212e-01
6.677243321531464715e-02
4.923336601552349978e-02
7.663203500820128800e-02
1.467827076858632673e-01
2.164482452054615758e-01
2.301412349117010203e-01
1.746837921707384278e-01
8.275419106229435495e-02
-1.040955207208283349e-02
-9.143716998413872754e-02
-1.551473408341393634e-01
-1.889152486457690849e-01
-1.816377221713973145e-01
-1.370641569190283182e-01
-6.485346837466399172e-02
2.681697197664354576e-02
1.147716483302856222e-01
1.544757563523296851e-01
1.088895492896063411e-01
-1.257517794090244265e-02
-1.476075490461024320e-01
-2.255605675120799236e-01
-2.217586398007144466e-01
-1.627988499466887229e-01
-8.356727822574172571e-02
8.436346255713768685e-03
1.120113586165606967e-01
1.731272937348008190e-01
7.816006299093067322e-02
-2.082656879467905120e-01
-4.241180491721656121e-01
-7.817163021844654447e-02
9.399939479573006240e-01
1.884007174672483353e+00
1.814657032248679025e+00
7.988170010755613060e-01
-1.402586227419597431e-01
-3.017170822045812106e-01
5.917441579244915595e-02
3.500214363692289998e-01
3.390281591630052160e-01
1.695183859810067695e-01
2.775561881560314678e-02
-3.735075767850787321e-02
-5.240721107893685227e-02
-2.045071804289047557e-02
6.671802458078872344e-02
1.704733997011345648e-01
2.089673841709473456e-01
1.208066472658337887e-01
-7.606670040653368270e-02
-2.852298013308985358e-01
-3.973983224299593719e-01
-3.702693447238750712e-01
-2.580621258939804208e-01
-1.567796148820568281e-01
-1.112860164435036103e-01
-9.473956936669389317e-02
-8.244284101527127318e-02
-1.020283873545873438e-01
-1.851845728212303255e-01
-2.992579630904019239e-01
-3.620651116595985930e-01
-3.218184743588550223e-01
-1.955962331707987167e-01
-3.196781728122348454e-02
1.279461040199991462e-01
2.475032975715645844e-01
2.849751637527466186e-01
2.098536450178641599e-01
3.584974259038009592e-02
-1.714585174754478525e-01
-3.342157934147997334e-01
-4.032417886174618493e-01
-3.657548121741435176e-01
-2.516732261391624315e-01
-1.328072903328542109e-01
-6.680828562233709356e-02
-4.358309008224903192e-02
-3.041280344500374086e-02
-4.555721663015059597e-02
-1.303980102308505973e-01
-2.643163847635564556e-01
-3.611597944295919516e-01
-3.563551174237336028e-01
-2.619987036743245956e-01
-1.312943446516673662e-01
-1.044433423676157519e-02
6.722500279803361733e-02
8.406267936568355414e-02
4.801221601564120700e-02
-3.201992652397529088e-02
-1.856376660366275688e-01
-4.243989217179527929e-01
-5.692449095835762085e-01
-2.355672877440203872e-01
7.360153418808716985e-01
1.787691373410260409e+00
1.994074782925006728e+00
1.143868463115724543e+00
5.087177398481518287e-02
-4.471090318462937474e-01
-3.228159655402531025e-01
-2.973927384781069327e-02
1.526191760807949216e-01
2.250296321795789145e-01
2.439652485963041406e-01
2.274601756048137413e-01
2.034303542127227915e-01
2.046155758286657411e-01
2.011961420059472927e-01
1.144700217903470568e-01
-7.337099563803069213e-02
-2.652154327491018093e-01
-3.430305926209222256e-01
-2.965783896824241150e-01
-2.129484716914898934e-01
-1.563276529832276773e-01
-1.176414284366262969e-01
-7.560758996542436827e-02
-5.212766089567939104e-02
-8.649577317935763787e-02
-1.769854736380850613e-01
-2.714656070257340237e-01
-3.064216420979946620e-01
-2.428214395778561518e-01
-8.701401413039969168e-02
1.010447202904852931e-01
2.420894473271694158e-01
3.052480994511050927e-01
3.140456717073591419e-01
2.695130361207384029e-01
1.325270480315521027e-01
-8.150065307346299193e-02
-2.603892634455808874e-01
-2.991143737459236451e-01
-2.102951687183430007e-01
-9.477126782339966027e-02
-2.393659720216852194e-02
7.287419237486636100e-03
2.304726231239164966e-02
1.387149162575254321e-02
-5.662510507131117421e-02
-2.116874685074108808e-01
-4.033588421100009480e-01
-4.985983553624842024e-01
-3.914750639170896940e-01
-1.417753148913429573e-01
7.288362860706443236e-02
1.533483496032596316e-01
1.407492323275599810e-01
8.446461280849840159e-02
-3.147318492287602687e-02
-1.980891145568084710e-01
-3.182912441661904235e-01
-3.019749976031877448e-01
-1.964958737506607434e-01
-1.549050950179365893e-01
-2.040540707469250814e-01
-6.507936165563259212e-02
5.856286113014197436e-01
1.523007874149248098e+00
1.922613295823126567e+00
1.268673407881951487e+00
7.196183913558815148e-02
-7.124994292843156440e-01
-7.136371842963077361e-01
-2.589253205471018227e-01
2.062228163973368056e-01
4.684543828003305266e-01
5.098736919852461247e-01
3.999809803494238092e-01
2.271927046852268706e-01
4.536733070578941734e-02
-1.320642654006592975e-01
-2.844603604887812054e-01
-3.610990266564984008e-01
-3.289512181382212019e-01
-2.266652697330499011e-01
-1.364832147508196480e-01
-1.020624618147812357e-01
-1.114908474579530268e-01
-1.537992638540762735e-01
-2.289151294635794753e-01
-3.053111033702386456e-01
-3.411242773927117833e-01
-3.436947312284565625e-01
-3.442979128897648566e-01
-3.302755414721713634e-01
-2.593620030060393433e-01
-1.277976652765950294e-01
1.443892324760239973e-02
1.117445534885224412e-01
1.478619580536257583e-01
1.351803230352243979e-01
7.093154797738213113e-02
-5.295268347072147608e-02
-1.846641482656186106e-01
-2.218529104302719435e-01
-1.286844612467567817e-01
1.970859344587117673e-03
4.354958084738876078e-02
-3.717619614539337258e-02
-1.778486828544259546e-01
-3.090793965041931934e-01
-3.917554542285900387e-01
-3.969711676258095845e-01
-3.350404347371122027e-01
-2.819230227495512220e-01
-2.826527681725514163e-01
-2.777855369422695953e-01
-2.199364756945749733e-01
-1.694921779818610863e-01
-1.840875374999006164e-01
-2.290888623081016873e-01
-2.633573771070510938e-01
-2.985915934038243513e-01
-3.264678460359874967e-01
-2.747461596573985143e-01
-9.482480950604017800e-02
1.236114757779923357e-01
1.774942380443841894e-01
-3.256104237189225148e-02
-2.588867192235433379e-01
-1.589998086298793217e-03
8.867730626453457221e-01
1.728198263748818686e+00
1.622036685114686350e+00
6.097083287023489229e-01
-3.179968749682885454e-01
-4.537835193369378350e-01
-2.643059638723811722e-02
3.898662743132996766e-01
5.382519771624040272e-01
4.730413774181373987e-01
3.076186092220510315e-01
1.306068192119131111e-01
6.203675947661797634e-03
-4.655327038808905471e-02
-4.736991362746489909e-02
-2.454104211409585679e-02
-4.725512530184647342e-03
-1.027507332470711104e-02
-4.551473210604528585e-02
-9.309654924745960902e-02
-1.411664883144970739e-01
-2.039691855533367071e-01
-2.865491650185180150e-01
-3.426646177514794389e-01
-3.101200795176182190e-01
-1.798317535948130985e-01
3.926596341558129949e-03
1.859559333471021147e-01
2.995196872384164322e-01
2.702754175258658131e-01
9.822079270551770103e-02
-9.616985492042234851e-02
-1.757559225219647581e-01
-1.091849025345537766e-01
3.942222946215356849e-02
1.849231675288478538e-01
2.543344705610737222e-01
2.110569423414428158e-01
9.081971707869108956e-02
-2.944593543240764041e-02
-1.162706611996270623e-01
-1.914966276878539986e-01
-2.694638624608254873e-01
-3.228692737624492270e-01
-3.018718133507064527e-01
-1.839328688360821196e-01
-2.102519456378655269e-02
8.840223270772423758e-02
9.467194718590066227e-02
3.112533174193121005e-02
-5.222512543673635960e-02
-1.372187003102349201e-01
-2.065473808932699329e-01
-2.203243412576899873e-01
-1.578226868147393769e-01
-5.152807533493890257e-02
4.683100456109194620e-02
1.147731551236700342e-01
1.564637634910993613e-01
1.535757278486509780e-01
3.533647807876121039e-02
-2.309898307341610446e-01
-4.509866462196427395e-01
-2.112617581303153358e-01
6.624987626867228085e-01
1.628132291561747547e+00
1.802914117444637920e+00
1.011372517880423372e+00
4.214080125874655747e-02
-3.305574989035222622e-01
-1.263492847811013564e-01
1.725170707071515264e-01
2.671360695004629249e-01
1.839106195196433258e-01
6.661672870434873217e-02
6.790367804139406382e-03
7.341046187378172383e-03
2.699061911162156310e-02
3.432280500431438008e-02
1.568146767584391657e-02
-4.686047084985166949e-02
-1.683208922506349570e-01
-3.229796486631070773e-01
-4.439802330210109726e-01
-4.797045260784005283e-01
-4.299193802567230493e-01
-3.213583320534466048e-01
-1.798333240684940604e-01
-4.033917171541119562e-02
4.011356006978494815e-02
1.431809568223654100e-02
-1.016287045094370206e-01
-2.289053617037074273e-01
-2.894692383726601981e-01
-2.545517218907927259e-01
-1.405276882742439448e-01
1.372563919809912866e-02
1.687995782804864453e-01
2.960466362291158671e-01
3.598020973658974109e-01
3.119713370208476722e-01
1.407873372840892090e-01
-9.105544539357983413e-02
-2.809570255994303656e-01
-3.513329869368090330e-01
-2.911790750773293746e-01
-1.628040205291347575e-01
-6.214945759081312582e-02
-3.885002375858097323e-02
-4.983678516012027271e-02
-2.545821906023517864e-02
1.644244176587039002e-02
-1.949735142597166376e-02
-1.629250748600456211e-01
-3.123169713806936976e-01
-3.466210484995176366e-01
-2.435203029540619624e-01
-7.017763397418848303e-02
7.966023756325212035e-02
1.359865910323192206e-01
9.510756822990579229e-02
1.462802003615126453e-02
-5.123510639495561236e-02
-1.054106355380986931e-01
-2.061364959125999707e-01
-3.988716803279123146e-01
-5.725697790313519775e-01
-3.873845922488106663e-01
4.279534469479052694e-01
1.537635447442785575e+00
2.040118164074024687e+00
1.414251277831431564e+00
2.059816695907396578e-01
-6.015457103160262164e-01
-6.510751216302019806e-01
-3.066367008433730779e-01
1.118246529059718775e-02
1.979353726099530864e-01
3.099782064556463879e-01
3.559754491787453512e-01
3.078906151777651701e-01
1.887101059488283383e-01
5.541077091546735278e-02
-8.444491405916533522e-02
-2.663068613144554675e-01
-4.600268996935705790e-01
-5.463390208978472495e-01
-4.536383791751134043e-01
-2.597218729535207271e-01
-1.157692106127651971e-01
-1.048220925585957863e-01
-1.901010868805171894e-01
-2.778249182252144900e-01
-3.179005817997433425e-01
-3.364338364543842941e-01
-3.682462008545309140e-01
-3.859079853130150672e-01
-3.235958054530156391e-01
-1.595406198969779865e-01
4.746880920682969990e-02
2.007802376939649414e-01
2.416152158618384005e-01
1.927998803710379017e-01
1.208628042964068894e-01
5.116755004103062249e-02
-4.341969347510377109e-02
-1.600748626932977370e-01
-2.302845451271101629e-01
-1.927596487199903230e-01
-6.369849584655759567e-02
7.628202829992036804e-02
1.461217792889277500e-01
1.206232154731310957e-01
2.900292320127043771e-02
-9.426153082584216858e-02
-2.218629608622373628e-01
-2.991788305704333184e-01
-2.664239201901350551e-01
-1.444688464762162172e-01
-3.361675351671027101e-02
7.734645430182610082e-03
1.675425388720949704e-02
3.307344768996553497e-02
2.768419452175887099e-02
-4.298399031309504265e-02
-1.562487452230108820e-01
-2.180787874453093689e-01
-1.492333657401814229e-01
-2.393819011594425228e-04
5.707050636694020046e-02
-5.969199527630741908e-02
-1.215335546845360687e-01
2.878182479184238085e-01
1.203738933043450920e+00
1.912510056065334529e+00
1.608701929883892712e+00
4.680922852494582287e-01
-4.735287046461376104e-01
-5.457540693034003132e-01
-2.485256021958680284e-02
4.643346642228698418e-01
6.349121058166469211e-01
5.747826264086093317e-01
4.245609255476853749e-01
2.205490591319968774e-01
-9.952105881782418936e-03
-1.778977051645535545e-01
-2.137666228726791684e-01
-1.435246894980584109e-01
-5.573365669569652764e-02
-2.353576037918001657e-02
-5.137519247660084221e-02
-8.987074198622263532e-02
-1.113795183677671885e-01
-1.442522655295668255e-01
-2.209840344910660725e-01
-3.230910710059836655e-01
-3.847698356660199659e-01
-3.502153035621120569e-01
-2.373007994623007044e-01
-1.240368638703288340e-01
-5.984731634096342873e-02
-2.494387724653451821e-02
7.278610609433114678e-03
9.606900503604610952e-03
-5.546563411586925146e-02
-1.555139714105321092e-01
-2.101576235227145539e-01
-1.870168586426385338e-01
-1.201137598085523228e-01
-4.307211644372899162e-02
3.192295589760091312e-02
7.144836397963424957e-02
2.434993282980774804e-02
-1.146834385077071389e-01
-2.839409218089817832e-01
-4.043654366793806854e-01
-4.296693317413030622e-01
-3.615127757328470692e-01
-2.440863032469063332e-01
-1.291701707247208675e-01
-2.781574781439546604e-02
7.211146207676920328e-02
1.360859323334351612e-01
9.254044919740281316e-02
-6.688774815064577051e-02
-2.470406794067939726e-01
-3.389782644385669896e-01
-3.220115650798839324e-01
-2.466365081008620452e-01
-1.440045349218785908e-01
-7.192350766481622228e-03
1.296514566738863616e-01
1.409216385527749804e-01
-7.513295492285249066e-02
-3.523906925229469134e-01
-2.279379079224391202e-01
5.533294693047823287e-01
1.472934605765400473e+00
1.611291796638708806e+00
7.691580343967792111e-01
-2.396014224355535738e-01
-5.919786821939652111e-01
-2.795101567157086686e-01
1.812269395937874950e-01
3.996647791505832381e-01
3.313546291440919167e-01
1.361434539210847061e-01
-2.081105347631687086e-02
-8.200038720016783467e-02
-8.469144925057302264e-02
-7.697370013772433794e-02
-7.300098779002471561e-02
-7.834986028707059680e-02
-1.111900198080293528e-01
-1.799165870045163762e-01
-2.726374029431062884e-01
-3.766765636923778415e-01
-4.722790609706549736e-01
-5.139451483163104406e-01
-4.655955658603552760e-01
-3.476234047584357278e-01
-2.117758711734012977e-01
-9.088089710112651209e-02
-1.189621324511298643e-02
-2.109492396617856577e-02
-1.255595869661793595e-01
-2.284705777833244689e-01
-2.103781460490822541e-01
-7.845329836867530326e-02
4.362501103259901897e-02
8.460299838916815474e-02
1.260060930340030916e-01
2.938328652845523248e-01
5.397130563414832549e-01
6.106088330172424472e-01
3.478799659839576508e-01
-8.074422534410716223e-02
-3.804501786988390144e-01
-4.180247986144717265e-01
-2.177673674024065420e-01
1.256376787740952350e-01
4.345554898092300888e-01
5.259560768474346171e-01
3.837947964648574239e-01
1.606288577132789774e-01
-2.585780853069742646e-03
-8.678902461939461133e-02
-1.383359984995204128e-01
-1.751311924644106399e-01
-1.774460742302927663e-01
-1.371234653770777023e-01
-7.523122970102232021e-02
-1.665441385474843855e-02
3.033351379909006093e-02
7.074826083792337683e-02
9.470622106966833376e-02
4.161804968208329680e-02
-1.504550483745607514e-01
-3.669260841223551117e-01
-2.371584037180129167e-01
5.308517175647005093e-01
1.605006115182285198e+00
2.097730925184533302e+00
1.513273797237749685e+00
3.907079233337548141e-01
-3.677726123508054390e-01
-5.081936229958308182e-01
-3.837877194562168137e-01
-2.630956099709266804e-01
-1.223430907117667166e-01
6.807138163040452050e-02
2.097833111400028983e-01
2.236421464663755354e-01
1.546794719303712651e-01
8.586719732413658490e-02
2.406861746124014725e-02
-8.149982944810188479e-02
-2.428249032353536618e-01
-3.954412575469786750e-01
-4.533825229686235803e-01
-3.864540891240501597e-01
-2.408718309970067917e-01
-9.376226338951629269e-02
-1.457133263517634142e-03
1.400852751687061033e-02
-4.189771975451755254e-02
-1.400672343511287221e-01
-2.367549770888168481e-01
-2.937771927965590057e-01
-2.956657549819861619e-01
-2.436331738338956276e-01
-1.371509437092530148e-01
1.806929353815343170e-02
1.853598193442919373e-01
3.020872305523886747e-01
3.121632535050998802e-01
1.989478593705112375e-01
8.754632564265330680e-03
-1.659342345464973612e-01
-2.600127316104784425e-01
-2.776009897050210617e-01
-2.427926793584428145e-01
-1.700748014264006625e-01
-9.622021904815218629e-02
-5.772709519623011459e-02
-4.493097190065428043e-02
-5.020315354881389747e-02
-1.174554918405594089e-01
-2.716180804312488539e-01
-4.307673886156106469e-01
-4.464650739448133843e-01
-2.438059533570594850e-01
8.106493883193433003e-02
3.160058442633027487e-01
3.115730402576437075e-01
1.054667222325181841e-01
-1.403015985210696592e-01
-3.001591643753510619e-01
-3.568466484974338049e-01
-3.500317865447671317e-01
-3.305146269490193411e-01
-3.595527759404368862e-01
-4.299347392481618901e-01
-3.277229683187155018e-01
2.570737154862921536e-01
1.241856916226602880e+00
1.896175971709825658e+00
1.520308592666934411e+00
3.737456516651612715e-01
-5.654439630117499282e-01
-7.309639316951543897e-01
-3.772737791723667078e-01
1.217323646441298424e-02
2.419671374685150034e-01
3.657850557578894435e-01
4.523822211962306716e-01
4.725877395274835080e-01
3.554276181451396788e-01
1.112335766009183435e-01
-1.485508960277437118e-01
-3.127881158541400142e-01
-3.433006185660992804e-01
-2.693217218382587541e-01
-1.654437733855368964e-01
-1.075678869010485983e-01
-1.082165934762785442e-01
-1.252911590122287311e-01
-1.478017988368331703e-01
-2.105943229734471289e-01
-3.097822849671103551e-01
-3.827131597907750815e-01
-3.901638845039930859e-01
-3.450171040424415692e-01
-2.544740312242090297e-01
-1.057613400606742665e-01
7.783100222987172911e-02
2.165969510768343542e-01
2.406217709839967300e-01
1.633824423730462772e-01
5.828429933274731356e-02
-3.084500740257274318e-02
-1.109773125096107926e-01
-1.816498127047313504e-01
-2.122773385218449937e-01
-1.763978380377532185e-01
-7.992245966146914460e-02
3.174876939215136307e-02
9.035705003396025947e-02
4.907406735810777854e-02
-8.241391546935893098e-02
-2.387916489401209763e-01
-3.336213543436502005e-01
-3.193895751614752587e-01
-2.231396139684698743e-01
-1.103191187385161448e-01
-2.523139580017031564e-02
2.033640893535835700e-02
2.462128303536013571e-02
-1.171016040243046119e-02
-8.085436590504517518e-02
-1.677691776091112807e-01
-2.412201435903850721e-01
-2.490164185604236413e-01
-1.554353791806539486e-01
-4.107156620104812812e-03
6.897919346787660666e-02
-4.024033393586587404e-02
-1.777466191950793362e-01
7.829096617676281622e-02
9.230045131166927375e-01
1.793463852927913216e+00
1.777020194881373527e+00
7.686887747268651427e-01
-2.711358711524195497e-01
-4.827532014240941693e-01
-1.915678107551001264e-02
4.335557612858719212e-01
5.389929740230293698e-01
4.354476653634477001e-01
3.100977599340054569e-01
1.731385957542738163e-01
-5.844733618952002024e-03
-1.620540711062521955e-01
-2.075386392209142838e-01
-1.513413371031508969e-01
-7.982411538808562024e-02
-4.875673087280009421e-02
-5.685703782284493718e-02
-1.060698877337185458e-01
-2.107279270054399356e-01
-3.454650792157827888e-01
-4.440158309231393985e-01
-4.603014228739970570e-01
-4.018154509039083555e-01
-3.032385226508375053e-01
-1.949342144098903384e-01
-1.002996536455530441e-01
-3.638899700341714782e-02
-4.956318402570539759e-03
1.179942048218901064e-02
4.177242012555166389e-02
9.338084203296255492e-02
1.326361123700128819e-01
1.171235955931259620e-01
5.826272583179288589e-02
2.359667696951008378e-02
6.622176765303597334e-02
1.544330141067394579e-01
1.809985167742357293e-01
6.696171214886281753e-02
-1.430830930376872367e-01
-3.178706940258314573e-01
-3.672574515231922798e-01
-3.011069389150523579e-01
-1.781074236764387253e-01
-4.884770713100596712e-02
5.329598518525817397e-02
1.111878569968408892e-01
1.242890655868424399e-01
9.193543966331241268e-02
3.810763586245099338e-03
-1.281084499455952541e-01
-2.431001604510288072e-01
-2.754764730981682508e-01
-2.131321707114291752e-01
-9.006824580995792529e-02
5.002849803326869099e-02
1.666424979690139807e-01
2.174638138942983634e-01
1.395776396097641037e-01
-1.177667737522007374e-01
-4.210179415129646774e-01
-3.531430981543899339e-01
4.082608564008911589e-01
1.479262307777198249e+00
1.921660076637837111e+00
1.317082296111452999e+00
3.143988825311476720e-01
-2.201736971687150157e-01
-1.815371471606729292e-01
-4.199711793870567617e-02
-8.124816060445171073e-02
-1.385937222563073390e-01
1.990687595385996767e-02
3.291051574657771761e-01
4.966533083423151362e-01
3.761647273053828067e-01
1.182278927390792433e-01
-6.551334617999281240e-02
-1.303991755868054159e-01
-1.569256392826082758e-01
-2.189776429482356013e-01
-3.300805419670342356e-01
-4.391041398694505160e-01
-4.684719199486246377e-01
-3.927249226488484513e-01
-2.614840335877888777e-01
-1.435548863052566460e-01
-9.067260868370222160e-02
-1.317405842588363352e-01
-2.430197828471692689e-01
-3.473631606893798907e-01
-3.860162003821027699e-01
-3.679662548179071235e-01
-3.303753917024963016e-01
-2.800189688208920558e-01
-1.863970317352901529e-01
-2.479080236994861061e-02
1.622142946433992594e-01
2.599740546749483849e-01
1.828575014538270649e-01
-3.123522854642117597e-02
-2.653274514813892537e-01
-4.311251504866782658e-01
-4.924364480404291866e-01
-4.292850664996124554e-01
-2.460260188482074617e-01
-8.423057247887034971e-03
1.683243886360758501e-01
1.910192154496356265e-01
5.712829217750957367e-02
-1.494528772503053715e-01
-3.300093338486339567e-01
-4.284821744457790738e-01
-4.328602570183651133e-01
-3.559712035873223157e-01
-2.303795719440219492e-01
-1.106522728160047875e-01
-4.363022217405495423e-02
1.293294823443126573e-03
1.229158539193975636e-01
3.176854432632983949e-01
3.899087210304730822e-01
1.695349693063263885e-01
-2.592890240998255158e-01
-6.156525920013173891e-01
-5.568887748229049972e-01
1.598635899680909134e-01
1.293011935723036299e+00
1.999104389157754680e+00
1.614753724566347248e+00
5.064907723117291205e-01
-3.479668594330054265e-01
-4.856428309620220984e-01
-2.118130261576720297e-01
4.433649436724088760e-02
1.687771336253897081e-01
2.396022986836568169e-01
2.836451086651913256e-01
2.495512453853361845e-01
1.277862628750544294e-01
-5.739502580947367094e-03
-7.214354708448010578e-02
-6.902761255208973712e-02
-6.874011562006521192e-02
-1.412721758630104962e-01
-2.562915794823811821e-01
-3.048270247456287274e-01
-2.447940091182977673e-01
-1.457912066503418147e-01
-8.232121309534363995e-02
-7.037349735491138514e-02
-1.013009714585816345e-01
-1.640118885208202426e-01
-2.304116835772378746e-01
-2.636047862095619032e-01
-2.462851821334593183e-01
-1.722211519494279974e-01
-3.195889077895526509e-02
1.435105745836699198e-01
2.656486097596172380e-01
2.734041636212034554e-01
1.870684720947156932e-01
5.214474232892778172e-02
-9.523629269188295388e-02
-2.085788675687642313e-01
-2.545164650361207426e-01
