-6.165723214459474522e-02
5.703860531689256552e-01
1.319582582015350836e+00
1.947885903112260175e+00
2.113550816003151311e+00
1.778426816232306695e+00
1.217247976008333232e+00
7.464102699926470352e-01
5.056921458316018247e-01
4.521593514681991888e-01
4.990793479459226800e-01
6.067491492670685771e-01
7.560201735240091869e-01
9.081940385106718194e-01
1.021093996536516890e+00
1.072830509124112819e+00
1.051627331068399229e+00
9.483617945215692124e-01
7.796730489252026164e-01
6.039635314001341460e-01
4.968666308034894730e-01
5.020496293932531495e-01
5.940104894478522857e-01
6.931739473815881070e-01
7.377358403266227604e-01
7.338638222365060360e-01
7.147033620864916559e-01
6.743699035202153080e-01
5.775829625936187428e-01
4.186108581520071592e-01
2.488639715434499133e-01
1.520816730611256051e-01
1.852489772212494445e-01
3.274730001262978196e-01
4.876056463773536520e-01
5.689193087183967990e-01
5.327269514621707502e-01
4.087392561429144533e-01
2.569822392267904765e-01
1.292236141478512179e-01
5.547866702736919259e-02
4.374776407440900128e-02
8.566718557337008044e-02
1.688579034262577827e-01
2.813070850155248159e-01
3.945971368879818697e-01
4.515107829162739450e-01
3.990129694909972380e-01
2.481939212616912083e-01
8.367817074119623943e-02
-7.185267226558635090e-03
-6.302232093672879842e-03
5.023645149607966487e-02
1.454640915383302868e-01
3.052923831787266451e-01
5.229774472730649437e-01
6.736875021241055528e-01
6.042628989033828057e-01
3.832619447554233560e-01
2.984595665910202422e-01
4.527144167440791955e-01
5.915940993329438236e-01
4.911140958899112841e-01
2.414030207668985128e-01
3.776289445356380975e-02
-5.731548394759793108e-02
-8.397304319334202016e-02
-8.986199087404754537e-02
-1.141972576246801374e-01
-1.877221946082432980e-01
-3.037945859537282134e-01
-4.020692744961382181e-01
-4.093331981446273193e-01
-3.102769267536563125e-01
-1.632742714386805627e-01
-3.956595453266505136e-02
2.819162917660763407e-02
3.476032951345325167e-02
-1.932498647750844484e-02
-1.205261737157354018e-01
-2.379844178934056864e-01
-3.374100551278393367e-01
-3.880359524364146440e-01
-3.624212650720423645e-01
-2.510123796214314140e-01
-8.509544448903474945e-02
6.111349972021468124e-02
1.049160812308288782e-01
1.080521522004131672e-02
-1.775654188158876934e-01
-3.666553933597779813e-01
-4.792689162476339582e-01
-4.929274586017192705e-01
-4.274184353991667962e-01
-3.155320115362436617e-01
-1.894059224098835759e-01
-8.197269173108528983e-02
-2.836644716986204406e-02
-5.429535114687558672e-02
-1.546471120365342788e-01
-2.900063260357740313e-01
-4.101815032100268876e-01
-4.734626881052476088e-01
-4.504655980096024526e-01
-3.370898930887480938e-01
-1.724555090698585980e-01
-2.670084364076110231e-02
4.085561080937509526e-02
1.358151098274571617e-02
-8.475942885879955702e-02
-2.177290762763657572e-01
-3.559825460028567257e-01
-4.543476067744205427e-01
-4.182589395728602555e-01
-1.706034969982941074e-01
1.749481485232049216e-01
3.038724667784949429e-01
6.019531484273357713e-02
-2.422514719621554902e-01
-1.567709422805312336e-01
2.787834728392338257e-01
5.925670060739096634e-01
4.963232241894475205e-01
1.358216236159069945e-01
-1.918749108321683161e-01
-3.109272896613175519e-01
-2.176896907397208314e-01
-3.085766622128451736e-02
1.010196695499371855e-01
9.937033363006560205e-02
-1.125782455112650515e-02
-1.524579378059816581e-01
-2.549777471635656378e-01
-2.789360095247583327e-01
-2.079415777862584913e-01
-5.258303431355577234e-02
1.353531099339808919e-01
2.611361208972481363e-01
2.331318759793768458e-01
5.175651535734906300e-02
-1.648860092511315878e-01
-2.919984445769643333e-01
-3.131755749793092014e-01
-2.854330878924043469e-01
-2.351030097405165387e-01
-1.448082244454522161e-01
-1.908738174700025728e-02
9.014083282242656148e-02
1.286801170692970786e-01
8.049386210017300813e-02
-3.533435242834122303e-02
-1.773967232243530978e-01
-2.953166590044624673e-01
-3.549760918172567559e-01
-3.520712252944382392e-01
-2.950960104992729760e-01
-1.834176799950732184e-01
-2.165843749496478357e-02
1.403335289807599584e-01
2.145583811244624606e-01
1.488978781023494458e-01
-1.802333841197821529e-02
-1.873407128226228791e-01
-2.759963982636794988e-01
-2.620530992442681728e-01
-1.696581771689004425e-01
-2.937441181606755339e-02
1.305145862982898530e-01
2.638490203562436909e-01
3.082548385874340213e-01
2.253668547036507819e-01
5.079858155051721058e-02
-9.362248545116028109e-02
-8.478618715653030158e-02
4.364344144682272969e-02
9.033878194130537387e-02
-1.378882540815827562e-02
1.977746274737779419e-02
4.508063075914120477e-01
9.846695510671940044e-01
1.064997089747154124e+00
5.993361068004062764e-01
-8.351317216463816084e-03
-3.962906013447803355e-01
-4.988095764625581352e-01
-4.073967476489768758e-01
-2.196395900617056363e-01
-1.313862956513388650e-02
1.421458581513015407e-01
2.032091253565174727e-01
1.775949615094996326e-01
1.030210143854567717e-01
9.554793120611863172e-03
-8.296538608250809965e-02
-1.432338339123458704e-01
-1.302536826994035724e-01
-2.714578765456055962e-02
1.315703873835518400e-01
2.742624761445956461e-01
3.361442096154423909e-01
2.924473295242123183e-01
1.659007428845902243e-01
1.266856248415729538e-02
-1.133985072474950895e-01
-1.906060639548315394e-01
-2.195936500844995476e-01
-1.977998896317345323e-01
-1.227132132428280786e-01
-1.453917585569923163e-02
8.495653211887291278e-02
1.368393690027429332e-01
1.154410685396760755e-01
1.159639394627254121e-02
-1.488818549474864306e-01
-3.031588595861045565e-01
-3.890499312119780062e-01
-3.818768436305099434e-01
-2.917232492060547466e-01
-1.446557835284645599e-01
1.280034754987235263e-02
1.123816766264964656e-01
1.041320914174315854e-01
-5.211055646236004840e-03
-1.604064334721607699e-01
-2.892504170442280476e-01
-3.367880212745561486e-01
-2.923585906368296183e-01
-1.831948221644390251e-01
-4.998679002072986544e-02
5.522085991927200288e-02
7.877444095297030102e-02
2.822422518247009321e-02
-2.098267623361295756e-03
2.057363027163409269e-02
-8.385297963948178113e-02
-4.689286809126301803e-01
-8.303065274642930094e-01
-6.022709940766421965e-01
2.612269009900224370e-01
1.107499911489859157e+00
1.327839614279400671e+00
9.249418060868928038e-01
3.047782868288310132e-01
-1.717033304809535144e-01
-3.783550086344628638e-01
-3.703678759357171835e-01
-2.546740776150573371e-01
-9.963509163268560731e-02
7.517512850340844766e-02
2.567479266881657063e-01
4.038974608920826714e-01
4.628814569380058641e-01
4.140408397404245489e-01
2.893658429071263027e-01
1.429969332332935439e-01
1.834155371867372125e-02
-5.136839397688280906e-02
-2.867115647790415348e-02
1.061279155990293710e-01
2.998252629289039906e-01
4.321449981049010347e-01
4.209280059910318061e-01
2.911490165023474797e-01
1.133842377451198674e-01
-6.985004120736960920e-02
-2.307491331508977062e-01
-3.262287983081059717e-01
-3.165030511370612865e-01
-2.043374721972547325e-01
-4.800016809974665122e-02
7.235196422783390924e-02
1.077458750821910505e-01
6.039469096046095470e-02
-4.001825345882558532e-02
-1.621903862542394270e-01
-2.707162632040421846e-01
-3.201647881145599506e-01
-2.783249195317675229e-01
-1.552747376456856121e-01
1.495661721493343060e-03
1.361688158168843366e-01
2.056504057140562391e-01
1.886987159507961809e-01
9.374400979075450668e-02
-3.932308274995032632e-02
-1.547701763996756630e-01
-2.106614848240535298e-01
-2.003309170917330351e-01
-1.417866359191004288e-01
-3.968803481580528147e-02
1.306819374056927552e-01
3.572704268561001650e-01
4.934081293647384348e-01
3.521046420802239063e-01
2.108855402006088592e-02
-1.094241654573638589e-01
1.485074387630075932e-01
4.956447884930951231e-01
5.753117399885233629e-01
3.927745046119068828e-01
1.637720905661229631e-01
1.923684527881308962e-02
-4.568010847649040668e-02
-8.942485349601816957e-02
-1.537470562003216412e-01
-2.344851568161549493e-01
-2.952211457653765025e-01
-2.993863863705064077e-01
-2.319228442187212524e-01
-1.068752948614856702e-01
3.582245665720643069e-02
1.494385011276973541e-01
2.069905680923305458e-01
2.080925021982428791e-01
1.587251189601332213e-01
5.675025141431597198e-02
-8.668583643169017194e-02
-2.195481580440764580e-01
-2.704718773759723360e-01
-2.048822293532478189e-01
-4.858861540441461457e-02
1.341409414538203004e-01
2.661729232601232620e-01
2.764098741678288618e-01
1.382359221327283116e-01
-9.080089661035518900e-02
-2.951973545938763599e-01
-3.892199161336760693e-01
-3.652210953761256262e-01
-2.618412037188684871e-01
-1.236841909035528431e-01
4.809437780672805654e-03
8.455160264278727134e-02
9.855323050428378695e-02
5.301283616518545627e-02
-3.680853886958851406e-02
-1.481732914484700236e-01
-2.440072190339659386e-01
-2.842786598819704857e-01
-2.478948457810321582e-01
-1.407330033722961060e-01
3.686779846951362613e-03
1.253243971832362358e-01
1.644428174112528285e-01
1.058504413239649972e-01
-1.581648777024533686e-02
-1.580946275098341069e-01
-2.937073958274871721e-01
-3.767667983778378304e-01
-3.119534161659979210e-01
-3.137605957488343034e-02
3.321544835642180615e-01
4.347017393767447224e-01
1.016884898085062550e-01
-3.009667618348745299e-01
-2.242213055058497329e-01
3.022469546212529501e-01
6.918648985004730578e-01
5.909871159826850517e-01
2.105675162021697078e-01
-8.251423209715243179e-02
-1.394781509839898292e-01
-3.270452494260434051e-02
8.595397647625410698e-02
1.051504896084862334e-01
1.250694726572933700e-02
-1.235457568636629672e-01
-2.250777520714969393e-01
-2.685573595878945063e-01
-2.804329602417288125e-01
-2.653908671574588540e-01
-1.718903347519642189e-01
2.361799432677971419e-02
2.322627894622991684e-01
3.221169083547453793e-01
2.514496731165690724e-01
8.525324505181185175e-02
-8.942419004925149240e-02
-2.169335480695388785e-01
-2.604633282002115635e-01
-1.948214978670139430e-01
-4.421711870886424478e-02
1.005267038771637950e-01
1.520647363174377209e-01
1.095529097287769316e-01
3.029038714416388764e-02
-6.205276842121857511e-02
-1.799538021524155762e-01
-2.986386759854780526e-01
-3.506824394350889773e-01
-2.988487873926032878e-01
-1.698719724769220396e-01
-1.992436035681012171e-02
1.008811858161148267e-01
1.598781996560868501e-01
1.450257223361795522e-01
6.254843551049010797e-02
-6.487967258280089022e-02
-1.971341999008476564e-01
-2.852763728000132226e-01
-2.890797831486636715e-01
-1.948561299517723444e-01
-2.812022980451945459e-02
1.518514843067694797e-01
2.754267514739242029e-01
2.862157877492366165e-01
1.648187072201633130e-01
-3.864272094406481090e-02
-1.916401213987556362e-01
-1.543955205156569699e-01
4.863424046626115688e-02
1.681681883574237535e-01
2.933710340136381350e-02
-1.122284186786604021e-01
1.511923857469351096e-01
7.064514112789334055e-01
9.705138889941378189e-01
6.585007207884234770e-01
7.369528137360444042e-02
-3.533200562334312123e-01
-4.740990038285762265e-01
-3.888175648411051344e-01
-2.268007284247743061e-01
-2.658973288450024869e-02
2.138969414141446146e-01
4.222625613333560457e-01
4.556315721635981753e-01
2.657858158182264674e-01
-1.043994464897630287e-02
-1.976577938397062195e-01
-2.434764931367356111e-01
-1.856110179560687135e-01
-5.844340189111567330e-02
1.093401853383435540e-01
2.647795145051179966e-01
3.422140303202507727e-01
2.984849977102175256e-01
1.425666783697167594e-01
-5.947297403329605825e-02
-2.211155075874818299e-01
-2.904226175716199676e-01
-2.708154089437151413e-01
-1.941341515760391934e-01
-8.796588803390198441e-02
2.485158787778017284e-02
1.100363165293971046e-01
1.267447049658439462e-01
5.080090090852144163e-02
-1.113490335697408379e-01
-3.103185071480788482e-01
-4.386829572043713377e-01
-3.802102555448799714e-01
-1.415008767515457122e-01
1.087985688494399472e-01
2.139016180036509840e-01
1.869154377290601354e-01
1.227759387722267004e-01
4.388075002360033311e-02
-8.189583399952490850e-02
-2.416654670470959887e-01
-3.673894246089526305e-01
-3.978840777782597926e-01
-3.205739496784767995e-01
-1.704921427504450804e-01
-1.314347026925696653e-02
7.896062613341930936e-02
7.085390753741493963e-02
1.506474825088756006e-02
2.174364246029224235e-02
9.962219922719936505e-02
5.196481500691127464e-02
-2.836035743417316679e-01
-6.464784711535163098e-01
-5.069923858029870001e-01
2.338091585238808445e-01
1.024128109515533236e+00
1.288059537578583047e+00
9.620729989937742976e-01
3.610998937342312365e-01
-1.797559087797800104e-01
-4.747583016937652056e-01
-5.047005893810990740e-01
-3.684844462477185889e-01
-1.862516190496777413e-01
-1.498533043345674776e-02
1.438914735241641485e-01
2.728026941858318621e-01
3.184836937667610557e-01
2.500718504266349895e-01
1.020188694461956758e-01
-4.810299514224948558e-02
-1.294463785769787156e-01
-1.130419762055695082e-01
-1.542266892306621770e-02
1.208535583125349977e-01
2.438012280688353906e-01
3.033578639279347899e-01
2.744032115918706438e-01
1.734427191778762367e-01
3.745809079086860616e-02
-1.096841745619365899e-01
-2.496145209642055829e-01
-3.351087219325781796e-01
-3.030678305536159134e-01
-1.439597325266855354e-01
6.019978792591372529e-02
1.846435695111341146e-01
1.505849662741943207e-01
-2.007567474126137341e-02
-2.266807438626702309e-01
-3.729367179717892333e-01
-4.252001370763792143e-01
-3.945497190634321694e-01
-2.991611622171632678e-01
-1.566773501459697293e-01
1.021794205153829863e-02
1.666157832994916710e-01
2.634165879616493511e-01
2.600766151175976648e-01
1.578754624321327127e-01
6.041229569107273850e-03
-1.250820474340763877e-01
-1.786721823296037459e-01
-1.357583713749254128e-01
-2.491563125130695500e-02
1.025883393008307498e-01
2.348987636611641061e-01
4.062386388496902478e-01
5.716896259929845625e-01
5.316577635486867681e-01
1.793009878694693526e-01
-1.833843043490045732e-01
-1.149854457835542687e-01
3.225179132221963618e-01
6.078236882461091062e-01
4.767912468594563968e-01
1.667005589478933181e-01
-2.472533430311064234e-02
-6.527090188667990234e-02
-8.796435465383536934e-02
-1.808995883285913486e-01
-3.160224960454411924e-01
-4.097952814539853050e-01
-4.041994714930082777e-01
-2.963581064732843107e-01
-1.249711901665610664e-01
5.113610519103095609e-02
1.729642692320631503e-01
2.069306588685633774e-01
1.594265316809789224e-01
5.817619706978408717e-02
-7.279514249150727256e-02
-2.065641930649300406e-01
-2.978599224786188104e-01
-2.965888326977883516e-01
-1.817199151798436496e-01
1.035004193392878927e-02
1.886878902174035366e-01
2.594276710490744375e-01
1.911361864076613348e-01
3.156708886335850284e-02
-1.368337400885494548e-01
-2.585691695784868571e-01
-3.246774118149672872e-01
-3.351266381444032438e-01
-2.677167884483242499e-01
-1.111959634781172490e-01
8.168998944801214579e-02
2.066342562940706729e-01
1.886876329144466236e-01
4.569979155898361289e-02
-1.342469961075262730e-01
-2.711924332208707766e-01
-3.365152148150020728e-01
-3.320180923582529142e-01
-2.646330582906063489e-01
-1.471931917905391907e-01
-3.166301162853166554e-03
1.247318372476711457e-01
1.758772075246742839e-01
1.165733329683676517e-01
-1.726849151097199081e-02
-1.545319104834167179e-01
-2.590790619546221030e-01
-3.246242696729250699e-01
-2.952154566888469112e-01
-6.556585269346545952e-02
3.350555287427490758e-01
5.816546042960113461e-01
3.090880763062745507e-01
-3.280350202388160330e-01
-6.473031292125800418e-01
-2.633292451204924389e-01
4.052481651842468335e-01
7.135350494151373457e-01
5.111518242090766773e-01
1.037044383144461179e-01
-1.712119865925035012e-01
-1.913552138423305904e-01
-5.793085037341416665e-02
4.593487520773414934e-02
2.260041463654386892e-02
-9.361968251339836122e-02
-2.099194080522883143e-01
-2.496881436800305887e-01
-1.800480695061157932e-01
-2.265615280173411891e-02
1.539688366674923647e-01
2.785771134542475158e-01
3.192167725476761087e-01
2.809952264144361944e-01
1.824104826671938684e-01
4.512174005809228838e-02
-1.010505535240993763e-01
-2.096366012361555731e-01
-2.275546438513284808e-01
-1.333004339201829536e-01
3.129965194615151602e-02
1.777431020541278828e-01
2.317990425982501268e-01
1.840656954774018139e-01
7.684070271052381718e-02
-4.886502077975590774e-02
-1.714581282677453689e-01
-2.643626662678897898e-01
-2.883751323308376135e-01
-2.196054949435984616e-01
-7.546022147839960559e-02
8.764740140493201825e-02
1.996306740364932886e-01
2.152038737932178702e-01
1.410914643250332501e-01
1.731785147020516169e-02
-1.192693181161809945e-01
-2.317773792098089813e-01
-2.707633857120656518e-01
-2.045862807965973529e-01
-5.444861290097281759e-02
1.173632571385663376e-01
2.487537907022751293e-01
3.050410581809362420e-01
2.753948635096709063e-01
1.595528246930100480e-01
-1.994467257099970248e-02
-1.796074473874914312e-01
-1.834961327150829158e-01
2.001029452012096851e-02
2.499817921047689795e-01
2.544887006891748404e-01
1.235872375006741714e-01
2.514314034965941524e-01
7.019461509115491049e-01
1.012030924810492616e+00
8.204489188544905609e-01
2.867456244128422371e-01
-2.045131920711044937e-01
-4.230136744445637254e-01
-3.624672376310137945e-01
-1.500883147997999489e-01
6.315115449822031324e-02
1.807238115005872225e-01
1.812040328025877889e-01
9.393157968270178515e-02
-3.832878609080447169e-02
-1.732246243946439224e-01
-2.559314821139102025e-01
-2.302124270067230916e-01
-9.476706984101723741e-02
6.287471757322554700e-02
1.280893416886697278e-01
7.644585823269438307e-02
-4.310380709469035544e-03
-4.223559149338008967e-02
-7.313265608885168023e-02
-1.547404103596881630e-01
-2.556598760674875237e-01
-2.877115272823184688e-01
-2.158599548642710086e-01
-9.991686899102433794e-02
-2.994339358091590783e-02
-3.775755267577764196e-02
-8.389696916662499337e-02
-1.219110700782111978e-01
-1.537439704639769755e-01
-2.128435657493388256e-01
-3.039704573579886659e-01
-3.769873104264971908e-01
-3.634105713085382106e-01
-2.351576720424546907e-01
-3.481827917337282363e-02
1.455663079133602267e-01
2.226898326151217355e-01
1.713929354391846016e-01
3.073345921443960613e-02
-1.307097902523955968e-01
-2.595752202054404933e-01
-3.316789649402626661e-01
-3.299969253161952887e-01
-2.347973473692200608e-01
-5.610341669837075329e-02
1.333419174073405544e-01
2.229895777844499716e-01
1.482706053136620683e-01
-2.649891526132369668e-02
-1.253712814149079979e-01
-4.366814835062292344e-02
6.071459420679160141e-02
-7.814774232200159820e-02
-3.749045856185445613e-01
-3.495311528345845797e-01
2.252304934550490301e-01
9.345573782241070049e-01
1.217287500884412399e+00
9.490378489379833749e-01
3.937861974590720626e-01
-1.332300392968022995e-01
-4.450173845675723938e-01
-5.006888221599817834e-01
-3.590707805988827550e-01
-1.208062296879251485e-01
1.104285047313279533e-01
2.587620528283034460e-01
3.017494357590707610e-01
2.613520695403560579e-01
1.666396702713049127e-01
3.878709122020465583e-02
-9.026850569189022455e-02
-1.697858558951577945e-01
-1.541173803623424043e-01
-3.452687604180846442e-02
1.435759095913017036e-01
2.944810867096711582e-01
3.457393434200757842e-01
2.903925282351896286e-01
1.735976012503229748e-01
2.144493786068867730e-02
-1.839236926964720187e-01
-4.167987385164225178e-01
-5.440907003790417251e-01
-4.475741435786171896e-01
-1.775126799285779711e-01
1.024117102010101699e-01
2.649873602036006970e-01
2.614423164548696499e-01
1.134615070032119616e-01
-8.558575803480189537e-02
-2.311223162284930244e-01
-2.877884610724900649e-01
-2.787745690988894798e-01
-2.210546288758117595e-01
-1.107490284638872891e-01
3.834402689418199561e-02
1.747181281784136175e-01
2.393745223345593587e-01
2.046053172311751711e-01
8.405871382932506020e-02
-7.078476894338309178e-02
-1.820942347519493021e-01
-1.873473439318533718e-01
-8.876138188412888153e-02
5.073559050146578958e-02
1.704792419223366828e-01
2.673688319940390468e-01
3.792210057405629997e-01
4.891385743968784672e-01
4.531290408260648106e-01
1.535404364788625353e-01
-1.958073315675509796e-01
-1.634506709383156398e-01
2.936206777881474883e-01
7.007230507855018997e-01
7.075191391456890910e-01
4.442854593069645586e-01
1.802907784904639044e-01
1.108267144637616747e-02
-9.913012966167407403e-02
-2.036789453392638394e-01
-3.213245524591530344e-01
-4.113053629895938035e-01
-3.993394292393444012e-01
-2.533405283344027370e-01
-2.838393514347984509e-02
1.655261230479365964e-01
2.365329800798755822e-01
1.694657607457979998e-01
2.764985273594599766e-02
-1.090365076415005519e-01
-2.053610237491483859e-01
-2.637325717353352084e-01
-2.769286754791492333e-01
-2.159675828325069435e-01
-7.130034563910668532e-02
1.060112419383286847e-01
2.244242514920136156e-01
2.218070622516812307e-01
1.046436362727994618e-01
-7.602671197816278370e-02
-2.578491647256884733e-01
-3.782605219653753514e-01
-3.923563077134177846e-01
-3.003000604092996295e-01
-1.479827581188406238e-01
5.044992382911759471e-03
1.160312001461512310e-01
1.611347703836249479e-01
1.234878825695971127e-01
6.632254646466752279e-04
-1.729789393925697250e-01
-3.279263482797910578e-01
-3.945206144605069021e-01
-3.411921950360687350e-01
-1.910328123662944078e-01
-8.984453663296761150e-03
1.350327596552740317e-01
1.977804288447433112e-01
1.667814447380135123e-01
5.412953506860321284e-02
-1.028510868333231409e-01
-2.477126406600820008e-01
-3.312039577669384505e-01
-3.360347835943806594e-01
-2.572564063245559307e-01
-6.230666888158285094e-02
2.505526247142415008e-01
4.985680741216462764e-01
3.690702547028545388e-01
-1.561066530118366824e-01
-5.718738466328234793e-01
-3.934407309206049419e-01
1.943569712985021292e-01
6.024648663316560793e-01
5.732245084934322055e-01
3.076608352134381774e-01
7.107481306160354229e-02
-3.758634258624163338e-02
-5.333899820742012826e-02
-6.223785041319812583e-02
-1.243239565429959670e-01
-2.259131156567296406e-01
-3.068671905761470864e-01
-3.246430396813240193e-01
-2.787385583368528486e-01
-1.891851918003189248e-01
-7.640798612610939788e-02
3.536279274152850233e-02
1.124398645549304077e-01
1.242881853057303809e-01
6.345931141270969023e-02
-5.047748574436165814e-02
-1.866181371521588583e-01
-3.127391216008821306e-01
-3.820654519373002933e-01
-3.366831037845023911e-01
-1.648974064226591263e-01
5.639677988628007121e-02
2.156153311574742215e-01
2.569415986396172968e-01
1.952754076085040091e-01
6.241306908589237812e-02
-1.142709196135290595e-01
-2.644978937108184991e-01
-2.608193218584230477e-01
-4.805531085594637319e-02
1.964061408043704937e-01
2.003901366448919696e-01
1.909764313496967875e-02
6.534093458393025466e-02
4.947500655443794471e-01
8.944852022636873290e-01
8.295492867341263121e-01
3.599510574601843538e-01
-1.382602580260873515e-01
-3.813440514384965896e-01
-3.325363751941512458e-01
-1.288378803320053279e-01
6.865276371065941186e-02
1.771767019959930300e-01
1.900033392179110159e-01
1.286309893976960717e-01
2.290803812745148896e-02
-8.480610630835548613e-02
-1.470333709490495022e-01
-1.321748708407692874e-01
-3.656913044335535767e-02
1.148234525144689877e-01
2.683633729818396541e-01
3.561263917958472636e-01
3.354185353849176709e-01
2.160209374953768746e-01
4.372570399376301403e-02
-1.248307998463350776e-01
-2.262432359457433872e-01
-2.089726247624132949e-01
-8.072728474352915129e-02
7.787653099662902867e-02
1.747500084931711828e-01
1.798469010634693444e-01
1.243484294895196851e-01
4.342550205874079472e-02
-5.332748432261952276e-02
-1.631074744300657908e-01
-2.638215695441794573e-01
-3.109746394828279970e-01
-2.661759137496933492e-01
-1.362698489191641882e-01
2.339653965675264971e-02
1.464653233257307841e-01
1.881089161897933626e-01
1.334561748236924583e-01
5.396529028967016889e-04
-1.584983507568316907e-01
-2.756890828045476804e-01
-3.076330696104044859e-01
-2.607852586027925579e-01
-1.658132027012671761e-01
-4.055523723999512886e-02
9.116943929710034922e-02
1.615671733720547565e-01
9.861842964199851735e-02
-7.402155301472965188e-02
-2.086158120959919204e-01
-1.665960717274111991e-01
-2.414844075198287546e-02
-4.683257028534876243e-02
-2.992113343119355284e-01
-4.098841525629527416e-01
-1.868032114230984767e-02
6.611412242149126151e-01
1.054714888327641820e+00
8.804002449221732807e-01
3.352171076505223724e-01
-2.159304778973302752e-01
-5.218581590338308152e-01
-5.268199474348328470e-01
-3.334697161893476203e-01
-9.327196770038678753e-02
9.562615402016161337e-02
2.023677959374210744e-01
2.221741589594573296e-01
1.569016771235079155e-01
2.864522857226110830e-02
-1.120932535592749774e-01
-2.073490329243883323e-01
-2.234592176126206642e-01
-1.630353811816941390e-01
-5.725967436972236035e-02
4.824176906689663091e-02
1.126545103623000921e-01
1.146309858294531081e-01
5.570810675618061841e-02
-3.862048119202461660e-02
-1.292534607269104630e-01
-1.901620162285664606e-01
-2.177463067435707611e-01
-2.084407881389618022e-01
-1.466597878506433195e-01
-3.193072536254451532e-02
9.390863941047164487e-02
1.644477279426387606e-01
1.329850297364595646e-01
1.656543215445262229e-03
-1.782184793687521529e-01
-3.306192526969655709e-01
-3.884786676154587393e-01
-3.215604696081715286e-01
-1.588111155472933522e-01
1.561828108647044661e-02
1.250155202379212016e-01
1.817852623849866567e-01
2.799779556988863383e-01
4.556476298379894541e-01
5.620539570923086536e-01
4.036101791732276123e-01
6.828435255296846917e-02
-5.688403480086066250e-02
2.258538495745967822e-01
6.326517148498920218e-01
7.698743625856278028e-01
5.621970045621428325e-01
2.015959778653949042e-01
-1.031132015487717657e-01
-2.596340603859182972e-01
-3.005240912880876025e-01
-2.980978705181535626e-01
-2.779940850966487464e-01
-2.291852400911577048e-01
-1.471246169689514605e-01
-3.007278371690011443e-02
1.188114740648976014e-01
2.498278454580866448e-01
2.785529652456222305e-01
1.782373549764132981e-01
1.229890269179866220e-02
-1.411824478246336834e-01
-2.372668353513362194e-01
-2.435360916650784191e-01
-1.461089506061333254e-01
1.268048203863638215e-02
1.400284414929992560e-01
1.546653395171141421e-01
5.317456549166899721e-02
-9.289461264100552784e-02
-2.217458635162163350e-01
-3.275217584388375736e-01
-3.987396057992859677e-01
-3.811149364340036261e-01
-2.467339420674223016e-01
-4.813732779338793233e-02
1.259696250893909131e-01
2.166724635016270550e-01
2.072395791814977961e-01
1.065689146474718685e-01
-4.979192642088216270e-02
-1.998104738368492450e-01
-2.899209999232472135e-01
-3.051438216826365402e-01
-2.513137168146776235e-01
-1.338785531094439096e-01
2.341583606607968576e-02
1.610472422357714650e-01
2.130678892084124643e-01
1.571368020220967054e-01
2.984284047281336727e-02
-1.040819945658203599e-01
-1.936172237829004994e-01
-2.225930935310630465e-01
-1.991180066428524242e-01
-1.178592416034824203e-01
6.444869415419286762e-02
3.663823453893617632e-01
6.360140131607497915e-01
5.499970619450224030e-01
-1.005650748379031262e-02
-5.858497441266474759e-01
-5.367292546592153935e-01
1.136192837336030825e-01
6.858084543324584059e-01
7.347787794646660764e-01
4.416516608971307045e-01
1.611688901182561362e-01
2.736074262260110995e-02
-2.427098791538616698e-03
-3.406526016628656783e-04
-2.289537282201960233e-02
-1.014634224694295761e-01
-2.078189819245465642e-01
-2.550987725478206514e-01
-1.792962277660536119e-01
-5.392960050961841112e-03
1.869710968125219974e-01
3.289575245143954718e-01
3.749068042604620787e-01
2.960515325151261146e-01
1.102560531506181218e-01
-9.450101715425655857e-02
-2.125616127755493301e-01
-2.068929791369868432e-01
-1.162202415581662374e-01
1.406060763410568390e-02
1.582336496646199742e-01
2.696831195975477602e-01
2.784729097212237381e-01
1.609979600632161223e-01
-2.240995582321638618e-02
-1.859962043063695947e-01
-2.876059227536684193e-01
-3.212126179933684766e-01
-2.807830686353218197e-01
-1.670403288782335016e-01
-1.382150830173961564e-02
1.152147295382967285e-01
1.615549625797924327e-01
1.087248886247818846e-01
-1.293293953555461895e-02
-1.553572489679110047e-01
-2.782504997791651058e-01
-3.506589032650083149e-01
-3.469756556844049156e-01
-2.544992123307989740e-01
-9.108266899783623582e-02
8.505030844100966436e-02
1.999918102163650013e-01
2.114512360815296588e-01
1.232120354831851977e-01
-3.961934691474334330e-02
-2.348910019975205266e-01
-3.793963518666951806e-01
-3.646750338828761984e-01
-1.471301611076621663e-01
1.490983669563960834e-01
2.798098335490912802e-01
1.627243606978225898e-01
5.497169696644557679e-02
2.274703994877603219e-01
5.403926382150908703e-01
6.149009877461539819e-01
3.302166122872789433e-01
-8.467716703853309101e-02
-3.485717380829201351e-01
-3.560734036934958269e-01
-1.832921069368829703e-01
2.204970722438867950e-02
1.446554822411539876e-01
1.414737927509431004e-01
3.540084054006552988e-02
-1.072359902410052607e-01
-2.109637605514591840e-01
-2.248753039443562862e-01
-1.400365268331281721e-01
9.893190674779181806e-03
1.661844995976544115e-01
2.747979773505177525e-01
3.029348613309704175e-01
2.351691794755896847e-01
7.702982137032379772e-02
-1.246293865115759569e-01
-2.840990518011465293e-01
-3.277732302018093180e-01
-2.496287721738075227e-01
-1.121559440671118096e-01
6.330684919526558679e-03
6.579696801962098274e-02
7.127410103832039490e-02
3.639171525610497560e-02
-4.053378844912100543e-02
-1.558103652034036335e-01
-2.745202169248528445e-01
-3.456113947179668133e-01
-3.381936564633566400e-01
-2.553066715306617773e-01
-1.257367840950533444e-01
6.554196096824678464e-03
9.585264102177512568e-02
1.111559964357082819e-01
4.454672215015865328e-02
-8.972403499403887317e-02
-2.548683503573709874e-01
-3.921012857938900864e-01
-4.397231713567990585e-01
-3.702272156675298631e-01
-2.122084979191154741e-01
-3.138312848975956942e-02
1.050292832648674485e-01
1.403470810776845656e-01
3.391367216982492383e-02
-1.895882678718187053e-01
-3.859745922444101640e-01
-3.748457347064379497e-01
-1.708051987599096266e-01
-5.207897092694462049e-02
-2.085916783066030233e-01
-3.731191115443018291e-01
-1.020666213117852605e-01
5.693956505858540629e-01
1.090787733271836091e+00
1.041837626523737015e+00
5.295307923051354448e-01
-4.121812033834554301e-02
-3.603071811853584272e-01
-3.716272409396820242e-01
-1.940769394861929509e-01
2.598392164924363118e-02
1.948668926366504406e-01
2.783261133860980840e-01
2.827264791036117608e-01
2.281002050854476493e-01
1.304959604682294494e-01
1.324054345811705689e-02
-7.484541163431868149e-02
-7.509106937239119761e-02
3.275358052052781965e-02
2.001983731473684913e-01
3.406526193271413594e-01
3.935723598493330311e-01
3.507023042054249751e-01
2.330847516992107238e-01
7.458843376336038444e-02
-7.369774425622230285e-02
-1.596255422851791950e-01
-1.665760473870256386e-01
-1.187193204290781373e-01
-4.583976088776033075e-02
3.672199950184926870e-02
1.099081123058551768e-01
1.421869273003023015e-01
1.107425759807040833e-01
1.604125425930857246e-02
-1.180410918924738872e-01
-2.455896361067575473e-01
-3.160461560214525845e-01
-2.988193368972706931e-01
-1.902142291456806189e-01
-1.825741787325382143e-02
1.535981854278770098e-01
2.538551432932525387e-01
2.455604174873513568e-01
1.420003233852961677e-01
-5.682314995264333563e-03
-1.284454875364222926e-01
-1.659357069988347533e-01
-1.039409118458363562e-01
6.205500638029066290e-03
8.810187383604695111e-02
1.157346477911561228e-01
1.342573336517640659e-01
1.983132322540216985e-01
2.996597756371950361e-01
3.461212665271027888e-01
2.392293222271719977e-01
5.141400829923620242e-02
4.688686922498307846e-02
3.551695653886565718e-01
7.394725336778786851e-01
8.736406297380656660e-01
6.937313527852688733e-01
3.523496804659043136e-01
6.845507070773589053e-03
-2.562373272132895119e-01
-4.052255474084932030e-01
-4.429462223184827407e-01
-3.862144289023755617e-01
-2.545172308255735927e-01
-7.872740973509781415e-02
9.094001567380931295e-02
2.015620518065042721e-01
2.212668667515622911e-01
1.455210408118072785e-01
-1.333173554944934620e-03
-1.644506658047411030e-01
-2.799541608254211278e-01
-3.093060258039914134e-01
-2.503403703284119430e-01
-1.292343429341239469e-01
9.039410383883800942e-03
1.214101334927221443e-01
1.868541378528413843e-01
1.955925361246944050e-01
1.285991049494563665e-01
-2.566010522990748444e-02
-2.282603781478526606e-01
-3.834489369653711899e-01
-4.012494207516377753e-01
-2.745488632120564043e-01
-8.390901632809627531e-02
7.032309694600527572e-02
1.281357699455155097e-01
8.115009594100386359e-02
-4.129888636017976788e-02
-1.899990112907081197e-01
-3.137092447230003800e-01
-3.718615385874455836e-01
-3.433146174679030938e-01
-2.355122535120454663e-01
-8.456291394154104302e-02
6.055076286941506181e-02
1.537860664103462838e-01
1.567951339407405720e-01
5.300326669644664368e-02
-1.208137630513732019e-01
-2.773796544372101325e-01
-3.459831816899672785e-01
-3.235052596888749465e-01
-2.458559136663770461e-01
-1.381235048524787068e-01
6.606600426732178039e-03
2.099881269362695313e-01
4.101051162984153398e-01
3.929809287824104214e-01
2.389789289382545506e-02
-4.056549028835427784e-01
-3.883256009691329891e-01
1.235414336614073377e-01
6.265994718557257315e-01
7.279642693673394893e-01
5.098656433603775406e-01
2.334035701508880845e-01
3.008389620398537606e-02
-9.698461036822865478e-02
-1.769853209813508355e-01
-2.304778173688184773e-01
-2.658440772584018119e-01
-2.769668650625182749e-01
-2.397635331227924993e-01
-1.312846438841090146e-01
3.111777737886500111e-02
1.829422477591990115e-01
2.618550066165521994e-01
2.536485846927186150e-01
1.799129966382985168e-01
6.209748489101757363e-02
-7.923030704878882002e-02
-2.013289701149958977e-01
-2.438717053300663018e-01
-1.709097557574856818e-01
-9.603846169549639170e-03
1.555562821612614943e-01
2.326986225137161468e-01
1.791205430253700048e-01
2.619336584200000762e-02
-1.461078956323266786e-01
-2.696174324005420342e-01
-3.256731968532507460e-01
-3.227991611887431889e-01
-2.605395419022726311e-01
-1.372124298426080358e-01
1.832542500216639489e-02
1.423270583019371482e-01
1.713939438341290922e-01
8.840221790374022670e-02
-6.432396383644679860e-02
-2.161637745351917272e-01
-3.063250193382185405e-01
-3.011072696329661347e-01
-2.029771028032016644e-01
-5.370443033882915662e-02
8.920867730734373391e-02
1.877921796814243649e-01
2.280957192975821557e-01
2.041488182361942683e-01
1.240031257757773647e-01
1.447664876371447529e-02
-1.154282913556220758e-01
-2.736895099808948073e-01
-3.796944258301339636e-01
-2.478462501747313584e-01
1.481274989983339396e-01
4.608351768133758242e-01
3.253875851311159861e-01
-4.338929573279995400e-02
-4.798445955642805655e-02
3.890788771819642111e-01
6.841619473791198391e-01
4.694622868166162810e-01
1.678372213573355032e-02
-2.663511192126659100e-01
-2.750064304918490854e-01
-1.273527305727326642e-01
3.645793433000016348e-02
1.228555951834132409e-01
9.059581208159368793e-02
-3.828674939035900393e-02
-1.876502968444119512e-01
-2.749061191199990151e-01
-2.611697287196882433e-01
-1.614011372226034635e-01
-1.805702221014669068e-02
1.232837586732126317e-01
2.216378931253281115e-01
2.472409774247274483e-01
1.893561207231555243e-01
5.980527234496468836e-02
-1.023555041855165743e-01
-2.342289092679141205e-01
-2.757745739492130643e-01
-2.030547792660132300e-01
-4.578677478393983202e-02
1.157637956996326600e-01
1.919379462250587753e-01
1.517971337650457220e-01
4.428134727636255652e-02
-5.079520510102385200e-02
-8.379552998595399260e-02
-7.373091588206442948e-02
-8.642541658421198925e-02
-1.348894713896648945e-01
-1.383471527138409041e-01
-3.476174808059272897e-02
1.185420055380835558e-01
2.047494242459215186e-01
1.668802847400143730e-01
4.015247897333139304e-02
-1.042355084317156122e-01
-2.164675263198471700e-01
-2.745355724532835828e-01
-2.673680481937821263e-01
-1.951731967698083214e-01
-7.953126469235149987e-02
3.919247271085300743e-02
1.150797492439482594e-01
1.089036567917624626e-01
1.509335962378273097e-03
-1.784780949971127295e-01
-3.250016455725074915e-01
-2.947792044358582553e-01
-7.061064495669348851e-02
1.043496781898075876e-01
-6.030876426927953005e-02
-4.244267107072652312e-01
-4.246077703322971852e-01
1.834534625326976753e-01
9.096569457266000525e-01
1.121488273281269654e+00
7.246000644140604408e-01
9.462196975531383947e-02
-3.589227113833684535e-01
-4.512474443564125082e-01
-2.498455572920396106e-01
3.951545367550461652e-02
2.414529025508931614e-01
3.038127251154428832e-01
2.609743336229473076e-01
1.573896605817195204e-01
2.823809979323073371e-02
-8.023785263723270944e-02
-1.186957724377896428e-01
-6.852902435335214704e-02
4.961555806117858708e-02
1.940249098766274050e-01
3.142471180875386905e-01
3.585164172754733425e-01
2.949234318740989735e-01
1.399710364077616509e-01
-3.761909693428550777e-02
-1.570874781082910177e-01
-1.809810669802018601e-01
-1.379260151121674827e-01
-9.272603832359110898e-02
-8.250417656079431228e-02
-8.022908926753065384e-02
-3.866540890186828672e-02
3.084340107387945062e-02
5.189144422033799275e-02
-3.204217918523111219e-02
-1.852370531820639876e-01
-3.067506053134890220e-01
-3.179637760787335510e-01
-2.150935878953356972e-01
-5.334756711293842102e-02
9.745675921187893498e-02
1.842057123184436540e-01
1.854879504163175208e-01
1.135245183465972835e-01
-4.381424960062003937e-03
-1.459198041879924412e-01
-2.834345441802044174e-01
-3.618947480801482652e-01
-3.183620701518175000e-01
-1.432237906202818711e-01
8.581976643645991554e-02
2.464531868706092699e-01
2.642976883731305016e-01
1.830239695625978102e-01
1.310175835089212037e-01
1.683603021598745197e-01
1.797316832375383533e-01
4.405766029342531032e-02
-7.955624571641695120e-02
1.147402563094503947e-01
5.897434914284531704e-01
9.259672080497214353e-01
8.333184583648752808e-01
4.128385186763667281e-01
-5.214071335993638451e-02
-3.351067839920006675e-01
-3.800053480075390455e-01
-3.055658309869713762e-01
-2.443891261055767816e-01
-1.900040077892434509e-01
-7.116865471908348506e-02
9.141324587967268600e-02
1.915028042721540757e-01
1.635790190894190754e-01
4.240329727845520286e-02
-9.466570623925929517e-02
-2.030864098137354634e-01
-2.717438110422701891e-01
-2.788443074320703929e-01
-1.942876226915432047e-01
-3.455914357322436431e-02
1.187356018734607721e-01
1.802026357987276117e-01
1.316858708279897983e-01
2.411155252567889415e-02
-8.143976130159802373e-02
-1.664269885662984505e-01
-2.441567620060463295e-01
-3.050581130458516754e-01
-3.031177761123947101e-01
-2.069775907664202497e-01
-4.495648794989559605e-02
1.044194497948278261e-01
1.602795112107524567e-01
9.292384969486763846e-02
-5.520177871501803779e-02
-2.059249965319874254e-01
-3.033917399039127716e-01
-3.315721060413845955e-01
-2.901736037184845518e-01
-1.814577285921058492e-01
-2.842276085701461730e-02
1.134776105303626909e-01
1.834738911843456222e-01
1.556381838446366517e-01
4.763135978021990069e-02
-9.935550494127169674e-02
-2.348472229002563083e-01
-3.042255823031464468e-01
-2.714780122622018066e-01
-1.538903526336947714e-01
-1.918348236121066031e-02
8.573064168156538378e-02
2.040854637515171766e-01
3.856618146337613684e-01
4.908068653466279851e-01
2.577573355323845572e-01
-2.583885585669785656e-01
-5.476589317171708382e-01
-2.391726761216749209e-01
4.002655252164830646e-01
8.260001469384367079e-01
8.144641966253309828e-01
5.188324263174430850e-01
1.777443544154143629e-01
-7.200730835808896724e-02
-2.103474086520397690e-01
-2.730863745284130006e-01
-2.916079446812409603e-01
-2.714050285514115757e-01
-1.973261775466338686e-01
-5.405420486079363929e-02
1.339270963360116862e-01
2.849719561413738278e-01
3.151836805455133228e-01
2.156152857627682828e-01
5.650203383384064248e-02
-8.060292426850301784e-02
-1.586229721348675903e-01
-1.796620042237824788e-01
-1.501400580855757894e-01
-7.112891780260036101e-02
4.179076503495646189e-02
1.503244555564602625e-01
2.130760088277611763e-01
2.009218822479174882e-01
9.763009226638152960e-02
-8.107222409709338717e-02
-2.666631463271731395e-01
-3.711052841175065953e-01
-3.478810560255706785e-01
-2.148091448833194250e-01
-3.735231020290177839e-02
1.070555334415985160e-01
1.709974524226418324e-01
1.507765573625092226e-01
6.404726068992688814e-02
-6.470790535075181260e-02
-1.954897898784106192e-01
-2.748197937493097043e-01
-2.633070355356506576e-01
-1.638836068599459628e-01
-1.814253788634708625e-02
1.286526364048088955e-01
2.454307032349981044e-01
2.978954035596259597e-01
2.513307822740460384e-01
1.111802150866132155e-01
-6.044980447269181212e-02
-1.793309474510211277e-01
-1.844028974084643280e-01
-5.791219042205812684e-02
1.683845307862733565e-01
3.822064579510037197e-01
3.916633527623578637e-01
1.182509859997006585e-01
-1.545015789687520791e-01
-4.961643056729775347e-03
5.006308797385672360e-01
7.835677594051383421e-01
5.267501289901134198e-01
4.418996944550822314e-02
-2.298550023405642462e-01
-2.145282381396328708e-01
-8.561205421416068218e-02
-1.513592368977058344e-03
-4.836163585107095680e-03
-6.698163540410505268e-02
-1.488383750353723389e-01
-2.226921022011719431e-01
-2.674799526513964576e-01
-2.617449089901709436e-01
-1.868288822036040520e-01
-4.597715327349469888e-02
1.175598332611850760e-01
2.321594450187215164e-01
2.416927975590089095e-01
1.475354761198661435e-01
3.431533675658172272e-03
-1.311343490491276575e-01
-2.180641623850517186e-01
-2.318830574806487466e-01
-1.601435588221723494e-01
-2.569388389299898101e-02
1.042564856852633837e-01
1.526284680077901190e-01
9.471530902301358856e-02
-2.337028620957648517e-02
-1.406154867181577950e-01
-2.310584235158273658e-01
-2.894177276914463026e-01
-3.050723777971572348e-01
-2.669887715027310926e-01
-1.750923851617617322e-01
-4.588492637437037447e-02
8.028923798278694846e-02
1.476679669239817083e-01
1.184974207773227123e-01
-7.771681301861517455e-04
-1.631995868005006733e-01
-3.019383260709932459e-01
-3.585204675008659136e-01
-3.115948955320740343e-01
-1.873530439451595586e-01
-4.485673628259550377e-02
5.623595554048911593e-02
9.021463266799427394e-02
6.874778395715711032e-02
-1.593749269054242634e-04
-1.316363501005143044e-01
-2.943648786918887650e-01
-3.475843955484344550e-01
-1.619890015012209750e-01
1.422708193946677080e-01
2.121430528597454401e-01
-9.472340479314408923e-02
-3.800432707999370496e-01
-1.408274092455212845e-01
5.168274967268312592e-01
9.780633594958135779e-01
8.633432836777995556e-01
3.212198179680789689e-01
-2.834626768884268011e-01
-6.474370619002868255e-01
-6.158061951550589663e-01
-2.642556262786724952e-01
1.299454048615764079e-01
3.242621877723035340e-01
2.916177833611321990e-01
1.518169340193333827e-01
1.920002841347997688e-02
-5.261782716093488244e-02
-5.036599535588378446e-02
2.253435620116667898e-02
1.505106851421371683e-01
2.997292130535542110e-01
4.179583399275652034e-01
4.425671652189386851e-01
3.205372591639719659e-01
6.059778097959692827e-02
-2.236085828863532965e-01
-3.765542181543852229e-01
-3.388048375096332498e-01
-1.900394053096939595e-01
-4.539293528332430383e-02
5.127361280839511787e-02
1.161931949476699283e-01
1.485871113285507084e-01
1.091455492187318049e-01
-2.555270673836163714e-02
-2.129574906521985167e-01
-3.627691525416046336e-01
-4.067415374254845783e-01
-3.419997583709349920e-01
-2.096571046943638827e-01
-5.932930817491231801e-02
6.463966004171189939e-02
1.324065799540661281e-01
1.310783598519366933e-01
5.798522758240189090e-02
-6.947724601272378675e-02
-1.995618182909347504e-01
-2.695124220412909999e-01
-2.498741297319459764e-01
-1.541403778892542764e-01
-1.323969401781507557e-02
1.348802100888059352e-01
2.297126318925987454e-01
2.042157050397837570e-01
6.260578320692572474e-02
-7.463061383949505523e-02
-8.136365499783028421e-02
-5.549912981189468811e-03
-2.102903789128171205e-02
-1.116655633992934965e-01
3.668255416056366916e-03
4.423573586739911745e-01
8.918628310738692111e-01
9.797047270879322145e-01
6.710660859383048571e-01
1.841897126357467107e-01
-2.569356959750467295e-01
-5.183379417729019334e-01
-5.599975943209563045e-01
-4.230090879954115923e-01
-2.003396530660129793e-01
6.050262809176081003e-03
1.323143091479133948e-01
1.737187248480357438e-01
1.542711771992782421e-01
8.311841579221293519e-02
-3.841738510525173622e-02
-1.723191532234193135e-01
-2.444804863433419906e-01
-2.066970271390213831e-01
-7.643405553184409729e-02
8.580004432347509979e-02
2.094260342287730670e-01
2.387749631818713025e-01
1.752639206517242199e-01
8.692864958794507824e-02
3.081089601497632308e-02
-1.436567226608641279e-02
-9.218810948741028299e-02
-1.786080390818572117e-01
-2.006549702150677295e-01
-1.233633266263278599e-01
1.450021839503509366e-02
1.345391320009446390e-01
1.693027948671085026e-01
9.458838649314643687e-02
-5.907621823276162226e-02
-2.204465718605005675e-01
-3.186887858803676976e-01
-3.203093702005540000e-01
-2.351215831388736854e-01
-1.040198620615886277e-01
2.067786198077478307e-02
1.022251228649859595e-01
1.302751428667302536e-01
1.027123090293459301e-01
1.408822996223482726e-02
-1.231995601795860817e-01
-2.584092175563034721e-01
-3.233736821886399326e-01
-2.816173851077767853e-01
-1.588707499474691087e-01
-2.621704198057187019e-02
6.042752089156681883e-02
1.244236329235741678e-01
2.421866112835480700e-01
3.826538638994511632e-01
3.271690277483740861e-01
-5.733481223591749970e-02
-4.733476231978935300e-01
-4.165215343345892718e-01
1.854807915414850850e-01
8.493158457207429235e-01
1.095646432212367349e+00
8.678897646981396097e-01
4.134039311960635010e-01
-4.295566239589432289e-03
-2.552988421800209684e-01
-3.444911897359687614e-01
-3.308332895597654866e-01
-2.602537684774958726e-01
-1.683020983289957306e-01
-9.103594710919685196e-02
-3.144823458391848847e-02
4.440206113661638448e-02
1.371209474206960266e-01
1.798402787744408371e-01
1.127540543488468050e-01
-3.678782996889483348e-02
-1.749863439191625680e-01
-2.242310412387983898e-01
-1.723038005990832622e-01
-5.997918570610976524e-02
5.814714841933357747e-02
1.407902018660587840e-01
1.706047525857402047e-01
1.650733430306899896e-01
1.577352503862479161e-01
1.299650675858697868e-01
1.475806180161306352e-02
-1.691109605152452677e-01
-2.755265760059614211e-01
-2.020706541430113135e-01
-1.604782836989779998e-02
1.398430408496909305e-01
1.872808127702356440e-01
1.322492660869019343e-01
1.447063708236595060e-02
-1.261173455819940836e-01
-2.524960858018998611e-01
-3.230251091258276031e-01
-2.967676901797876021e-01
-1.612229715957372300e-01
4.244738064682081202e-02
2.295027802253400973e-01
3.185596695794346567e-01
2.791548432277237146e-01
1.376797189900933471e-01
-4.785655958227053725e-02
-2.039343973833833146e-01
-2.649284597653573381e-01
-2.187720677971345395e-01
-1.042927292890513946e-01
6.310787981134227675e-02
3.091308397320784440e-01
5.735044277592740158e-01
6.328687486606676682e-01
3.553768575600313451e-01
2.847100368494150796e-02
8.546069286325083669e-02
4.545444822613463609e-01
6.301662954542999184e-01
4.086321209596701642e-01
7.514769229357554092e-02
-8.682393092822034142e-02
-7.175332336940125344e-02
-5.820232830295642840e-03
1.211826257300697984e-02
-6.132544225029232243e-02
-2.074178186341046615e-01
-3.380638136511279757e-01
-3.558359683179027066e-01
-2.476784619827035738e-01
-8.755678740107691871e-02
5.090842644672370632e-02
1.427794011256477424e-01
1.848156868707640510e-01
1.715587794953237211e-01
1.042387731305361859e-01
-2.866627574608609022e-03
-1.288548024192814057e-01
-2.454582377367151291e-01
-3.053730298210846628e-01
-2.548035870023986904e-01
-9.059897531966895623e-02
1.035949926359100715e-01
2.096890322860539280e-01
1.683536418443967730e-01
1.634145598963531246e-02
-1.589599923997571107e-01
-2.905507798733408253e-01
-3.542341630258422636e-01
-3.390564339809988836e-01
-2.350432642304001174e-01
-6.774656117138941336e-02
8.633529224940508784e-02
1.531589725802326718e-01
1.190985937527668931e-01
1.796439019984808622e-02
-1.128687799072833620e-01
-2.381595838544624810e-01
-3.176335123430697460e-01
-3.251222383040702768e-01
-2.624694364119690704e-01
-1.526784761788689826e-01
-3.732661877343029094e-02
3.716821071102265062e-02
5.402753153151015897e-02
2.540110817346731900e-02
-5.211358871575678259e-02
-2.003730899472783988e-01
-3.917868898484547779e-01
-4.993278654341430367e-01
-3.630641400133373109e-01
9.414623244756191445e-03
2.918385786650103397e-01
1.030560709070859615e-01
-4.108935706728183979e-01
-5.775821480399598862e-01
-7.236598383545392310e-02
6.024537560210430076e-01
8.044053152289436515e-01
4.856433126055265115e-01
3.416450463978201735e-02
-2.283203556011142998e-01
-2.312495636673765065e-01
-7.763536553391951756e-02
8.207157128897751841e-02
1.485448064738211782e-01
1.061451948795081729e-01
-1.827683247271619932e-03
-1.085908099953813294e-01
-1.568949193150442067e-01
-1.240242621313505655e-01
-1.904089410537392404e-02
1.314150689845919595e-01
2.818382814294770333e-01
3.721524154046701449e-01
3.581911377322261059e-01
2.406954700924335833e-01
6.603680467256944908e-02
-9.565829068958671411e-02
-1.808975751803120757e-01
-1.594290364368563806e-01
-4.896537333024251343e-02
8.883662125124541786e-02
1.833517059396108373e-01
2.023611522710979382e-01
1.582349900086549299e-01
7.044179719345838864e-02
-5.201743123912629801e-02
-1.870713324389700616e-01
-2.884742641602587310e-01
-3.152683496403908547e-01
-2.597141766930177731e-01
-1.430488332609845814e-01
-2.879991919745647846e-03
1.133206558816086951e-01
1.643919823116170575e-01
1.356073008718710338e-01
4.213192438017900054e-02
-7.941106233183453655e-02
-1.815934201979998441e-01
-2.224870235504083638e-01
-1.809084679395900619e-01
-6.176645783404338674e-02
1.020704398970082444e-01
2.539771995039563079e-01
3.326536368640349295e-01
2.957568698807772622e-01
1.466328540463497088e-01
-3.193225570222438942e-02
-9.473177831500240176e-02
2.746496495788312148e-02
1.832929416670521783e-01
1.487224527373703920e-01
1.436060519830301141e-02
1.558051968550117627e-01
6.366499904348056349e-01
1.005838449082287811e+00
8.805071953515950511e-01
3.702543801592536044e-01
-1.605947651633555240e-01
-4.534180176399901785e-01
-4.638613193721236594e-01
-2.997398981377140115e-01
-9.480416841857239318e-02
7.323943971834145916e-02
1.522135730413049504e-01
8.660966312079057539e-02
-1.055490256953651729e-01
-2.923237750890077535e-01
-3.575154573422753557e-01
-3.187412155908603828e-01
-2.541333497859901147e-01
-1.862229083772292959e-01
-8.806569426218173458e-02
5.138954904184252909e-02
1.943751608179026535e-01
2.654594867760249333e-01
1.946487592382384335e-01
-2.690520789366110735e-02
-3.045705092490857413e-01
-4.736322165728060751e-01
-4.416244117319484408e-01
-2.856593427832990750e-01
-1.453810650678877547e-01
-6.267175450129204572e-02
4.467644577841506197e-03
6.504447561042066284e-02
6.890355365049170844e-02
-2.160888562715290728e-02
-1.788298420510823494e-01
-3.276873347531144565e-01
-3.987477902632201032e-01
-3.669634472791754032e-01
-2.551767727185640933e-01
-1.110289916399728877e-01
1.811515799191095247e-02
9.368255030942466977e-02
8.706409942089929355e-02
-6.081713035252823973e-03
-1.495220979369118186e-01
-2.807792947648711235e-01
-3.515569391615587236e-01
-3.445862733818728652e-01
-2.511486058897184903e-01
-7.294704873718543814e-02
1.224267574511223727e-01
2.038799045900384910e-01
1.200271522249824474e-01
1.504350260621095670e-02
8.234516036758965374e-02
2.632547497825443172e-01
2.410937849703480573e-01
-9.561941322244291164e-02
-3.470984365357097090e-01
-7.354824569605440676e-02
5.764958019756933894e-01
1.045467500807610639e+00
1.008249346111887768e+00
5.813988863904001603e-01
7.269536357347167188e-02
-2.853115735073129544e-01
-4.295545865071870861e-01
-4.112743778665906569e-01
-2.981336093011057176e-01
-1.358854085735911044e-01
3.915451104871707499e-02
1.892162689838486067e-01
2.751948643781468862e-01
2.675673521942417143e-01
1.690585451992590582e-01
2.447000722851222845e-02
-1.012980731241092391e-01
-1.566349886469647068e-01
-1.212929594477318296e-01
-1.089049729155454685e-02
1.260909478178950660e-01
2.304918091337203878e-01
2.704758878547974810e-01
2.574318742644586266e-01
2.110105484142505983e-01
1.096552968714180343e-01
-8.635384714010911622e-02
-3.331975769685466271e-01
-4.784316585624194818e-01
-4.077831314486337622e-01
-1.771244208922751473e-01
5.974932401285031058e-02
1.960305727257327657e-01
2.018628984661365866e-01
9.695449991712914994e-02
-3.998836891166146490e-02
-9.758222811703075317e-02
-4.202994910436357728e-02
3.812775781584093471e-02
6.264865629204742492e-02
7.591123355249106142e-02
1.546392956978041300e-01
2.680192582670226087e-01
3.130034923537047820e-01
2.420107016560339719e-01
9.855743644916876989e-02
-4.110370170884719565e-02
-1.206801049653929564e-01
-1.199156564007277243e-01
-5.728293334001485770e-02
2.806164243371069011e-02
1.252964238086133331e-01
2.719656052249908584e-01
4.683307452750177791e-01
5.605991722352194895e-01
3.511407563801410281e-01
-4.398164945954177035e-02
-1.673521439292590396e-01
1.838364374201650608e-01
6.165976423669662365e-01
6.888617609041681744e-01
4.456782607717916789e-01
1.790082995811141109e-01
1.404591531822032245e-02
-8.914658853711460162e-02
-1.723768220925323558e-01
-2.444803288095903637e-01
-3.035244072956284067e-01
-3.311790357559696307e-01
-2.977182751662926785e-01
-1.931246236022054197e-01
-4.294648914929447003e-02
1.071941463515344584e-01
2.134783341729432349e-01
2.422524380821151069e-01
1.759091341016248977e-01
2.987416603984027058e-02
-1.409814456026253215e-01
-2.699894792953405065e-01
-3.147884956309635607e-01
-2.648453523572182333e-01
-1.349999232744727440e-01
2.804348716824620405e-02
1.504407565577254857e-01
1.694022937267753437e-01
7.190898722801720988e-02
-9.811290649450178647e-02
-2.632919506944479404e-01
-3.594133242663625771e-01
-3.728876532738575333e-01
-3.243755300899057170e-01
-2.261783835753652383e-01
-8.470746471037882142e-02
6.179933034044152174e-02
1.438310857808680621e-01
1.130703902062178690e-01
-1.579336476654232685e-02
-1.799328694160567677e-01
-3.160864499039958697e-01
-3.881066888350904187e-01
-3.793394508468251880e-01
-2.856105080535837892e-01
-1.321184966322719867e-01
2.087926744261152032e-02
1.118391865740435837e-01
1.129576708853733541e-01
2.753897200752555494e-02
-1.266578219494952640e-01
-3.136813234601147360e-01
-4.731599405879219900e-01
-5.342688500246014494e-01
-4.258078195462759452e-01
-1.110327505657616176e-01
2.813047214788083616e-01
4.040803876166931263e-01
3.266164512728951530e-02
-4.889962054225408528e-01
-5.160494341061987456e-01
5.156522916446965726e-02
6.155877984206428177e-01
6.716161161674820690e-01
3.189505378723928031e-01
-5.113404302645457866e-02
-2.005847928169645633e-01
-1.453601133136924461e-01
-3.426857019481554384e-02
5.047153112321068648e-03
-4.460690611772608755e-02
-1.115600467149745201e-01
-1.297047519321294362e-01
-9.658775519330205228e-02
-3.702924209661034166e-02
4.760862563993255303e-02
1.602059905550106966e-01
2.696984114566048363e-01
3.262122229607358204e-01
3.012699408719351490e-01
1.995078404952215778e-01
4.644904436289920557e-02
-1.172287384272794331e-01
-2.339275619852858867e-01
-2.475015807200469931e-01
-1.469980814066136898e-01
1.161461352033167638e-02
1.428467480137961820e-01
1.896172928905303368e-01
1.435124836624698530e-01
2.799033749072501326e-02
-1.170803747475850642e-01
-2.399086242103548872e-01
-2.960535709214302535e-01
-2.768397774106161058e-01
-2.051006453429103094e-01
-1.051886557541706346e-01
7.467391761452953948e-03
1.191914184012220906e-01
2.131127388026819169e-01
2.526126400476252365e-01
1.814277737837994564e-01
-5.571918553101372351e-03
-2.066814445624356178e-01
-2.934951127370388768e-01
-2.311743159219293575e-01
-8.061818570235659842e-02
8.012336449500395696e-02
1.995959721111500995e-01
2.474321493169052422e-01
2.041342019466101665e-01
6.959132540561618896e-02
-1.089884249784450199e-01
-2.189532245246507136e-01
-1.434271422232661630e-01
9.247807739699162588e-02
2.781173779475299979e-01
2.602650755372936664e-01
2.063411170194805189e-01
3.945705543968774931e-01
7.504734828351040665e-01
8.880170694657355535e-01
6.073907956318403967e-01
9.366485146896254277e-02
-3.349419189255428697e-01
-4.917643866460106317e-01
-3.865762045752763609e-01
-1.549074642496369170e-01
5.115460842731207186e-02
1.395362528190360052e-01
1.051416662834051691e-01
9.971676282560969912e-03
-7.884702865184527176e-02
-1.358108927805997124e-01
-1.611265662866075699e-01
-1.472456183190011259e-01
-8.029978778079187307e-02
3.576658013923481733e-02
1.644094398727013184e-01
2.496257792880621773e-01
2.490430358292358981e-01
1.569019957423742340e-01
3.817331562484597290e-03
-1.550097678184659822e-01
-2.570072639563252270e-01
-2.615610338484737341e-01
-1.792857247488329753e-01
-6.472784155411562268e-02
2.915202961615300653e-02
8.288871404560238521e-02
9.841144954507058396e-02
7.155849071232069092e-02
-1.088764364574302396e-02
-1.422103277808453303e-01
-2.721257349194469710e-01
-3.328710024882387541e-01
-2.933721576606125314e-01
-1.763049248430600124e-01
-3.123597053685387565e-02
8.913797152903613075e-02
1.405000103721795179e-01
1.052626783275030647e-01
-6.006816719606785510e-04
-1.442206128024254574e-01
-2.832696608263083338e-01
-3.636051034787300962e-01
-3.434245115462575826e-01
-2.271734505395575088e-01
-6.475580421634875850e-02
7.380679541213612527e-02
1.234261177323885128e-01
6.253344484638952150e-02
-4.178078332132828532e-02
-5.720348203354421596e-02
6.394462747602074060e-02
1.401746955378007364e-01
-7.040511385093749241e-02
-4.302128030625514410e-01
-4.050842941242903117e-01
2.530862537480212948e-01
1.074117167970415787e+00
1.384354193080246542e+00
1.013869644382564550e+00
3.251137104440247061e-01
-2.415607431396117333e-01
-4.975939660836284917e-01
-4.946132360932993244e-01
-3.515028340696167430e-01
-1.533570396733472396e-01
4.044721498410228100e-02
1.804223249506416438e-01
2.377556979429895079e-01
2.035381051823358101e-01
8.731449606508472072e-02
-6.459656170121637342e-02
-1.750652237650270893e-01
-1.884608871887366310e-01
-1.104786865770117782e-01
8.493259934912639891e-03
1.154662438741385772e-01
1.798211509687520637e-01
1.931860525326155598e-01
1.560467419049099969e-01
7.118504573944894886e-02
-4.853597871736625019e-02
-1.764134414083430025e-01
-2.779216730496241183e-01
-3.124456891787639745e-01
-2.466980478020446010e-01
-9.619081791739898801e-02
6.186574752456473758e-02
1.509011604739604606e-01
1.556207549616976937e-01
9.847061529072807795e-02
-9.570059966153144151e-03
-1.547813138226806773e-01
-2.810921159127087732e-01
-3.145472874938360919e-01
-2.309336031002448830e-01
-7.235513118114667019e-02
9.507471140216794403e-02
2.125347513415040135e-01
2.354557299922029057e-01
1.525361455690473489e-01
4.483795347693650402e-03
-1.351654056414711702e-01
-2.027787129424488966e-01
-1.725794736139469321e-01
-6.583984243135362902e-02
5.801261851354608257e-02
1.486554876163569128e-01
2.242007853366127512e-01
3.478232635087877833e-01
4.911230006788362967e-01
4.559309481486853999e-01
1.010929652830572512e-01
-2.983229372909456667e-01
-2.341892025420979073e-01
3.137042560863965712e-01
7.657662117133561264e-01
7.290545257058184125e-01
4.017522227116180900e-01
1.120012911102525321e-01
-6.785664012514996957e-02
-2.004309714819003385e-01
-3.066042080011266435e-01
-3.691634249314083571e-01
-3.739095648174140529e-01
-3.157613463142448507e-01
-2.057381585917827105e-01
-7.315846946829629438e-02
4.924251610822609482e-02
1.352268688812361119e-01
1.633213432950266220e-01
1.107368976014072581e-01
-3.773121311003916484e-02
-2.422237256030906338e-01
-3.886211223383427837e-01
-3.792335153017238891e-01
-2.306115798806525063e-01
-4.045532234800180982e-02
1.090902097773883000e-01
1.859895086092104299e-01
1.817878725786010174e-01
8.791671793824985814e-02
-8.721335815929265323e-02
-2.828428750526615909e-01
-4.009194996582575166e-01
-3.818574012714421317e-01
-2.505947579115185286e-01
-7.717697960039623939e-02
8.055249181499378464e-02
1.846973033610794790e-01
2.060364538485692787e-01
1.343071105777989549e-01
-7.881796659665860072e-03
-1.703723824364083428e-01
-2.945635764870137563e-01
-3.363102651275736710e-01
-2.837905853350802809e-01
-1.605406454534144822e-01
-1.516796094928197017e-02
9.617078126911755842e-02
1.328579196742870339e-01
8.603339608639004599e-02
-2.416256497034419137e-02
-1.604241479786320534e-01
-2.831355854420649631e-01
-3.629185963435982432e-01
-3.636376298003707319e-01
-2.233089806381839126e-01
8.476159267596218572e-02
4.489251784214116081e-01
6.149687903081559881e-01
3.468337369115163660e-01
-2.832580005964274172e-01
-7.684634947711406205e-01
-6.053979061081987689e-01
8.601851546077271538e-02
6.838129479769721186e-01
7.850714353165891835e-01
5.086205962728709284e-01
1.807055003185922271e-01
1.746059240058429191e-03
-2.073937136638817971e-02
5.603670936758113619e-03
-4.293741924446056735e-02
-2.156142654527969105e-01
-4.213902026265156087e-01
-4.768761181740959754e-01
-2.929373897275084349e-01
1.644623133602600429e-02
2.662112428086829685e-01
3.792254741257623518e-01
3.894247142560793851e-01
3.399306237826217880e-01
2.364467715407871096e-01
8.193164456332385770e-02
-8.134837955773112361e-02
-1.839255021955788771e-01
-1.758108468797071888e-01
-5.546632960192237477e-02
1.257186250881812128e-01
2.759123764183269434e-01
3.073401835096010726e-01
1.971932770697526760e-01
4.442894315106832304e-03
-1.819127126615369960e-01
-3.073817816936921243e-01
-3.602878847935580553e-01
-3.364477876524794575e-01
-2.321798884475053948e-01
-7.297950944854791899e-02
8.466765474739454400e-02
1.868918176275417564e-01
2.010536874717163691e-01
1.158934591683922488e-01
-4.243210708968496447e-02
-2.000647116116421875e-01
-2.761395567992537270e-01
-2.418420039971503066e-01
-1.294853244129322289e-01
7.303144494378913804e-03
1.274732102119502386e-01
2.065889628606017436e-01
2.315308468497163097e-01
1.958760150039818015e-01
9.575054514070262257e-02
-5.370559737257753902e-02
-1.850547043399188574e-01
-1.854947436411028827e-01
5.624618370299639541e-03
2.715232885135774321e-01
3.839173227091558505e-01
3.153859869940078275e-01
3.378424208513792215e-01
6.030929879185019660e-01
8.424196522879988658e-01
7.289453981963378570e-01
3.062649796706953254e-01
-1.248402040450553863e-01
-3.412614959006279314e-01
-3.149194671928762235e-01
-1.417740332386940305e-01
5.181707184589013498e-02
1.689208704005847050e-01
1.692994628357384623e-01
6.680394422785254638e-02
-9.008282850169870015e-02
-2.329510233121384055e-01
-2.899317701310323292e-01
-2.231037223368889100e-01
-6.260982506948992166e-02
1.084570120773651336e-01
2.147926378339639064e-01
2.403217523599271710e-01
2.189435298557518839e-01
1.714729473089317557e-01
7.452529226653409333e-02
-8.198653352087484358e-02
-2.379825313663188890e-01
-3.029355863873970378e-01
-2.348606700932728830e-01
-7.149474890808585337e-02
9.269224358347198656e-02
1.670807067239860888e-01
1.246316418786358876e-01
4.103464770832211672e-03
-1.360573328415605188e-01
-2.529220565306383173e-01
-3.250458353580488180e-01
-3.467836004388747950e-01
-3.170467522566022267e-01
-2.312231457282444558e-01
-9.716892604096630248e-02
3.836640924340173342e-02
1.025869411600875275e-01
5.414810458099184043e-02
-7.674215439829772112e-02
-2.128457231053215160e-01
-2.957064045365161986e-01
-3.240257839054692113e-01
-3.193182727321211001e-01
-2.700818639320988201e-01
-1.479194530822009745e-01
2.313941228651281157e-02
1.526199944090484428e-01
1.533428252124278690e-01
2.397215943035812744e-02
-1.233522269682262723e-01
-1.342276246354662250e-01
1.786192173474883405e-02
1.390412241842990115e-01
4.350664916740824839e-02
-1.046272675971541832e-01
6.804532858032788512e-02
5.900562644496164522e-01
1.030532435735845187e+00
1.009882561907140985e+00
5.642615591497877059e-01
2.233310190633996939e-03
-3.869044269381483048e-01
-4.884106297187321144e-01
-3.623659123482524391e-01
-1.445744478131719690e-01
5.453073653155032785e-02
1.804325746623894333e-01
2.127258414440912904e-01
1.479767447346231890e-01
7.192691368853580680e-03
-1.532858963889584536e-01
-2.564567676060799384e-01
-2.502272126393056961e-01
-1.422043920199476119e-01
1.534536402689438972e-02
1.620384628810335181e-01
2.452893777198549563e-01
2.272126020084711540e-01
1.040693357125910545e-01
-7.737485637327379262e-02
-2.371600092114053426e-01
-3.160544060103856467e-01
-3.119223828504978924e-01
-2.489261075825009439e-01
-1.339309132780198419e-01
2.174303199353491006e-02
1.614254548230665276e-01
2.125751715398520869e-01
1.534510723665099552e-01
2.160506642054733917e-02
-1.321464843866436145e-01
-2.660881581890429115e-01
-3.335625379650252187e-01
-2.920455975797548454e-01
-1.462985078104024061e-01
3.777342533813981412e-02
1.781808375515133713e-01
2.298355339780004392e-01
1.929647724308285461e-01
9.052170714396673423e-02
-4.462384792606838291e-02
-1.715013376806775458e-01
-2.476153136635867724e-01
-2.351658698039221229e-01
-1.161994171813817006e-01
7.286591471085582250e-02
2.363659317434801399e-01
2.915283264740446967e-01
2.591773748759886864e-01
2.462146045133015715e-01
2.824029925527856699e-01
2.098154474386002832e-01
-8.961931012865745338e-02
-3.391043469475416572e-01
-9.401913504596796922e-02
5.629374879060189407e-01
1.019907938294780880e+00
9.250068659425825235e-01
4.984828814678472497e-01
8.141839259425878716e-02
-1.974025697182436034e-01
-3.472452475016551965e-01
-3.936243199735343090e-01
-3.578561566263193661e-01
-2.615177259735776971e-01
-1.219899189387082805e-01
4.203752067114566171e-02
1.909365896933636342e-01
2.552206493487382266e-01
1.709321588721969265e-01
-4.529755597402172068e-02
-2.714172550206579992e-01
-3.778634371088822608e-01
-3.424759942842274252e-01
-2.335201378628113666e-01
-1.109684097228265526e-01
1.141278681848296832e-02
1.249331517740950442e-01
1.853528404000354401e-01
1.365717022440203210e-01
-2.320001280788746081e-02
-2.236522626406658998e-01
-3.762595828647926632e-01
-4.288678739720011568e-01
-3.839295104006449355e-01
-2.864571576767084293e-01
-1.781942068477510577e-01
-6.237622552420141187e-02
5.523461214231608490e-02
1.063295884681280390e-01
4.858754864191190681e-03
-2.310434017245378280e-01
-4.529054858280943119e-01
-5.164278200406491326e-01
-4.141834286963820833e-01
-2.445451999255436326e-01
-8.875070247443274385e-02
3.672467962387909041e-02
1.321439162229556263e-01
1.706476168646639258e-01
1.170941954938463092e-01
-2.339200115244316480e-02
-1.905860303045963655e-01
-3.086067501013224357e-01
-3.377958668832291567e-01
-2.917150492839059028e-01
-2.107144203554889017e-01
-1.040652599661074790e-01
7.742208266497174751e-02
3.312859712189338279e-01
4.357076354935889850e-01
8.886505054773485845e-02
-5.915428555323705151e-01
-9.529584188049287086e-01
-5.383315394336830595e-01
2.998235540061893745e-01
8.545299559421281055e-01
8.630363170710748655e-01
5.739788559289769054e-01
2.895024215020441383e-01
9.971980186549969649e-02
-4.277053749631012924e-02
-1.689094064042140908e-01
-2.510425014988848513e-01
-2.514244209322192281e-01
-1.603209503207432274e-01
1.401462633098569249e-03
1.877029310035973342e-01
3.382909817588652945e-01
4.029324327151898588e-01
3.667323407250866474e-01
2.555733844732814841e-01
1.158182866495372498e-01
-1.077528154407169508e-02
-9.401910151545973815e-02
-1.110189451836771091e-01
-4.998567961598925080e-02
7.556333207532747731e-02
2.181329834133639844e-01
3.114945871915520414e-01
3.055623428988251122e-01
1.946174429082362101e-01
2.099198407329674193e-02
-1.488644948343422481e-01
-2.606800248802187969e-01
-2.898294195107845028e-01
-2.378602939321549925e-01
-1.289771963796622345e-01
-3.556380800564331451e-03
9.617947051303704642e-02
1.373167716302717556e-01
1.024620302827603247e-01
-4.064640964021514966e-03
-1.516379972921273744e-01
-2.876994535640315931e-01
-3.551608933085125264e-01
-3.157787797186492051e-01
-1.724273708864142440e-01
2.013485017681856601e-02
1.787565832836209845e-01
2.455225022869058360e-01
2.209737718438819498e-01
1.425915765255322543e-01
3.845323395454432192e-02
-8.767208333522008568e-02
-2.173445431076087841e-01
-2.671055661412670701e-01
-1.219510423863660320e-01
2.061218559284704599e-01
4.600645658674966665e-01
3.553898225361331042e-01
3.070809637805113970e-02
4.389377697533475287e-03
4.437792582628634630e-01
8.546256107665781698e-01
7.687639183148278210e-01
3.127257575616840812e-01
-1.002939722385397803e-01
-2.523706337657103949e-01
-1.806220228891757817e-01
-2.379586475483465302e-02
8.833258454669914994e-02
8.844430845283814124e-02
-1.338392277892493619e-02
-1.528749183759045283e-01
-2.527628918000160430e-01
-2.588089513191600965e-01
-1.608303745144844255e-01
6.920717264037874739e-03
1.855084824158206025e-01
3.171879134219618979e-01
3.637612269571851020e-01
3.120894264855763600e-01
1.684372236202021644e-01
-3.848627343193776473e-02
-2.399885795328242366e-01
-3.404708407906141820e-01
-2.806588133951857245e-01
-8.920991393572957895e-02
1.302617219985442443e-01
2.644005175697903831e-01
2.645046260775033575e-01
1.682519507522904356e-01
4.146616611315193102e-02
-8.366469345306920546e-02
-1.969889190764021469e-01
-2.734322246472606910e-01
-2.811163257692259609e-01
-2.101510763911985658e-01
-8.219310792890754946e-02
5.391576807817979877e-02
1.406683169490268448e-01
1.439979903779777248e-01
6.845732160290333990e-02
-5.556293731847312262e-02
-1.870170477362383954e-01
-2.820617043104924337e-01
-3.043080756372631424e-01
-2.375852525189315612e-01
-9.763715953753122900e-02
6.597722540733474972e-02
1.920305971608477769e-01
2.371111012296034659e-01
1.789863003501036831e-01
1.592638624812797027e-02
-1.970264895250753157e-01
-3.243002275501978837e-01
-2.387766471445442462e-01
6.482748714926135636e-03
1.670725244444699886e-01
1.061871597492127367e-01
3.530262471160045684e-02
2.396586822091034130e-01
6.346231641420944092e-01
8.472280683395060352e-01
6.689170914119785261e-01
2.224833011403674621e-01
-2.289161480438323681e-01
-4.814281023574581986e-01
-4.669913473857915109e-01
-2.542404297042903383e-01
4.138591509460699813e-03
1.621714314156926240e-01
1.615891218539644847e-01
4.531074601751858277e-02
-1.000928342174546015e-01
-2.070498410815968249e-01
-2.445216389742808361e-01
-2.066292659371072593e-01
-1.047257549790920061e-01
3.312978775193428649e-02
1.645603164020778830e-01
2.417385157012535424e-01
2.275875079264222944e-01
1.133329725916294162e-01
-6.904945991305640185e-02
-2.463153304851095349e-01
-3.363425206381120969e-01
-3.087600395768604900e-01
-2.066270604699511626e-01
-9.009195530779186278e-02
2.068303309605232926e-02
1.195330509795754920e-01
1.624431225632982922e-01
9.378722469739336765e-02
-7.951504145559118442e-02
-2.739131366609449114e-01
-3.924246755678762466e-01
-3.903537097057944161e-01
-2.860848862858378361e-01
-1.279027898864073254e-01
3.482905181822620183e-02
1.567498506195551256e-01
2.039002986048375488e-01
1.672594883630708906e-01
5.668638636897102567e-02
-1.035568506408957729e-01
-2.541016823385663925e-01
-3.113811510894470835e-01
-2.342925892302712698e-01
-5.655629281592085278e-02
1.514504615225366058e-01
3.120570229543888630e-01
3.493761713379858747e-01
2.428289710631025278e-01
8.316124080034484334e-02
7.662326267251762940e-03
3.492172222585256808e-02
3.436661095984271108e-02
-3.721149370174813703e-02
2.901864966239767196e-02
4.044691542760667780e-01
8.662558704529061959e-01
1.002564336251966282e+00
6.863035997237311170e-01
1.395856197652759478e-01
-3.471439698340101909e-01
-6.182571578580041693e-01
-6.714618342823668318e-01
-5.778893529026111198e-01
-4.027708452360004854e-01
-1.923716366855315330e-01
2.251261704390206814e-03
1.264411934664124437e-01
1.495366796785148611e-01
7.992529485175414727e-02
-4.601014146760595835e-02
-1.832546342463101108e-01
-2.898626040569626250e-01
-3.298364410250919088e-01
-2.811969866761112602e-01
-1.560222489197938822e-01
-6.397299589745077814e-03
1.042794591232575896e-01
1.373520260280939875e-01
8.786486791110476036e-02
-2.779934365389020307e-02
-1.810691817767333123e-01
-3.302626921008829930e-01
-4.208845862844625696e-01
-4.017674738330859752e-01
-2.602801522110705368e-01
-4.967431268094606861e-02
1.317204987124707405e-01
2.043561698338392518e-01
1.555105639332314549e-01
2.999758041561040658e-02
-1.138405075167274599e-01
-2.371578284399375736e-01
-3.221884066704484018e-01
-3.428856609416263135e-01
-2.471762506415073890e-01
-2.316270437521437617e-02
2.183154026049304586e-01
3.205444300036838778e-01
2.455844304981700255e-01
8.149260000881546062e-02
-8.081291769034537609e-02
-2.024143270691177443e-01
-2.643216664327692755e-01
-2.447802269755928462e-01
-1.429758489331067750e-01
-6.378532823397849161e-03
1.050541863338513987e-01
1.969829299125974986e-01
3.326783348421243902e-01
4.779418778103012855e-01
3.953128469378687782e-01
-9.960262642579685577e-02
-6.949434965855666446e-01
-7.344440003736936173e-01
-4.607049380130597005e-02
7.673787117756750709e-01
1.083227661434540856e+00
8.785674126730924627e-01
4.823447425976349900e-01
1.320024851645445474e-01
-1.122663019797051215e-01
-2.621706179184518093e-01
-3.251100729567342196e-01
-2.943628317370618475e-01
-1.777876496379280913e-01
-1.199295799286944145e-02
1.567333206850810845e-01
2.919139850622518018e-01
3.670868884578994407e-01
3.600796293221206756e-01
2.612115406846997612e-01
9.626518462939753773e-02
-6.801313853123527875e-02
-1.589856017654148190e-01
-1.433885442451177106e-01
-4.053651224971217132e-02
9.764535023465405195e-02
2.150459623352457550e-01
2.700895349422716141e-01
2.381637322926782874e-01
1.087791039266211013e-01
-9.860216522288417496e-02
-3.124929106983336258e-01
-4.333428666205136892e-01
-4.036164359804094715e-01
-2.506377791649144759e-01
-6.017345138318503511e-02
8.409455672210708332e-02
1.421798776199842684e-01
1.174295030621727715e-01
2.953650838465776696e-02
-1.008105548697857679e-01
-2.385067972168163353e-01
-3.262769076582754946e-01
-3.215278233259780682e-01
-2.459954500343279338e-01
-1.712732881597682499e-01
-1.347806169324859971e-01
-9.795227850899447530e-02
-2.169130504101365181e-02
5.710094924904517838e-02
7.130580331777171266e-02
5.674665604345638381e-03
-9.910101026166369398e-02
-1.874295884124941580e-01
-2.130534005959758559e-01
-1.341493718220759246e-01
8.423541360608453876e-02
3.842799142877088570e-01
5.240991876885012779e-01
2.749735904480514748e-01
-1.644884105370904848e-01
-2.572635224371306872e-01
1.513737721006332970e-01
5.884906112017822544e-01
6.181904575708813132e-01
3.286997619641962021e-01
5.593740323532661596e-02
-2.248810238318018490e-02
4.259154888745443623e-02
1.087395008924611772e-01
8.278541844897122082e-02
-2.823458406814800120e-02
-1.543637248535427442e-01
-2.235273137247641706e-01
-1.955461104927184168e-01
-6.764715456791370318e-02
1.243890469996898063e-01
3.076026558578764947e-01
4.028882650793159104e-01
3.785346697518893189e-01
2.673622397202752299e-01
1.262216179340063249e-01
-5.723178113468508667e-03
-1.075443827636804323e-01
-1.592513641510479028e-01
-1.412289546051233302e-01
-5.712858379086624416e-02
4.707366534323193658e-02
1.066610715532351622e-01
8.817584343215387199e-02
5.834191722125746209e-03
-1.033879945976168974e-01
-2.033198732960412869e-01
-2.639702675608402993e-01
-2.642466616563649007e-01
-2.038084092840841688e-01
-1.109382605849687786e-01
-2.437331357684007632e-02
3.377997765197073010e-02
5.572197033127814642e-02
2.940217080357489590e-02
-5.457879615067626894e-02
-1.778199913831605417e-01
-2.912257397388894886e-01
-3.433991120002722885e-01
-3.104649452340825233e-01
-2.016644271536753297e-01
-4.948919627494510753e-02
9.565215171276200690e-02
1.775771270920398770e-01
1.678551190382668035e-01
8.028955724473518796e-02
-6.280531165958580520e-02
-2.421666742667973882e-01
-3.784432329440441944e-01
-3.139512103372171237e-01
1.394630424304923663e-02
3.635870890867190508e-01
3.531203103339383698e-01
-1.652292831962753894e-02
-2.368113163691076828e-01
6.164305363776633601e-02
5.979182691560024354e-01
8.305126392091176646e-01
5.850763275321183565e-01
1.094165157868819266e-01
-2.543130906725650231e-01
-3.239750935595741010e-01
-1.475353099902360909e-01
8.328010216952244638e-02
2.013103941888202686e-01
1.707213058982208209e-01
5.605288354980587917e-02
-7.469331362940806462e-02
-1.909750857580311545e-01
-2.581054981789961955e-01
-2.161833673745841844e-01
-4.729064590913117927e-02
1.737281604822221437e-01
3.416789431917081066e-01
4.064705766450082414e-01
3.721209400882987683e-01
2.447084567186184612e-01
2.506047549934508137e-02
-2.320406738582690420e-01
-3.955415311068653517e-01
-3.612290625760675167e-01
-1.659580048098713845e-01
4.735993964494602387e-02
1.610043141884069384e-01
1.543116764067955504e-01
7.334673319539991576e-02
-3.674981312757545637e-02
-1.610835065928905296e-01
-2.904138835092802684e-01
-3.905172444546652910e-01
-4.085532967127451509e-01
-3.114062273344205267e-01
-1.271595275378403778e-01
4.749787300723097572e-02
1.116564915955084586e-01
5.112042142577512271e-02
-6.313885415433810600e-02
-1.644978842038072320e-01
-2.339101889187308880e-01
-2.654892308773619258e-01
-2.441363399850444982e-01
-1.670418770458184932e-01
-5.619299505067443246e-02
6.347616853298476691e-02
1.749516575466097124e-01
2.416349690632332015e-01
2.066978988788728544e-01
7.301597395964853909e-02
-4.023625578059202706e-02
-1.646353245089400563e-02
6.914655005089583029e-02
4.060553151493217355e-02
-2.111800263184185691e-02
2.050070079370037990e-01
7.248326553233361835e-01
1.068982791107486063e+00
8.935545368447571635e-01
3.592813807189376707e-01
-1.793066488970636030e-01
-5.167360672163758828e-01
-6.134373040074014849e-01
-5.201894234664428129e-01
-3.315297897875656430e-01
-1.351806394724216487e-01
1.704575420690488535e-02
9.817306564657683754e-02
9.300866530077307737e-02
6.749677880458620008e-03
