-1.426409598228613532e-02
-1.388425490850996868e-01
-2.240690479166548010e-01
-2.084783760420537979e-01
-9.999647945299983132e-02
3.995823695548442883e-02
1.478286021262892047e-01
1.784784860723253597e-01
1.099393077443044098e-01
-3.270544035710008096e-02
-1.738024929360301174e-01
-2.432470534148199470e-01
-2.281019598798233183e-01
-1.542117708926377673e-01
-4.728519162574439105e-02
6.385107661206039509e-02
1.354861839598879292e-01
1.334145737254222586e-01
6.132896325893844036e-02
-4.400463187541595045e-02
-1.349473095453239402e-01
-1.813175908999681285e-01
-2.036163580321072308e-01
-2.528606141623600534e-01
-2.879726835502724458e-01
-1.044846930240817123e-01
4.154772813508975648e-01
9.310179871465620316e-01
8.719526434976050400e-01
2.130585466049758070e-01
-4.136517263082057916e-01
-5.485874131589262293e-01
-3.632914791498325080e-01
-1.934500260731082388e-01
-1.048616681866885586e-01
-3.441934477822791022e-02
7.483751359234018692e-03
-8.925757695711989195e-04
-3.485243568721266283e-02
-8.439423052727536290e-02
-1.574750320560125705e-01
-2.312634212006377255e-01
-2.691282791387751283e-01
-2.574587022209337550e-01
-1.994669203952904035e-01
-1.067542061761172778e-01
-6.245894745276522018e-03
6.644567649881437388e-02
8.337690853639272148e-02
3.637852761851229078e-02
-5.196669441752828356e-02
-1.343465599441320546e-01
-1.732387860235275745e-01
-1.658355039808569464e-01
-1.212420778782232200e-01
-2.280499436542309660e-02
1.539926991408055168e-01
3.708138928732773176e-01
5.083713272870773459e-01
4.639826941784572223e-01
2.585463963693908074e-01
1.844518079675495220e-02
-1.332364993083841320e-01
-1.535567876299919754e-01
-7.935330236202708942e-02
2.118857029890815549e-02
9.659634694680813150e-02
1.283851944967152048e-01
1.233645795278192070e-01
9.629740420261780065e-02
5.266897231230120713e-02
-7.313867870736206166e-03
-6.879031546676536713e-02
-1.013692033790754288e-01
-8.104147572279717104e-02
-9.552125147787322162e-03
8.102745867239757871e-02
1.459689237059210165e-01
1.688262766033582218e-01
1.800596267503208892e-01
1.994558910418484932e-01
1.632194998812760978e-01
-2.001345170330905490e-02
-2.852758445342218341e-01
-3.313570750481725780e-01
1.117566808121048527e-01
8.328389656854655598e-01
1.178806652998328541e+00
7.945432764669019265e-01
8.730210364478722951e-02
-3.077708635556805072e-01
-2.403980869084322292e-01
-4.277511726137064874e-03
1.282012577922964636e-01
1.190594995011950569e-01
6.628443699646134613e-02
5.163011321527836983e-02
7.764265751373011781e-02
9.532837692147107245e-02
6.235906006643848060e-02
-2.346057118427898741e-02
-1.292815059417992407e-01
-2.191890526974231423e-01
-2.837814713942452549e-01
-3.280715121580454197e-01
-3.334683363134525735e-01
-2.665128761274165869e-01
-1.363841664472469906e-01
-7.485912992025889334e-03
5.941656799483666096e-02
5.065455873516315488e-02
-1.490931195682207791e-02
-1.085353733838432116e-01
-1.915240940923277901e-01
-2.157285487541947266e-01
-1.461891341677367950e-01
7.476138841101407501e-03
1.833126005168150829e-01
2.980396809396320679e-01
3.009199811358038712e-01
2.063870415006306969e-01
7.116018347897801188e-02
-5.196587644519646415e-02
-1.325505230141827973e-01
-1.582791984314244060e-01
-1.310273243345872196e-01
-6.519646450119173653e-02
1.474412277601943114e-02
8.110490930066525939e-02
1.124860074307077462e-01
9.988720885061828925e-02
4.636420461303769613e-02
-3.689178529997137745e-02
-1.254007806591202479e-01
-1.772266927773685496e-01
-1.590134396999768607e-01
-7.943236329648076244e-02
1.990486199399726930e-02
1.038506800191817264e-01
1.582261318790398330e-01
1.591680135086130099e-01
5.496653712614475024e-02
-1.482210932535573400e-01
-2.653348323223306271e-01
-6.071519113324923972e-02
3.665064794299541795e-01
5.515785770934560350e-01
2.626259108844744006e-01
-1.445027535005211083e-01
-2.296939675384625512e-01
-1.365522469441861342e-02
1.906327459518895595e-01
2.057490504048511692e-01
8.497586796947256826e-02
-4.742684309053467329e-02
-1.201915705982344318e-01
-1.251139543148798994e-01
-8.936276793867495294e-02
-5.732966303110009765e-02
-5.759163390728420928e-02
-7.320485021125364145e-02
-7.759820443425229086e-02
-8.932396911594800426e-02
-1.458780260759063863e-01
-2.362389474744870932e-01
-2.961335665156069052e-01
-2.678291726948606732e-01
-1.565583141817168678e-01
-2.745309528086596618e-02
5.766673190526556969e-02
9.002322238518657704e-02
9.086305363440115579e-02
6.387701034172665882e-02
1.274579314874121211e-03
-7.284309502618221965e-02
-9.934096090519219102e-02
-4.032220015318359330e-02
7.295766359175923088e-02
1.684595794490265641e-01
2.043376001399248021e-01
1.868454340298963123e-01
1.310441611230730996e-01
4.454100251224400731e-02
-5.436420006904632563e-02
-1.359537042504887772e-01
-1.777211039819579230e-01
-1.709366065306773264e-01
-1.177775343188647156e-01
-3.346027524569401834e-02
5.353283549364117044e-02
1.106361204759231665e-01
1.163401212577083177e-01
7.321271259680736665e-02
4.838026634599694453e-03
-6.436059982026622051e-02
-1.226920743474368830e-01
-1.625593359158613305e-01
-1.643632903101923115e-01
-1.012477100519366541e-01
2.191559603835194908e-02
1.278162466095501271e-01
1.005238705094607943e-01
-7.236182799001834864e-02
-1.875280726782741214e-01
3.854117424023700920e-03
4.104207645407144112e-01
5.789251906020731475e-01
2.628499611995051555e-01
-2.091791086839402958e-01
-3.621490833929712494e-01
-1.342778821010970902e-01
1.787646760763328679e-01
3.188082652119083038e-01
2.494006883699191601e-01
7.537030670129307719e-02
-9.171815444061054423e-02
-1.957823543919786635e-01
-2.286603743394467758e-01
-2.050663923764331487e-01
-1.458811900421641827e-01
-7.032285105527760760e-02
-1.871951135947685571e-03
2.526180509390694648e-02
-1.542482141415439656e-02
-1.151128778770190153e-01
-2.280565731156080078e-01
-2.962473032877251389e-01
-2.807878341627077501e-01
-1.826209071559547481e-01
-4.015111986289574691e-02
9.159751110092674564e-02
1.672869204326576653e-01
1.736279915983865996e-01
1.345297943205623348e-01
9.011741736322798069e-02
6.055892490586499421e-02
2.978074784594198984e-02
-1.191196257462373044e-02
-6.119927985536440483e-03
1.256040710903327806e-01
3.337760547962913549e-01
4.375530553484919816e-01
3.396307969095308521e-01
1.426427743893008415e-01
-8.687598470081232122e-03
-8.529280164312244561e-02
-1.235163625152964351e-01
-1.254340445884158384e-01
-7.529533364295044884e-02
-1.140083876898092922e-02
-1.222705507142641569e-02
-8.443657877271368295e-02
-1.308407315836175311e-01
-9.309843393884199847e-02
-4.634605661960027045e-02
-7.864714886380458347e-02
-1.614765486938458672e-01
-1.989500882740094789e-01
-1.458234603171769672e-01
-5.308819011379568853e-02
-2.185011544276338133e-02
-8.213044689953205579e-02
-9.118459294670570869e-02
1.368694914064227108e-01
4.913480221588004682e-01
5.481697741413706915e-01
1.227637921817329586e-01
-3.971569860203357227e-01
-5.300837645695406497e-01
-2.510518595790361962e-01
1.236866195289252901e-01
3.404526286765671150e-01
3.570845144716857100e-01
2.630936853436820488e-01
1.616040155093470543e-01
8.297503059953022231e-02
-1.333541176880320353e-02
-1.410397357200041946e-01
-2.335621302015467027e-01
-2.250276968747045025e-01
-1.340998369239522481e-01
-3.155766136070971284e-02
3.267044042277790494e-02
4.794030110374511433e-02
2.024029238227374045e-02
-4.366502490124197361e-02
-1.287427935063875373e-01
-2.017750503497743875e-01
-2.260541849922832469e-01
-1.896633349236497290e-01
-1.119783320560092249e-01
-2.196397325413356610e-02
6.319543698024940315e-02
1.367866596567717530e-01
1.853293705200924069e-01
1.803811625609442193e-01
1.006807320349980134e-01
-2.932395616102730432e-02
-1.390069178292874519e-01
-1.669689864308170069e-01
-1.068876733385372424e-01
3.437291929580759894e-03
1.129066676310024747e-01
1.736217975331943164e-01
1.566674320475047733e-01
7.006473446795263849e-02
-4.318505829558173803e-02
-1.313313648314925475e-01
-1.637431325016700245e-01
-1.430465817659405670e-01
-9.068375117522622930e-02
-2.143281270444426234e-02
5.946357560470420106e-02
1.333955279406041639e-01
1.606322022006439476e-01
1.112329546063661884e-01
3.729574753744354515e-03
-9.908801644165737832e-02
-1.516448472823066496e-01
-1.816847625340103078e-01
-2.373292554520704534e-01
-2.415740382097507077e-01
1.887174904419785734e-03
4.961221545750472695e-01
8.447323817496761311e-01
6.527044356749600595e-01
6.849408033742165891e-02
-3.871469843278639855e-01
-4.379290886696790563e-01
-2.248434660815378239e-01
4.534763446740953940e-03
1.388670569641989316e-01
1.942136217591219627e-01
2.121544455431675913e-01
1.971047842176592013e-01
1.298746169229806624e-01
1.400640524290406967e-02
-1.135328870257452244e-01
-2.112720678692939225e-01
-2.573430612888413793e-01
-2.450583642165665987e-01
-1.712117587389036799e-01
-5.183716971916089988e-02
5.827661455343936120e-02
9.951520586310270977e-02
6.260019225537064025e-02
-1.660204208224842770e-02
-1.032950839177274455e-01
-1.758216306764783798e-01
-2.080819489139282275e-01
-1.731547973459134082e-01
-6.771633966406524763e-02
7.806275929228201349e-02
2.166367948207479355e-01
3.064260520169805324e-01
3.204282891452435167e-01
2.491930556307997147e-01
1.147939589907647495e-01
-2.960803382925472280e-02
-1.293571501499584109e-01
-1.503178041838120205e-01
-8.317159094950073162e-02
4.396700316950747506e-02
1.641355298697385889e-01
2.149812646922399373e-01
1.866630730250016523e-01
1.132408656150565018e-01
2.935694292854527238e-02
-4.473235289739015824e-02
-8.963282439947986568e-02
-8.991744628591004374e-02
-5.329656936727120153e-02
-5.304023789283050100e-03
3.806886143579263360e-02
7.811255824317289709e-02
1.176916827213029676e-01
1.472069510535322368e-01
1.314585689749254438e-01
1.019651765092698462e-02
-2.275067763154231260e-01
-4.203486405197334186e-01
-2.923875029528359426e-01
1.864672530325256483e-01
5.924761388169804688e-01
5.008797898881626187e-01
6.159513490708354300e-02
-2.216904950145947018e-01
-1.575416338774625613e-01
2.483161149588559297e-02
8.898587448850488191e-02
2.835731131623795559e-02
-3.936772864266493976e-02
-3.499387994792441808e-02
3.098595217399726515e-02
9.493446960964639636e-02
1.011258046104012570e-01
3.960154635890836966e-02
-6.086005353217190106e-02
-1.638643134082708730e-01
-2.432129571596430284e-01
-2.801853425498064820e-01
-2.623307764526760510e-01
-1.916062615039111072e-01
-8.856506136348153702e-02
1.139829746911506965e-02
6.962922585164066369e-02
6.744688949869534489e-02
1.842451775394380459e-02
-5.602349835625539121e-02
-1.476429341004645845e-01
-2.290027516767092486e-01
-2.222110514851899643e-01
-6.007300781799675138e-02
2.018589598639368154e-01
3.875690781693170717e-01
3.675142806293774655e-01
1.917769225139103195e-01
1.060206942026569593e-02
-9.498889263845727848e-02
-1.499245122024610577e-01
-1.946685498614519894e-01
-2.213815402046583614e-01
-1.852584551884502995e-01
-5.035181369626545722e-02
1.467277704015790274e-01
2.816493334601714027e-01
2.515672883941151294e-01
8.686639716300360858e-02
-9.114149955154673965e-02
-1.778181919222914242e-01
-1.358026009433454806e-01
-2.020819670719007852e-02
4.950371001659263637e-02
2.108501457056115996e-02
-2.155460982097839873e-02
1.565470750556093721e-02
9.292536762396014227e-02
6.752134351818757374e-02
-1.338696149861780815e-01
-3.508538362682598888e-01
-2.502511910848808085e-01
2.725838385162737132e-01
7.775426345601226252e-01
6.953658133240615546e-01
9.730645834181896048e-02
-3.566543051070090176e-01
-2.657618402944435521e-01
1.252744938167992816e-01
3.740371401468606805e-01
3.182931725568307058e-01
8.998536989391540952e-02
-1.169122343213516158e-01
-2.123323218521853684e-01
-2.165454949841124632e-01
-1.791042223142849110e-01
-1.276262411951600562e-01
-8.522489078022907338e-02
-8.742091056351786182e-02
-1.488701587178459518e-01
-2.358891623493398204e-01
-2.993469686979963185e-01
-3.248439918464047227e-01
-3.315382311769246027e-01
-3.252296626520648770e-01
-2.770419618873362633e-01
-1.644752736385986513e-01
-1.918843570271043519e-02
8.460865365387555681e-02
8.797204930433034920e-02
-4.764618773610854174e-03
-1.219680073032027579e-01
-1.742739000014973949e-01
-1.326379554702672714e-01
-5.471972345603898225e-02
-1.147861412932723105e-02
-4.212150023186016917e-03
1.381669434376586562e-02
5.462167819393075330e-02
7.317409038537056598e-02
2.313500962173979658e-02
-8.836843638345254215e-02
-2.056505364704536432e-01
-2.716840189585316145e-01
-2.624336161009936386e-01
-1.868549869465233604e-01
-7.319894683403808944e-02
4.251605463798503737e-02
1.260915155155122869e-01
1.517922756733840750e-01
1.096974908032435914e-01
1.555906740110230696e-02
-9.125229902645350111e-02
-1.621475830827826814e-01
-1.539969654613383976e-01
-5.866779372182384655e-02
5.998425193721923510e-02
9.732247462213465539e-02
4.945242289162815608e-02
1.212290075440497078e-01
5.215258337520970455e-01
1.029559186221233213e+00
1.050612190575006100e+00
3.930576888207063524e-01
-3.495076498210821225e-01
-5.180183557268344119e-01
-1.285078022171659007e-01
3.430608281441195895e-01
5.608699950489067776e-01
5.165204115546061514e-01
3.423201000446881026e-01
1.331776086895546385e-01
-6.458058449604150986e-02
-1.974995664383297489e-01
-2.243416696135841493e-01
-1.916124497804797544e-01
-2.087081088103839299e-01
-2.932691084733357600e-01
-3.198705041374005908e-01
-2.064858865338700666e-01
-5.766067539440499629e-02
-2.146990421297310589e-02
-9.963791472680981476e-02
-1.889698361896562373e-01
-2.274196834015351776e-01
-2.185482228849734976e-01
-1.634661790898760125e-01
-5.091851415475038417e-02
8.857848989498118275e-02
1.832344868342850042e-01
1.974597679715054954e-01
1.677407374262285811e-01
1.402767217779006814e-01
1.107208561568734095e-01
5.188747532401895290e-02
-2.629656915101545589e-02
-7.186186240784395163e-02
-3.821499773032215053e-02
6.925343836317587876e-02
1.857179405500186398e-01
2.331377859666843855e-01
1.847416775069090911e-01
7.838103847158806037e-02
-2.952749958566415825e-02
-1.050861825387389842e-01
-1.353096625888335069e-01
-1.119632753224764632e-01
-3.449737572532324270e-02
7.322039775749113188e-02
1.632047549031195866e-01
1.950309859259595491e-01
1.632805832846114802e-01
8.650809132238312937e-02
-9.438666832563179926e-03
-8.658814647681992160e-02
-1.133654363355610928e-01
-1.154040745703638765e-01
-1.543606516247378324e-01
-1.799731508638573452e-01
3.325189997541148912e-02
5.917584939175489778e-01
1.121399657314631648e+00
1.047019583995758563e+00
3.410115356132504272e-01
-3.791580151504045371e-01
-5.878806557983644598e-01
-3.319142009839852747e-01
3.318795104580071764e-02
2.544586113049623899e-01
2.902027430149205500e-01
2.165726320779473579e-01
1.147205417897495805e-01
9.656472676001762526e-03
-1.153875866215459955e-01
-2.553763063273787326e-01
-3.567975825590987693e-01
-3.705073605975536810e-01
-3.072117353672190743e-01
-2.175606150024628482e-01
-1.379902994835083829e-01
-7.708826883894420723e-02
-3.890672556690408235e-02
-3.843518179596420309e-02
-9.012842446406109376e-02
-1.816423898149460425e-01
-2.661025821935640856e-01
-2.946751039302606956e-01
-2.541487541688894347e-01
-1.584688760937806584e-01
-1.988128163158402184e-02
1.399369035580879383e-01
2.657872289420086243e-01
2.956676466862796504e-01
2.111014954477031524e-01
5.013397915643109937e-02
-1.139374809352386442e-01
-2.047951683032287473e-01
-1.821037623538953598e-01
-6.907983007893336858e-02
6.393388253568083046e-02
1.525685242147332144e-01
1.731307257136166511e-01
1.342480512137948778e-01
5.600031044547540415e-02
-4.005181807364095736e-02
-1.310136695590810307e-01
-1.894966620806970703e-01
-1.889017540681026397e-01
-1.213589672480470394e-01
-1.340198515977054049e-02
8.192846898067927819e-02
1.192607949431249564e-01
9.041547569349546454e-02
2.041883086808510619e-02
-5.976352015125099837e-02
-1.434616716741571596e-01
-2.533737576246304912e-01
-3.691846700208304966e-01
-3.357928120271093664e-01
9.960316178249647989e-03
5.032752422889362753e-01
6.681411291338725800e-01
3.044656296900815629e-01
-1.995869241493900548e-01
-3.760275578528002871e-01
-2.081903420789551762e-01
1.607314375239738552e-02
1.075420620989018944e-01
8.766230244375666780e-02
5.212557063196708584e-02
4.432714122332087614e-02
4.730903152201884621e-02
3.625215918353905109e-02
9.961360348988935673e-04
-6.327360441284893278e-02
-1.509718441725009519e-01
-2.329591900523318160e-01
-2.701980252758996448e-01
-2.447087320469624461e-01
-1.695179058012830919e-01
-7.222189768627754192e-02
1.895049409412878985e-02
7.461993682422669860e-02
6.818798046172219740e-02
-3.305286098377272636e-03
-1.037358772760536008e-01
-1.800249435878584492e-01
-2.041495789642132352e-01
-1.770931720916283647e-01
-9.609619616416775756e-02
4.399935028251347052e-02
2.060238661804464633e-01
3.051321131909457973e-01
2.762363881235720964e-01
1.362053000105936662e-01
-3.495467347276902392e-02
-1.634610929405021229e-01
-2.173401083767176611e-01
-1.935955584554716336e-01
-1.071122738338486924e-01
8.094028345144232278e-03
1.100771536218987656e-01
1.655484157071778761e-01
1.634328872723403991e-01
1.360549691797882377e-01
1.436053676480681940e-01
1.828598780227910781e-01
1.574026864178914298e-01
2.444701252776800698e-02
-1.030989675704220426e-01
-9.868595758662294937e-02
2.028141247830480068e-02
1.486468108930195653e-01
2.159784351243281553e-01
1.919884590856869022e-01
4.240165021539608198e-02
-2.273976207407029104e-01
-4.698036330166002750e-01
-4.208441081679063500e-01
3.181556323204915576e-02
5.886552618755148680e-01
7.532153651206213718e-01
4.079531409451491175e-01
-5.094897913833920655e-02
-2.281100205691553862e-01
-1.227683136082613757e-01
2.668165313170020592e-02
5.562632749240256635e-02
-2.226791539228447150e-02
-9.650582048872898000e-02
-8.490418515197065141e-02
-5.740120337912810178e-04
7.446640363981334165e-02
7.317693344520981302e-02
1.455235938823398398e-03
-8.885965648301123732e-02
-1.650121086618783761e-01
-2.241709738023717202e-01
-2.573456131108377565e-01
-2.411057711944313287e-01
-1.658263426933928864e-01
-5.657386003573068589e-02
3.753850311953775554e-02
7.922065626460435273e-02
6.800437819728050171e-02
2.607004189866217458e-02
-3.028655992842704120e-02
-9.326751684378056795e-02
-1.408056865524288936e-01
-1.287476206072726559e-01
-2.798950894165792153e-02
1.282244521767160472e-01
2.565787078593965709e-01
2.952002178286106115e-01
2.483921652398826119e-01
1.606541752681272528e-01
7.252705081958145394e-02
2.362334304084868185e-03
-4.917632764734810452e-02
-7.879751602436407820e-02
-6.998211994227671040e-02
-1.583653822747102882e-02
5.996225764496954797e-02
1.231660125935546274e-01
1.576558588359620872e-01
1.586488301821331881e-01
1.153595398482677725e-01
2.737858793818966421e-02
-7.022048601933233991e-02
-1.268267261996265660e-01
-1.212716672574548488e-01
-6.699899276375778645e-02
1.771065992254372556e-02
1.119462973679037215e-01
1.640770300330457176e-01
1.078510159271243718e-01
-4.006801770665700813e-02
-1.149322527544242301e-01
3.305862273659572470e-02
2.554736198351951204e-01
2.102325129441968976e-01
-1.245604512481570669e-01
-3.487007512224044592e-01
-1.893712706683816083e-01
1.747028166533619586e-01
4.192711683875858797e-01
4.206252677352017022e-01
2.543157710302485497e-01
4.610792304038635603e-02
-1.134239590335076736e-01
-1.814095827585575083e-01
-1.523611082996772781e-01
-5.710660825650484829e-02
4.027408351600066105e-02
8.190647394660796610e-02
6.161810441935145627e-02
9.234145177802279003e-03
-5.671903158599045369e-02
-1.298238448817513047e-01
-1.892635157431469539e-01
-2.074444125562354135e-01
-1.754465263705932143e-01
-9.993140771608040318e-02
9.581901601469128282e-03
1.229650608918247262e-01
1.782948270878066122e-01
1.332097416074756457e-01
2.594483319643900096e-02
-5.174567548839500292e-02
-4.881609811522955034e-02
1.255904303424757937e-03
3.642476786606230893e-02
4.500341228401803784e-02
6.624326326315943536e-02
1.162020167985913510e-01
1.486160285427057248e-01
1.100250538095227520e-01
8.314576119209085917e-03
-9.747216745348533107e-02
-1.588301228202212700e-01
-1.681245854426146880e-01
-1.387884636604177768e-01
-7.991526008240798506e-02
1.140669106504735124e-03
8.116568843991978088e-02
1.223674938909379145e-01
9.869203070133182598e-02
1.938763008858827158e-02
-7.546684852529078613e-02
-1.466013988999242124e-01
-1.818105383922763163e-01
-1.836530966635514517e-01
-1.450911179946476337e-01
-7.116884217626315290e-02
-2.199777536990607171e-02
-6.295043279453209351e-02
-1.099504701010471097e-01
7.672074258485409026e-02
5.443690534330647424e-01
8.775678787966310068e-01
6.273232047590828753e-01
-3.273191571956902968e-02
-4.772473178989992126e-01
-3.888930291669766559e-01
2.519805518662675270e-03
3.197821632385781654e-01
3.869158484409919163e-01
2.488369318699915067e-01
3.961338000917061231e-02
-1.326626758193038547e-01
-2.301439561108263032e-01
-2.659750057995932671e-01
-2.592456237929249840e-01
-2.168879747338868236e-01
-1.548534248712159500e-01
-1.025106226420836875e-01
-7.491082991046602024e-02
-7.306914180108184387e-02
-1.087993117104135016e-01
-1.860496452857320904e-01
-2.631002100050128245e-01
-2.804780455307160358e-01
-2.271315016984214730e-01
-1.455565285535092290e-01
-7.858222458088146012e-02
-3.495362124707155488e-02
4.452662029697879165e-03
5.757226261842770393e-02
1.067037246197858891e-01
1.026771532609129511e-01
2.448685722200241027e-02
-8.000637212409886234e-02
-1.363766414852612407e-01
-1.174731830845938962e-01
-6.262477440620081715e-02
-3.026055542991594460e-02
-3.729777837838460508e-02
-5.389838798250663754e-02
-6.310765836155028674e-02
-9.409955407940225058e-02
-1.691356332364623849e-01
-2.470500047053506565e-01
-2.550895189612650271e-01
-1.708254882772854144e-01
-4.841125126134096512e-02
4.441290890664978397e-02
8.881654409042362419e-02
9.202215199142174673e-02
4.475485446271894319e-02
-4.607548300468200519e-02
-1.206747024769423970e-01
-1.353323452714235986e-01
-1.484190594501003102e-01
-2.420412686150479054e-01
-3.159043114146297682e-01
-7.887740603837889442e-02
5.432199749144106526e-01
1.054848068664442806e+00
8.495397774433808280e-01
5.626550332840503377e-02
-5.572648902109476055e-01
-5.457018465176888267e-01
-1.696233927579119949e-01
1.317261854808474131e-01
2.179032981109351452e-01
1.957862938930862440e-01
1.735357894871402684e-01
1.589701070076184330e-01
1.129376082633593431e-01
1.952522564390911722e-02
-9.755137907942156017e-02
-1.923507408490466586e-01
-2.254195785292643917e-01
-1.910532525953723137e-01
-1.178509619153574328e-01
-4.087512163968666512e-02
2.009669799415196578e-02
5.776631912301046640e-02
6.596172175674885896e-02
3.763918116521373924e-02
-2.431367556430431148e-02
-9.582911099909580122e-02
-1.404081780487274889e-01
-1.361591691335270748e-01
-8.668398764065431139e-02
8.319879793129703049e-05
1.221622873965780981e-01
2.551951650272492045e-01
3.377038697861211580e-01
3.120061673901657340e-01
1.780617029638703608e-01
8.862392837674371027e-04
-1.325320117827419042e-01
-1.664650189888970400e-01
-1.019273489758167339e-01
1.455641226362620888e-02
1.251004827934318608e-01
1.934203748267011302e-01
2.121183821054246077e-01
1.824055063912113916e-01
1.018575562919753208e-01
-1.408728870212468641e-02
-1.161212717053617394e-01
-1.538855443641977960e-01
-1.178220078472460020e-01
-3.477508773689164112e-02
5.814164504376032050e-02
1.231322590781899484e-01
1.339755181999287559e-01
9.910246997303014116e-02
4.980537167367815599e-02
-1.470707481608995830e-02
-1.370877712747533284e-01
-2.925673673467191760e-01
-2.754254742320768057e-01
1.435928434148247557e-01
8.077185876031526268e-01
1.134159826063634968e+00
7.714483738545362401e-01
8.537018264833219627e-02
-3.094342086465153852e-01
-2.535959824292203790e-01
-3.332246220478776721e-02
7.735333192445045802e-02
4.368112895162238468e-02
-2.545683832929841392e-02
-4.050711673548355179e-02
-6.087082629354090280e-04
3.819041037945258843e-02
2.812511763609450849e-02
-3.568255878658541103e-02
-1.274010103141264838e-01
-2.220876138993370663e-01
-3.050098192926253837e-01
-3.542712469126672037e-01
-3.420880550972548173e-01
-2.671083598091396616e-01
-1.572363720642674656e-01
-2.459654343017487338e-02
1.357218487302618570e-01
2.694305354739440772e-01
2.599033685745631983e-01
7.700419132361635555e-02
-1.407029690548049494e-01
-2.306119647679462648e-01
-1.658368897432356270e-01
-2.279205483356731496e-02
1.282494046060974613e-01
2.445173652725282643e-01
2.816258873214955716e-01
2.144938247949284005e-01
7.791748775876905508e-02
-5.682942112224390052e-02
-1.412152927296973226e-01
-1.660696894869637674e-01
-1.393431587019381690e-01
-7.168720183128415857e-02
2.137753133584062784e-02
1.136784208396179885e-01
1.693197140646339471e-01
1.617343466390798734e-01
9.742993978136264832e-02
1.251730817306963457e-02
-5.555565054620489884e-02
-9.112756192187776438e-02
-9.435412513974968107e-02
-5.493889183559724082e-02
3.377160753072665916e-02
1.125444186223543558e-01
7.356284628970473360e-02
-9.914139751085114527e-02
-2.845697851648719690e-01
-3.817248434546274272e-01
-3.741031207215074206e-01
-1.996147739461224258e-01
1.741487216081706313e-01
4.926479854090088928e-01
4.105537250488373036e-01
1.666328145527643662e-02
-2.279948068596906741e-01
-1.020539550133175988e-01
1.699748577846687814e-01
2.910600466726441793e-01
2.017445972567548096e-01
3.532395628038927787e-02
-7.130163427076186000e-02
-8.697602762776161789e-02
-5.632778668645019304e-02
-1.173602769817900376e-02
4.039266092281919296e-02
5.170341133058758976e-02
-6.344538789303039161e-02
-2.926437178886253099e-01
-4.723994274505615154e-01
-4.661110663655794184e-01
-3.238310677721130681e-01
-1.806405704685194458e-01
-8.713022939750872387e-02
-1.512111391735847070e-02
5.089840173063157197e-02
9.391368770062955007e-02
9.607307263691639010e-02
5.087552043491842119e-02
-3.610643883743747118e-02
-1.307598203997702435e-01
-1.689972357236209921e-01
-1.033705912354236922e-01
4.149506516280097174e-02
1.748078490659958351e-01
2.176943252413871543e-01
1.738906740834899323e-01
1.047157692020904557e-01
4.499503198588986758e-02
-2.057149682160018186e-02
-1.079179302982819638e-01
-1.921207400611414373e-01
-2.017390514950606339e-01
-6.524702065560257502e-02
1.761064923346278566e-01
3.406833280379706896e-01
2.975523127824027392e-01
1.306455577200406892e-01
6.579800452506470027e-03
-3.771481205420505051e-02
-7.718541055999672551e-02
-1.460300306028380346e-01
-1.951387747357627711e-01
-1.753674179923706000e-01
-9.412353026905789788e-02
1.752480082519980442e-02
1.320048374582450945e-01
1.864177347207853497e-01
8.961053944932485804e-02
-1.309299829609659183e-01
-2.296883484198773417e-01
2.273636338826842684e-02
4.559595877659043395e-01
5.960581206774296925e-01
2.715909631212548025e-01
-1.516503492917773976e-01
-2.661164105829774140e-01
-6.933891623647098212e-02
1.720909561967886303e-01
2.566023018282415080e-01
1.602277154378855817e-01
-3.078437582828836422e-02
-2.029548228420937628e-01
-2.714857130081707037e-01
-2.199708471955985345e-01
-1.050525602246911994e-01
-6.054172541454294620e-03
3.331464579609214050e-02
1.079524228850634298e-03
-1.109170400723272915e-01
-2.747253117837283876e-01
-3.968596632047586281e-01
-3.961364483077338683e-01
-2.931026920107139833e-01
-1.696439282561506279e-01
-7.169849330774494267e-02
8.160553240072076012e-03
8.121925687104827873e-02
1.287263916328019731e-01
1.178678035296901044e-01
4.700150488260011750e-02
-3.098303224541118506e-02
-4.480885792071955670e-02
2.375854649908458113e-02
1.154886343798798426e-01
1.597734717658494119e-01
1.502240720373838601e-01
1.307464626010561015e-01
1.286044178677581973e-01
1.296200105880894182e-01
1.045064892827272940e-01
4.132326831998225231e-02
-3.985236199796641371e-02
-9.571967699465745716e-02
-8.811157615497913764e-02
-1.414985234763840340e-02
8.466189314742188221e-02
1.495722731750828982e-01
1.537661495948348389e-01
1.207715381936726867e-01
8.438087741201483194e-02
4.251004442253291521e-02
-3.254195974824349719e-02
-1.347723066269448378e-01
-1.832811396802335457e-01
-8.304145876697990869e-02
1.255252741651412263e-01
2.363993008787780847e-01
1.175035212705316801e-01
-4.933331113365336390e-02
5.401663589989068315e-02
4.049348376278062434e-01
5.551252827253304600e-01
2.178921913392316556e-01
-2.850630814248213407e-01
-4.389250030132670344e-01
-1.670241441105592695e-01
2.064349412344227419e-01
4.031395236155493889e-01
3.888100358786515387e-01
2.611407589741620572e-01
1.072303312274951737e-01
-3.391256672779151271e-02
-1.436106170474442667e-01
-2.006356756547252318e-01
-1.889730763855794748e-01
-1.203576343798999637e-01
-3.667038597707247827e-02
2.022590376542123675e-02
3.727937165051777024e-02
2.557043345390496228e-02
-4.749264642212193584e-03
-5.504558171631153407e-02
-1.208953343759442134e-01
-1.738753667103470346e-01
-1.752846530373230460e-01
-1.122739030125449178e-01
-1.607889415700962041e-02
6.340583331066451667e-02
1.044882998402858199e-01
1.230888381863449454e-01
1.320653366797067407e-01
1.177308885203452310e-01
6.909886231049863770e-02
4.398184403359275095e-03
-4.410787271755596539e-02
-5.529601812418628859e-02
-2.519344670766411262e-02
3.545968677198223229e-02
9.813633068308783014e-02
1.213358459132909128e-01
7.658348743663748182e-02
-2.665422515106321069e-02
-1.443037591450598567e-01
-2.234889185829338765e-01
-2.289133861223307254e-01
-1.590505179228680066e-01
-4.875202277227178027e-02
4.981070147808807497e-02
9.869428276288884361e-02
8.545520695644313880e-02
1.212114531591446456e-02
-1.046125771615282890e-01
-2.204265510136372286e-01
-2.730260224731841934e-01
-2.313898324808044138e-01
-1.515281472294179033e-01
-1.492174415674276111e-01
-2.271491307170557805e-01
-1.316014135904483018e-01
3.957511969579944888e-01
1.092970532817248097e+00
1.250636590728120723e+00
6.011558208110140411e-01
-2.517998792858007207e-01
-5.899658013119205568e-01
-3.535976761167297644e-01
4.485004400461604923e-02
2.781813167030561251e-01
2.966240353653984418e-01
2.019261490141247561e-01
8.577721002310600973e-02
-3.495290798405176202e-02
-1.716475297857744942e-01
-2.958037565603909291e-01
-3.526468794188293288e-01
-3.282538932467404802e-01
-2.613813651343542266e-01
-1.885759836959290114e-01
-1.144180306951852050e-01
-4.513781845961683387e-02
-1.739525902151086920e-02
-6.444436288592432505e-02
-1.645421270201881392e-01
-2.494118358105969213e-01
-2.654323985629295501e-01
-2.108111498564106123e-01
-1.167037903396985904e-01
-1.380682863244635933e-02
7.964402011281022931e-02
1.533257524297258201e-01
1.922462651294827574e-01
1.691955860210669904e-01
6.832273256673561390e-02
-7.666919797718879659e-02
-1.910704566006364014e-01
-2.182533713635556039e-01
-1.569482036857497986e-01
-4.541510342025289332e-02
6.598578330503387934e-02
1.309102433288251710e-01
1.245388065541011974e-01
5.658684613798772856e-02
-3.961378700098031058e-02
-1.327973571481065040e-01
-2.026217185831459267e-01
-2.287020508473695257e-01
-1.918589271695829435e-01
-9.896828394377264748e-02
4.562528682427928126e-03
6.602147982711092933e-02
6.676265126368510772e-02
2.448012240818002450e-02
-3.202988619770127249e-02
-9.212110291566441567e-02
-1.872149154364349810e-01
-3.436678735111279304e-01
-4.418631175301956371e-01
-2.111161054539413273e-01
4.069387153294456994e-01
9.347963149003878369e-01
7.963520103009427142e-01
1.107594753266585852e-01
-4.179741362774325730e-01
-4.084331232433949244e-01
-1.273042861057250841e-01
3.858120552110608920e-02
1.458560860604734069e-02
-5.599095586282872711e-02
-6.816642877909503961e-02
-3.244694042643817694e-02
2.046755694203902104e-02
1.040899927707256284e-01
1.936690063688465135e-01
1.736292748647338402e-01
-9.066991022714354642e-03
-2.234075121803200947e-01
-3.119785465321305296e-01
-2.721812486125773645e-01
-1.884974382938721937e-01
-9.818785129184952332e-02
-4.910178505367790436e-03
6.060266390896979632e-02
6.493333628418540560e-02
1.530708354828071160e-02
-5.646314875161471958e-02
-1.214566348291137299e-01
-1.521214425383769775e-01
-1.200697651864068433e-01
-8.525671388302786050e-03
1.655616828933608176e-01
3.338734323297810613e-01
4.050489520416190592e-01
3.386101565589688667e-01
1.801441999658720539e-01
1.367485253794711170e-02
-1.004764739064344381e-01
-1.409160883591556446e-01
-1.105954276838706229e-01
-2.465538454371263982e-02
8.511647593917583132e-02
1.632668474974112993e-01
1.672424918327858889e-01
1.343183577403336271e-01
1.590914779853049021e-01
2.477324869321982093e-01
2.661785579460907991e-01
1.280296515035198868e-01
-5.542196567758665704e-02
-1.199336000311836820e-01
-4.767836219817818411e-02
6.329693943825771829e-02
1.427090232541874670e-01
1.830961240624143782e-01
1.656954688543208765e-01
2.998371008148690425e-02
-2.136091672806751940e-01
-3.389440511065777706e-01
-2.915790935407187173e-02
6.677418370950449766e-01
1.164050394112746467e+00
9.520869490754975129e-01
2.671001053992588803e-01
-2.277678764375888898e-01
-2.424510414795244539e-01
-2.016457732321924601e-02
1.145680456639039113e-01
7.629535171872244004e-02
-3.658871405438909180e-02
-1.172956670842804777e-01
-1.295673199804412978e-01
-8.972945907454277226e-02
-3.696591017219173769e-02
-1.836746453186299463e-02
-6.541645121281355890e-02
-1.684671050429201455e-01
-2.809100255309139316e-01
-3.545273308489959030e-01
-3.695197827264252721e-01
-3.295468926409884092e-01
-2.423526353675834466e-01
-1.221663969152539941e-01
-2.532178737980814859e-03
7.221879258936980683e-02
7.310428745046587684e-02
3.352102488627831806e-03
-1.051781056952587889e-01
-2.047936755037871037e-01
-2.449117712072938491e-01
-1.909829172701573152e-01
-5.071998132708022133e-02
1.133452510929033319e-01
2.130435699631968993e-01
1.972766789911795382e-01
9.070339896806714486e-02
-3.284346280372949650e-02
-1.109333428233143792e-01
-1.293895186671336073e-01
-1.181693881856855088e-01
-1.263380942886095926e-01
-1.841034508311395479e-01
-2.532233985636166973e-01
-2.383328509934013184e-01
-1.055601255676243133e-01
4.762529548949701735e-02
9.925565690954224474e-02
3.068652000240197283e-02
-8.599703847236606080e-02
-1.739022093625853249e-01
-1.972530736947206431e-01
-1.554738125366836865e-01
-6.700150346047534233e-02
3.851340981149282278e-02
1.256747399299365242e-01
1.474973072228132898e-01
4.979623798690747949e-02
-1.419698153188863887e-01
-2.238164150785342532e-01
2.085436400180431041e-02
4.350615693390013639e-01
5.338816465745187534e-01
1.532506096341418877e-01
-2.756292956966387431e-01
-3.152121975254943420e-01
-3.037958284200173442e-02
2.347999242601877534e-01
2.804271615371522475e-01
1.516566318418634540e-01
-4.010981970450359230e-03
-9.240614845830173729e-02
-1.161138042197712439e-01
-1.107944565653198044e-01
-8.670619570522566932e-02
-4.134350333092235569e-02
7.941563145782716202e-03
2.450743130894497690e-02
-1.929293095438880737e-02
-1.114951077641532090e-01
-2.007792418662482092e-01
-2.371816698811937407e-01
-2.069878996250756331e-01
-1.250808321375024290e-01
-1.108452723815731532e-02
1.137101808256286706e-01
2.137345592661733518e-01
2.415168714180806753e-01
1.699105691738885815e-01
3.097775549140871498e-02
-8.650296245129218686e-02
-1.005042549787870942e-01
-8.747065876299166959e-03
1.100045273002283330e-01
1.788706007912326534e-01
1.946841371113018360e-01
1.990977243234961225e-01
2.051310619126096024e-01
1.883615673952342695e-01
1.303773489846657974e-01
4.347317204844963756e-02
-3.693103626582933813e-02
-7.527470561542166927e-02
-5.494164883035584229e-02
1.826042236514942296e-02
1.189979668499658999e-01
2.094328755035818335e-01
2.553385355356785347e-01
2.425094627085204735e-01
1.854785134922374845e-01
1.170397471371483616e-01
5.408426804138165983e-02
-1.251493648948149087e-02
-7.372829211082083944e-02
-8.013357929592616891e-02
-1.869690138236354895e-03
1.030562759913199178e-01
1.101867351676056178e-01
-4.859334518272222930e-02
-2.440141098427281718e-01
-1.887126297594846069e-01
2.179203835881928231e-01
6.147249655104297661e-01
5.365622782126622248e-01
4.736975394799880501e-02
-3.298197072668200280e-01
-2.871535354434410214e-01
2.876082656459860720e-04
2.165476460146369964e-01
2.326778840207773535e-01
1.152760136206253394e-01
-1.829479212988278924e-02
-1.063118978750960814e-01
-1.495046609292362549e-01
-1.633405123260117664e-01
-1.536700616246525763e-01
-1.288499274944127082e-01
-1.057980370322465502e-01
-9.929650657428654159e-02
-1.178440521886789522e-01
-1.643826628524792111e-01
-2.281847913936943528e-01
-2.816427463797006592e-01
-2.943198564309082998e-01
-2.517168129964738599e-01
-1.658048454158389251e-01
-6.795793121311743956e-02
1.261759898944878056e-02
5.707227539615258166e-02
4.987784691129310000e-02
-8.279400419623753407e-03
-7.868001131416774152e-02
-1.070388985313378144e-01
-7.585588173485084684e-02
-1.492150116580922073e-02
3.925948233856335623e-02
7.633552055672802872e-02
1.030755360875605653e-01
1.189495576505179841e-01
1.134363694497591002e-01
7.583373631061750275e-02
-6.035478901132828450e-04
-1.016648908070007656e-01
-1.735686790745843144e-01
-1.572247283244456451e-01
-5.620382656772767577e-02
5.945504195579569967e-02
1.299151695637945358e-01
1.538574674681415511e-01
1.483809409458242412e-01
1.047670177388047991e-01
1.356269015350201196e-02
-9.627706122652893161e-02
-1.717411052687762563e-01
-1.760132966763738593e-01
-1.045251603990286771e-01
1.199746988221251677e-02
9.776474818080455043e-02
6.974029783954314998e-02
-3.783312329782406724e-02
-3.003041039440847160e-02
1.987800469559771188e-01
3.966672263965963507e-01
2.234597330036912355e-01
-2.100981381648822643e-01
-4.325197173826010322e-01
-2.336673419053326706e-01
1.432855333151607513e-01
3.811775416252040083e-01
3.860854969329572395e-01
2.460638906776111967e-01
7.803874807434352245e-02
-5.772168839321525913e-02
-1.557519629465858590e-01
-2.174278622780773107e-01
-2.255905201742626209e-01
-1.777257187736648314e-01
-1.133272574144582739e-01
-7.077587262466050744e-02
-3.904542939233191651e-02
6.297355675867675334e-03
3.379490050287010938e-02
-2.115555562692113256e-02
-1.512972328119489007e-01
-2.557933152620764372e-01
-2.516377878333776463e-01
-1.530395502663915996e-01
-2.880674746194196445e-02
6.468846393332089439e-02
1.066044697311419875e-01
1.110219354923464574e-01
1.066698302928662245e-01
1.025664062106347585e-01
8.477908096523155412e-02
5.125254766348940477e-02
2.561853028925233089e-02
2.664388123983330026e-02
4.685322630327709570e-02
7.349924775504385055e-02
1.066065434597816136e-01
1.365536503236283172e-01
1.254295851846912446e-01
4.155090432648952947e-02
-8.966220040894540277e-02
-1.919934855493833636e-01
-2.053528651776903580e-01
-1.349841543290338230e-01
-2.879733089854544237e-02
6.920054250876934987e-02
1.264830106065200910e-01
1.150079141560826912e-01
3.048981537957192942e-02
-9.129345509007849579e-02
-1.957534389745284320e-01
-2.424976291220098945e-01
-2.211985864666781154e-01
-1.631360488069328596e-01
-1.412202029647971757e-01
-1.959390846352619675e-01
-1.988620035005170261e-01
1.085474331193808234e-01
7.261577311218468944e-01
1.136114846721112404e+00
8.249386708761921039e-01
2.555195318256765769e-02
-5.145564782935535542e-01
-4.392589180621438993e-01
-3.790719467910654006e-02
2.769981777369336373e-01
3.667357888377761332e-01
3.065039555511824831e-01
1.979481826034208969e-01
8.464426909286047740e-02
-4.177276376286817583e-02
-1.884914614408052802e-01
-3.125528600070530127e-01
-3.462306066293694418e-01
-2.730196398945697878e-01
-1.468726233484440036e-01
-3.396884917977782692e-02
3.315038500016246475e-02
4.101883926516180362e-02
-2.158974617615097916e-02
-1.375282000062337529e-01
-2.479845177741967222e-01
-2.976194185468678532e-01
-2.782775775555868525e-01
-2.129753536202726449e-01
-1.199365769799510262e-01
-1.121895297126870687e-02
9.398367885104774722e-02
1.727965980488474218e-01
2.014207432180260271e-01
1.561096654571853815e-01
3.815311218276735972e-02
-1.034865880474629130e-01
-1.985675374953203287e-01
-2.086393131631692488e-01
-1.504978059342521879e-01
-7.548764240028020545e-02
-2.478737697932528738e-02
-2.181069159126730345e-03
1.237164978214674860e-04
-2.809695401345972329e-02
-8.476076171240290447e-02
-1.329752336406286595e-01
-1.585698213009346658e-01
-2.020756536835008610e-01
-2.661694581317866626e-01
-2.544496252844440920e-01
-1.036564268854422988e-01
8.641080538127833555e-02
1.632501761839031951e-01
1.050422524038941569e-01
1.410197952345990102e-02
-3.119743141583716795e-02
-6.653839620887197492e-02
-1.601959760329016713e-01
-2.166706226630003562e-01
3.916223185774397875e-02
6.713917881985305147e-01
1.198420011010369324e+00
1.045466109209104655e+00
3.341865373969111208e-01
-2.388574144274222544e-01
-2.835559455636086912e-01
-2.642840919873199607e-02
1.736983029745070295e-01
2.190837164903001733e-01
2.054310597205719902e-01
2.133849752374147035e-01
2.250810204882548737e-01
1.755414668582036819e-01
4.685645303267686745e-02
-1.015451277526821933e-01
-1.986904109218684544e-01
-2.283652343148717956e-01
-2.142130928262972467e-01
-1.730620922566549202e-01
-1.062452322770288116e-01
-2.077845301246949647e-02
5.637699075638168134e-02
8.886453539578001437e-02
5.843087854661462022e-02
-1.991058717976302433e-02
-1.093699797923894657e-01
-1.723792016432923735e-01
-1.879657079579438728e-01
-1.603740537785305620e-01
-1.044330195985068016e-01
-2.068996736005686635e-02
9.585318099882916831e-02
2.139068140204637147e-01
2.541466114900111095e-01
1.538151761067328149e-01
-4.717142607848663627e-02
-2.194042880817140273e-01
-2.638041611359833172e-01
-1.878772059258121407e-01
-6.323101538927283771e-02
4.253080406003330316e-02
9.454798684668205833e-02
9.721811466316590544e-02
7.465092781330801008e-02
3.528867930370352402e-02
-2.961602711766697649e-02
-1.114110135165070209e-01
-1.664876030103740745e-01
-1.487708647192292899e-01
-5.959817116587173835e-02
5.023676080426607571e-02
1.285456544086317487e-01
1.540119848474665321e-01
1.303732387811539495e-01
7.852796200305744989e-02
2.212687043049765129e-02
-5.558023366640155866e-02
-2.000882195839657485e-01
-3.386142037762696622e-01
-2.077184064102920447e-01
3.389436344451408067e-01
9.421455155722679997e-01
1.004949973209243952e+00
4.461832239974669601e-01
-1.824351462836084070e-01
-4.033580243759562478e-01
-2.694095707069566470e-01
-8.822978516181401165e-02
-2.309397592933606566e-02
-3.585649385577718840e-02
-3.660507448577361017e-02
3.607750587936640191e-03
4.646936586031673311e-02
4.291517453147349059e-02
-1.894356144756252983e-02
-1.157712038623214673e-01
-2.171366735258462022e-01
-2.981650909648581593e-01
-3.371548489410097771e-01
-3.195673185083486856e-01
-2.495257580073647896e-01
-1.508814748826951824e-01
-5.179981281179665137e-02
2.614657449052102192e-02
6.459481318282873918e-02
4.866704255527462553e-02
-2.371188062703692701e-02
-1.310455779013039446e-01
-2.228358506226445213e-01
-2.389477279480269056e-01
-1.517377729402829556e-01
9.689188176865377866e-03
1.753444477096542942e-01
2.743851946315533086e-01
2.714978770317919565e-01
1.783688361301497272e-01
3.969990539174414468e-02
-9.472217395350462921e-02
-1.941521464270478114e-01
-2.415208483880545987e-01
-2.133340624537241881e-01
-9.530458340907832504e-02
7.898277158517010010e-02
2.266483620114513597e-01
2.645623691460799454e-01
1.737458103881741878e-01
1.765926152731413235e-02
-1.144457651541595788e-01
-1.735633634241993406e-01
-1.620946170904138950e-01
-1.098930516766325194e-01
-5.058072780806128349e-02
-3.640601969310362264e-03
3.522105225070294721e-02
7.884455048261285182e-02
1.040563037366864646e-01
3.386074880723063951e-02
-1.736264207630059953e-01
-3.771536570509761988e-01
-2.901241750185853396e-01
1.566749218693900270e-01
5.624698281756461693e-01
4.790064460902594967e-01
3.484280416211696374e-02
-2.396884524068759459e-01
-1.225277226852110324e-01
1.359932401887604669e-01
2.445100888603116696e-01
1.598366428309207221e-01
4.614574874170180446e-03
-1.044421230076800905e-01
-1.240627994021600844e-01
-7.062505991498943536e-02
8.171865213972678496e-03
6.111957819268597214e-02
5.786554381980222456e-02
-3.717396126434719880e-03
-1.021168994141634645e-01
-1.972001819073182227e-01
-2.463224318318642803e-01
-2.315403707423597246e-01
-1.659375653675122797e-01
-7.351472009122642093e-02
2.352597333275663338e-02
1.019546263541652176e-01
1.394293403145411558e-01
1.246988083436980643e-01
6.484150626303249176e-02
-1.682889711374067898e-02
-8.763418015346567669e-02
-1.084901646598735447e-01
-4.506506782706912184e-02
9.664326283086742408e-02
2.481126297807663972e-01
3.223510708554399029e-01
2.864251141108619114e-01
1.737336420121376179e-01
4.083215922174794621e-02
-5.265774281018336528e-02
-5.063885805385968941e-02
4.331087240089509516e-02
1.369271107870702053e-01
1.508880107966124318e-01
1.193711134706203492e-01
1.232009124275564443e-01
1.659332140099993302e-01
1.737383003889585997e-01
9.511174544065352510e-02
-3.200574797754914685e-02
-1.185292930808203443e-01
-1.209795984416046077e-01
-7.493563868804609118e-02
-2.951302982376340089e-02
1.492992238984401469e-02
8.509917562076092790e-02
1.700045811748720215e-01
1.960713824207615252e-01
8.072161795072853308e-02
-1.513880094639570573e-01
-2.889944294022399607e-01
-8.265415822814299596e-02
3.993988938137839062e-01
7.079897426084054146e-01
5.255902244619927721e-01
8.197230367771624060e-02
-1.650571208592157835e-01
-7.522412935427499892e-02
1.332920297490435002e-01
2.155257262800417961e-01
1.159053559945735362e-01
-6.630937626030235232e-02
-2.090728871064220229e-01
-2.464031558877526895e-01
-1.781402411124156371e-01
-6.091574678041809798e-02
1.987045272812366925e-02
5.950165459909034782e-03
-9.030289843421689111e-02
-1.864031540696657607e-01
-1.886959143307899989e-01
-9.907770296784021435e-02
-3.930828786661513807e-02
-9.647022026255849814e-02
-1.895763565040406717e-01
-1.757096410333462422e-01
-3.932452963487857722e-02
9.950286329679559894e-02
1.288687500712252521e-01
4.031260998821944302e-02
-9.212099366282558432e-02
-1.757857765462652599e-01
-1.605322928418448647e-01
-7.736160743249798077e-02
-5.358183798669438613e-04
4.242022655447941215e-02
8.698868857136680954e-02
1.529236804941321859e-01
1.972057269356152776e-01
1.640695234186548002e-01
5.220915075391711901e-02
-8.252394940634862064e-02
-1.704821587941260375e-01
-1.692614001594058559e-01
-8.879469875198031659e-02
1.410150397518550834e-02
8.168310820758217794e-02
9.669447255560856269e-02
7.085197980880458823e-02
1.301421121045566974e-02
-6.681261434333687910e-02
-1.434730028629422061e-01
-2.018620051830586348e-01
-2.510987725893362721e-01
-2.726478059055740255e-01
-2.049467843640158105e-01
-5.174001757057489909e-02
4.788419725985326031e-02
-3.379046864684159129e-02
-1.884518396251433359e-01
-1.068322538475249134e-01
3.139803316091004382e-01
6.621548616377345153e-01
4.364486729741982041e-01
-2.096609583869645799e-01
-5.892679336357954378e-01
-3.644019123938838089e-01
1.385470537315047768e-01
4.566082233243674571e-01
4.441614432518382061e-01
2.267992127340769382e-01
-1.897560808236042895e-02
-1.838078090813770327e-01
-2.455143048860119193e-01
-2.454215539163248361e-01
-2.303214143946485382e-01
-2.039429256184238370e-01
-1.479570243858006895e-01
-7.833554875980767995e-02
-5.045510816030587820e-02
-1.029530012982076553e-01
-2.108559443042490600e-01
-3.036841146939145419e-01
-3.290585010835124224e-01
-2.937678479496366180e-01
-2.389387719383626041e-01
-1.853392359569978054e-01
-1.263070203340968256e-01
-6.846041829446147808e-02
-3.971397393396570302e-02
-4.830175425373955250e-02
-6.661492385957476503e-02
-6.928333408272929761e-02
-6.734728368077888550e-02
-8.907427776816299880e-02
-1.319114345449954873e-01
-1.497508293837291893e-01
-1.006354213413675619e-01
-2.564858464580977576e-03
7.397917658634718674e-02
7.392878742857021679e-02
6.349563697208866070e-03
-7.660986837078641309e-02
-1.298218463750577534e-01
-1.365904247620499945e-01
-9.871032203927022908e-02
-2.582623458557601129e-02
5.989155036968578372e-02
1.271827452486670451e-01
1.630043539663988683e-01
1.758809988567294480e-01
1.556518026112708175e-01
7.391019466570604435e-02
-4.682619830425345520e-02
-1.166011907316544527e-01
-7.374063383709164587e-02
2.654027530246641856e-02
5.165852955879732256e-02
-4.180603935390532488e-02
-5.662100359836673424e-02
2.976568612009162229e-01
9.320515481336979491e-01
1.244180174268898487e+00
8.024105812991446651e-01
-2.269051745798937592e-02
-4.926275712855091027e-01
-3.546866783369239107e-01
6.089253045099199402e-02
3.610399838475227274e-01
4.178997915575794475e-01
3.085825030497227894e-01
1.499461291323928858e-01
1.054203900050909581e-02
-9.352775949679420497e-02
-1.622895999856194538e-01
-1.906466732770533412e-01
-1.763517114436062017e-01
-1.218742315464754061e-01
-3.577264917716259374e-02
4.742334924314432765e-02
7.360358748137216245e-02
1.862603600424458938e-02
-8.461810421602578014e-02
-1.755758542254851895e-01
-2.085168577080194208e-01
-1.707695932261908689e-01
-8.390462086970273958e-02
7.307338833576385029e-03
6.532320887455259073e-02
8.578661584510142990e-02
9.146251914063502353e-02
1.071412738218625871e-01
1.315051783176469369e-01
1.250655808891128762e-01
5.387127838156910431e-02
-4.632878616992017889e-02
-9.147755085891140503e-02
-4.262628543543618004e-02
5.878382009468801489e-02
1.442734948631433367e-01
1.741264881559264621e-01
1.465971444157682380e-01
7.851325431494052265e-02
-1.032990247589307339e-02
-9.219232897677140381e-02
-1.301664312188512140e-01
-1.057918387370896107e-01
-3.829282792296035548e-02
3.948488837455405021e-02
1.090802193003559961e-01
1.588305718351406270e-01
1.669656526326800672e-01
1.135797032915074195e-01
1.238864253526958566e-02
-8.252466890313212011e-02
-1.224644479651862822e-01
-1.245157089277271756e-01
-1.537477562686234978e-01
-1.899806865594235172e-01
-4.640307953637667904e-02
4.009849434963718151e-01
8.587759918766536549e-01
8.070833409365055777e-01
2.022606827081718517e-01
-3.892044647461980755e-01
-5.100371301629907927e-01
-2.681746346307738449e-01
-1.631595925463205643e-03
1.368242396381134929e-01
1.839455757529408764e-01
1.951969110907545712e-01
1.737125139740648139e-01
1.011433747907650726e-01
-2.121160452566652616e-02
-1.611511944545254982e-01
-2.711262594998521402e-01
-3.176711480900305529e-01
-2.985235275581324954e-01
-2.303859507208959601e-01
-1.310330717145577473e-01
-2.413222693646118258e-02
5.235414122335495940e-02
6.610569148199180178e-02
1.827736220230414405e-02
-5.838476076664202846e-02
-1.230797653193387853e-01
-1.480888664540787047e-01
-1.297321983034631920e-01
-8.215892213241142439e-02
-1.695875728640141439e-02
6.773067623009600136e-02
1.709734592852665824e-01
2.612581991630707479e-01
2.797450748932025499e-01
1.921142214442402574e-01
3.536364445469392798e-02
-1.058948053734807687e-01
-1.662592225747235308e-01
-1.329502407005282438e-01
-3.688187618623837982e-02
6.830178652662823036e-02
1.322812877170629620e-01
1.288504797298583027e-01
6.247030024161535217e-02
-3.338864822481310557e-02
-1.153932003290145947e-01
-1.619017808590572927e-01
-1.756123875595656525e-01
-1.557697716032246382e-01
-9.356380055052730682e-02
-2.274998563264354727e-03
7.271391652640427083e-02
8.972736721807383908e-02
4.850538047633607547e-02
-1.508149306231773394e-02
-7.368754599907044456e-02
-1.494130585310943782e-01
-2.864477487164255876e-01
-4.259997360450958337e-01
-3.269257614017271885e-01
2.009933458290766861e-01
8.870907050952876460e-01
1.106208256074480145e+00
6.190018354701536385e-01
-9.151864538341175637e-02
-4.310338445987250688e-01
-3.180798285876595410e-01
-5.412769301768399766e-02
1.140204506136340834e-01
1.528913675074268785e-01
1.372772180685029875e-01
1.203747474944122098e-01
1.002253876892051782e-01
5.675828968821852033e-02
-2.305125272815591528e-02
-1.393840403334331846e-01
-2.607422284921394606e-01
-3.293285563764829504e-01
-3.134170444191785587e-01
-2.376983060062660691e-01
-1.526587731805475190e-01
-9.080009424965962417e-02
-5.277284915110282831e-02
-2.747346420643087192e-02
-2.396563550015336219e-02
-6.884461713475657774e-02
-1.555857641836252969e-01
-2.111074943730054665e-01
-1.527047719041878249e-01
6.649817452158155243e-03
1.569788647864961417e-01
2.247778583058380741e-01
2.403029100716609634e-01
2.414737831403717394e-01
2.029118116723535314e-01
9.557947446509151845e-02
-5.374201982793419541e-02
-1.816621635812835922e-01
-2.368190324953770576e-01
-2.091323359370666213e-01
-1.177171622436010145e-01
1.353615531050508108e-02
1.419116641365940623e-01
1.948982798817874562e-01
1.279683822190933185e-01
-1.705748025823499575e-02
-1.506286422266346070e-01
-2.200129465011443075e-01
-2.319694820594814799e-01
-2.119344955038508505e-01
-1.729679088610564519e-01
-1.235005248781886472e-01
-7.468752873376198476e-02
-2.825987226022396576e-02
1.583455867794483080e-02
2.271834549654961483e-02
-7.908457842383394276e-02
-3.027345263582263413e-01
-4.676569945489081892e-01
-2.641819456988382941e-01
3.404467599078779827e-01
8.384933848538910217e-01
6.987631671258613952e-01
1.051866072102654176e-01
-2.789037816788619284e-01
-1.920209514450623711e-01
5.280331603843398808e-02
1.337354594743983827e-01
3.827402302001271794e-02
-9.281333458522660063e-02
-1.567999582476072018e-01
-1.333410513877648085e-01
-6.460148721714074893e-02
-1.493643206108407999e-02
-2.838895041265189489e-02
-1.121487573244177860e-01
-2.387604619860925759e-01
-3.554805447764607940e-01
-4.115714728957765578e-01
-3.926102479658999389e-01
-3.247317423492965816e-01
-2.418061757724514205e-01
-1.576899411000122209e-01
-7.540172380450019252e-02
-9.129062147788460577e-03
1.422566049179424703e-02
-2.684344888070294005e-02
-1.219244474513069831e-01
-2.115929456059342517e-01
-2.124395919850244896e-01
-8.566625640488144400e-02
1.143065602734217173e-01
2.799912097306769265e-01
3.518534070922729740e-01
3.580996072663676921e-01
3.386139875440367097e-01
2.752995920184522771e-01
1.444939528196681200e-01
-9.735272844289682981e-03
-1.126470502204340168e-01
-1.330070018700273971e-01
-8.836851065483822265e-02
-1.180616339444563040e-02
6.921167128621835696e-02
1.356883160937374655e-01
1.657456188374568096e-01
1.362479334943431930e-01
5.167802954548836314e-02
-4.261320035710471077e-02
-9.318099473270088917e-02
-8.200734630470858655e-02
-3.277482987822127880e-02
2.406674167220369115e-02
8.401197677589983259e-02
1.506566009520831084e-01
1.817797682754269673e-01
9.286426435886865893e-02
-1.168709039499504221e-01
-2.384247859860143259e-01
6.840478227793994268e-03
5.640083480338018429e-01
9.289999439223519673e-01
7.024326830469147520e-01
1.331604596171578614e-01
-1.958215993026074242e-01
-7.767218029534161960e-02
2.065006454437506023e-01
3.302407169566802803e-01
2.265736820378272676e-01
3.026544614975515066e-02
-1.090812455331969244e-01
-1.391726096049643313e-01
-9.809865824754135377e-02
-4.222384647387060486e-02
1.769205574744126680e-03
2.475694366869137311e-02
9.263223694531308450e-03
-6.164007222821499266e-02
-1.733185229326095200e-01
-2.746006279752916668e-01
-3.142213422082113516e-01
-2.773603961652104655e-01
-1.849675686740592795e-01
-7.162165647663959467e-02
2.908152325075557751e-02
8.969942971458433334e-02
9.111034577671543733e-02
2.627551358812006341e-02
-8.377886836487874467e-02
-1.744187408597525080e-01
-1.675302626576179454e-01
-4.653021353490724432e-02
1.119600540785147119e-01
2.102145486765716886e-01
2.236460724962363311e-01
1.962397313354892758e-01
1.614944483143599951e-01
1.093527480748611724e-01
2.466776201474080860e-02
-7.553108429858441941e-02
-1.494594299358523171e-01
-1.639236780506911351e-01
-1.167159756624547573e-01
-3.294576833514035324e-02
5.125324100449254322e-02
1.056479633467024837e-01
1.196209688998816217e-01
9.871555560764373738e-02
4.796895345205885730e-02
-2.552174102474869324e-02
-9.594901805452230037e-02
-1.287840490141324568e-01
-1.075831173433357268e-01
-3.612842664278841098e-02
6.594503245748128961e-02
1.378549802689136017e-01
8.863679249798223081e-02
-6.716009646927080523e-02
-9.675057143914003732e-02
2.241814994006346151e-01
6.799456101841515610e-01
7.137396803931053135e-01
1.713708792009057125e-01
-4.086891487380431842e-01
-4.804610439885186879e-01
-1.027508831172392612e-01
2.945993781744921103e-01
4.273575716569195104e-01
3.088675090602939211e-01
9.717180312290105149e-02
-7.463749707394386201e-02
-1.626429558438479972e-01
-1.828523202061425601e-01
-1.561324556890242854e-01
-9.341958218480626852e-02
-1.690213944752423647e-02
3.681885886503653837e-02
4.188089490494798645e-02
-7.181937663743094991e-04
-7.008221302728465107e-02
-1.392759769414525228e-01
-1.847164262217635133e-01
-1.901246081780884611e-01
-1.514638941430717645e-01
-8.359462379831669732e-02
-1.222037523591093869e-02
4.727177201702117276e-02
9.056547905027810541e-02
1.051833664736400581e-01
8.015728169816396798e-02
4.057087936698348940e-02
3.527624063299884122e-02
7.504305361868650326e-02
1.145485508540839553e-01
1.130765807143895713e-01
8.464698969568194842e-02
6.951489824048476263e-02
8.074883522828511795e-02
9.170281529149160171e-02
6.066802292565780935e-02
-2.837141392266457479e-02
-1.390829477538169934e-01
-2.065467283271619492e-01
-1.918401338185872496e-01
-1.108995619949320055e-01
-1.634888160586525641e-02
4.483033840373911588e-02
5.742835998536929831e-02
3.041922313171265338e-02
-2.316302021949750642e-02
-9.577563255322601998e-02
-1.783338206325642827e-01
-2.429637617853067644e-01
-2.424280423354604752e-01
-1.548592148043921313e-01
-4.282297723396905065e-02
-2.787082571490956395e-02
-1.361957483277467240e-01
-1.659739465984645113e-01
1.470717809065252846e-01
6.975032273406990280e-01
9.387361745725915085e-01
5.320759984657327246e-01
-1.394729903339241295e-01
-4.407163463304582529e-01
-2.342366549999284897e-01
1.307907330703863280e-01
3.354250837467039337e-01
3.319979377650978392e-01
2.116300232617458754e-01
5.052113111457732370e-02
-1.096806504957432982e-01
-2.342343914184826514e-01
-2.910098098143059642e-01
-2.658599529894694613e-01
-1.801735590003749332e-01
-8.151132026448659751e-02
-8.877729129503813058e-03
1.862031624401053881e-02
-1.508878666407861141e-02
-1.153241386825513137e-01
-2.386824522049011132e-01
-3.000866896589656219e-01
-2.569004953882485509e-01
-1.587298253132844172e-01
-7.662605618193225887e-02
-2.713183014881066085e-02
-5.287064628419716611e-04
-3.224527576586222813e-03
-2.816900191618407906e-02
-2.779974757670440610e-02
2.496001693455859524e-02
5.698441969094528853e-02
-4.175379417488742084e-02
-2.401085491535636940e-01
-3.522195998841741726e-01
-2.669971807299380551e-01
-8.440494226216244122e-02
3.674228937603946088e-02
5.256830310377336862e-02
7.292695272394667666e-03
-6.206887723986624639e-02
-1.406364179136682935e-01
-2.101146127453495105e-01
-2.439352625001344477e-01
-2.198425746883425902e-01
-1.399041839617553851e-01
-3.489931775213177961e-02
6.315609023312418469e-02
1.309485261305676773e-01
1.292911928809296895e-01
2.581671601589696427e-02
-1.338641437257679090e-01
-2.370361288631344376e-01
-2.249810336168658331e-01
-1.735026789731316799e-01
-1.982055769224719266e-01
-2.441103416796410464e-01
-4.303957672001920698e-02
5.274363363609091415e-01
1.050347393422410347e+00
9.048461929117926905e-01
1.147626326032270550e-01
-5.786993698817737286e-01
-6.243861303098180437e-01
-2.001399013922408598e-01
2.133677878275426210e-01
3.806721560482984601e-01
3.576599257881537541e-01
2.715596643888088524e-01
1.837669833921828921e-01
9.277258361569158673e-02
-1.278333155929088638e-02
-1.281112586012576882e-01
-2.369570435627609550e-01
-3.078718132689992060e-01
-2.959034708098177147e-01
-1.890340808706574005e-01
-4.241399744900149760e-02
6.657161147080609132e-02
9.846694824191470907e-02
5.694176872712684162e-02
-2.918863948421117349e-02
-1.174313991662997436e-01
-1.686620524000885524e-01
-1.632361523209442944e-01
-1.030720064007119990e-01
-9.734775096186903259e-03
8.326698547437053066e-02
1.556741738194944991e-01
2.106283063621130491e-01
2.410628929032351264e-01
2.105771122185789990e-01
1.024379879265400750e-01
-3.271598048627149397e-02
-1.137182827917097294e-01
-1.013259354087637232e-01
-1.667562150465475013e-02
8.881561536963214487e-02
1.638171255967441620e-01
1.753361960423452937e-01
1.177487997882332299e-01
1.178047227153264896e-02
-1.035442193709763120e-01
-1.851341327598599873e-01
-2.044898634328450593e-01
-1.571553904714731442e-01
-5.750855033181237475e-02
6.545218559113659407e-02
1.683995718074222381e-01
2.076915544275197145e-01
1.664220232388010368e-01
6.965720754599927234e-02
-3.053735455024726708e-02
-9.653953999359524141e-02
-1.429080006949150217e-01
-2.116948750932136913e-01
-2.556130873605954035e-01
-6.912570526273519034e-02
4.826515541173478918e-01
1.095232965998356622e+00
1.181222176864498818e+00
5.866028894396138060e-01
-1.632278770325642503e-01
-4.994051471880179283e-01
-3.705107133448772849e-01
-8.045666052427265236e-02
1.242919387462663311e-01
1.955101768295277875e-01
1.860856879012939002e-01
1.398896805627658779e-01
6.617829687202961275e-02
-3.226112051817292548e-02
-1.368634487934265731e-01
-2.223509400104800582e-01
-2.747630377187594286e-01
-2.895796644570018952e-01
-2.652313972011784982e-01
-2.107113070211431016e-01
-1.461248461455012249e-01
-8.883298367154070230e-02
-4.917004884051482533e-02
-3.874381224133153362e-02
-6.988443625548815263e-02
-1.385452372603660776e-01
-2.110771775568762720e-01
-2.394742064022614136e-01
-1.983166106242618132e-01
-1.030621837105068772e-01
1.561308812681514065e-02
1.403361039171528990e-01
2.464765995753962213e-01
2.782504719654968484e-01
1.938679382942793961e-01
2.567665252104045504e-02
-1.374032898346412845e-01
-2.175803866066350067e-01
-1.913254239970484383e-01
-9.011464159210048896e-02
2.923648531077504067e-02
1.198540448457754010e-01
1.571131967575360722e-01
1.346104269664851194e-01
6.421115455362151614e-02
-2.758809740244724459e-02
-1.126458405080022068e-01
-1.664683788356482452e-01
-1.657137005793016815e-01
-9.995259219884324031e-02
6.630217657752854668e-03
1.006655690125975861e-01
1.397394859305264858e-01
1.228828211546935667e-01
7.515396700267930330e-02
6.981380741122675954e-04
-1.350793942394213076e-01
-3.273875041095511973e-01
-4.060440418333038370e-01
-1.060760674800649561e-01
5.418375835512216909e-01
1.007825123990657046e+00
8.089944830280662025e-01
1.637549222472858834e-01
-2.896319209487656643e-01
-2.612957747216279047e-01
4.540003670831269100e-02
3.233738941229614694e-01
4.117209593999878736e-01
3.179760179914752349e-01
1.640619594363363909e-01
6.969585067277202228e-02
5.960552283284007574e-02
8.352414656562279216e-02
8.235820617195124815e-02
2.366668928738419747e-02
-8.599625742858127420e-02
-1.997879622929546184e-01
-2.580962082624111975e-01
-2.349666553544766667e-01
-1.516482858154881985e-01
-4.601122434663452998e-02
5.381221827537897157e-02
1.260157939685312423e-01
1.459869326763576503e-01
9.662032880921073152e-02
-1.071573174667070361e-02
-1.312749258399951158e-01
-2.069937193373780904e-01
-1.945124405493022235e-01
-8.374295045806209870e-02
8.931576073477531796e-02
2.439496656705788247e-01
3.006268960563047155e-01
2.443761042818483609e-01
1.248290336138930534e-01
-7.083607778871710628e-03
-1.289736221510662806e-01
-2.132800366074751319e-01
-2.165500553646788895e-01
-1.299694408910531396e-01
-1.029796904939923527e-02
6.704200137538803006e-02
7.825258089834362385e-02
5.711925912451686072e-02
3.349962674109244198e-02
-4.340267701715138336e-03
-7.506440523293285427e-02
-1.646063726279091699e-01
-2.388267321426294221e-01
-2.737532396596949469e-01
-2.581026995982253491e-01
-1.844691618162983826e-01
-6.560539784263974550e-02
4.808348976410149744e-02
8.760943592849307349e-02
-6.601328380920631900e-03
-2.386062956909567601e-01
-4.442584704569975118e-01
-2.918257789335130248e-01
3.401429420968717365e-01
9.838340190337251379e-01
9.873464143505422674e-01
3.694480767935808263e-01
-1.902949494785282081e-01
-2.451625799127280236e-01
5.390405527528271956e-03
1.769494671366580452e-01
1.507641723714966409e-01
3.230513354165032158e-02
-6.331928268667440241e-02
-9.235541684885609226e-02
-6.026847295205406407e-02
-6.190247165521947995e-03
1.210778990800751367e-02
-3.358326158258358868e-02
-1.193024675492986575e-01
-2.130852092405478015e-01
-3.051482538908468767e-01
-3.761126383186995104e-01
-3.831017752962516121e-01
-3.058147166110602444e-01
-1.778939625240354427e-01
-5.786505717796820020e-02
1.298616596704154670e-02
2.517794304954638213e-02
-8.446297136570652536e-03
-7.396151143599886957e-02
-1.607887018498516951e-01
-2.354870969844897743e-01
-2.365766944504709424e-01
-1.287434820456677953e-01
4.141348859477823885e-02
1.684718098745534298e-01
1.799571983364679495e-01
9.453275895479719415e-02
-2.032276269384980169e-02
-1.243806913704758182e-01
-2.146132022852744459e-01
-2.838255013048495146e-01
-3.085587756743013443e-01
-2.752103279687421744e-01
-1.953444724455024872e-01
-9.736559380773082695e-02
-1.385050389274010765e-02
2.617154237842849243e-02
4.346099837266442778e-03
-7.281003452196842252e-02
-1.678343667746838574e-01
-2.366412777332763673e-01
-2.592790692945186604e-01
-2.383309296190883331e-01
-1.758700710114770860e-01
-6.884030719852422819e-02
6.169895136896591525e-02
1.369518838420714091e-01
5.415964946291501603e-02
-1.634205855268029695e-01
-2.433396460517449067e-01
1.107832290127080677e-01
7.191432220413751519e-01
9.361297241087530585e-01
4.641017194283989511e-01
-1.777197630881484636e-01
-3.390480187614035024e-01
-1.687974771502160493e-02
3.421784273813083810e-01
4.496461647175462040e-01
3.321056609707291885e-01
1.267463187366309474e-01
-5.918356146840281218e-02
-1.578046629134044476e-01
-1.449404749436294937e-01
-5.573145046133783087e-02
4.017201135991281535e-02
9.013479447347724771e-02
8.342590853313382182e-02
3.574238443155728501e-02
-3.465144277942357187e-02
-1.099711489172275625e-01
-1.663960255652805753e-01
-1.810046745764807841e-01
-1.447134960957258687e-01
-6.741851191329699400e-02
2.336754949687396346e-02
9.529298233213691349e-02
1.302965962342184647e-01
1.237739897476480139e-01
7.366533953748177765e-02
-2.657758767751826172e-03
-5.115122756278527721e-02
-2.350435392146927802e-02
5.957092681676422891e-02
1.250714949036262624e-01
1.348628980324398374e-01
1.209075325658043182e-01
1.242430102219255761e-01
1.334241383001657510e-01
1.032239783719815229e-01
1.911508420700317248e-02
-7.749028671201842189e-02
-1.326256550884746810e-01
-1.287604966434596210e-01
-7.930121489136283952e-02
-3.122453737624417136e-03
7.402977883280775773e-02
1.181135324267504894e-01
1.098746642751691482e-01
5.783597649277152225e-02
-1.673558832697030069e-02
-9.105698821880560401e-02
-1.381181254627413535e-01
-1.328636704727088613e-01
-6.624696713226867206e-02
4.260312270046857919e-02
1.299898598649134318e-01
1.054954816420544672e-01
-3.279898860740749350e-02
-8.376149174410181530e-02
1.961716102500744574e-01
6.838131379200880211e-01
8.571639194587494792e-01
4.332186128137462400e-01
-1.988622474480268854e-01
-4.632550283216670950e-01
-2.564070560542717203e-01
1.025104429335795542e-01
3.195585013487391435e-01
3.248049364240233605e-01
1.820362068311024428e-01
-1.913359106339695623e-02
-1.933266527161452142e-01
-2.791777262744661314e-01
-2.684525315790532995e-01
-2.005654686384991670e-01
-1.232343446789106178e-01
-6.173428979279650675e-02
-2.217705466424598620e-02
-1.430542697826446552e-02
-5.171108267116127089e-02
-1.266476879714063808e-01
-2.069725971982377399e-01
-2.607620808101295262e-01
-2.666684122180275618e-01
-2.102392590077692414e-01
-9.732146877506690774e-02
2.968457058666077245e-02
1.122584751083783722e-01
1.251121920565423096e-01
1.005328157997885663e-01
9.152177115242850214e-02
1.067632198132532489e-01
1.031526324799669769e-01
5.861132295271370696e-02
1.850797430199832908e-02
3.763955531753416378e-02
1.058861575991357773e-01
1.629461739669249010e-01
1.672815542283511425e-01
1.246478852156968492e-01
5.616143957055825392e-02
-3.104062114781526438e-02
-1.261364975582175696e-01
-1.910862342576236939e-01
-1.837250784666714376e-01
-1.029813289349474775e-01
6.279646372998003850e-03
9.399729546867410801e-02
1.345643769328006834e-01
1.182652949938529652e-01
4.121852729657587977e-02
-7.784274357164069902e-02
-1.812674957225552386e-01
-1.988344168779329624e-01
-1.138762508376278404e-01
-5.887925916759417094e-03
1.702224976019974662e-02
-1.207549821987889162e-02
1.167100986155096692e-01
4.765465655424163116e-01
7.201172607396155723e-01
4.446975206062800390e-01
-1.830928375316059897e-01
-5.657517442189912149e-01
-4.098549616679802998e-01
2.921006561979505589e-02
3.625028891890139104e-01
4.393694537450666959e-01
3.366624548222939550e-01
1.736865381617736237e-01
9.805997269283914936e-03
-1.322027726478568199e-01
-2.277549819257327912e-01
-2.623134007751435903e-01
-2.483227896532860801e-01
-2.055891418595232056e-01
-1.386334078978789242e-01
-5.184363347211327910e-02
2.561061699756515125e-02
5.429423963450254881e-02
2.054051102485844951e-02
-5.522193637299289276e-02
-1.369102288737551465e-01
-1.911636293966602340e-01
-1.979447524914745571e-01
-1.543290804212114620e-01
-7.516677430054956310e-02
1.114117584261859958e-02
8.118493890783244626e-02
1.332161533607601756e-01
1.731203567538140975e-01
1.849365547029896972e-01
1.350767985756783363e-01
2.078708421048957797e-02
-1.006781591684482446e-01
-1.566123102423816749e-01
-1.254592511150832979e-01
-4.181347660297873858e-02
4.983773813024400257e-02
1.189788031345006547e-01
1.349940950191263200e-01
7.407877582437402686e-02
-4.570339057129903931e-02
-1.695616292298003924e-01
-2.453483099260324873e-01
-2.265500785805654727e-01
-7.648508836505786557e-02
1.586270882897025392e-01
3.279396633699308561e-01
3.203739493966599183e-01
1.823543439803130550e-01
2.703167575459023558e-02
-9.089617223763796217e-02
-1.662114693709625113e-01
-2.048130352522161968e-01
-2.352822411500078148e-01
-2.825056130103115182e-01
-2.710822767352063511e-01
-2.850931539385204855e-02
4.568187175048734061e-01
8.219084505810627661e-01
6.594693150012410632e-01
7.955348108690565856e-02
-3.821389032009832598e-01
-4.093502368727189866e-01
-1.530664740538574264e-01
9.894087652900999952e-02
2.206465848882585290e-01
2.353015644471082024e-01
1.883151215942053258e-01
9.873570607127640786e-02
-1.094665305551465774e-02
-1.079029403199664866e-01
-1.848367732795705987e-01
-2.573582489631628945e-01
-3.125282616854506701e-01
-3.043678707169935604e-01
-2.192907425944046473e-01
-1.076197691881145557e-01
-2.769097220405606144e-02
9.989689747462992056e-03
1.611580613032515680e-02
-2.356637290726346784e-02
-1.173624123963340621e-01
-2.173772093485655532e-01
-2.561059549720490214e-01
-2.171414243572242775e-01
-1.310713579406323492e-01
-1.906260443539885621e-02
1.198889889774607531e-01
2.588600807647856161e-01
3.160461881595217348e-01
2.238155318867987853e-01
2.374622315459454930e-02
-1.509500507786842027e-01
-2.001631013923777791e-01
-1.350939330758520462e-01
-3.325201172182309234e-02
4.518736751410287050e-02
8.594234113680826459e-02
9.806951534656041525e-02
8.672554629426233730e-02
4.486058009153899573e-02
-3.523528514849754573e-02
-1.418422939677670691e-01
-2.324513985717085729e-01
-2.503714440883014203e-01
-1.738912541823514901e-01
-4.899124969306967170e-02
4.847218170760324296e-02
8.032175727015701538e-02
6.542279091973986216e-02
4.186908168738754515e-02
7.890491236792824409e-03
-9.798492979969448957e-02
-3.069600022219114988e-01
-4.687392794665509732e-01
-2.801006266406218526e-01
3.351733245102593850e-01
8.978826489373166186e-01
8.004458104947057562e-01
1.323578365638956311e-01
-3.880700403111078112e-01
-3.514959483111275151e-01
-3.263339404134057292e-02
1.523711890695825522e-01
1.161117823957340950e-01
1.415368440659102098e-02
-2.260601907694705093e-02
8.387402958395333979e-03
4.228522779458815384e-02
3.162859157875321653e-02
-3.094338934958194842e-02
-1.296391121041522154e-01
-2.372861998357507773e-01
-3.242784403641618129e-01
-3.681842468422302228e-01
-3.497946658565751488e-01
-2.559414475666283995e-01
-1.094009733775353210e-01
2.304000287538864392e-02
8.184968407541121094e-02
6.387558179840248374e-02
6.850619526138277543e-03
-5.698350079434163357e-02
-1.152851808692901686e-01
-1.537655865421689583e-01
-1.404448590480233405e-01
-4.371356300034190401e-02
1.286351071890361741e-01
3.076637134637508209e-01
3.974157009229070114e-01
3.504176954491188267e-01
2.038770433472418819e-01
3.802972130718805521e-02
-8.282241018381078512e-02
-1.312359405663880985e-01
-1.109304907268340440e-01
-4.629862614199560522e-02
3.191323422755330819e-02
1.027113209379437869e-01
1.569610117939594374e-01
1.819679311599022853e-01
1.582635373148003899e-01
8.220551981013156373e-02
-1.958148635865297402e-02
-1.050994603116601755e-01
-1.414643814489899565e-01
-1.196206122368894259e-01
-5.446181450270293212e-02
3.005452332674345833e-02
1.202054669679057386e-01
2.070688245072991873e-01
2.436321705745257415e-01
1.356644640098172705e-01
-1.308464861858457118e-01
-3.186513738285688402e-01
-6.718984024851851200e-02
6.051525798927456234e-01
1.101894501893542433e+00
9.031698950692795824e-01
2.542101438096585064e-01
-1.819801365226406120e-01
-1.455790850298682160e-01
9.461989987707652983e-02
2.145681157148401075e-01
1.391464717664081807e-01
-1.829338363967784875e-02
-1.300969231834516182e-01
-1.508344772564740033e-01
-1.056981001860632097e-01
-3.819577794644070379e-02
1.375090774860384876e-02
1.591495033184762639e-02
-4.731587789164103108e-02
-1.474643489473745073e-01
-2.290483594163359449e-01
-2.618541937695945676e-01
-2.536647591082774045e-01
-2.137122270075793584e-01
-1.403364301932645830e-01
-4.795511578504427219e-02
3.088292854279498650e-02
7.308003792436852664e-02
6.862792809979804953e-02
1.203187385991725568e-02
-8.044147510552920877e-02
-1.563695805596026778e-01
-1.555803806067552197e-01
-6.400391396206037142e-02
6.628554289554997037e-02
1.633283476641034793e-01
1.927569578526218408e-01
1.625608145029980300e-01
9.846501891296549624e-02
2.537740495518337608e-02
-4.576033695712447558e-02
-1.112798125554385897e-01
-1.523364033437340503e-01
-1.381662816816922879e-01
-5.925260624771681861e-02
4.774323143442885109e-02
1.158982928331222101e-01
1.049769523536399629e-01
3.999453238349814921e-02
-2.593829076006779616e-02
-7.354056768122303744e-02
-1.168705740058473969e-01
-1.584737547763335475e-01
-1.733227672920887585e-01
-1.314276058952389414e-01
-2.649911206567373556e-02
9.885587474257045981e-02
1.462564372768053456e-01
3.500030579315387830e-02
-1.455633407229677267e-01
-1.268337130517504241e-01
2.059645495557605732e-01
5.183804078746203636e-01
3.810790015281666498e-01
-1.035293526262626163e-01
-4.086281577151946176e-01
-2.709730519541134752e-01
8.478342298027982671e-02
3.265449150372253806e-01
3.298161254689289112e-01
1.637318392905802722e-01
-4.080200321803346269e-02
-1.806252049326298736e-01
-2.187637142549470060e-01
-1.833357949859076297e-01
-1.244971146733831191e-01
-6.585070013969218650e-02
-6.955408592742757384e-03
3.811286526405081171e-02
3.491216229798515397e-02
-3.260131865007688534e-02
-1.346786698732619914e-01
-2.170041321092680831e-01
-2.436128777735653839e-01
-2.115040353559889952e-01
-1.323816674778441338e-01
-2.164691178099138053e-02
9.126712758143801230e-02
1.611097580164404797e-01
1.534738364862781868e-01
7.950340996790095094e-02
-3.649503922274210249e-03
-3.970749042466631407e-02
-2.022073730777562695e-02
2.272515933709434027e-02
6.288641343384990257e-02
9.954237316926260737e-02
1.336642282225527500e-01
1.497962311124607093e-01
1.285935207392701340e-01
6.605404881311598142e-02
-2.110975076675094403e-02
-1.050692800545608430e-01
-1.606578167299119453e-01
-1.696660321143650396e-01
-1.230066490699435466e-01
-3.481817063949056018e-02
5.624369371669159234e-02
1.213321635648455937e-01
1.609068594203675318e-01
1.688612609338629167e-01
1.128644045948118263e-01
-1.271919344225876103e-02
-1.469221272117573474e-01
-2.092458972729226152e-01
-1.709568640270381634e-01
-8.015620473412092550e-02
-3.018550556356915798e-02
-6.195326863186465666e-02
-6.254263166265297547e-02
1.436721104837768714e-01
4.856127918275223720e-01
5.759280819867172996e-01
1.915529963263641333e-01
-3.438690889530701678e-01
-5.367842269785256804e-01
-2.951623543279859319e-01
9.563972144602722603e-02
3.590366774893547497e-01
4.106064520860362999e-01
2.988595094202640134e-01
1.114814698616043848e-01
-7.488928880010987943e-02
-2.084639497090480520e-01
-2.595793823119769694e-01
-2.272524652357342523e-01
-1.443789999122271905e-01
-5.421864861782180189e-02
1.593359914386860074e-02
4.839491435140908654e-02
2.726181150354370364e-02
-4.068505675668066673e-02
-1.195977135674573394e-01
-1.783150955330483345e-01
-2.083055815642591846e-01
-2.002669967518397598e-01
-1.377985079863862095e-01
-2.822709752138707895e-02
8.866077148687639964e-02
1.745125450968141312e-01
2.165257951886267185e-01
2.148699965942348911e-01
1.671222562219338570e-01
7.724294132455257478e-02
-2.556224230008368251e-02
-9.090216361254688238e-02
-8.435811871419983399e-02
-1.618800779704227671e-02
7.509396605257503965e-02
1.508753920742577914e-01
1.797743553312389497e-01
1.434780364791415908e-01
4.818145776359315097e-02
-7.203602517076596046e-02
-1.650729429521387848e-01
-1.892017809347828206e-01
-1.418720813102226641e-01
-5.377783796431784280e-02
4.046476079577749491e-02
1.156446322624509748e-01
1.504276088997097971e-01
1.262829804903111974e-01
4.262580205563372415e-02
-6.612997501345724283e-02
-1.441560723510953435e-01
