-1.578948614855990584e-02
-2.521823127780458695e-01
-4.032696899854866235e-01
-4.168241492641197032e-01
-3.020777560206323598e-01
-1.239475428143158448e-01
4.288422415399447546e-02
1.580637346988715275e-01
2.182282576433757504e-01
2.349130077898214652e-01
2.282904734283380255e-01
2.273785292464630126e-01
2.466764855569993087e-01
2.653310562112700666e-01
2.529444981789403246e-01
2.145611133760082778e-01
1.877861305178546159e-01
1.951126289201730035e-01
2.173825650845652158e-01
2.102133966479813598e-01
1.310921647028869819e-01
-3.227073464539541303e-02
-2.289147731890563975e-01
-3.493401814470799005e-01
-3.060736646212429690e-01
-1.268397213198944606e-01
5.978013083765783275e-02
1.479966445481295523e-01
1.422923531892842375e-01
1.167450971862182829e-01
1.175815423158122486e-01
1.260620536709860517e-01
1.082173644003681795e-01
7.243917223895882107e-02
5.646702618357669901e-02
7.471131234368984242e-02
1.102797548338298322e-01
1.480835052034739918e-01
1.808024101886936963e-01
1.899340468284167194e-01
1.578000126502173417e-01
1.004026676162696058e-01
5.658439221215197379e-02
3.673984627529876257e-02
1.460061130226574487e-02
-1.781605008534385692e-02
-2.144235163262818433e-02
4.123828924271653179e-02
1.384507645200409864e-01
1.639106530458629973e-01
3.743623678164995083e-02
-1.547627288911150034e-01
-1.961792397791552178e-01
-1.106273204709063568e-02
1.922834949032432017e-01
1.679725653045681943e-01
-7.502850549255818402e-02
-3.231422568448282795e-01
-4.005643913557063174e-01
-2.906655843290422148e-01
-9.321101329869313501e-02
7.626539977909235768e-02
1.624015875316438540e-01
1.804254431217575949e-01
1.730945916806064244e-01
1.668842767885834466e-01
1.660536620467055746e-01
1.728987333481888933e-01
1.952051940873593405e-01
2.326545704242715118e-01
2.689591693039949383e-01
2.792602903898203093e-01
2.449245363615665527e-01
1.757238732427499062e-01
1.118260199948101774e-01
7.345824070274388495e-02
1.864926954131086723e-02
-1.059230768764931330e-01
-2.744459581127364767e-01
-3.821290314436353031e-01
-3.507575915107016273e-01
-2.170294965714095192e-01
-9.525096201048130484e-02
-5.790719549976229563e-02
-7.705566130508831324e-02
-8.051929946881938860e-02
-3.847675905282590958e-02
1.610011604167354421e-02
3.706658157064689207e-02
9.580328790874772724e-03
-5.218727998942500335e-02
-1.139116443081142765e-01
-1.288992106679019145e-01
-8.352792038756179371e-02
-2.537762567746661840e-02
-6.263969619876534091e-03
-2.346067269789733206e-02
-4.296702539036053453e-02
-4.642491692521698299e-02
-3.860018168704238556e-02
-3.297376283534250718e-02
-3.882927652095623239e-02
-4.557516718933567884e-02
-1.878038025828836569e-02
4.691009715360679871e-02
5.110525466381384690e-02
-1.462615079192342293e-01
-4.866993456853125899e-01
-6.536383754651650113e-01
-4.302033846702049136e-01
-1.714825860739781216e-02
1.925349939941798094e-01
6.052365660214026333e-02
-2.155387926770256923e-01
-3.737996584253688859e-01
-3.223301031881914414e-01
-1.418269636583242288e-01
4.371970558063768830e-02
1.656036133984749026e-01
2.227357567715275710e-01
2.439615962475711330e-01
2.546754757308056227e-01
2.729084252964359414e-01
3.087100448430117883e-01
3.395782490576377821e-01
3.145121229611318459e-01
2.294261254757361534e-01
1.610135911022123889e-01
1.706666134608351149e-01
2.215365742171312158e-01
2.375123576853557239e-01
1.927805627324112037e-01
1.023135055834671486e-01
-2.840462375197561756e-02
-1.898591955633439354e-01
-3.223459187203557286e-01
-3.397471142330051874e-01
-2.208643269480720928e-01
-4.665914704182967665e-02
7.839979745023602231e-02
1.190181809410037900e-01
1.058107233186215829e-01
7.702913227006492891e-02
5.406686488944635605e-02
4.465464186045595141e-02
3.565010407359319594e-02
-1.429703993437897100e-03
-6.797661426688507424e-02
-1.142301280146866271e-01
-9.175639578574773525e-02
-2.245672704722376234e-02
2.068920094433401163e-02
3.710904708370973970e-03
-2.618017718294873147e-02
-4.971087263384618704e-03
5.449602375802086590e-02
6.808743564851939267e-02
-7.383180859141589940e-03
-1.044338725063829881e-01
-1.158805302038780211e-01
-2.356323574117975134e-02
4.986900560751174327e-02
-5.724767119965071260e-02
-3.319697091634995489e-01
-5.190782552146058215e-01
-4.019791256649117850e-01
-1.088890171892806236e-01
3.013490676386084907e-02
-1.091077493227941703e-01
-3.344461952716641928e-01
-4.017248506373997663e-01
-2.671903749831820996e-01
-6.841732332567382335e-02
6.405914934724764309e-02
1.208846710793094748e-01
1.684150403820598441e-01
2.466208344219862902e-01
3.272164832367104870e-01
3.565997720719796260e-01
3.226869306201175513e-01
2.701920274456444671e-01
2.506167078844815377e-01
2.642849271674755918e-01
2.652243530850357245e-01
2.258986640719370942e-01
1.744259481620391850e-01
1.506170372389200873e-01
1.412844420615732566e-01
8.351767356186258484e-02
-6.358364013569492434e-02
-2.543131848594701871e-01
-3.720150810607694147e-01
-3.313190178752392634e-01
-1.677609903255677937e-01
-2.416365503717484570e-03
7.857700018377905549e-02
8.162972516685890190e-02
5.623457941152405770e-02
3.373940426891512689e-02
2.311313538689823213e-02
3.053057930177180759e-02
5.870017635310205428e-02
9.460379645521527214e-02
1.119145845899034847e-01
9.068006623659272125e-02
3.478150053780627166e-02
-2.936626247972206130e-02
-7.279756689888502996e-02
-8.484952832379769050e-02
-7.249436253440258437e-02
-4.595134966683785127e-02
-1.770649134691981361e-02
-7.991148471723392988e-03
-2.834794338848283662e-02
-5.189677400706046995e-02
-2.224345342644339085e-02
6.589198089396565428e-02
8.889059618965367005e-02
-1.130901176179667650e-01
-4.769680045643079902e-01
-6.647411688870807911e-01
-4.505414756900938400e-01
-5.047166255369051058e-02
1.335196818350959935e-01
-1.185258207154560664e-02
-2.587229149863705668e-01
-3.560901169034373925e-01
-2.588307907360203330e-01
-8.476369509549293302e-02
4.743354268507388866e-02
1.117356674913108500e-01
1.502397957543044338e-01
1.992239601917613345e-01
2.530909112470642874e-01
2.868575442628819028e-01
2.922691271102982880e-01
2.841539581100587242e-01
2.786396689586067010e-01
2.734679384839598937e-01
2.513049451634998821e-01
2.030099432652638369e-01
1.462762740116227977e-01
1.114398545913958677e-01
9.890639672204076804e-02
5.534100456639365340e-02
-8.145082843619932955e-02
-2.910218982757963313e-01
-4.474981449893794538e-01
-4.314246159071265518e-01
-2.581336343144561285e-01
-6.149508982737063312e-02
4.316160404221996982e-02
5.091644398241625125e-02
2.807299690428396999e-02
1.932844030675213987e-02
1.939297580016871927e-02
1.634193573903768362e-02
1.851271642316991081e-02
3.130878998879499386e-02
3.894394590133324480e-02
2.405105738014101310e-02
-4.349368909692039736e-03
-1.494334938796042581e-02
3.977459412601991665e-03
1.999799329625749980e-02
1.912424084403077651e-03
-2.701445618275328392e-02
-2.447509856476683121e-02
-2.995935179382829688e-03
-1.302851395164292617e-02
-4.848228147467001370e-02
-2.736365731735040246e-02
8.319580067471987750e-02
1.496298888491334467e-01
-4.999766097702539741e-03
-3.071650054172342936e-01
-4.345937790575117865e-01
-2.487106183883749100e-01
-1.511334641803133150e-02
-3.056571499640039699e-02
-2.506441284688588067e-01
-4.213790077523084654e-01
-3.947984136464278704e-01
-2.148743619235000957e-01
-7.750041841681005322e-03
1.310930768467056806e-01
1.816726378325372315e-01
1.837311363593092384e-01
1.823322658622196502e-01
1.903471464011554093e-01
2.026170528685811156e-01
2.178098309516431352e-01
2.337614332568083153e-01
2.469818367614302901e-01
2.634509641679486092e-01
2.900616053641200676e-01
3.185378750002662573e-01
3.285685290893600174e-01
2.952891077911945494e-01
1.982787498739238541e-01
4.463557899817525987e-02
-1.240365550331773009e-01
-2.518519484050132373e-01
-2.824404334691683616e-01
-1.841369617173950757e-01
-1.489123977407705302e-03
1.530624602919949395e-01
2.020590841488000833e-01
1.716556339673260267e-01
1.363196865113930623e-01
1.290573750331795999e-01
1.243022247520077783e-01
9.013520979168919423e-02
4.499368799753657860e-02
4.786346016636564005e-02
1.191618071365213166e-01
2.009612348973004448e-01
2.227939350758536274e-01
1.755422436064661695e-01
9.970147388203982886e-02
3.810543412828004683e-02
1.587906188133757918e-02
3.219382078445254258e-02
5.771931199690828740e-02
6.136432782190771873e-02
4.910712903799863138e-02
5.892777398319736654e-02
8.908471881696530814e-02
4.175077413297117318e-02
-1.746931729055564986e-01
-4.415561196127125720e-01
-4.707760348171320941e-01
-1.783774425874412872e-01
1.387616869596237645e-01
1.549977966082657921e-01
-1.058561745638730567e-01
-3.650168986823755790e-01
-4.203237799094212135e-01
-2.880913585753999695e-01
-1.052262181113741424e-01
2.100475599830161494e-02
7.143238973345775178e-02
7.914528844472577818e-02
8.082827571243421383e-02
9.706117167257516387e-02
1.283724934665539108e-01
1.621780171967303064e-01
1.859993903221832112e-01
1.898515668015898772e-01
1.672235005302074584e-01
1.291488563361914421e-01
1.014386963556163923e-01
9.155396513914958179e-02
7.938771320312201785e-02
4.930443207873783790e-02
-1.339312094280069049e-03
-8.744163337071741982e-02
-2.218846100932836407e-01
-3.596490269944450091e-01
-3.992520550048465622e-01
-2.781227356728875333e-01
-5.553946558792652310e-02
1.290447278481911264e-01
1.837767624760146268e-01
1.350756059041740842e-01
7.320797667525347219e-02
5.300441797039752434e-02
5.990807404091098853e-02
5.105991619396585413e-02
7.216670788063906349e-03
-5.201123458216879575e-02
-9.291436693926549695e-02
-1.006748617735279266e-01
-8.556143304914991254e-02
-6.592932790722826064e-02
-5.458327520624436241e-02
-5.565788774898983854e-02
-6.600338858449071588e-02
-7.987357137955013175e-02
-9.522796996852901652e-02
-1.156778395694817857e-01
-1.375368804022463753e-01
-1.304988960857484948e-01
-6.369755370163995845e-02
9.782832529665903137e-03
-6.218273435441409869e-02
-3.496468125602312793e-01
-6.434907800442417614e-01
-6.154480003564078983e-01
-2.467664469959177376e-01
9.326782724569830652e-02
8.966967855630295081e-02
-1.740614131045018220e-01
-3.875236558973099710e-01
-3.755429351657531556e-01
-2.063139980391702766e-01
-3.295889802956877834e-02
6.826288119751880434e-02
1.141432513298404894e-01
1.507990846951405839e-01
2.048328638525641066e-01
2.670270895330622007e-01
3.069122657521139996e-01
3.113281462246342834e-01
3.049547680422979856e-01
3.210014155150842652e-01
3.565028467127164813e-01
3.718016356470131845e-01
3.349179052432366688e-01
2.548033690706489884e-01
1.652357224513510969e-01
7.959166962731939465e-02
-2.452982946461583144e-02
-1.610715988064733706e-01
-2.833828555155523121e-01
-3.059073289301214582e-01
-1.971928954756477226e-01
-3.049986472212070504e-02
8.704635093934121048e-02
1.192189257571477229e-01
1.074787295301523338e-01
9.668674336898337718e-02
9.232469865096440409e-02
8.176966861227538685e-02
6.367939007608303115e-02
4.894789716917161138e-02
4.577582546518745715e-02
4.813305431008144813e-02
3.740619149709975555e-02
2.442726983977665505e-03
-4.119593010644996556e-02
-6.515642190967337044e-02
-5.950647790913814184e-02
-3.473235479424129080e-02
-7.425470779088127332e-04
3.792848995216163699e-02
7.122243902250961767e-02
8.522022677795575152e-02
8.509729362711292155e-02
9.508767494632233697e-02
8.980838634494951733e-02
-3.596803844955808599e-02
-3.129094112304209863e-01
-5.432432478436526324e-01
-4.807320535970862618e-01
-1.722052672085556957e-01
6.231903436470918184e-02
1.182737815271289739e-02
-2.136953510684841961e-01
-3.669240418423482253e-01
-3.345813237993341405e-01
-1.869610747518382632e-01
-4.073670528251310818e-02
5.092957724583460632e-02
9.879279420189515659e-02
1.452740460871225214e-01
2.338498836651989321e-01
3.545601111390058180e-01
4.316193914365478168e-01
4.152147203185015956e-01
3.476478196616429872e-01
2.933223445566694454e-01
2.603012466108681200e-01
2.260142360689106622e-01
1.866953014324970184e-01
1.513227512126276431e-01
1.105169262687592663e-01
3.343613548257638735e-02
-9.784499923364310681e-02
-2.500780630857471487e-01
-3.428225276861248672e-01
-3.110768152584442170e-01
-1.749211185846112626e-01
-3.163213966703860847e-02
3.141229239001128160e-02
6.825056246917264764e-03
-4.492641380099152149e-02
-6.096693338157679887e-02
-2.824585249007408039e-02
1.978399894213522803e-02
4.617591222118723471e-02
4.065616814638689513e-02
1.722639986273788101e-02
-1.390547485473701611e-03
-6.967680758450693276e-05
1.627701895261820728e-02
2.547923511158366183e-02
1.088300987022598927e-02
-1.616815689558408209e-02
-2.778175234430945578e-02
-1.929634332419313814e-02
-2.503274801729422558e-02
-8.066897147074560126e-02
-1.657183766994919372e-01
-1.978813020415499391e-01
-1.267832455002591563e-01
-4.628096722817785086e-02
-1.265239673064612602e-01
-3.581362957914032696e-01
-4.826514822105999469e-01
-3.210964847616546436e-01
-4.356101875531579598e-02
5.123656945004247121e-02
-9.740971482336105436e-02
-2.994539375556294347e-01
-3.679890193405141452e-01
-2.759614293427276044e-01
-1.053764326584760436e-01
6.004300737478129868e-02
1.731047834745752800e-01
2.212806611275582036e-01
2.264095292956268823e-01
2.225550551334414817e-01
2.238853636038710682e-01
2.278738701439107783e-01
2.381221080410865498e-01
2.624103346325169506e-01
2.914419971781277430e-01
2.983885152092775050e-01
2.692548369964388177e-01
2.188380203531818391e-01
1.617101195474838216e-01
8.566889645206332560e-02
-2.781684187973446770e-02
-1.713345142794752418e-01
-3.045034951472784801e-01
-3.630570099395220574e-01
-2.923149874015186223e-01
-1.090480235097754103e-01
8.277285685483304345e-02
1.785534124151223201e-01
1.678110566966350137e-01
1.171788084118173118e-01
8.480209400225843797e-02
8.190989955318508930e-02
9.362520107667489377e-02
1.045187564648095285e-01
1.099108061472616887e-01
1.162926773850552348e-01
1.288734924658334613e-01
1.392050596606772273e-01
1.335357081953450209e-01
1.134539494726888031e-01
9.735250371232950783e-02
9.721631768267852136e-02
1.027819182315851676e-01
9.535400880412231439e-02
7.225041873432973272e-02
5.164108214986622147e-02
6.077310732474386357e-02
1.191962451514224086e-01
1.956760163191459123e-01
1.745044623891025271e-01
-3.316704579097738692e-02
-2.905455408341484080e-01
-3.162226887801293240e-01
-7.409022265047962574e-02
1.273980761181442156e-01
4.499439031304373893e-02
-2.069652458846679144e-01
-3.610461620611601363e-01
-3.126030014121667922e-01
-1.617343642439379447e-01
-4.491710400102638667e-02
-2.846019435262144015e-04
1.893562808677726195e-02
6.091712630257014455e-02
1.337212624930328719e-01
2.137146110753645745e-01
2.665240205556764219e-01
2.720587435847694469e-01
2.416269355835080901e-01
2.050153473778434654e-01
1.793244564165900612e-01
1.589059213669610782e-01
1.377815351919314812e-01
1.247674409814864410e-01
1.196931741631723778e-01
8.823035424024969209e-02
-1.220785939485391491e-02
-1.749631712091676283e-01
-3.247963504300851456e-01
-3.710977893700755925e-01
-2.901453749940219873e-01
-1.496018371242187617e-01
-4.142242417746350158e-02
5.444330119382060490e-04
6.303490972646000334e-03
1.412254539442784479e-02
3.043446626314913125e-02
3.536853232975833983e-02
1.290636540493415169e-02
-2.798834507815710013e-02
-6.351106458286738532e-02
-8.406242240857914050e-02
-1.016652465347922391e-01
-1.228248737798047496e-01
-1.328075199608678147e-01
-1.196498172389240111e-01
-9.308743652469635144e-02
-6.944487507210606037e-02
-5.700342243409878967e-02
-6.067809638764121161e-02
-8.370353352750888043e-02
-1.117979172351242084e-01
-9.855444249221559372e-02
-1.362037253120278396e-03
1.199239666705542856e-01
6.836756296603942185e-02
-2.911400425293445005e-01
-7.421386057574514972e-01
-8.265001148518281715e-01
-4.077452621755164319e-01
9.162426113652581694e-02
2.007813805392025808e-01
-7.134656857956341025e-02
-3.653531388648684208e-01
-4.236889295636963038e-01
-2.691593012298600929e-01
-5.377778392576591793e-02
1.185307018066291823e-01
2.246618998439207371e-01
2.769123053699203973e-01
2.958611556201591331e-01
3.052775874569123027e-01
3.194429515850327195e-01
3.337990676139122037e-01
3.388903727361328166e-01
3.349345646884752670e-01
3.241269009122985656e-01
3.037000143824064025e-01
2.773180676331351568e-01
2.575265323126851302e-01
2.453603705674895219e-01
2.161804178215656624e-01
1.318307057592359999e-01
-2.669159762977951073e-02
-2.196949095745780456e-01
-3.434349036718832293e-01
-3.070169667339457398e-01
-1.360944454911308665e-01
4.010326382087837233e-02
1.241491358736342976e-01
1.295771076641425434e-01
1.158359443750871381e-01
1.035571572687774139e-01
8.243411218201282531e-02
5.768750194390182690e-02
4.898257453715366277e-02
5.883575324857636540e-02
6.967965713011202433e-02
7.020825001093036755e-02
6.595806675766925642e-02
6.099973058018690053e-02
4.487501900979974645e-02
5.333722761058770634e-03
-4.999310289729429896e-02
-8.997316196622009987e-02
-9.022676140020555180e-02
-6.614275498463691172e-02
-5.029513156287378217e-02
-3.513026546461985727e-02
2.535086260817680931e-02
1.270237823689370771e-01
1.450733515254806760e-01
-5.977210141194293225e-02
-3.974437937051917280e-01
-5.422739265606525416e-01
-3.303209550314750165e-01
-1.723926850909707209e-02
4.538825122058848249e-02
-1.602096524359711838e-01
-3.679889416849362882e-01
-3.768821815508148765e-01
-2.184364478450282476e-01
-4.282962519968659676e-02
5.390475423136374677e-02
8.268341062719385126e-02
1.008714895837125730e-01
1.395458172039336642e-01
1.887637689284382969e-01
2.250885362858346950e-01
2.351412558362367400e-01
2.263489065903274977e-01
2.239427864682083102e-01
2.404618554028545852e-01
2.489475172695711780e-01
2.150971711475761494e-01
1.536412677052729214e-01
1.128493829076945010e-01
9.448265244348066916e-02
3.144879237632292046e-02
-1.248352860806991593e-01
-3.190312958013211686e-01
-4.280593492392746890e-01
-3.790561805073541790e-01
-2.156596618731790316e-01
-5.059706844577292056e-02
3.566123458656829392e-02
4.604781956015253919e-02
3.522054741932457295e-02
4.971486539963460016e-02
9.325009167223696771e-02
1.321003307983485142e-01
1.342165622466853503e-01
1.049603825659227996e-01
7.388731466768327927e-02
5.271516935397486947e-02
3.009407338300956400e-02
8.140422383285752551e-04
-2.607100786264512221e-02
-4.115879773985718637e-02
-3.841871313485240025e-02
-1.600593508914500973e-02
8.990010719678091095e-03
-1.930506168580129259e-03
-6.574194745803402240e-02
-1.283595315173722828e-01
-1.022278118357976412e-01
-8.518656471747428766e-04
-3.549377111218703779e-03
-2.663880659450330035e-01
-6.322675806885894589e-01
-7.123853257033875286e-01
-3.833939000758471161e-01
4.597340184433362786e-03
6.855908154575883484e-02
-1.718239639849817868e-01
-4.174864164425749480e-01
-4.573343814370297578e-01
-3.098282476072051761e-01
-1.101274730847124073e-01
4.191573995461751745e-02
1.269659381472852955e-01
1.632470529381576108e-01
1.693261838688247256e-01
1.650731443712683266e-01
1.704739514354087770e-01
1.875467423361782959e-01
1.988711406972956952e-01
1.900971136956790541e-01
1.679984309178620960e-01
1.582308177847256969e-01
1.812968384927430843e-01
2.209288832873718966e-01
2.249201372649815844e-01
1.510151911203051200e-01
6.924934653712581240e-03
-1.554571118510086614e-01
-2.682117383298847080e-01
-2.771797296511801512e-01
-1.783921317198370604e-01
-3.182422309423407758e-02
8.061346590874474138e-02
1.174694856363652229e-01
9.834394742236225728e-02
7.071647613656593945e-02
6.463253366767775232e-02
7.810591665442095932e-02
9.391264698578220826e-02
1.004305091390195748e-01
9.716110647612999363e-02
8.812639666277818917e-02
7.943792574532228257e-02
7.851965701814006549e-02
8.504226789709801171e-02
9.294326019774895586e-02
1.042627231311028246e-01
1.190861940153366827e-01
1.170916934487278432e-01
7.785324029881136865e-02
1.580017823466213847e-02
-1.903896758527867314e-02
2.957970592360211620e-02
1.686138032725778002e-01
2.939779895696428280e-01
2.428270396352684990e-01
-3.214990734381494020e-03
-2.268444280653362510e-01
-2.150850244031020098e-01
-4.167338714169474545e-02
3.272156241416320638e-02
-9.949071650925987720e-02
-2.893798141355083953e-01
-3.411177597359532077e-01
-2.182552197641222658e-01
-4.533922199413516901e-02
3.680787194638032028e-02
1.247471406902004275e-02
-6.883757685837298308e-03
6.967827022326088249e-02
2.080953829804394195e-01
3.201101052222033450e-01
3.672934346041867304e-01
3.644040500589054155e-01
3.452496834803472914e-01
3.436660019955856127e-01
3.636365147897595018e-01
3.666511634725623803e-01
3.211032658769126247e-01
2.525700970956776814e-01
2.062525674034073608e-01
1.667235239665869617e-01
6.558490726601359788e-02
-1.107146402901028615e-01
-2.632775240817977758e-01
-2.768872885876901835e-01
-1.562694388980840343e-01
-1.771177210314613115e-02
4.698156918677538763e-02
4.601381876089505329e-02
3.291905671974512670e-02
3.212082099587547368e-02
2.968684831936154941e-02
8.550763212522394935e-03
-2.279357726238160492e-02
-4.004877955306125614e-02
-3.656833237317422269e-02
-3.312099852842056297e-02
-5.201411363488998851e-02
-9.165847501558453680e-02
-1.303188558765061011e-01
-1.469673942668092703e-01
-1.344648107072623500e-01
-1.043820640193636323e-01
-8.437001535930858942e-02
-9.757736252810364497e-02
-1.387223617123396757e-01
-1.714053535983476317e-01
-1.502360808658750047e-01
-7.543170831028093992e-02
-4.844366770771339759e-02
-1.982582059825484244e-01
-4.652357938015912464e-01
-5.648217556280139551e-01
-3.299595236274445176e-01
1.771406101918603093e-02
1.233559676480374540e-01
-7.666093786377314867e-02
-3.392120856224248304e-01
-4.307352405314848198e-01
-3.293878885858032568e-01
-1.552503827534091330e-01
-1.212160564633602347e-02
7.430108574914408293e-02
1.258968911871341245e-01
1.708504710473754962e-01
2.201077092707454663e-01
2.610828058410644692e-01
2.719153005057286521e-01
2.490591333442915278e-01
2.282572586785352187e-01
2.621008185203615448e-01
3.467605551069938841e-01
3.953718081335574341e-01
3.351165865514560416e-01
2.017723873283335245e-01
8.485425394312458292e-02
9.804414276430915495e-03
-7.776857643328660696e-02
-2.177797100942806818e-01
-3.552211793119815497e-01
-3.834410739054276429e-01
-2.717219077453623122e-01
-1.107114336307849223e-01
-9.117906673431161804e-03
1.769550627322467873e-02
2.856183804896263168e-02
6.084726180333637630e-02
9.227510050679264830e-02
8.749998351755626513e-02
5.092234919168179413e-02
1.772349259372185681e-02
3.556807932277193315e-03
-9.256621442058854399e-03
-2.948568161460708714e-02
-3.466930990427377623e-02
-1.163210628612170762e-02
1.407632131336735912e-02
1.733920534393931789e-02
5.759425699871671342e-03
-2.227213246811059894e-02
-1.038683965563289568e-01
-2.348008511950109012e-01
-3.083275108507497198e-01
-2.154332923366438501e-01
1.343947136170156598e-04
1.377845858445872762e-01
1.214580635048293986e-02
-3.310420279956335921e-01
-5.835499513420139284e-01
-4.779834533715310863e-01
-1.228447082657374290e-01
1.115494395198227545e-01
2.820635347940569915e-02
-2.206247680609043083e-01
-3.681105250366265569e-01
-3.061646092121763085e-01
-1.183216423421520891e-01
5.784971730887765451e-02
1.544606452046273781e-01
1.953036441525012046e-01
2.312804946172828946e-01
2.698501587953998082e-01
2.827852957036303128e-01
2.662400876176827524e-01
2.538366109300795870e-01
2.715260031617943715e-01
3.050236386783725107e-01
3.169518330420432184e-01
2.878453021313411297e-01
2.333813201370925905e-01
1.829283958034936819e-01
1.451297724324812077e-01
9.095515184387846508e-02
-2.338975730388399496e-02
-1.967846449650642593e-01
-3.444581572029890015e-01
-3.498608149385410981e-01
-1.844572908123032762e-01
4.035759138048621020e-02
1.758331899109469576e-01
1.790026981856004951e-01
1.228182241492569299e-01
8.719329145075069287e-02
8.858435673759218476e-02
1.071169990185245613e-01
1.259838386958336554e-01
1.307369664734199521e-01
1.115054444558273433e-01
8.146105317385084199e-02
6.662698201014394250e-02
7.136998476646694289e-02
7.570534519400913542e-02
6.751235005506092679e-02
5.389137036855864982e-02
4.045520127690838130e-02
2.468126441130019666e-02
7.908132656715687048e-03
-6.800144397380384828e-03
-1.652299598029803931e-02
-5.821926274120458808e-03
3.027348845349388251e-02
2.483597273570975483e-02
-1.324203204577295290e-01
-4.175162713494084410e-01
-5.879474597318735674e-01
-4.358837649405977732e-01
-9.125689307888973367e-02
1.025209162286870312e-01
-9.758109959028943986e-03
-2.601855112202202669e-01
-3.933939782383678030e-01
-3.221791863933640143e-01
-1.470320360774628743e-01
-4.002852696821868755e-03
5.892962250826825482e-02
8.443334758459987432e-02
1.306832302648567035e-01
2.029649076751299797e-01
2.593571902614071334e-01
2.727537840847110706e-01
2.572174797984063122e-01
2.327562319334787189e-01
1.989973731428359982e-01
1.552687244775054487e-01
1.208096422522940694e-01
1.158179538378240059e-01
1.310647703138149989e-01
1.262934185453110647e-01
5.638454926403920625e-02
-9.181172239272555879e-02
-2.692794701893994613e-01
-3.788032074749332345e-01
-3.510739449656067879e-01
-2.166010945464736381e-01
-7.890357037093258252e-02
-8.533010656104917518e-03
1.270704225974417928e-02
3.912325002251885314e-02
8.427596576114085303e-02
1.129452055978244218e-01
9.318487511179650296e-02
3.576290091349192124e-02
-2.029333812254463174e-02
-4.981624802680459374e-02
-5.921480060546806257e-02
-6.169575138244588752e-02
-5.160270239030371325e-02
-2.275681560085976440e-02
5.033310179254416039e-03
7.039713157797261762e-03
-1.422679898623170278e-02
-3.984244814376242116e-02
-6.099175126666075974e-02
-7.847874439274470093e-02
-7.788896325825030165e-02
-2.193740214225013002e-02
9.062528809349529313e-02
1.512691613470698304e-01
1.653732958979298520e-02
-2.679124273607826900e-01
-4.264256595370006231e-01
-2.850057273437155980e-01
-3.216948424424401209e-02
2.728615998770603235e-02
-1.406672018531850143e-01
-3.185629280721051226e-01
-3.350271971298334206e-01
-2.088221581177901742e-01
-5.354735924428440097e-02
5.749554034810257230e-02
1.239121883708179384e-01
1.682667278127041588e-01
1.955922374987643098e-01
2.079541839712560070e-01
2.257474556139241750e-01
2.651716701049052771e-01
3.105071589650356678e-01
3.312670039438762593e-01
3.169415082668553540e-01
2.820610138052541127e-01
2.457170250656244281e-01
2.151677274254546746e-01
1.789561334995123931e-01
1.060893617563596764e-01
-3.173800204032617422e-02
-2.161752311978129282e-01
-3.646197584911308187e-01
-3.806417616443582008e-01
-2.434301094149789457e-01
-4.146910822078403447e-02
1.040098787560728710e-01
1.462050730794585418e-01
1.287071532636249738e-01
1.122227461686015199e-01
1.178633689613659691e-01
1.356122082024117381e-01
1.521969698645970481e-01
1.594455742700887635e-01
1.535720456118477295e-01
1.390065108434281604e-01
1.245178381525435252e-01
1.087259988637006985e-01
8.482973089112667842e-02
6.331149718028182549e-02
6.228051255330055436e-02
6.882054652853693277e-02
4.480109839353806078e-02
-1.304661132682399111e-02
-5.486004329496161486e-02
-4.002076381367138808e-02
2.619275830491354234e-02
1.262630287310270161e-01
2.175003368983278174e-01
1.813379182842539128e-01
-6.148427045672077984e-02
-3.388935785948168911e-01
-3.507180796686958368e-01
-1.031297065962452075e-01
4.902837728688371616e-02
-9.909213009004565198e-02
-3.514619335062441619e-01
-4.448970460021881568e-01
-3.713326177715627341e-01
-2.764116685997923817e-01
-2.223972547681444811e-01
-1.633989628322286003e-01
-6.255407918118857657e-02
6.153906580975152668e-02
1.707451498424923386e-01
2.384910636474230072e-01
2.599082077281373304e-01
2.522090495639811025e-01
2.377997952811326809e-01
2.240472741831552872e-01
2.066908349660139532e-01
1.855178175528286455e-01
1.683208861248533805e-01
1.658409302193264157e-01
1.780749438844053401e-01
1.735989088161476457e-01
9.612983460184637563e-02
-7.850121073567814522e-02
-2.820474997506932646e-01
-3.783403475482569611e-01
-2.878779050023821395e-01
-8.490259645139716649e-02
6.989616445806552669e-02
9.414639277415533247e-02
4.127150421068453978e-02
2.415790442502672650e-03
6.696751317476833804e-03
2.644005638469345068e-02
3.469316477533777171e-02
3.019370571051734412e-02
2.042577383430840832e-02
6.169039056213830759e-03
-1.091503435143830955e-02
-2.149456329887077313e-02
-1.960561304093227583e-02
-1.316911010249692537e-02
-1.657384271333266906e-02
-3.271856671859703358e-02
-5.075973457188152904e-02
-7.183934143416091656e-02
-1.207994455291511171e-01
-2.030342597127058613e-01
-2.585565104204876063e-01
-2.067232513876811062e-01
-7.429837551586628008e-02
-5.011401198950408975e-02
-3.004899501003177598e-01
-6.737463569714549072e-01
-7.569955803465484578e-01
-3.880970664146884408e-01
7.725296495945646602e-02
2.013566872446433953e-01
-3.054646646907660523e-02
-3.017230194739932148e-01
-3.727759001174299480e-01
-2.500835488623551761e-01
-5.892651155790568085e-02
1.053073070517697302e-01
2.054694574103166083e-01
2.390877926522768093e-01
2.321858634518595144e-01
2.257309149493590406e-01
2.413096407751989803e-01
2.705425563694829338e-01
2.999458367418862959e-01
3.234887233490187919e-01
3.283863686331221499e-01
2.987278815713760305e-01
2.451860139207188982e-01
2.043651395537054993e-01
1.916644780700304806e-01
1.735859444179312094e-01
1.013954527159425939e-01
-3.656699589884230411e-02
-1.935316259309022846e-01
-2.841951563819314353e-01
-2.451921615895841788e-01
-9.941258887445660053e-02
5.184869311191723368e-02
1.175578523807783854e-01
9.099308976948246308e-02
3.303031658963923728e-02
7.307078631031580992e-04
4.547327639961265718e-03
2.235860872859924547e-02
3.653050570312562501e-02
5.074978566786312456e-02
7.516167692287213653e-02
1.077104351405172439e-01
1.360028449529974426e-01
1.461174844927307925e-01
1.272209807043552798e-01
8.313021881394851154e-02
3.789083010578635918e-02
1.535164332254927017e-02
1.648923465315250969e-02
2.241299392048553760e-02
1.694499003251230540e-02
1.175985722323838294e-02
4.380779799353986398e-02
1.081563341978275666e-01
8.487742119510428840e-02
-1.586616278911234523e-01
-5.065861266681281894e-01
-6.031006693861754586e-01
-3.019180138772204480e-01
7.908432174836366180e-02
1.490238797148696337e-01
-9.597605703635803120e-02
-3.525697000018637728e-01
-3.878124702026873316e-01
-2.222157209927315968e-01
-2.282173870791570983e-02
9.153799349975566546e-02
1.300953775965656978e-01
1.598524360286777413e-01
2.081582992681794975e-01
2.523501069505599270e-01
2.747974969635033626e-01
2.862121033994014518e-01
2.910652007393527696e-01
2.687519207280763545e-01
2.104698734543664074e-01
1.461450222822524847e-01
1.130343759323205188e-01
1.167481486605042723e-01
1.326945805289528324e-01
1.238155307180885539e-01
5.220764678841961076e-02
-9.253491436123464919e-02
-2.546047012185191916e-01
-3.297664439439890738e-01
-2.575954692259248557e-01
-9.152997615813435184e-02
4.515538562889259699e-02
7.423811575942945717e-02
2.267268358297726272e-02
-2.635287390592856022e-02
-2.294449955797184942e-02
1.569265086951744312e-02
4.387154909150280113e-02
3.834007207873008777e-02
1.032081283125665591e-02
-1.564140419283915895e-02
-2.523034544397151011e-02
-2.306338054902080242e-02
-2.291570258429041426e-02
-2.798566024561912821e-02
-2.510956883569791590e-02
-3.773517271863841005e-03
2.362981636878360922e-02
2.715512596633616257e-02
-1.159862791713276581e-02
-7.221095932722981781e-02
-9.849407336485813125e-02
-4.603732509232937031e-02
4.205120219962230066e-02
1.438592580534686291e-02
-2.392294943654685868e-01
-5.642001065722263009e-01
-6.213325997985092997e-01
-3.217898026012603885e-01
2.285485218668371898e-03
1.292000491724423598e-02
-2.411215419618163158e-01
-4.664308596481174796e-01
-4.867508496782999017e-01
-3.578035497992941849e-01
-2.163642466263068498e-01
-1.166055084419033716e-01
-2.638969096765260772e-02
7.482208031011990113e-02
1.595513768594440107e-01
2.033494916910811301e-01
2.146924051673994027e-01
2.102495671562292778e-01
2.009635532372881228e-01
2.001096046249720428e-01
2.113237305796291654e-01
2.153652990843554771e-01
1.972301617793021655e-01
1.733023884651240798e-01
1.583066751694791330e-01
1.167307489621964428e-01
-1.052186999764505825e-02
-2.175230788599841203e-01
-3.940097530710108820e-01
-4.111965187221225948e-01
-2.602119265354836397e-01
-6.679335051096138565e-02
4.965226785343437171e-02
8.170131084764908902e-02
8.854800330983148005e-02
1.086963719861628874e-01
1.407960848749168214e-01
1.689132390252897353e-01
1.771521245128565847e-01
1.547001547104843444e-01
1.135659894040451090e-01
9.199595274764517383e-02
1.136625865439516436e-01
1.529029628853668110e-01
1.591270317497260056e-01
1.096512358222913736e-01
3.225840281501764217e-02
-2.510025853125807255e-02
-4.280375857802091316e-02
-3.518641062358569827e-02
-1.669471605106397083e-02
1.477558089358539661e-02
6.713227039563297860e-02
1.315175626306747392e-01
1.521609695618555413e-01
5.589540578437681567e-02
-1.200640374922666564e-01
-1.950641317462205870e-01
-6.237416991524716292e-02
1.311005841242936232e-01
1.566546063246310183e-01
-1.617767079106553763e-02
-2.159650412771656480e-01
-2.778548031567500409e-01
-1.803824186773452520e-01
-1.379944050576865575e-02
1.281799572894362915e-01
2.134146735416688201e-01
2.560397241407041946e-01
2.754339128830566308e-01
2.842766349445338125e-01
2.956096147531798168e-01
3.185142563245143554e-01
3.472197776735211905e-01
3.643808397390514986e-01
3.562344241127303746e-01
3.203883821563380807e-01
2.647180194760921368e-01
2.076704221995337718e-01
1.677693512531016062e-01
1.347755114201548143e-01
6.127160190389130401e-02
-8.820201372399187612e-02
-2.702804993856913196e-01
-3.724426549838928402e-01
-3.217463153665243714e-01
-1.724838490168373040e-01
-5.150335296638783311e-02
-2.571466663528974503e-02
-5.715893033609148466e-02
-7.534798384589379283e-02
-5.334661744807681072e-02
-1.253184835573823395e-02
1.479546471278541352e-02
1.181776672684577145e-02
-1.863516757763909043e-02
-5.831756650116241142e-02
-8.615021216688172057e-02
-9.734529310616416020e-02
-1.051426591826239709e-01
-1.175825999603564292e-01
-1.216595725729050503e-01
-1.008596326440823893e-01
-6.136571920844079153e-02
-2.807740069600581784e-02
-2.252985695619647011e-02
-5.501543865401965772e-02
-1.136235990255121536e-01
-1.454283529955361920e-01
-1.079046267078822702e-01
-8.239728262399677317e-02
-2.288802098949856700e-01
-5.140979781603115528e-01
-6.260250641765676693e-01
-3.586578468262164310e-01
5.311342035005020557e-02
2.006298657910008665e-01
-1.395075608576952508e-02
-3.263577832109143539e-01
-4.465331223509892977e-01
-3.240771252968145943e-01
-1.141422515888897149e-01
3.291569659729337571e-02
1.043986733116133159e-01
1.689704211646060605e-01
2.478203587915427941e-01
2.859790170450360325e-01
2.449048007541865246e-01
1.800715149432406958e-01
1.889365618658321588e-01
2.845392482579633397e-01
3.670788693108458789e-01
3.492015192461209172e-01
2.621115270165416677e-01
1.982516519388673737e-01
1.943780935623551087e-01
2.053883712565191255e-01
1.605303752491795410e-01
2.574423697544201556e-02
-1.642242566696809625e-01
-3.149204502470214218e-01
-3.316530845660754512e-01
-2.028694160255048451e-01
-2.107911101383256811e-02
1.027999468175059827e-01
1.359737859969202267e-01
1.208542902532687841e-01
1.040320528094103580e-01
9.529196658295359390e-02
8.233100112332372711e-02
5.901728267870601924e-02
3.242193038291608931e-02
1.333760353671316172e-02
1.006016530456518496e-02
2.542022783203091302e-02
4.831660710992393554e-02
5.470983741628543395e-02
3.237757795585954196e-02
-1.075027552443283928e-03
-1.861749073862561943e-02
-1.520424341589848155e-02
-1.187353248188563470e-02
-3.381578597725971164e-02
-7.532930982513719176e-02
-8.238213555261313104e-02
-9.430267148132342320e-03
7.214803924997616191e-02
-1.612247145409384519e-02
-3.309404543154232936e-01
-6.288852179929929065e-01
-5.987570929244321327e-01
-2.692532624541049691e-01
1.295139939653611183e-02
9.234276208608758335e-03
-1.891103958970537513e-01
-3.474400418044726324e-01
-3.354436475622597502e-01
-1.836666081589774513e-01
-3.866255059990775234e-03
1.120721508297448932e-01
1.508501357758539885e-01
1.587205179860085580e-01
1.773680754075092902e-01
2.124988691631040094e-01
2.505075786021803141e-01
2.790538692892901573e-01
2.910464582326904304e-01
2.845766911248830411e-01
2.650488343881823305e-01
2.426692793215410870e-01
2.240630943189877711e-01
2.041408735339794722e-01
1.624513936046990958e-01
7.537363720086052987e-02
-4.781545785384330727e-02
-1.492663448967779249e-01
-1.791001592613409577e-01
-1.536019366719478529e-01
-1.136218029527470558e-01
-6.296541928649272701e-02
2.081229637466739529e-03
5.519723644074178703e-02
7.516139793319681628e-02
7.620566654888775993e-02
8.443226804132231145e-02
1.072598960495778631e-01
1.282952690578237909e-01
1.242972764140715669e-01
8.608243951546429296e-02
2.383895692152883036e-02
-4.078886141866212844e-02
-8.662179074622265718e-02
-1.026404146390468980e-01
-8.695404261055277029e-02
-4.531229840293789224e-02
2.534856527868166107e-03
2.974927894562758024e-02
2.311745849763388247e-02
-1.029709768113304738e-02
-4.631011065961283119e-02
-4.705437765688864210e-02
-1.460190504017772062e-05
1.900104375615527599e-02
-1.116498457739164840e-01
-3.717980907808458579e-01
-5.262622318284129186e-01
-3.824704643586838149e-01
-7.214899211364211862e-02
8.016993185766679852e-02
-6.137319323339273519e-02
-3.201715879650751662e-01
-4.387986669934890172e-01
-3.344735425314661059e-01
-1.228522465316972401e-01
4.171666516451536660e-02
1.082543992041005709e-01
1.269323378915042655e-01
1.527603082412187507e-01
1.893950191932142202e-01
2.165674486913680141e-01
2.291748011961845521e-01
2.358758042989002879e-01
2.436872919346489696e-01
2.524307946541364811e-01
2.504808414122821070e-01
2.229080492079316134e-01
1.774677967968273096e-01
1.422741338106317255e-01
1.174238107576728307e-01
5.248769914190348079e-02
-9.874891865539557612e-02
-3.085204522043742958e-01
-4.760282302428325285e-01
-5.017154894094081330e-01
-3.702105842333537344e-01
-1.647804687973862536e-01
5.904629481619960707e-03
8.707557585627870300e-02
8.783639809060389547e-02
4.879068633890294715e-02
1.179343519573855872e-02
-3.471658284726805363e-03
-1.050127456610127838e-04
1.870726710262103631e-02
5.242079476987134695e-02
8.526511879082369905e-02
9.419380248146622114e-02
7.509995853874038008e-02
4.273371023547319070e-02
1.179433633279022668e-02
-7.864898105430758249e-03
-1.026490531473370563e-02
-1.909697630619991470e-03
-2.252551374093978223e-03
-2.516891408374581987e-02
-5.547927921877253421e-02
-4.489224251828080603e-02
3.424037053935742592e-02
9.957144042940345441e-02
-4.951089475007880783e-03
-2.823216328899530447e-01
-4.799112421258731609e-01
-3.784525916299944504e-01
-1.003936159624317925e-01
4.209955379376485035e-02
-6.995569557402669947e-02
-2.720811637233246927e-01
-3.542696209765922588e-01
-2.736964479965452446e-01
-1.271225318398580828e-01
1.313756208971535513e-03
1.018674013665139405e-01
1.803503256684508560e-01
2.162921757497757447e-01
2.075068693566714528e-01
2.028691166937832413e-01
2.466182705541350439e-01
3.208106933121304127e-01
3.681218788576591239e-01
3.474584415603782506e-01
2.663606486302062537e-01
1.831027823593449066e-01
1.636059802982222644e-01
2.090035278083282877e-01
2.347106648564229181e-01
1.450668030529531916e-01
-6.187226049434984415e-02
-2.676809248774343342e-01
-3.282471835665659032e-01
-2.096367196820229650e-01
-1.907206533409066401e-02
1.081143261130744909e-01
1.290098269039735845e-01
9.252037397320489465e-02
5.903704029745059090e-02
5.048691599867548979e-02
5.936501667824000544e-02
7.504310984751509650e-02
9.305169051097093857e-02
1.102892715872190871e-01
1.209243493394718955e-01
1.147993754135904904e-01
8.451050324090994548e-02
4.278798633763246373e-02
1.893724928310196870e-02
2.475631640418085588e-02
4.077539189960657784e-02
4.765435705319692045e-02
5.016881076911500204e-02
5.537060023653229274e-02
5.144464965464067008e-02
3.853384062191020365e-02
5.697792277535046468e-02
1.160494184004881718e-01
1.027141082816139112e-01
-9.826737834008354711e-02
-3.474302801357752601e-01
-3.323645911502340344e-01
-2.252782340610733069e-02
2.222986993842374914e-01
1.310411052064847093e-01
-1.593179218221749960e-01
-3.555603873998794406e-01
-3.477456010051869217e-01
-2.252109692953740416e-01
-1.030534135160330322e-01
-1.840826503053347163e-02
4.583607717957625949e-02
1.046913351146790405e-01
1.544456384915828540e-01
1.865255743937716815e-01
2.020613314358891133e-01
2.135543852837314682e-01
2.305270719295750004e-01
2.439815306993332322e-01
2.351105236122822406e-01
2.019480071204471372e-01
1.661908229368266321e-01
1.495005669541288051e-01
1.472560720825283331e-01
1.225845056796752292e-01
2.888051243708114266e-02
-1.422147985092014899e-01
-3.269763342857987531e-01
-4.237294305302065633e-01
-3.791882877121801609e-01
-2.342798177752519195e-01
-7.891731118964516456e-02
2.437104762380803979e-02
7.044141270611348205e-02
8.706301911063162036e-02
9.293176943623437936e-02
8.073866139428899358e-02
3.942543950158160920e-02
-2.158025828732575493e-02
-7.838800128640885378e-02
-1.085680342165467605e-01
-9.911810772362847355e-02
-5.968094626528350211e-02
-2.729766075804711256e-02
-3.285720259489146450e-02
-6.362972680892496624e-02
-8.182932694882687208e-02
-7.460072321629793168e-02
-6.294077266316758235e-02
-7.008191645234176925e-02
-9.833084764617634754e-02
-1.167150860590436129e-01
-6.891625087485858669e-02
4.102913829950911168e-02
5.630939643419816815e-02
-1.995992241372829545e-01
-6.018321378034691138e-01
-7.303652522134762570e-01
-3.922620781183931427e-01
7.014025956657954364e-02
2.050315683876707262e-01
-2.456754493435644310e-02
-3.040077064473515889e-01
-3.688792569737067151e-01
-2.120443476830636831e-01
1.362590375374187271e-02
1.800839567874753799e-01
2.585962781295703117e-01
2.804257025298769745e-01
2.798619233973418940e-01
2.720601163479499651e-01
2.689033507985446603e-01
2.936817386105372019e-01
3.502214193034049461e-01
3.950005521817492316e-01
3.814408764122493856e-01
3.148547938107136290e-01
2.350868995822973928e-01
1.720107211535088221e-01
1.318076893427471141e-01
9.369124376629432704e-02
1.292208392076533811e-02
-1.382936886249463149e-01
-3.158898056932452625e-01
-4.147124919197838766e-01
-3.642454673890598849e-01
-2.076614194979449213e-01
-5.839003773670186498e-02
1.554058933837724685e-02
3.203924307680491163e-02
3.504238598104535141e-02
4.247439891784110522e-02
5.276793478304917656e-02
6.543713639156169271e-02
8.264828005459190496e-02
9.940139830500394069e-02
1.039224271319248161e-01
9.216146029210972590e-02
7.102399718876299672e-02
4.681866348732315747e-02
2.422781255829200078e-02
1.062051850300950624e-02
8.728080976979397596e-03
1.242262811705633664e-02
1.341770609688546986e-02
3.598260662466413150e-03
-2.071542989591549158e-02
-3.690033986620949030e-02
3.287238386003653139e-03
9.480808905154253230e-02
1.026710493763708515e-01
-1.229874035962348899e-01
-4.845666634991431798e-01
-6.376913696186189418e-01
-4.066655825280993120e-01
-4.625346073585453327e-02
7.798422375410846152e-02
-8.799751361046098674e-02
-3.168312960146846269e-01
-4.053109012387511867e-01
-3.313506576844020279e-01
-1.831620048481866492e-01
-3.914898167168368026e-02
7.198592803028489029e-02
1.500901960608614916e-01
2.039140725573146407e-01
2.452947071946975366e-01
2.821452806113464717e-01
3.124839807948046055e-01
3.263956805785077631e-01
3.118741719666259793e-01
2.640887248874853599e-01
1.978313664840647690e-01
1.487727489379464807e-01
1.472452744553094939e-01
1.828876076987932253e-01
2.073232704907396473e-01
1.709269989016163616e-01
4.730034335968118925e-02
-1.428725266199612487e-01
-3.037675712616460522e-01
-3.184353027403339920e-01
-1.784713411424404539e-01
-8.342063219471833324e-03
7.500495961944360357e-02
7.482618576155720957e-02
6.349851488567311020e-02
7.645148175088800624e-02
9.392092109735708516e-02
9.265005188307888495e-02
7.366172520664479584e-02
4.598770133312680281e-02
1.531910263805606395e-02
-6.871008931030296758e-03
-7.228176083446472173e-03
8.617348706807633624e-03
1.697317804797186802e-02
8.477212483191835096e-03
3.704240872122858876e-03
1.872365222648557717e-02
2.824843942847968942e-02
-1.058843381424097625e-02
-9.559206530008410030e-02
-1.588250046599901100e-01
-1.257105433029403474e-01
-1.517771013950658734e-02
1.650544533247560314e-02
-1.863203437433003373e-01
-5.200301316827269371e-01
-6.363385374063900146e-01
-3.752205842882400111e-01
-1.856068600042182909e-02
6.449999291687236180e-02
-1.507541852279777050e-01
-3.985507977910892619e-01
-4.526647178135054794e-01
-3.068958939858682511e-01
-1.045751212963474674e-01
3.465013821744794553e-02
9.849543673359748008e-02
1.276788663241143762e-01
1.449782811475585353e-01
1.575981418917893340e-01
1.801134684811191433e-01
2.150976464070394334e-01
2.338193700154490573e-01
2.138194573530595444e-01
1.803174663473667283e-01
1.738901262691484317e-01
1.949122847846359030e-01
2.119788264090386454e-01
2.006281007911219771e-01
1.446616872747731597e-01
2.472000755726348406e-02
-1.545637642866296568e-01
-3.261579247787648739e-01
-3.873668514252446293e-01
-2.932053483255546711e-01
-1.104472820385304505e-01
4.255290077759608242e-02
1.008027442376768640e-01
8.373552598363606658e-02
4.253919975063174402e-02
7.342114923636729011e-03
-1.706953213708374897e-02
-2.860371279622099874e-02
-1.602491535888479757e-02
2.529567446639729641e-02
7.246653595591349972e-02
9.164248294422291941e-02
7.892089089291545734e-02
6.003696636543781606e-02
4.847295077743987018e-02
3.441624230955186298e-02
1.749164622534376407e-02
1.722843380319869291e-02
3.880752192632429959e-02
5.499173760055715843e-02
4.532082210205116285e-02
3.927266405752305456e-02
8.614143263216725299e-02
1.650339390287077213e-01
1.524746275334504242e-01
-4.376683063307831856e-02
-2.935300221994802672e-01
-3.271869477838105778e-01
-1.022946807671182429e-01
9.625720324795641880e-02
3.458050990020105492e-02
-1.881561731368708579e-01
-3.206379185670962806e-01
-2.536485601934068690e-01
-6.764218986383623011e-02
1.079234526705881575e-01
2.116644755617891061e-01
2.579782832055353969e-01
2.850154649383165317e-01
3.097131585699477996e-01
3.209148234887898576e-01
3.079563751692937501e-01
2.843095069851428458e-01
2.709474655492633000e-01
2.660172965224363306e-01
2.514459825182187580e-01
2.249311023898415418e-01
2.027891674265795141e-01
1.920412669770353020e-01
1.747140437619753850e-01
1.163894994451096371e-01
-9.756755915993058081e-03
-1.869881104853555187e-01
-3.383382418393669488e-01
-3.730747514088531003e-01
-2.703518944089388087e-01
-1.030822153817252396e-01
3.386465115067893022e-02
9.962949215822020088e-02
1.070819810244482556e-01
8.445947815639981426e-02
5.638873581550948866e-02
3.672619035486755779e-02
2.186616678850481638e-02
3.853655351934542374e-03
-8.497176017930836017e-03
-1.747409288407851535e-03
1.586188860587808142e-02
2.471390435988611578e-02
1.883791851124046179e-02
1.227545561122179128e-03
-3.048320442942796527e-02
-7.348218396079682357e-02
-1.057862352439854076e-01
-1.111988607838852450e-01
-1.133932831523246088e-01
-1.426844159398151513e-01
-1.643050245621051619e-01
-1.018237114494380535e-01
2.059401689751831979e-02
2.020058517524743469e-02
-2.268766272712522680e-01
-5.227954230049161044e-01
-5.211356120366354983e-01
-2.101433663465516744e-01
3.452365251418786779e-02
-5.567873518772706309e-02
-3.388996979652513231e-01
-5.035892708517453187e-01
-4.183925985303902362e-01
-1.893345362335603355e-01
1.239282871132519129e-02
1.076022796369459633e-01
1.279603179544524516e-01
1.383967568132970782e-01
1.670409622061008181e-01
2.008294980284955067e-01
2.256691440458264974e-01
2.503917816984498335e-01
2.841875417607100940e-01
3.093091572424562230e-01
3.026554001917988179e-01
2.748561646574280704e-01
2.583040010531623687e-01
2.607441548763586581e-01
2.528649563557369695e-01
1.967147765538698190e-01
7.284609842489134235e-02
-1.054471243515764239e-01
-2.788169869201549411e-01
-3.552156783577720689e-01
-2.803982983945887408e-01
-1.040814658467496129e-01
5.579593148701761374e-02
1.221080940481821114e-01
1.107331804771926193e-01
8.256858357811472371e-02
7.800690770565810173e-02
9.855686881852819548e-02
1.198311718258974479e-01
1.116074918745201816e-01
6.420629464742397263e-02
7.860884360210571714e-03
-8.420835988300064828e-03
2.463948221363999533e-02
5.501987511128014069e-02
3.143150544031978605e-02
-3.046777044264343051e-02
-7.314807642902107498e-02
-7.207183608215810000e-02
-5.425168398954135357e-02
-5.039068939541849201e-02
-5.264558251162920061e-02
-1.896632992981576657e-02
7.978975550100517178e-02
1.858914095036383052e-01
1.345779768332942827e-01
-1.849019120161841945e-01
-5.893499539266263687e-01
-6.876179556847776819e-01
-3.526217784468686500e-01
6.377206387950937194e-02
1.518457494744952507e-01
-8.537762370651655330e-02
-3.242272267911078809e-01
-3.379728696440927327e-01
-1.757710915420070685e-01
1.253272706204580644e-04
1.062866738530906519e-01
1.534187591984022270e-01
1.706165021526356296e-01
1.740393342412094035e-01
1.815147111680708025e-01
2.096110700449390629e-01
2.496159298121785330e-01
2.702669579729468086e-01
2.530730696674797220e-01
2.131477141874263403e-01
1.818631659660942257e-01
1.777622909921705574e-01
1.940538161446979382e-01
2.039195530527184719e-01
1.743298112246971787e-01
8.181116849112173017e-02
-7.248723172882902410e-02
-2.472793516585242990e-01
-3.601708497673842824e-01
-3.357491627364377340e-01
-1.841618001179642639e-01
-1.170037303438414833e-02
7.566966131535210471e-02
6.782869028546159584e-02
3.596437114663177809e-02
4.195407290537149503e-02
8.226456466327744521e-02
1.126237308682719179e-01
1.047005367733172543e-01
7.006284260793102514e-02
3.991234233261699293e-02
3.330452134580975249e-02
4.512971672304875309e-02
5.791964826854060361e-02
5.938765452255875127e-02
4.597156748354883082e-02
1.505438082474516888e-02
-3.040291977339667703e-02
-7.043528221990498495e-02
-8.650286789424252443e-02
-8.743307978224706956e-02
-8.133815095668837925e-02
-4.128233669861226113e-02
2.682912428361899221e-02
-4.555124911638462441e-03
-2.613724491149791440e-01
-6.010939714820484614e-01
-6.678254782963037872e-01
-3.559591199887980340e-01
-7.076021271165980342e-03
2.077365517795658201e-02
-2.245757240289527057e-01
-4.311025603038136644e-01
-4.097853277665979288e-01
-2.212807203428739100e-01
-2.111536601382750164e-02
1.014445877295048204e-01
1.452130355971792963e-01
1.459327054324934259e-01
1.390559971645793924e-01
1.451453899412019077e-01
1.653376204861747023e-01
1.877559445428588492e-01
2.025391775520186122e-01
2.120799626127721493e-01
2.234791440898700188e-01
2.335097883091888926e-01
2.326851462063611597e-01
2.217404105363669775e-01
2.006451319246936316e-01
1.371383580254096068e-01
-1.701343861786702022e-02
-2.476219871960314289e-01
-4.346163304588402387e-01
-4.371337371210591294e-01
-2.484487845286427465e-01
-2.780226327303624706e-02
6.379693607139547140e-02
2.075820462387975227e-02
-4.868884109566779667e-02
-6.266162118631669886e-02
-2.085882764942260936e-02
3.153990242240764519e-02
5.160533611358668338e-02
3.064405636547525708e-02
2.237820180016713081e-03
9.285194920529576262e-03
5.419114575407320972e-02
9.223123102301365728e-02
8.159373274469981785e-02
2.981682484114327181e-02
-1.764942642470835807e-02
-2.513363903390559290e-02
4.192146809123264810e-03
3.458932196906999018e-02
2.656897326585156219e-02
-1.965333491920032497e-02
-3.419370636340727382e-02
6.612462787058367986e-02
2.333692286783080327e-01
2.523137139874062074e-01
-2.376015471004372034e-02
-4.124102305319504169e-01
-5.472237049671182518e-01
-3.268933234690365452e-01
-4.237249778651945575e-02
5.012370027486050261e-03
-1.647394872538446020e-01
-3.222409680007924382e-01
-3.196134747901169804e-01
-1.899808352760284369e-01
-3.929307044448331065e-02
7.228107203934815150e-02
1.447926350463269451e-01
1.935387082214224952e-01
2.251115307651656849e-01
2.469571098347915217e-01
2.720472736676698977e-01
3.045274504852771846e-01
3.352231736298464382e-01
3.548319906810838420e-01
3.537517879649901831e-01
3.086491090564659201e-01
2.040047260640076021e-01
8.505643750599660435e-02
3.211844939139753274e-02
3.478829197269422968e-02
-2.520774935820944626e-02
-1.948513470681379478e-01
-3.456058152134229289e-01
-3.247932657164446235e-01
-1.438817264463196355e-01
4.694647524798503668e-02
1.320621983564530533e-01
1.214560876370278791e-01
8.948821794056370516e-02
8.302639721964363839e-02
9.921916443322603696e-02
1.163875260327444788e-01
1.228095515376809305e-01
1.190825063763850805e-01
1.062276492320218951e-01
8.306006729982638725e-02
5.420764873097760894e-02
3.081081065246748379e-02
2.149235957545778120e-02
2.733655105252314962e-02
4.503783862873686483e-02
6.905459232944158310e-02
8.814163451067925925e-02
8.572963595054948482e-02
5.503474604999711306e-02
2.394651726312227794e-02
4.956229230746596326e-02
1.384066566193379866e-01
1.700687562934279362e-01
8.211849102149587631e-03
-2.529034935093255054e-01
-3.140981101485785243e-01
-7.450571891756602172e-02
1.813515561566394485e-01
1.549826064862934172e-01
-1.066917664485528827e-01
-3.476098880622799925e-01
-4.124756580708950904e-01
-3.231797532723582056e-01
-1.741152779635909975e-01
-3.981707049322422143e-02
5.255605207827231118e-02
1.104652417065187103e-01
1.484381312988478641e-01
1.739838938105373878e-01
1.945518352721950783e-01
2.195800743211548667e-01
2.472779820004005757e-01
2.603298125522200968e-01
2.428242953460033882e-01
2.006635598340759108e-01
1.662975116341926518e-01
1.754699001818817161e-01
2.216541250612300007e-01
2.415662121407824159e-01
1.694269521215063246e-01
-1.346843549171038851e-03
-2.128884829232611520e-01
-3.697999866266865054e-01
-3.839403336959230084e-01
-2.452828481454096821e-01
-4.738127380515046866e-02
9.072994600307024426e-02
1.199820455980607353e-01
7.174638911651474993e-02
8.782474035337460572e-03
-1.740327513548963964e-02
1.953535136274477113e-03
1.626186317503948778e-02
-3.808819582327199055e-02
-1.460166549772750344e-01
-2.104765480433883063e-01
-1.765449204712907505e-01
-1.008167545349773486e-01
-5.953174165695367115e-02
-5.730904765925783767e-02
-6.021404231098553828e-02
-5.736702466257410232e-02
-6.261465409314795338e-02
-8.796239765916026576e-02
-1.296370322756656146e-01
-1.654178210156579121e-01
-1.563918465116612144e-01
-8.064096718482317849e-02
-1.366579954727427382e-02
-1.260267260646943110e-01
-4.592389989728533073e-01
-7.356785943296948460e-01
-6.191044759990862456e-01
-1.718928926299111704e-01
1.843459613757828797e-01
1.718185327753346536e-01
-8.028300694626866463e-02
-2.714105931710203978e-01
-2.641827012784496165e-01
-1.435888071913946629e-01
-4.105537483630006257e-02
8.251075856301009342e-03
4.253664666570722286e-02
8.915430723772030386e-02
1.406526261937834366e-01
1.831196451848565443e-01
2.178317761571687272e-01
2.518903273899176232e-01
2.798677378234232793e-01
2.888725419262296867e-01
2.755084348349001178e-01
2.476071660927546270e-01
2.200493266481189647e-01
2.076790098503992210e-01
1.991643066169732357e-01
1.451608132300965526e-01
7.536515457739081589e-03
-1.768324850912278978e-01
-3.081061179849710618e-01
-3.119535054423447917e-01
-2.073005798842273983e-01
-7.415580084367093261e-02
2.987051564674482462e-02
9.327464455553327594e-02
1.150524567252484559e-01
9.241500994570264749e-02
4.522481615184083259e-02
2.200692660952109636e-02
5.313386175371968140e-02
1.054994160057840941e-01
1.208013845739632219e-01
9.103421640849677920e-02
5.984590137420741501e-02
6.112892894786220443e-02
8.434329354334710316e-02
9.584261794091669673e-02
8.133369693825905078e-02
5.997646379146510942e-02
5.281742924485045149e-02
5.152063784688745013e-02
3.223636404009121853e-02
-7.460293265772109834e-03
-2.965829378536373115e-02
1.282259913393637638e-02
8.794578152113201319e-02
5.031143241007123013e-02
-1.971032825969172286e-01
-4.906454871465639189e-01
-5.160703377315328799e-01
-2.136289487965291334e-01
9.897024367449105964e-02
1.124963528513463068e-01
-1.287985906446142692e-01
-3.476287910398532799e-01
-3.552920374436197015e-01
-1.827364830752785663e-01
2.396913766906593607e-02
1.612359209679826155e-01
2.198422473014138012e-01
2.345512880905119002e-01
2.367527528169089956e-01
2.470311893086667432e-01
2.698993102768902363e-01
2.885534655050011055e-01
2.831568751080722479e-01
2.574063831772330779e-01
2.371508267069413756e-01
2.363773505302102784e-01
2.345445149023211717e-01
2.013351917702884686e-01
1.307256221509318361e-01
3.164274829691242352e-02
-9.726570425333271042e-02
-2.505632515446990505e-01
-3.733219145958982521e-01
-3.756549022058817133e-01
-2.260654695524536573e-01
-9.512877113247143746e-03
1.455430568000581071e-01
1.843452541005533851e-01
1.489622081593633129e-01
1.081034309619575556e-01
9.053331082936984242e-02
8.430572636163423395e-02
7.762828334030236199e-02
7.104700427541955909e-02
4.840003564849421763e-02
-2.132465104345006301e-02
-1.230701508099581315e-01
-1.773448587540344679e-01
-1.318962536168152289e-01
-3.632642534287270492e-02
2.049132513721675306e-02
1.088318858657196832e-02
-2.718827657402786771e-02
-5.497265371667705430e-02
-7.176228943701243312e-02
-8.870431143465207224e-02
-8.245641786553972730e-02
-1.945302613691972035e-02
4.572140957627300606e-02
-3.887515570462241749e-02
-3.294235013671588108e-01
-6.143852404745920870e-01
-5.970639337883180131e-01
-2.800876461728125655e-01
1.569716009381737221e-03
-1.501685288626617917e-02
-2.397342412131304723e-01
-4.014149694954588510e-01
-3.599771615745511744e-01
-1.821233916785254814e-01
-3.208043994629211290e-03
1.018347874990021273e-01
1.395592411316528281e-01
1.546260237782006441e-01
1.824052941470885314e-01
2.257371904890968228e-01
2.606235283394601199e-01
2.635372393264630575e-01
2.397129205825459519e-01
2.188569778647090347e-01
2.159984551969589828e-01
2.135104492244978835e-01
1.939860505305665839e-01
1.662677707707252150e-01
1.378178123925177245e-01
8.124574785768476359e-02
-4.018903670947745338e-02
-2.099867005941832565e-01
-3.427768309691830440e-01
-3.520601602716060263e-01
-2.388334532729547988e-01
-9.956798380184331276e-02
-3.054653012789691757e-02
-3.728399643023351528e-02
-5.860360189131536696e-02
-5.334101573935209895e-02
-2.646703099333858056e-02
5.827025553527331175e-03
3.491976136086158422e-02
5.368367718470185013e-02
5.756687942840921224e-02
5.000572679216346017e-02
3.950901219198398040e-02
3.349878844606363204e-02
3.282636182761326793e-02
2.943692782837255620e-02
1.620378985350507534e-02
-3.608196510371357302e-04
-7.863491010237663378e-03
-9.056152384709824366e-03
-2.386798186530092458e-02
-5.603790459677240182e-02
-5.615099634102465459e-02
3.538396730549790703e-02
1.612431241986087560e-01
1.408181440807064755e-01
-8.494793254406560190e-02
-2.896677969145605713e-01
-2.306572444200489236e-01
2.379029873428313568e-03
1.079747989786594697e-01
-3.508506130180928662e-02
-2.646815161788058091e-01
-3.683340902908561754e-01
-2.899024275507289250e-01
-1.169674670772837821e-01
4.308485338132100884e-02
1.404430284846762689e-01
1.825178875186992955e-01
2.015648588829609955e-01
2.228012197289485630e-01
2.469488589065503281e-01
2.588000320801144838e-01
2.556321298335984538e-01
2.582667943941495126e-01
2.807281846473819731e-01
2.976503644838875973e-01
2.654523430055890643e-01
1.827784276749353787e-01
1.045317730952594060e-01
7.046963294627789365e-02
4.805153323169226998e-02
-1.555595651174183740e-02
-1.163406030388218354e-01
-2.047437786960301653e-01
-2.356417556894392917e-01
-1.815543697022929392e-01
-4.870792260862022438e-02
9.994099029371880660e-02
1.892102698951278472e-01
2.038491477620370806e-01
1.813821777558904114e-01
1.529059624288834907e-01
1.212068914930374830e-01
8.357368307490507797e-02
5.376880186621559726e-02
5.160851690784658968e-02
7.599970880809975293e-02
1.034172403439138771e-01
1.108853923229870669e-01
9.250102088663829381e-02
6.282844386923389091e-02
4.522667482821127183e-02
4.792354054451401779e-02
5.527762167821401174e-02
4.108215427511646700e-02
-7.124741107012428840e-03
-5.310139899101414679e-02
-2.104505684724256032e-02
9.138278124841284211e-02
1.247020456205819861e-01
-8.211466238634407278e-02
-3.992847756858151076e-01
-4.756602538000646030e-01
-2.202835744963450304e-01
3.484914817650536928e-02
-8.353968370488653455e-03
-2.595751952794633777e-01
-4.434200725603809068e-01
-4.288757287379710847e-01
-2.799340370506727682e-01
-1.183301084994246022e-01
-1.088288286445026655e-02
5.041096029653050620e-02
1.055482954691636388e-01
1.689991684743982203e-01
2.140118636165872779e-01
2.171446418716717341e-01
1.971487642522390116e-01
1.908541872910769488e-01
2.058428642546753229e-01
2.149486109798971478e-01
1.931981360642335277e-01
1.493899420278802237e-01
1.166875685574436522e-01
1.137708722937159772e-01
1.157560968781864430e-01
6.367197990349320047e-02
-8.011392678807036094e-02
-2.713653065689617949e-01
-3.989810183773361274e-01
-3.799222550136199805e-01
-2.295010141674703741e-01
-4.080862944845643075e-02
8.253768477378879698e-02
8.937263153447265462e-02
1.848176958584221707e-02
-3.551181353060781087e-02
-2.084672978765264584e-02
2.410256642483867007e-02
3.357236326921133468e-02
-5.770849062725349858e-03
-5.503678049971765657e-02
-7.940581389753842423e-02
-7.882874985849945559e-02
-6.940618684483639000e-02
-5.747471663960680016e-02
-4.348833276081805893e-02
-4.012073559132729728e-02
-6.126804448716138135e-02
-9.225028359971262915e-02
-1.044634537203802810e-01
-1.012148915391010706e-01
-1.003132932082475975e-01
-7.328392337601004336e-02
1.253871767927627195e-02
5.985358243578252357e-02
-1.241100045887649911e-01
-5.251673662107734231e-01
-7.770454042519209237e-01
-5.577641599570752895e-01
-4.846083576486433231e-02
2.594365822818137657e-01
1.456512049008533982e-01
-1.647216008819520627e-01
-3.425256893144332793e-01
-2.848521339014394860e-01
-1.089332639167509831e-01
4.574391419775101358e-02
1.386466713101475734e-01
2.004244299954517361e-01
2.587371043601657261e-01
3.095327505802906165e-01
3.348649014233490706e-01
3.290374611047139908e-01
3.085084185334351914e-01
2.984674027430335719e-01
3.057466223892565949e-01
3.095469311491075848e-01
2.895397180123678860e-01
2.569775275383420210e-01
2.403097806672925552e-01
2.379985908978502762e-01
2.017869093492307142e-01
8.230024235838370728e-02
-1.045717848981968373e-01
-2.637483533910205402e-01
-2.908882942569241958e-01
-1.712175176195681880e-01
-2.399141004952691503e-04
1.080504933288994607e-01
1.215313490245100714e-01
8.933135606355196989e-02
6.819967575576424412e-02
7.220394577554357929e-02
8.149606393922061154e-02
7.946780812946052652e-02
7.055147817396437149e-02
6.352769127505396296e-02
5.580265034486957265e-02
4.347928733282078323e-02
3.123436566997540853e-02
2.262314760400254560e-02
1.628860610931781583e-02
1.805842361144151254e-02
3.413149298192504066e-02
4.776985078111674332e-02
3.040464115655295424e-02
-1.858541791883056710e-02
-5.876510001387294513e-02
-3.820568903179272224e-02
4.458231083651872234e-02
8.632629172072195378e-02
-5.272784587316272503e-02
-3.428181564225120659e-01
-5.238439060592665619e-01
-3.968796287958347158e-01
-1.071679827790251727e-01
2.437827274633176319e-02
-1.140776617114067082e-01
-3.426862389540724640e-01
-4.315445493424375223e-01
-3.205442084771622513e-01
-1.218256980808566231e-01
2.665989741239564031e-02
8.449979737677662528e-02
1.028112871950252194e-01
1.362238208775385928e-01
1.899815055360989102e-01
2.387638272715853771e-01
2.667384910083636096e-01
2.791381435347124462e-01
2.820145898095243187e-01
2.668911516606108925e-01
2.258090723873698302e-01
1.732569063786095209e-01
1.395721228773526279e-01
1.363139929488351443e-01
1.303244146430788120e-01
6.388485034898848391e-02
-8.839451395932318434e-02
-2.804120244630475267e-01
-4.113539024525835197e-01
-3.934355850917246045e-01
-2.306618620005283504e-01
-3.268376550964121469e-02
7.522912489392719060e-02
6.067783553567923649e-02
-6.463084649235194268e-03
-3.770515209593869321e-02
-2.292413499602424624e-03
6.410052785264415409e-02
1.035739033371617240e-01
8.932675717852817110e-02
4.650343302339007140e-02
2.107391514586098163e-02
2.325712776394173176e-02
1.208272008078275887e-02
-4.787380017452731729e-02
-1.300484697436022630e-01
-1.729463240439877425e-01
-1.503454668964503693e-01
-9.315082182663990407e-02
-5.347986465800601968e-02
-5.457344843479723651e-02
-6.426546659815002283e-02
-2.593105728197141885e-02
5.463992979920044568e-02
5.445465996772626271e-02
-1.564988617457028219e-01
-4.847844405345537733e-01
-6.128267183169976429e-01
-3.799817646296996809e-01
-3.177636449621948356e-02
8.297404482430140171e-02
-8.113369235795477030e-02
-3.021995168633490603e-01
-3.904820788253320907e-01
-3.289981889784554525e-01
-1.973887527765513794e-01
-5.967312376859645884e-02
6.496717872608516464e-02
1.666626931603993333e-01
2.302077809679177189e-01
2.627004984344293304e-01
2.924664823538392078e-01
3.229359947976689349e-01
3.238933407876758430e-01
2.820807907825148009e-01
2.258935927068172478e-01
1.875215429810329348e-01
1.705823972156925716e-01
1.630838770523209968e-01
1.518855692073144414e-01
1.135204073343299702e-01
1.654558967668919370e-02
-1.437700313218265580e-01
-3.120459127393067633e-01
-3.922476316438509580e-01
-3.258049932525478032e-01
-1.533652497636335266e-01
1.998995751657291209e-02
1.196076328111132375e-01
1.430233702571307997e-01
1.238678061737474578e-01
9.289014759250870112e-02
7.159339397192737708e-02
7.153256548563438622e-02
8.850900119614359129e-02
1.027777402915786009e-01
9.385414290783034019e-02
6.730336283040438961e-02
6.120044375498438077e-02
1.038947035256753970e-01
1.655877376511304400e-01
1.813528469666331744e-01
1.345817524246931129e-01
8.454334919478703747e-02
8.222772246371309879e-02
9.540765093904132743e-02
7.267762823359637248e-02
5.233159573224302474e-02
1.189090117523260853e-01
2.422237379657872780e-01
2.518666326793719823e-01
4.636222533795656547e-02
-2.094014903974096564e-01
-2.333048940020848172e-01
-1.163124468231480080e-02
1.505601230264133616e-01
3.771319643256312859e-02
-2.236822921288724453e-01
-3.783675063303966191e-01
-3.257109930516725038e-01
-1.475821509881866389e-01
2.560792265533320261e-02
1.258826453935009693e-01
1.638747566342935724e-01
1.757283902793093100e-01
1.779258061552465020e-01
1.737417455720019210e-01
1.726638377867041330e-01
1.832344586127498953e-01
2.035336786377722473e-01
2.297278934846569420e-01
2.565562866837045042e-01
2.655729468078453226e-01
2.364890527069995474e-01
1.776097759404526855e-01
1.218304669191406786e-01
7.724596587891388588e-02
2.141856023652065691e-03
-1.397552605132046377e-01
-3.024379124837283661e-01
-3.757141786648545700e-01
-3.012306250741756952e-01
-1.398815738509355810e-01
-2.625138576502140247e-03
5.132387495198719590e-02
3.399575021035317057e-02
-7.869972598991878052e-03
-2.941129163343613254e-02
-1.721999840097816412e-02
5.127211165788666224e-03
9.377894644597400964e-03
-6.941684720808086878e-03
-2.782370849951548014e-02
-4.075475295226110850e-02
-4.523137831343475301e-02
-5.239573340940886781e-02
-7.592426400274787657e-02
-1.124159825609295504e-01
-1.387759796609033813e-01
-1.397072100170596576e-01
-1.269643650876880192e-01
-1.229732513063963584e-01
-1.318197354675551547e-01
-1.256698090049475913e-01
-6.739435151763850662e-02
1.482025458555887368e-02
-2.273212542184540469e-02
-3.018987992866203895e-01
-6.654568738040563813e-01
-7.334693549869619744e-01
-3.800199849554339870e-01
4.304910437249315908e-02
1.388071375934736562e-01
-8.080806674050597382e-02
-3.111105405261498924e-01
-3.405179323829857219e-01
-2.011068914089226001e-01
-3.917768402919480364e-02
5.342485604374648533e-02
8.589338955822017896e-02
1.108770972681206307e-01
1.570421086790673992e-01
2.135972015842508565e-01
2.597878980976651708e-01
2.894415616054550333e-01
3.045910467691894663e-01
3.042812160412814437e-01
2.903832434861015055e-01
2.710016858557176000e-01
2.504808389556387183e-01
2.289787676579647935e-01
2.130358620477710851e-01
2.021736624092470569e-01
1.591043926657592922e-01
3.329016840925570764e-02
-1.560556835507072859e-01
-2.940643909323308325e-01
-2.743340014350412193e-01
-1.183838584116765485e-01
4.937268061948483361e-02
1.376905431059058382e-01
1.556321082367859432e-01
1.521765213681417206e-01
1.465744320191815775e-01
1.334164450466263918e-01
1.127823613293748445e-01
9.019880272275258848e-02
6.605087057088958324e-02
3.922198155662321578e-02
1.356294076632173946e-02
-3.919915565688250961e-03
-9.349812312248139551e-03
-6.823788416588014855e-03
-3.141938814644483317e-03
5.342259559212938352e-03
2.699445012400997906e-02
4.786507149726328125e-02
3.171900859214690088e-02
-3.239468265202601061e-02
-9.125855507509447739e-02
-6.328826429106393370e-02
5.305193856388634027e-02
1.044314185667753470e-01
-9.169004374823508385e-02
-4.586603505284422844e-01
-6.309436495638102160e-01
-3.953474513269973900e-01
-1.113978705499503452e-02
1.181425148353277554e-01
-7.187302418863308895e-02
-3.213627408035900079e-01
-3.915469644605247823e-01
-2.599140070768810595e-01
-5.628543165086755812e-02
9.218896053383943134e-02
1.563644906254717526e-01
1.967890260711484818e-01
2.807215065299306089e-01
3.925608976982520315e-01
4.319218913157804596e-01
3.319257163665812471e-01
1.658169227179588090e-01
8.265146873098946911e-02
1.375117724176350142e-01
2.416844799938059896e-01
2.871214634008959488e-01
2.563069086232435123e-01
1.916914272010431242e-01
1.164602210635353047e-01
1.571711284583213880e-02
-1.276170480340468871e-01
-2.870534749204073921e-01
-3.797014726585772881e-01
-3.280020004840077941e-01
-1.551604822484215496e-01
1.755800257986500981e-02
9.448387304126408537e-02
8.828648884896442284e-02
6.445869779215718243e-02
5.373426161435459342e-02
4.313100181155363200e-02
1.900424997404785363e-02
-4.613466871981277209e-03
2.530789841483628740e-03
4.772736189095157233e-02
9.751109272550018137e-02
1.133226148748946449e-01
9.086600463090481472e-02
4.864769911566665939e-02
1.057176095301027869e-03
-3.795383387537851899e-02
-5.090755491814953626e-02
-3.860892647394117277e-02
-2.815614492563924334e-02
-4.092817916292943586e-02
-5.659419211838920966e-02
-2.680766955179907790e-02
4.453680643596305555e-02
3.436542345146995081e-02
-1.955053968979481582e-01
-5.506929240324220931e-01
-6.907673389460856628e-01
-4.325697876357054161e-01
-3.763855948159935960e-02
9.383351159997034563e-02
-1.087895876232333192e-01
-3.786949374190499706e-01
-4.607729982271007718e-01
-3.388267085934812406e-01
-1.630677217042598992e-01
-5.791694115626407069e-02
-2.877502649398504600e-02
-5.674869109965683181e-03
6.671236701092708721e-02
1.732049377739791063e-01
2.481642111474360035e-01
2.554968837615618216e-01
2.285254713768182233e-01
2.151483172848943082e-01
2.172903076445401038e-01
2.058626065918655601e-01
1.704714221595197421e-01
1.366281248316088270e-01
1.334979877868847087e-01
1.412374704719180085e-01
8.780741188799071062e-02
-7.062138199136971939e-02
-2.753231851589433843e-01
-4.032482606599830377e-01
-3.793059902943042294e-01
-2.380614417597570198e-01
-8.092339614523580416e-02
1.517751473752143934e-02
4.386850140659587227e-02
4.235206521424472736e-02
4.494545093457374962e-02
6.328232255809015938e-02
9.016288289727383831e-02
1.089735497621889676e-01
1.004535697739711714e-01
5.584998426028141977e-02
-3.773833139471280754e-03
-3.653056574995634798e-02
-2.242926086524132945e-02
1.507458101970711103e-02
3.696495350579208361e-02
2.788181144129953798e-02
1.270342692934705101e-03
-2.781672758457145317e-02
-6.024664919781035771e-02
-9.892809874358914068e-02
-1.261721085991883151e-01
-1.047715500340674344e-01
-2.563172948281621649e-02
2.580273732276059523e-02
-8.106575592282272424e-02
-3.102164622029976448e-01
-4.074450236894335275e-01
-2.344708675074080595e-01
-1.810221744712639524e-03
1.933623012462610397e-02
-1.633609312574091643e-01
-3.463613828418141694e-01
-3.834194617611565992e-01
-2.724149448619741509e-01
-9.716190531829103916e-02
5.664639675261892715e-02
1.517242578121484609e-01
1.959855349733390373e-01
2.151667528458253709e-01
2.343161547463913918e-01
2.622671751287523612e-01
2.850305984923592884e-01
2.893073952331378651e-01
2.880393254368701639e-01
2.994933224690064510e-01
3.084757456626154859e-01
2.858028710725857846e-01
2.416238107877267394e-01
2.074063253235271798e-01
1.656873018673049869e-01
6.150559134615773971e-02
-1.024388034024815292e-01
-2.341203762638748853e-01
-2.379466748122315567e-01
-1.086147948405132568e-01
7.094141699303715964e-02
2.069116306108351733e-01
2.543645697791762639e-01
2.191021770179515105e-01
1.399728650476552150e-01
7.239311810748547127e-02
5.440890986542241264e-02
7.796908632590765498e-02
1.081144514398299644e-01
1.245801081059555032e-01
1.298263197441202610e-01
1.269580524023001811e-01
1.125277522519380347e-01
9.268018119692819634e-02
8.600722032444560461e-02
9.918747906175755247e-02
1.136432073307407642e-01
1.088950330309507303e-01
8.620232075027445262e-02
5.774939815624957618e-02
3.175708959012742139e-02
2.704263306825292756e-02
7.317261180950540567e-02
1.408397748862450782e-01
9.802038216741618126e-02
-1.363029485767490723e-01
-3.836219225356711782e-01
-3.550811936741500863e-01
-6.872750976772776244e-02
1.257390958253091495e-01
9.514154324429381290e-03
-2.551050179228928627e-01
-3.843868395757986112e-01
-2.896666124043347224e-01
-9.202184439881772038e-02
6.059559236912434588e-02
1.296020578874377271e-01
1.654186608997086083e-01
2.083065208813086044e-01
2.519324984741021511e-01
2.843282123877574064e-01
3.118922606112420337e-01
3.382637189859623028e-01
3.505414666592965300e-01
3.344595031399021368e-01
2.921556953195263429e-01
2.402217586155301066e-01
1.954596863571971543e-01
1.677472269637900470e-01
1.532464379189642512e-01
1.192597111048013386e-01
1.599178539966848722e-02
-1.666607618961657433e-01
-3.577662886792288832e-01
-4.453931541472900268e-01
-3.755929263659398831e-01
-2.092259671077797978e-01
-6.521888363262852428e-02
-8.934489633132572731e-03
-1.200106036788266620e-02
-1.414845011001039828e-02
5.352271002650239862e-03
2.709232946887589130e-02
3.237521875571328089e-02
1.900182106596330286e-02
-5.408467306667745153e-03
-2.728644465356844587e-02
-3.850380071285566808e-02
-4.749012263218314878e-02
-6.592844583790954949e-02
-9.005421486725495583e-02
-1.050878420393117352e-01
-1.016521106158052717e-01
-8.495782008274666008e-02
-7.357606141092452867e-02
-8.651544196801583264e-02
-1.183997346728063171e-01
-1.172963705618185054e-01
-1.972452654714584863e-02
1.207357685123266189e-01
6.441881580456314260e-02
-3.780480184258110388e-01
-9.726118688576900206e-01
-1.167927117715454655e+00
-7.513377789106633342e-01
-1.555759479195308326e-01
7.883879359377748974e-02
-9.761000860837384940e-02
-3.418650489800724168e-01
-3.931601314226741972e-01
-2.733096461142994760e-01
-1.216211424392857759e-01
-5.865840265582367499e-03
8.432906783259400130e-02
1.617485093136809271e-01
2.152390960957924482e-01
2.319091101441644875e-01
2.216145353682539010e-01
2.172898979194252678e-01
2.456249906452582232e-01
2.927949314128606706e-01
3.092133684337998734e-01
2.656604550016175015e-01
1.985394973359495274e-01
1.710771252835504019e-01
1.906671831615751878e-01
1.926777064908144210e-01
1.090620499531546883e-01
-5.774782128603597742e-02
-2.263463430000617338e-01
-3.008628145194279235e-01
-2.505734715927792067e-01
-1.301789312965218048e-01
-2.059635410164575159e-02
4.629769478805145777e-02
8.923187045914823812e-02
1.178545593302734729e-01
1.172714171275069384e-01
8.890344719150079789e-02
5.832319655055701046e-02
4.658620216806590858e-02
6.228522296563199223e-02
9.579030291743306780e-02
1.108463470252114974e-01
8.432622510760323653e-02
4.635122535426912382e-02
3.650345668592136494e-02
4.439949561147064905e-02
3.440304665144505725e-02
3.246226164852057845e-03
-2.231158299615109211e-02
-2.902463122790081146e-02
-2.562311870001599337e-02
-6.817244891693469144e-03
5.871795822196435033e-02
1.621156626063557371e-01
1.758280191607400900e-01
-5.553920880489792572e-02
-4.498204982082932291e-01
-6.475270220658138065e-01
-4.292447562095892399e-01
-3.851322188225082821e-02
1.183685390449744912e-01
-4.521370981401429123e-02
-2.830298504424410555e-01
-3.554111153221734543e-01
-2.387402244287001596e-01
-5.999170002417017478e-02
6.624844495361301155e-02
1.200532055573001466e-01
1.453453692194689728e-01
1.814660748151540881e-01
2.318577472315791199e-01
2.770009797497000603e-01
3.012774386525973735e-01
3.065591515140831391e-01
3.011137888484560210e-01
2.845455863114493278e-01
2.515968497594711084e-01
2.028545006217281621e-01
1.501371793030384927e-01
1.147393471158602712e-01
1.038072989495379267e-01
8.210759521727609145e-02
-2.301500441415601714e-03
-1.438497157887230204e-01
-2.545855076898113634e-01
-2.454741398687096121e-01
-1.276691104244183084e-01
-3.390600154962047225e-03
4.417042219304985473e-02
2.326205072889597075e-02
-4.995762173703538478e-03
-4.331174112586179230e-03
1.595768555826401411e-02
3.647404608091901063e-02
5.292359041143535753e-02
6.658255800997987806e-02
7.327936395983407347e-02
