-1.341377060623397954e-01
3.152894638101438191e-02
1.754918923172518741e-01
-2.110229322590649603e-02
-6.059737423487076002e-01
-1.048788838682173985e+00
-7.839232984138646554e-01
-2.632106167358685966e-02
4.437254200687079653e-01
2.708438456245982895e-01
-1.827343456024070334e-01
-4.490151039927227083e-01
-4.254162070017226127e-01
-2.683843706712801813e-01
-1.277754508049193938e-01
-5.713518413114273414e-02
-4.613746196412464584e-02
-5.228885699634298889e-02
-3.271110145427676141e-02
1.731361033342342440e-02
6.416450515738898741e-02
7.638735994391951389e-02
5.967148306351791748e-02
4.856031683286562983e-02
6.146907608051985217e-02
8.197631912840233626e-02
9.470434604483274343e-02
1.115895257392080647e-01
1.470508907707374635e-01
1.890835202523930558e-01
2.103807985488042598e-01
1.971758739713212749e-01
1.580808859833240931e-01
1.179032509346983754e-01
1.047347734964095833e-01
1.176154618340303076e-01
1.081343527381926906e-01
2.445310093314699215e-02
-1.209287582880600731e-01
-2.408888010936145740e-01
-2.392387374666029298e-01
-9.769612038223679518e-02
9.430779500027434981e-02
2.095730627662597545e-01
1.973868768711253829e-01
1.183109061839236753e-01
6.482935277841378463e-02
7.282093141231653355e-02
1.112140216879096838e-01
1.300440919173618814e-01
1.119056139578234604e-01
8.619106139047796877e-02
8.956215150902120670e-02
1.164765568105089050e-01
1.297326153869518273e-01
1.131849218498921922e-01
8.507026187717672827e-02
6.760587447044719145e-02
6.843846397559194550e-02
8.228195170377210210e-02
9.714468019711498814e-02
1.071973780654399550e-01
1.184824619283676023e-01
1.289425422508542751e-01
1.113465781126788262e-01
5.212834395031668011e-02
1.873936674574085484e-02
1.141787766889946903e-01
2.728092469037389223e-01
1.857025130060410145e-01
-3.300564547623376366e-01
-8.916663549331946825e-01
-8.616004206796091802e-01
-2.235610849761006103e-01
2.949794924907225280e-01
1.597859025739876149e-01
-3.597268180331492093e-01
-6.890675834011635859e-01
-6.410353777588839730e-01
-4.192904664651637137e-01
-2.187054022796112163e-01
-5.335886673990335172e-02
9.501639878512714577e-02
1.601432651031389487e-01
9.987490464933387879e-02
-8.200051714849949935e-04
-3.274868701029724077e-02
8.713838554699298439e-03
5.384301195799394424e-02
5.787777072228539321e-02
4.221111629716224611e-02
6.464158650365697811e-02
1.490786283905631004e-01
2.328449816345952161e-01
2.149166195114865785e-01
8.725916063997320171e-02
-3.153593053887178421e-02
-4.234296005105288307e-02
1.701107780785113613e-02
5.331866608511763583e-02
4.844592125461365251e-02
4.482303524217446516e-02
4.631759878106340989e-02
6.369575756515048238e-03
-8.360779142796201380e-02
-1.517469106513816834e-01
-1.240404308944097478e-01
-1.218633810113520927e-02
1.087964976529005451e-01
1.775810935597279816e-01
1.714442541776469708e-01
1.009236455061353205e-01
1.952714644118903886e-02
-1.258731052118383306e-03
5.582084954480107108e-02
1.320679864963887895e-01
1.581187242369513635e-01
1.155062662068016555e-01
4.139078549260539336e-02
-1.482877499652416730e-03
2.145809739373081074e-02
7.910193639723381298e-02
1.091531237028092599e-01
8.650959543988365197e-02
3.939046091941385275e-02
5.117131006518454636e-03
-5.880294023910273386e-03
-2.092804029078697975e-03
5.773236932936975235e-03
8.308806478963580780e-03
-1.576432262905023279e-03
-1.734544531916191318e-02
1.400981783715641964e-02
1.696047261602654510e-01
3.799987800977810415e-01
3.295799969551627684e-01
-1.905983586869542390e-01
-7.737511954688424121e-01
-6.922780566420593251e-01
7.988788627751826354e-02
6.869823894814405252e-01
5.149969171629886766e-01
-8.177164392997646192e-02
-4.248676942240313115e-01
-3.444336050136770910e-01
-1.258725505882048457e-01
-1.845659768092554331e-03
4.571010185005375953e-02
1.184045443117947988e-01
2.227661999868440212e-01
2.804852294160648518e-01
2.541200195055224320e-01
1.959194403531595852e-01
1.639690500386096483e-01
1.561502885945654506e-01
1.495337383307615564e-01
1.472958900443730179e-01
1.621704793972981729e-01
1.876510609564342458e-01
2.050920836533236535e-01
2.042540906689476465e-01
1.847196844238135627e-01
1.515377763989180226e-01
1.231748939218590272e-01
1.283095379428984550e-01
1.745669505914626274e-01
2.175903620385002124e-01
1.772140958162881086e-01
1.891908999866385305e-02
-1.802684437750374236e-01
-2.916511855615504523e-01
-2.599059443992851048e-01
-1.382657182543037266e-01
-1.875612597750836788e-02
4.769348624394656455e-02
6.751648041513014231e-02
6.123692724501528933e-02
3.562895687903498004e-02
-1.516036748732095540e-04
-2.683327388218520806e-02
-3.563173974798706373e-02
-3.854514169147078839e-02
-4.606412063470902846e-02
-4.502954750007837764e-02
-1.846884545147464349e-02
1.982170888249019935e-02
3.606165475225400763e-02
1.981480532851982029e-02
-1.544429129156119768e-03
4.855954582467898566e-03
3.523862890108528378e-02
5.061730029014028381e-02
3.165170696277164186e-02
1.504161385964954828e-02
4.582380678948935054e-02
1.032992523392786133e-01
1.107920052223240470e-01
3.353420021184923272e-02
-4.316068236337794461e-02
1.967656318486075626e-02
1.963841988464361255e-01
1.874740382647775150e-01
-2.614072830262536562e-01
-8.737535698978821097e-01
-9.980423558090472103e-01
-4.534495240175304698e-01
1.427376394606997001e-01
1.677913887468477083e-01
-2.641609240264259362e-01
-6.237254855698810552e-01
-6.655933839270662400e-01
-5.329061516349589134e-01
-4.036839022123978604e-01
-2.890464621961723601e-01
-1.392676654761011434e-01
1.342065843906688032e-02
8.926703475882455385e-02
7.742255852963417229e-02
4.338163719713738348e-02
3.191067779213374589e-02
1.418559717147306956e-02
-5.137880472720075808e-02
-1.353630649971083177e-01
-1.565903261377740441e-01
-8.043343776815510549e-02
4.110770813457513551e-02
1.293006214918993868e-01
1.532906519867527628e-01
1.384991864690473806e-01
1.169639341548982248e-01
9.592627641849811593e-02
7.729370188221312832e-02
7.512456910379960995e-02
9.155600773388954117e-02
8.931349445086204930e-02
2.295218503633287763e-02
-8.757471163755992105e-02
-1.486291309579829412e-01
-9.218361003379407781e-02
3.790542258078773152e-02
1.310079014993217328e-01
1.265263327078447742e-01
6.194787255287749483e-02
1.781990960294099063e-02
3.357196780389448687e-02
7.843208647382346466e-02
1.016565942937455447e-01
9.201328665131336404e-02
6.987975339594743041e-02
4.927385777714896054e-02
4.221081652066763223e-02
7.140460929019513958e-02
1.339759058199870012e-01
1.779112689000474090e-01
1.585920518846656024e-01
9.466289174864833678e-02
3.571919329625974915e-02
3.450239470404042885e-03
-1.085771455128117097e-02
-1.561859585631841102e-02
-1.336787691084933768e-02
-2.439526818352307988e-02
-8.471230359287663936e-02
-1.804738012828659977e-01
-1.966372451176542913e-01
-1.801530575582454066e-02
2.454667001960030570e-01
2.225740725987810920e-01
-2.934566256107078441e-01
-8.721493674005549313e-01
-8.016519047868279069e-01
-6.150320901548098074e-02
5.538447900213857578e-01
4.682887829347003317e-01
-3.861646467716169095e-02
-3.805810527857947934e-01
-3.684612170258841912e-01
-2.002949674099383792e-01
-7.892346071251490902e-02
-3.101165856678626126e-02
6.031764747508600380e-03
5.535752291310327977e-02
8.646359572485824707e-02
8.529790674955294028e-02
8.623743588991181208e-02
1.242902636036172792e-01
1.846532506981621025e-01
2.183262734603211297e-01
1.996431021399957539e-01
1.544925788542656497e-01
1.252554218312010303e-01
1.216148961306120768e-01
1.257043735177717503e-01
1.294724455521903683e-01
1.376984855890096560e-01
1.469925095401835580e-01
1.478899140077526431e-01
1.401354381921491588e-01
1.292835037807529841e-01
1.078737001040637744e-01
4.862510872522337463e-02
-6.579696355499398130e-02
-1.966905058871958878e-01
-2.591457807996903062e-01
-2.038897885125945941e-01
-6.899684452386831146e-02
6.523207915653173039e-02
1.413432539927095832e-01
1.419417800392457352e-01
8.613252979813373900e-02
2.031988319736470136e-02
-3.585322811925739043e-03
4.518016671092598552e-02
1.431387679435488225e-01
2.080370908298262989e-01
1.749761133873885266e-01
8.256762651460583524e-02
3.646248374378877055e-02
7.875329209110214224e-02
1.377874585925253637e-01
1.266932587284543832e-01
5.191363438269158692e-02
-7.786655956732640126e-03
-1.499218077579514072e-03
4.921933998951307648e-02
9.605916712704490323e-02
1.243525019550704158e-01
1.445222337206399088e-01
1.354266011129093283e-01
6.134094541979091125e-02
-2.019744409088480158e-02
3.900361172519350994e-02
2.412317808514184425e-01
2.735388035044855060e-01
-1.661398136093202860e-01
-8.078159247427377787e-01
-9.419498327126910597e-01
-3.502736049927261952e-01
2.991791380146738843e-01
3.075548665740602816e-01
-2.091651426758980303e-01
-6.399268529005432971e-01
-6.656320687252936796e-01
-4.282776796191495872e-01
-1.763635100058389416e-01
-2.113205860391811561e-02
3.693599661041252480e-02
3.139898104141705670e-02
1.217196714685580064e-02
2.535814686940079943e-02
6.942975349868840684e-02
9.466561366904395480e-02
6.629143044867945311e-02
1.430486593958192436e-02
4.020852800896377102e-03
6.155452970184439182e-02
1.423550649235910126e-01
1.783644154300215723e-01
1.487553876495539551e-01
9.651654045141624949e-02
7.730782832973252805e-02
9.845681963248766044e-02
1.163524624399367158e-01
9.679563531694131140e-02
6.048596377020035164e-02
5.180337992177962148e-02
7.316463875966050523e-02
7.016004711617239431e-02
-2.401400568429056144e-03
-1.019348265836024087e-01
-1.280555536555470497e-01
-4.604604073914633777e-02
7.163859721425823446e-02
1.343806639360936861e-01
1.161198127169144889e-01
5.163759943275758602e-02
-1.792437542235300954e-02
-7.686553287396744039e-02
-1.101965577495197662e-01
-8.901469396334198148e-02
-1.151256583895404577e-02
7.331646423724970385e-02
1.096951900028251409e-01
8.752189416977593228e-02
3.965813358208501727e-02
3.769222728327060578e-03
2.451497132128082311e-03
4.059551161349787829e-02
9.299657210170646227e-02
1.097754440451774310e-01
6.678615247644664743e-02
2.914180842420906192e-03
-1.936238499410991923e-02
8.770003365228661724e-03
2.614146428559586260e-02
-1.181932494256042812e-02
-3.443923927509698335e-02
8.550338840510150751e-02
2.981161681168821853e-01
2.726423917783775130e-01
-2.350920548707428892e-01
-8.525211171904806262e-01
-8.237075249755949624e-01
-3.313089049992264112e-02
6.783332098815281208e-01
5.790026672257677642e-01
-7.146386567192677952e-02
-5.341046185280906577e-01
-5.081652915511988278e-01
-2.322652480470543956e-01
-5.963574699163441684e-03
8.897386177422322850e-02
1.045924440793794402e-01
9.008289927356970261e-02
7.388012339537117223e-02
8.056251451025077392e-02
1.140456527020630439e-01
1.508475552887300897e-01
1.679990511002965314e-01
1.651753724225177855e-01
1.545233418389483360e-01
1.421510104401079722e-01
1.307132498231437789e-01
1.261646024331254112e-01
1.240539625553749026e-01
1.066887720042991178e-01
7.242311655492782163e-02
4.845663310073199809e-02
5.810894486525011726e-02
8.506140857013642920e-02
8.121284317293578359e-02
1.452136385535189415e-02
-9.712223307092496261e-02
-2.060929026387835206e-01
-2.692953885329901764e-01
-2.543832924207220514e-01
-1.547993562748137819e-01
-2.073830550271790057e-02
6.678659024483750428e-02
7.502702711121582435e-02
4.406384252701917026e-02
2.758422180361651960e-02
3.867209850643865687e-02
5.734956359330759673e-02
6.528871955102093227e-02
5.830052103371612116e-02
3.336878564584077472e-02
-1.357426192570051690e-02
-6.596793506617065761e-02
-8.655996469387808312e-02
-6.106394202743119920e-02
-2.173652476673606365e-02
-3.073769120322413992e-03
3.843439569823144109e-03
2.244861629810261314e-02
4.329792137148176512e-02
4.442059673132430636e-02
3.495053759116695941e-02
4.040991622024928120e-02
5.537780536551136640e-02
3.980078192639167206e-02
-2.229093940914866206e-02
-6.247814717380408694e-02
2.794377721484309768e-02
2.157508318184542528e-01
2.123546820564553295e-01
-2.467312304928364619e-01
-9.022492684334849633e-01
-1.064999604946592404e+00
-4.799987315045374237e-01
2.464932587510901274e-01
4.049724894816166265e-01
1.008451888198440283e-02
-4.109853097195422800e-01
-5.128874107129451909e-01
-3.544840227824561651e-01
-1.465457401144678318e-01
-9.272360576128013676e-03
5.451879058057674393e-02
7.943213069699375795e-02
8.859218768349023942e-02
9.329140168524381604e-02
9.876355570434103281e-02
1.069649210603451084e-01
1.273367640270990087e-01
1.767407507539030254e-01
2.487239024278852795e-01
2.947320594414719608e-01
2.709373238880602441e-01
1.984336811226778130e-01
1.406175247143973683e-01
1.280721866466958958e-01
1.381611221783038135e-01
1.397978180226563394e-01
1.325308295018321481e-01
1.377508172622451121e-01
1.578674637465289354e-01
1.600100155462391704e-01
1.132375184997657797e-01
2.777883620865378989e-02
-5.318433335043223908e-02
-8.270596455210595110e-02
-3.192501016359401700e-02
8.153317804613019470e-02
1.826383408204025338e-01
1.950487794978366385e-01
1.177441938968118856e-01
2.183933216697872895e-02
-2.783556130449689123e-02
-2.673684057659210869e-02
-7.733490761710738737e-03
1.070877107553275254e-02
3.492794372780404222e-02
6.382548913960331416e-02
7.368412552442558938e-02
4.824063103571642197e-02
5.462046235461125339e-03
-2.569051056783698897e-02
-3.990955157936497411e-02
-4.615277950454587524e-02
-4.271108961043770802e-02
-2.540500005306871659e-02
-6.251182691073744330e-03
-2.906341481672302524e-03
-1.441000592129839178e-02
-2.524635398343879483e-02
-3.599960763471024561e-02
-5.882124279110974990e-02
-5.420838683176339157e-02
7.587807866426254932e-02
3.169305989098649134e-01
3.776821714913214389e-01
-4.380281307052444340e-02
-6.951276975253558588e-01
-8.544672676630488128e-01
-2.878163551120421770e-01
3.276960260249959789e-01
3.112128978661962697e-01
-1.697075674739973727e-01
-5.015578205234960674e-01
-4.391240119531035213e-01
-2.023013901682760296e-01
-4.570962143624547613e-02
-7.821096766328385769e-03
-4.627573092341177516e-03
1.535914244683969816e-02
4.669166356720701183e-02
7.184200641805896237e-02
7.818325435793549438e-02
5.756850399775554489e-02
2.134819219687025815e-02
4.208787005181721663e-03
3.091404932662560751e-02
8.468895686420471747e-02
1.229344490706224119e-01
1.202939854786286289e-01
8.658442918713871173e-02
4.853244629638989172e-02
2.686799951135258879e-02
2.889531800242467474e-02
5.254571120732939860e-02
8.982285458204622430e-02
1.164775267156063637e-01
8.795100346416245829e-02
-2.265390059461004635e-02
-1.803388257429099084e-01
-3.038301204869143790e-01
-3.253057747548478984e-01
-2.373571361050987039e-01
-9.841102243180827047e-02
1.599674162940297947e-02
7.617711945761937442e-02
9.498006890421295534e-02
7.838622368991948752e-02
2.702557947769246294e-02
-3.020637874512771548e-02
-5.720397796763729281e-02
-5.196554098158998741e-02
-3.447245815632592886e-02
-1.436027145522322454e-02
1.066051476711031565e-02
3.847489352146830910e-02
5.409064730080385269e-02
4.293376360278867987e-02
1.544716665733447333e-02
4.820328894880153946e-03
3.219895816409049094e-02
8.026382107709416347e-02
1.075840552341910672e-01
9.468447034838567422e-02
6.708252912718873362e-02
5.584287051532276641e-02
4.725558265753988796e-02
5.503715952975392345e-03
-3.951681986133790542e-02
2.831900080935195740e-02
2.369528071144010040e-01
3.195057789850391239e-01
-7.967956082900280734e-02
-8.105007778475743496e-01
-1.139018644525686463e+00
-6.346992001240974179e-01
1.684250428475163597e-01
4.384036069780650746e-01
6.695415936327089867e-02
-3.958913796908460903e-01
-5.326615127050160492e-01
-3.914022419634195504e-01
-2.034349926425366439e-01
-8.681889285746700879e-02
-2.518261896603870773e-02
2.781519843265855760e-02
8.665639989062287607e-02
1.350174165160637207e-01
1.535678294882055483e-01
1.476336137328256859e-01
1.492042642261360574e-01
1.786656699189644593e-01
2.120118868042734639e-01
2.146185244600631037e-01
1.938558276594469498e-01
1.847498453112453032e-01
1.989769386680920460e-01
2.106033381209343469e-01
1.843736914819149031e-01
1.153476584407046035e-01
4.404972599383143173e-02
2.229655698633791275e-02
5.684603602747000800e-02
9.729954645544959535e-02
8.193904742819099751e-02
-9.911229701154171748e-03
-1.337270135003351956e-01
-2.033683449302932100e-01
-1.625009404754863551e-01
-3.691045621419448974e-02
8.585254383398108202e-02
1.250251073685034742e-01
7.288588712262350500e-02
-1.683631997851002884e-03
-3.065745797612220297e-02
-8.091232869756033105e-03
4.345105180136066975e-02
1.179320924110713320e-01
2.020891998594780692e-01
2.560819334370271205e-01
2.533787627153737398e-01
2.095399069347967935e-01
1.588929867667189522e-01
1.229891541117314469e-01
1.012164239058401805e-01
8.250003151178547656e-02
6.755826516950638738e-02
7.145686395112157974e-02
9.824439812280545692e-02
1.303637807816624417e-01
1.501151625519952515e-01
1.498327344009045270e-01
1.161806631451580696e-01
4.467238366373927488e-02
9.253314856258005802e-04
1.092386752685042817e-01
3.568174824229002340e-01
4.197013420546736318e-01
-4.074718726453117196e-02
-7.433875965385307039e-01
-8.579137922870554434e-01
-1.008157203941557611e-01
7.057703360297015172e-01
6.750225465270447422e-01
-2.339026746558109382e-02
-5.631006763053834074e-01
-5.406637213228568939e-01
-2.226062187346360133e-01
-1.396603632642240411e-04
2.380082959509548582e-02
-3.953695979621991985e-02
-9.295614823166123419e-02
-1.170817946524934233e-01
-1.131684368771182780e-01
-7.773780002928837307e-02
-1.854064466555371132e-02
4.218465869844470473e-02
8.272813477595272746e-02
9.767921585662851791e-02
1.007012100314179509e-01
1.090419807421300763e-01
1.256796069889816736e-01
1.361577397393094191e-01
1.189676090327646124e-01
6.627225799407626683e-02
3.266078662199879516e-03
-2.448043333782571121e-02
2.339679949495856830e-03
4.808199583082467532e-02
5.138785393970370791e-02
-1.803686090139764928e-02
-1.324798669602626211e-01
-2.196848544719691154e-01
-2.043014102300328427e-01
-7.561375192081823404e-02
7.854431527084940190e-02
1.450060469880138925e-01
9.205442466577028193e-02
-1.771045923224795482e-02
-9.683987488802053845e-02
-1.023685783331627214e-01
-5.944584231915377159e-02
-2.409743796591628726e-02
-2.440985545210920885e-02
-4.353628226278543484e-02
-4.753287666633428110e-02
-2.181837229244492152e-02
1.495705179193670964e-02
3.486238720332955621e-02
3.341190859834364951e-02
2.715351699269211855e-02
2.406897416379435994e-02
1.121394032655140607e-02
-2.525279964339694622e-02
-7.538208473722533831e-02
-1.034214330237448187e-01
-7.492346463501954601e-02
-1.684395445530523054e-03
4.556291275206268698e-02
1.024575082570542556e-02
-4.446595097430289245e-02
4.041562823235352042e-02
2.867152079962658751e-01
3.758460831707794436e-01
-8.046106991810531017e-02
-9.002681934300966748e-01
-1.288480813557764781e+00
-7.822903528081988078e-01
8.634918706777371111e-02
4.658175270087487885e-01
1.883361104006535669e-01
-2.577453788296090176e-01
-4.422507978943026608e-01
-3.486181554587237663e-01
-1.805731471674161259e-01
-7.258159898662658316e-02
-2.134555821522278116e-02
2.125235600567452338e-02
8.487655184433984257e-02
1.705116126327263226e-01
2.401194817724772446e-01
2.445546362527996065e-01
1.878580504971958387e-01
1.273543431382689051e-01
9.638121968075194501e-02
6.531948165631844272e-02
1.719414284176769628e-03
-5.881866908725488091e-02
-4.566750098657266360e-02
4.653136223597333088e-02
1.425617511935918236e-01
1.788292334652847870e-01
1.604978100715441780e-01
1.252724411892572332e-01
9.817380465244034127e-02
8.120505110202549948e-02
5.375677567514048488e-02
-8.873203297380059459e-03
-9.264782301026852629e-02
-1.345925128305762997e-01
-8.282970002309730795e-02
3.932843021381488696e-02
1.491593908988678441e-01
1.815761588368952628e-01
1.410588291390076632e-01
8.173746382853877557e-02
4.746827172038019932e-02
4.150187430687816287e-02
4.680395067040156454e-02
5.101467378270042180e-02
4.913881756321350491e-02
4.315452859718606898e-02
4.329618340602365417e-02
5.808525658861533880e-02
8.312283592231077545e-02
1.028320135250362644e-01
1.009877900222060365e-01
7.685496674796415961e-02
5.099688300424768533e-02
4.299831953423215863e-02
5.376380391343075354e-02
8.044425699431047294e-02
1.231068706651086420e-01
1.564352385713120297e-01
1.241626339365476256e-01
7.751006235504364662e-03
-1.014061861017089422e-01
-5.558737898194890392e-02
1.602789268290292501e-01
2.924291214878547707e-01
1.757706081550573091e-02
-5.613081686505885237e-01
-8.149930014170925219e-01
-3.408969705843385434e-01
3.833312082194051396e-01
5.653781145407899000e-01
1.090090986072429075e-01
-4.032060737564815422e-01
-5.231596820293721306e-01
-3.202309075251889570e-01
-8.431584619869367248e-02
3.191719406032322848e-02
5.994463915267590065e-02
7.147121204455486598e-02
8.016798658185164683e-02
6.597643044442089155e-02
3.142623564234272443e-02
3.596560756005259644e-03
2.739432204111939134e-03
2.820098929790811407e-02
6.867147775621598726e-02
1.169482875702648472e-01
1.666815663632569000e-01
1.974915158776053004e-01
1.859585550420231048e-01
1.372662894838143632e-01
8.452168598127163257e-02
5.282696564038653203e-02
4.016553240612775327e-02
3.256350554357556604e-02
2.460331812983706720e-02
2.050307934964001877e-02
1.502963753579169767e-02
-1.637589756013676373e-02
-8.749427115144058076e-02
-1.653993015999482008e-01
-1.922512004840081501e-01
-1.457416876698444386e-01
-6.091361688436021382e-02
6.306224026935505073e-03
2.926885884197692397e-02
3.030596163752647884e-02
5.162464131255177502e-02
1.010545545519620225e-01
1.385599190413787651e-01
1.265248911434199430e-01
7.228433427496322450e-02
1.197363609187130848e-02
-2.281896828889357423e-02
-2.093319677851240498e-02
3.607547257706305958e-03
2.647923370949976929e-02
4.187359308997046226e-02
6.590057655839788586e-02
1.082107471310191638e-01
1.487481198582205622e-01
1.496036147576722541e-01
9.756458421641062140e-02
2.933776820279051373e-02
-1.927024602572614039e-03
1.538350889176735327e-02
3.879179907644569880e-02
2.852977265296098228e-02
2.519067584333011672e-02
1.351645315557181704e-01
3.509558815683278543e-01
3.827762048627119662e-01
-1.151900460374526980e-01
-9.656474665467574825e-01
-1.395175925487407653e+00
-9.327233329088995273e-01
-1.049670203432057081e-01
2.256555254205154237e-01
-8.933416553192838339e-02
-5.255655829677368107e-01
-6.585921089419206620e-01
-5.040391211132307925e-01
-2.798537507608563901e-01
-1.340478317842531131e-01
-8.520111597555056482e-02
-7.857108758968366080e-02
-5.846153328575268149e-02
-1.567855018088326613e-02
2.523121312295654659e-02
5.319057306170246746e-02
7.868553989221506451e-02
1.038157262101749578e-01
1.132999029016083375e-01
9.396625592936441729e-02
5.893447104217915816e-02
5.047946300554315840e-02
9.365063144555013652e-02
1.549912175623112121e-01
1.821971420386017948e-01
1.646813349511548896e-01
1.301257177481897898e-01
1.068268537778489097e-01
1.024280578967038113e-01
1.026799964588092778e-01
8.110167224907934014e-02
1.830937032994628400e-02
-7.057988851549784615e-02
-1.306536372909881394e-01
-1.079526011589931195e-01
-1.448150346774406544e-03
1.254965090131077987e-01
1.969659702986174821e-01
1.979279235474652454e-01
1.711594092558837987e-01
1.385240724681953972e-01
7.940534799828721790e-02
2.078877315160765349e-03
-3.090746211135112637e-02
1.206685779204888162e-02
8.111818726519327838e-02
1.187189947404758833e-01
1.214301137573812472e-01
1.018309244508155270e-01
5.710339093174250646e-02
-8.359669273273683757e-04
-3.194103604599451973e-02
-4.782809324241965587e-03
6.525693883687659624e-02
1.241182421882724152e-01
1.397279163542111957e-01
1.416867312527679001e-01
1.625579567278305770e-01
1.638119508372281874e-01
8.753544874508831231e-02
-2.390539349165798563e-02
-2.674421734562240638e-02
1.441146111166390353e-01
2.740873503825022595e-01
5.086080754308074103e-03
-6.091763247607849818e-01
-8.976891694003983346e-01
-3.697112298016225207e-01
4.789838172055926324e-01
7.209788342366699743e-01
1.846831447434224005e-01
-4.586812279827277572e-01
-6.303088375719705372e-01
-3.825406811875624036e-01
-8.110859491961586176e-02
7.398661667089417859e-02
1.300870171720631963e-01
1.735838168871131071e-01
2.006993703079673064e-01
1.849132790092482825e-01
1.507700040247068329e-01
1.317618283646224686e-01
1.260161463599487885e-01
1.252101948092319839e-01
1.363251942040522302e-01
1.601254496204847777e-01
1.801193381602532173e-01
1.815044279148209094e-01
1.657941925219334478e-01
1.397576119348143131e-01
1.025353910170809929e-01
5.598665518919634931e-02
1.792651052224242259e-02
1.316230560658405817e-02
5.430292812375341061e-02
1.248781684506103107e-01
1.686675081438884505e-01
1.164501138741722563e-01
-3.977419340622634358e-02
-2.048650696497384405e-01
-2.529858851843373446e-01
-1.537718217630529294e-01
8.240519093192719136e-04
1.001031350221125715e-01
1.122842181577118764e-01
7.777494873027265831e-02
4.689946498231960942e-02
4.174967070406685604e-02
5.591588226050299426e-02
6.774642419164667029e-02
5.535941932197421811e-02
1.677776971948804000e-02
-1.827412718353561491e-02
-1.367968313013780135e-02
2.780434633888102802e-02
6.550304871120787853e-02
7.318512536696329673e-02
6.532492589643920655e-02
6.598569094659004208e-02
7.312640957859191382e-02
6.029764999180068502e-02
9.960582237310703149e-03
-5.587638473114282106e-02
-9.526149832360074343e-02
-1.034889263069071613e-01
-1.161613115137954400e-01
-1.329753823071428143e-01
-7.436368902514010892e-02
1.172960089243887116e-01
2.944157744492491569e-01
1.287678083635389326e-01
-4.666776517233664490e-01
-9.958569384561802851e-01
-8.457150541118367837e-01
-1.302817282108039709e-01
3.892851153022435784e-01
2.701196882622603490e-01
-1.864570503726211137e-01
-4.757126615001361913e-01
-4.416446686150164447e-01
-2.491837215318213339e-01
-8.672971815743905910e-02
-8.135602422384868859e-03
2.895712525045966712e-02
6.870228039720439883e-02
1.131997238784150095e-01
1.397667158772376017e-01
1.346353780143812739e-01
1.010361111294833386e-01
4.885332678243972659e-02
-3.794663744880834300e-03
-2.969765254758303594e-02
-1.542408416865286708e-02
2.047346437687707493e-02
4.297432965592347387e-02
3.434728539384707124e-02
1.302167260988364335e-02
1.099704423124153903e-02
3.098160330323731018e-02
4.685133702034788988e-02
5.020125971669286979e-02
6.180054301713670123e-02
7.826475268500376892e-02
4.606303481845858139e-02
-7.257077844625219043e-02
-2.259013661919594962e-01
-3.002287633993068749e-01
-2.303048159422330932e-01
-7.028279133178685911e-02
6.026588500369352286e-02
9.213876869110061707e-02
4.814875141021932037e-02
-1.064990053649563818e-02
-3.903950420072698629e-02
-1.760887673933736811e-02
4.643852453303330685e-02
1.202333210741551861e-01
1.684341962378903823e-01
1.776662145183901254e-01
1.527407364810771662e-01
1.039197560774809126e-01
5.198832028292921931e-02
3.102646169493874367e-02
5.846996420349062640e-02
1.041994009769333929e-01
1.187305427534720986e-01
9.435875764801207599e-02
7.165221641995093982e-02
8.380793733708595539e-02
1.162429414779857229e-01
1.258384318757007903e-01
8.718567994736857452e-02
2.077689948535478906e-02
-1.673713326899071898e-03
9.750324562437737153e-02
2.537390949015229658e-01
1.794978876259515077e-01
-3.136827401407681903e-01
-8.527347989289614238e-01
-7.806615372467657910e-01
-7.811099964012095664e-02
4.911287329449535166e-01
3.744876887598664328e-01
-1.398142741338701533e-01
-4.659837346837397143e-01
-4.211981662861309372e-01
-2.053028285043816681e-01
-1.920949081809025447e-02
8.947281146749287706e-02
1.392957672036610473e-01
1.442108836968893915e-01
1.270260309547061317e-01
1.179596598525784468e-01
1.154907135576855592e-01
8.524466081891907132e-02
1.631032069485979091e-02
-4.566965131061517802e-02
-4.468303229673253885e-02
2.062142539207009045e-02
9.923315807967689195e-02
1.454054025784683457e-01
1.537103616060045697e-01
1.397526297991207311e-01
1.116935050380439415e-01
7.797826718322317663e-02
6.078675739670244549e-02
7.032768590299871836e-02
8.582992450343628066e-02
8.668880617418321666e-02
6.635764959211604141e-02
7.378907833288804799e-03
-9.620061050242224854e-02
-1.876301035685774554e-01
-1.823670575788512160e-01
-6.539986306832011598e-02
8.139763173673930652e-02
1.543394733715719447e-01
1.186816562312654894e-01
2.894110114699705721e-02
-3.026631113406273721e-02
-1.640353235611647850e-02
4.719099366014976177e-02
9.813680530089011200e-02
8.902598750660332960e-02
2.644368255667073689e-02
-4.783901326989738190e-02
-1.067222140315944867e-01
-1.472295066273827668e-01
-1.559562254560947492e-01
-1.102022229877060583e-01
-2.751292629712189658e-02
4.084792435503459274e-02
7.746846491789742550e-02
1.003589059105117060e-01
1.094255647083420546e-01
9.534538442479566223e-02
7.455842706314966262e-02
6.247201433916946961e-02
4.809767841360327451e-02
4.330925824539931523e-02
1.179500651892304020e-01
2.865369155556303782e-01
3.406468542509354380e-01
-1.546180261232334152e-02
-6.791892305886670922e-01
-1.026616464068437873e+00
-6.372614164917244084e-01
6.062448065232670102e-02
3.018649055388892277e-01
-6.494595905974145933e-02
-5.475345754942538834e-01
-7.135790990123761501e-01
-5.624453592736159413e-01
-3.255341812340208918e-01
-1.712921794942089404e-01
-1.180233786807164398e-01
-1.011624813071927975e-01
-5.839963797482047858e-02
2.181162860790548247e-02
9.974841395445206704e-02
1.345848614754964756e-01
1.306079569116725680e-01
1.184385028887269126e-01
1.131613550559573411e-01
1.144019270146711398e-01
1.219624637495744512e-01
1.329186354514846069e-01
1.394622631947515790e-01
1.362921888920941293e-01
1.277814591360701690e-01
1.285317311700202580e-01
1.492398825364115722e-01
1.785687785084219548e-01
1.897862513634506199e-01
1.698354164688743451e-01
1.257741994187379364e-01
5.554412333121137857e-02
-5.144561475474378198e-02
-1.583252129478620041e-01
-1.739391732666969170e-01
-5.180410742588190121e-02
1.371580262427337660e-01
2.694611060012465642e-01
2.808064784181698581e-01
1.987159308839082650e-01
9.915105822430456128e-02
4.888067594360678836e-02
6.846435179574521246e-02
1.240162807872885187e-01
1.525911343522391161e-01
1.177404138537585243e-01
4.740086876912390917e-02
3.555978765890676404e-03
1.623743261475073946e-02
6.043381475425666643e-02
9.249257615742645378e-02
9.107784763960009855e-02
6.255119337028859638e-02
2.683327665125681896e-02
6.748135805997788200e-03
1.724616796780936712e-02
5.245305705041858335e-02
8.359114108574194901e-02
7.548186913623536332e-02
1.972997121774379067e-02
-2.986243905876892826e-02
2.539451219743166926e-02
1.992426104671373155e-01
2.802327038034435058e-01
-1.896665684379887640e-02
-5.961486016302810498e-01
-8.438057827811089595e-01
-3.647056147335043796e-01
3.802296367836556223e-01
6.026135676321600076e-01
1.755497633178880745e-01
-3.563641401132955355e-01
-5.403725258891511896e-01
-3.904193700472893269e-01
-1.516183985594464212e-01
-4.790163842245100112e-03
1.366631473892063534e-02
-2.748379448372125292e-02
-3.356606404515177083e-02
2.304098570899158413e-02
8.741443825649131139e-02
1.045615845144038797e-01
7.748038061293255341e-02
4.549772595274960418e-02
4.660599717489025823e-02
9.529838423147946047e-02
1.686751260772124950e-01
2.138639945961700040e-01
1.855823460184334306e-01
9.133851223678166042e-02
-6.312954365735843482e-03
-5.138975322531662282e-02
-4.636694286483835498e-02
-2.243593630624602514e-02
1.280866115099510080e-02
6.341387535461091851e-02
1.029616824663394797e-01
8.421142654106671122e-02
-3.433255514787041628e-03
-1.038143388280834273e-01
-1.375004456833530397e-01
-7.851983896790529216e-02
2.425588205630457156e-02
1.050622588449572903e-01
1.400439115233147458e-01
1.443010216504967691e-01
1.355613540623613889e-01
1.142695627401303232e-01
7.724582791835590823e-02
4.392521799263963272e-02
4.767475623074618474e-02
9.083445932492423269e-02
1.312565479457999951e-01
1.286970437857879457e-01
8.890469052700776531e-02
5.326557638160896169e-02
5.534304783604199890e-02
8.906099060743172258e-02
1.173885842473880864e-01
1.152390784595991591e-01
9.417662521753557281e-02
8.012474223763632608e-02
8.448099949595434810e-02
9.898961769877633043e-02
1.002304830754411902e-01
6.942626508772219152e-02
3.763059671607454221e-02
9.464309478474958182e-02
2.784359183374799929e-01
4.137707218866496506e-01
1.767327956346036455e-01
-4.816274224381573155e-01
-1.045856967641273672e+00
-9.261598717198118447e-01
-2.569780352769256426e-01
2.165050448012205697e-01
8.109967896844635926e-02
-3.436029394555371597e-01
-5.571884801724585889e-01
-4.444717672967000155e-01
-2.293207986563096656e-01
-1.188512734526981085e-01
-1.226576514997897716e-01
-1.404552638380813789e-01
-1.075394492476423186e-01
-3.509234607153473989e-02
3.209970079223446737e-02
6.193080617550404676e-02
5.484742546645143824e-02
3.941030846174471691e-02
4.740176257207558835e-02
8.014605007228477185e-02
1.029131458152543893e-01
8.699191161025859875e-02
4.930969100966822727e-02
3.279688190383885094e-02
5.330983585855703089e-02
8.257439875826298736e-02
8.172406270574550380e-02
4.149007119254058407e-02
-9.022005972301164536e-03
-3.885356859810421004e-02
-6.480563312613039917e-02
-1.332205658977876628e-01
-2.391916669467004652e-01
-3.067212305115023518e-01
-2.694195560382711130e-01
-1.410801169940682775e-01
8.579817404176357312e-03
1.192440609206239233e-01
1.624633850849934169e-01
1.368406026835419231e-01
7.019342041195668347e-02
2.656708473534340892e-03
-4.142363766668949454e-02
-5.423751460352197601e-02
-3.992516226070382673e-02
-2.299910495417946399e-02
-3.037178907114864226e-02
-5.138293849145882802e-02
-4.607439294120361378e-02
-7.074008007832304802e-03
2.118079758911046648e-02
8.192209859449421996e-03
-1.540453733050393091e-02
-8.411982599389172116e-03
1.993245152850259619e-02
3.401263424890547948e-02
2.621219853779357262e-02
1.016893562643947715e-02
-2.122078357625236528e-02
-8.323109295731227764e-02
-1.345513635400181485e-01
-7.491000472242120845e-02
1.216559745010135224e-01
2.601718747663153142e-01
4.342443744944025907e-02
-4.957619029606493144e-01
-8.123360568571907914e-01
-4.489738036508174046e-01
2.635662005161107935e-01
5.546017414915030974e-01
1.894736732574929805e-01
-3.512614516315584190e-01
-5.720399325409892821e-01
-4.405565899477250635e-01
-2.116160530530471484e-01
-7.268711355565489474e-02
-2.953112002598303615e-02
-4.603543650901629342e-03
4.770948903110028977e-02
1.095529930866413759e-01
1.421374905446182724e-01
1.377054780732818451e-01
1.226445318438060955e-01
1.226881755433135712e-01
1.373336447875327104e-01
1.448207413936825894e-01
1.311809759653545515e-01
1.132004844308509423e-01
1.201525895894112600e-01
1.515211304904463541e-01
1.712459188061145610e-01
1.501504488762624157e-01
1.019267050504052974e-01
7.158793623766344927e-02
9.297877740719916184e-02
1.536766986804552482e-01
1.915962681996353500e-01
1.397654436338450490e-01
-1.604575265717281089e-03
-1.429684791749841755e-01
-1.732413358973455553e-01
-5.772164868963354512e-02
1.265352230096756236e-01
2.585065853998605445e-01
2.836980561932362921e-01
2.451305317475442058e-01
2.062623816407088972e-01
1.821674164531498497e-01
1.648588166441495584e-01
1.715120935884150433e-01
2.193979875275757774e-01
2.738576314232107900e-01
2.749895886262231359e-01
2.148490422459004845e-01
1.443809473624691198e-01
1.056830114598728276e-01
9.895113268100531878e-02
1.138491021833406280e-01
1.505829897424604547e-01
1.999507939501553866e-01
2.355101507378256909e-01
2.420563746330260391e-01
2.265941284501803987e-01
1.876382048714172190e-01
1.061106436824099525e-01
-1.066261383354861515e-02
-9.780618887871841971e-02
-5.673667804283206995e-02
1.741080879718862606e-01
4.752607238805715562e-01
4.705464108212016328e-01
-1.189213917790846314e-01
-9.017083108631818167e-01
-1.032034994488201018e+00
-3.131803069307690923e-01
4.124141781793426720e-01
3.539500266010089935e-01
-2.703544802245657630e-01
-7.180620438012867979e-01
-6.689934667117827249e-01
-3.561378530357537930e-01
-9.434577436512871229e-02
1.529277502859355438e-02
2.791575428481508914e-02
1.319027439921678299e-02
3.011837328084307399e-03
6.835984886293009280e-03
3.135469795400104565e-02
7.153404123933358727e-02
9.855803668846684074e-02
9.249923325934202023e-02
7.558919951969535200e-02
7.600062277844842062e-02
8.211497069525398873e-02
6.843044790630452290e-02
3.733529386298432146e-02
7.311053673375200734e-03
-1.015859307829431422e-02
-4.034861668603994048e-03
3.382134857789039634e-02
8.004810412326107683e-02
7.805152407828844230e-02
-1.218120153957427676e-02
-1.678785319407154197e-01
-3.106386732840613618e-01
-3.547833425206689539e-01
-2.665866459122116505e-01
-9.999638755827920666e-02
3.958486308946221333e-02
8.900610828988450574e-02
7.097819987886570814e-02
3.843002320879715383e-02
1.132696758643442041e-02
-1.559934905673383831e-02
-3.686795525998703277e-02
-3.452930484544997763e-02
-4.239058741159297539e-03
2.863566822293986749e-02
2.802676178955903000e-02
-1.065367048801524850e-02
-5.253771868418845303e-02
-6.714341282426336543e-02
-5.679872037917518823e-02
-3.699410405047469375e-02
-1.715942247506655610e-02
-5.398475930531099892e-03
-1.293142789758653516e-02
-4.754982196940654021e-02
-1.020754219875624202e-01
-1.505571546003999228e-01
-1.723152681671435982e-01
-1.810865019720769853e-01
-1.895160797218137794e-01
-1.365417636331835161e-01
4.851845577950158334e-02
2.224222801364698354e-01
1.976255346616856423e-02
-6.551806759495476529e-01
-1.225439426439275392e+00
-9.953143901308417751e-01
-1.146738047158632895e-01
5.419020800038411023e-01
4.736102595320040853e-01
1.153226041921327771e-02
-2.975590558330362123e-01
-2.959453661983164618e-01
-1.606032612580843288e-01
-6.042289334688216718e-02
-4.736620158834546623e-03
7.102492107169371127e-02
1.871559366175821193e-01
2.996114565800702678e-01
3.517016468298325149e-01
3.236417455535283150e-01
2.460646858696227957e-01
1.752441437901759713e-01
1.463774312635968133e-01
1.518276425735325397e-01
1.705323403165352747e-01
2.011753691165191482e-01
2.478666736051300945e-01
2.895884262654895291e-01
2.944396361883226954e-01
2.611480038322839814e-01
2.211815378586856340e-01
1.997723758205832978e-01
1.918929065390767297e-01
1.759255685581087858e-01
1.355965196550547314e-01
6.206776824060906972e-02
-4.555897251728040914e-02
-1.554715996809748202e-01
-1.970412633921708734e-01
-1.250292571678645048e-01
1.287583326260679367e-02
1.104616534349262963e-01
1.073160627251942001e-01
3.968928033627842911e-02
-1.161000376072899784e-02
-8.721992620369481072e-03
2.061333572335472680e-02
3.771511527238534389e-02
3.865384482477837724e-02
3.828828055603656494e-02
3.903306800542991756e-02
3.607175127553345628e-02
3.760568284226781244e-02
5.524121605032641241e-02
7.997507334058752415e-02
9.261401255243462138e-02
9.202892937767410964e-02
8.750835349666483132e-02
7.295064593706623857e-02
3.741934773255060909e-02
-3.048910522220882584e-03
-1.266587748260295312e-02
1.756502865383917020e-02
5.089794557379956341e-02
5.489123616737198036e-02
7.154103239671952275e-02
1.801388799477033342e-01
3.104989449893857945e-01
1.739972556876772658e-01
-3.822987182269028117e-01
-9.644087969047068221e-01
-9.507139578458749796e-01
-3.283466498958315105e-01
2.119411469644940371e-01
1.577462739465177455e-01
-2.737443392754071447e-01
-5.788788663405216584e-01
-5.623787563269143641e-01
-3.662790487353190239e-01
-1.848290133568003257e-01
-9.245861518557317582e-02
-5.562550326459046041e-02
-2.374429196156176494e-02
9.206192230231136434e-03
2.492077088920046160e-02
3.087521780134235699e-02
5.669047895853848718e-02
1.044765400279847600e-01
1.384465663339349839e-01
1.371220357340627305e-01
1.220988937563278753e-01
1.181578433596866540e-01
1.175880581551008996e-01
1.000482342525634283e-01
6.615347300919603712e-02
3.898918829540334863e-02
3.745999238726788194e-02
5.426424010681109300e-02
6.636995734702735850e-02
6.797577063559263888e-02
7.530753671438764063e-02
8.049343701496611270e-02
2.919493172940744799e-02
-1.008295499105818921e-01
-2.155657445422866636e-01
-1.827867398829625956e-01
-2.028399976854496772e-03
1.854597649972537787e-01
2.666006110893103243e-01
2.577877690082991946e-01
2.271647128799657578e-01
1.955681444517030076e-01
1.500802783050654843e-01
1.040473941597281904e-01
9.120439284751720443e-02
1.105257044386334514e-01
1.181263559326264229e-01
8.389268612585856766e-02
2.730583202161800463e-02
-1.536221647034025778e-02
-3.229412890587617102e-02
-3.413551108667164241e-02
-3.670719111198006424e-02
-5.208700566881710459e-02
-7.337023020953774288e-02
-6.691853926718935308e-02
-9.958808402441851962e-03
6.042693827264088158e-02
7.217228930290565947e-02
-4.241930055598154212e-04
-1.023962599678494984e-01
-1.327096442921577579e-01
-1.347952477431206206e-02
1.922066970041293454e-01
2.071023503206217697e-01
-2.103242795386208175e-01
-7.942871424887171239e-01
-8.691613848550738819e-01
-2.286297789378619050e-01
4.585246235788480451e-01
4.946452351934694236e-01
2.703841989854599559e-03
-4.061166772863794572e-01
-4.283705640824713723e-01
-2.283031423196959231e-01
-5.486594484377337738e-02
3.072169817339924849e-02
9.156019645876040114e-02
1.446580484222907692e-01
1.381658547909051793e-01
6.946347793824299288e-02
2.668689026674116171e-02
6.548441026594525871e-02
1.249898169997663844e-01
1.286846015752256267e-01
9.680160947637647673e-02
1.012419945775438201e-01
1.626221686545726020e-01
2.343971200082662076e-01
2.626785458331878931e-01
2.402128575309824821e-01
2.052992247511996604e-01
1.903656796570473153e-01
1.849266683506984033e-01
1.627147760683162470e-01
1.249501133733399438e-01
9.192247394530704552e-02
6.136273157682559098e-02
3.232635688668944116e-04
-1.055179658872511667e-01
-1.989506626494084995e-01
-1.833431690878997711e-01
-3.654221068064825162e-02
1.362845330467747362e-01
2.023840127965554625e-01
1.361144885072347321e-01
2.158904755750930965e-02
-5.941636693729692581e-02
-9.308331068855951740e-02
-9.050207160815811058e-02
-4.604996002955143858e-02
2.709161370759598578e-02
6.891672806377006910e-02
2.908400136274507525e-02
-6.507820672869510381e-02
-1.279040531666514879e-01
-1.012319059996266840e-01
-9.038504957037913484e-03
7.585334948730519666e-02
1.091309923630561785e-01
1.035416565945614792e-01
9.002023667505545945e-02
8.083204617837122519e-02
7.354448519818694574e-02
6.500350803335554206e-02
4.880723697273202377e-02
1.796177875193760362e-02
1.361459485838029072e-03
7.886999589123780408e-02
2.644339127405613277e-01
3.430252004475637384e-01
1.361836012296567186e-02
-6.227016313336933839e-01
-9.509380860843755778e-01
-5.714516090658532388e-01
8.211280684285206244e-02
2.761115059148094297e-01
-1.030220102172593466e-01
-5.619536627603255452e-01
-6.995336033284087485e-01
-5.391652125505626003e-01
-3.065096493762704544e-01
-1.457644203414639184e-01
-6.337172897520429449e-02
-2.428528559222642436e-02
-1.913186012891940693e-02
-3.992627690780144178e-02
-5.484122028231399465e-02
-4.401048298589013003e-02
-2.504326360436214677e-02
-1.445246387829064033e-02
5.365475816344663501e-04
2.863763731493211215e-02
5.167905617646103428e-02
5.682693184815314907e-02
6.002976472185024559e-02
7.548179966271703623e-02
8.604021784155885255e-02
7.133477576220556560e-02
4.551759879118853769e-02
4.063061006679873077e-02
6.856948437037747868e-02
1.085422491879973472e-01
1.163336249683516038e-01
5.821825858286110156e-02
-4.252684826404705409e-02
-1.114125954468811186e-01
-1.006135883442091511e-01
-4.274243964056489986e-02
-2.026014703598474215e-03
2.527807114948502944e-03
-3.546837358194312485e-03
-2.976919082265279404e-04
8.723999743129269568e-03
1.167475377142354782e-02
5.783298588311535857e-04
-2.078449576808438434e-02
-3.767958511012288458e-02
-4.587363405452833665e-02
-5.845035177758846345e-02
-7.136029474868849087e-02
-4.729468138081401735e-02
3.471945692835232133e-02
1.324923080433445810e-01
1.730134195626834848e-01
1.283502077702894095e-01
4.647716581707289629e-02
8.922966839902540803e-04
1.859948083813897993e-02
7.194993090418318193e-02
1.197818016313996342e-01
1.292550494874478428e-01
8.832739762730645872e-02
4.420805623116934313e-02
1.077083420734721714e-01
3.229778518342147908e-01
4.763295743650859393e-01
1.934851114262105265e-01
-5.186220152107804404e-01
-9.775650878218162809e-01
-5.565397676317119791e-01
3.678919563269366089e-01
8.038202047021999475e-01
4.187976049667663792e-01
-1.916278123327233573e-01
-4.240761182496901593e-01
-2.791725047969469964e-01
-7.347723813211737287e-02
1.957541858683127176e-02
3.580248367212530286e-02
4.379061099799212708e-02
4.936453628961538775e-02
4.966724225583038499e-02
8.501218568677694487e-02
1.824569518649041544e-01
2.879982943123489680e-01
3.192650836881670839e-01
2.717557343927121671e-01
2.161917526348546836e-01
2.009175583304215751e-01
2.099397138668137597e-01
2.132758463094717449e-01
2.102073037532703192e-01
2.088024862501450252e-01
1.963133278712534679e-01
1.561122714350582363e-01
9.954635805250700020e-02
5.776942137214636369e-02
4.250947740741018582e-02
2.549491805354136761e-02
-3.704787729549358088e-02
-1.465698447891032041e-01
-2.277630492207230462e-01
-1.886718168883509406e-01
-3.273828058765932553e-02
1.298652359614016483e-01
1.985031783434500485e-01
1.694020716815861638e-01
1.026399230826192249e-01
4.841668848959487792e-02
2.067450314627546082e-02
1.327814320128532441e-02
1.860687824718772199e-02
3.113383815041570468e-02
4.146154997302613221e-02
3.759748272470179314e-02
2.093578773170888530e-02
1.084684583041676045e-02
1.932378529648963103e-02
3.277956472178453207e-02
3.395832518097547520e-02
2.950940099949295875e-02
3.612098432560348349e-02
4.954124534328224749e-02
5.559538685448777579e-02
6.344290603719436594e-02
9.077237951186944986e-02
1.172653695640412663e-01
9.773046778205111973e-02
4.706169544435710728e-02
7.080960619807644130e-02
2.300663869919868376e-01
3.521823369209625687e-01
9.927607770382876340e-02
-5.891588944840714381e-01
-1.191225277584421427e+00
-1.089521424631133772e+00
-3.947587385260731274e-01
1.389566754295553097e-01
6.518620833872404430e-02
-3.347350767302639252e-01
-5.887768140114642001e-01
-5.567516186570227177e-01
-3.752742313223619841e-01
-1.983029187396891380e-01
-8.988315088765097549e-02
-3.841625195164713458e-02
1.489779588086867501e-04
5.019620293581777970e-02
9.208351350519018708e-02
9.682053845675549220e-02
7.035483581298596079e-02
4.405281126320594737e-02
3.333113437476076246e-02
2.819738797103811881e-02
2.401273647848835638e-02
3.939364224339139686e-02
8.624693551228061750e-02
1.368412958977163196e-01
1.480377417280069330e-01
1.122965366404708593e-01
6.545745337145564280e-02
5.167285034566528046e-02
8.777972239849061997e-02
1.474305335318110699e-01
1.730072210724975246e-01
1.180991868829463221e-01
-2.633618805081769376e-03
-1.093990595831788731e-01
-1.257126279605756125e-01
-5.218748097902402294e-02
4.344808534908463360e-02
9.864579248891928998e-02
1.005774623279692276e-01
7.668131056182966865e-02
6.308486550237772661e-02
7.039610801983539612e-02
6.958777563171104907e-02
2.627011002190819677e-02
-4.997503949770120552e-02
-1.114266866629584629e-01
-1.276699387181664536e-01
-1.111727913126240586e-01
-8.253792777779389578e-02
-4.078290591626954759e-02
1.049987039728717333e-02
3.606816283755270164e-02
5.072072469019555351e-03
-5.822877332597131694e-02
-9.354112571390872655e-02
-7.251135666252034317e-02
-2.511762486404530217e-02
-4.134089402755706036e-03
-4.000079105136682134e-02
-1.169307308982685117e-01
-1.707943411607830142e-01
-1.137638055264960646e-01
8.660346831780926791e-02
2.781835864077187859e-01
1.433308187268707568e-01
-4.162800348755111846e-01
-9.227418255738087938e-01
-7.531036707981993983e-01
-9.820646225882120883e-03
5.240452120507472777e-01
3.834466456989181204e-01
-1.126881264951845457e-01
-4.210451318762175044e-01
-3.668839331898214873e-01
-1.366430718969386948e-01
3.613626921008038229e-02
7.873666572743671932e-02
6.117215932799616868e-02
6.173428526047149839e-02
9.308600520462152750e-02
1.321570069170689143e-01
1.622832568790335273e-01
1.747556284718560504e-01
1.598179302604547103e-01
1.195049508528292503e-01
8.183338636022835511e-02
7.223569819432222594e-02
6.910917046590998869e-02
2.573318944227653837e-02
-5.314529297026503174e-02
-9.836419268020892004e-02
-6.137085649955888872e-02
2.979641179581305616e-02
1.214948787100455230e-01
1.892935538301908638e-01
2.195803335873317552e-01
1.892519365275948939e-01
8.967533831001159306e-02
-4.894072332303968376e-02
-1.613085314381030866e-01
-1.802646530691940363e-01
-9.070955435109213927e-02
4.590109111638877859e-02
1.420768990896473793e-01
1.628339095943623360e-01
1.370550162649953330e-01
1.014893785327527082e-01
6.926987865903262709e-02
4.807462711800866706e-02
4.919880617413004142e-02
7.285441363053885011e-02
1.065823780013462063e-01
1.441518901822814724e-01
1.918838779102088055e-01
2.418097907378887190e-01
2.561811331486089638e-01
2.107123101345321770e-01
1.358471028286474813e-01
8.162904303545295837e-02
6.093411350683688998e-02
5.547969051290153886e-02
6.187843491504245452e-02
1.007829931975477572e-01
1.772758950341436213e-01
2.524105627996905965e-01
2.646015139425417217e-01
1.896844006323304688e-01
9.946785692950077529e-02
1.249846767026326216e-01
2.673120698656751837e-01
2.594961560512517584e-01
-1.716805016794466787e-01
-8.031169747780887436e-01
-9.809931766310235890e-01
-4.518295664151084634e-01
2.026581103651853288e-01
2.936439051163436398e-01
-1.459534041911653701e-01
-5.710121140113727511e-01
-6.439552407280615398e-01
-4.556544731283841410e-01
-2.327363748847828817e-01
-8.065680412057806004e-02
8.773833762672766934e-03
5.177836487561774531e-02
4.937516619442602200e-02
2.231735353236600355e-02
6.249242822507052389e-03
1.393847655574101049e-02
2.897508097184244014e-02
3.483357980830905504e-02
3.584729903777394977e-02
5.018673740193436983e-02
8.555614719234659604e-02
1.223521542370399895e-01
1.304979864032106973e-01
1.048154539010619918e-01
6.929568410071840212e-02
4.667426150979639421e-02
4.106627762980290253e-02
5.169268784338345440e-02
8.261517399076341583e-02
1.224461303277388502e-01
1.266883002405795877e-01
5.127216432973792648e-02
-8.132811088292624113e-02
-1.733924731373941985e-01
-1.477628798690743817e-01
-4.093627711493292437e-02
4.522525557018419046e-02
6.755560279511629851e-02
6.354778630279009355e-02
7.142353484978414269e-02
8.962585137636622235e-02
1.077946870333682805e-01
1.255339707285375861e-01
1.331672353380235208e-01
1.131366789775458126e-01
7.301198034033749840e-02
4.298693117063166064e-02
3.495224250410532835e-02
3.839343928537711920e-02
4.986299971791598867e-02
7.223007132567103861e-02
9.265985157187971166e-02
8.713949189532102513e-02
4.800563484809141496e-02
-3.958005111495310063e-03
-3.708334248635012514e-02
-3.627617873959023548e-02
-1.996385087580822282e-02
-3.341728278426099596e-02
-1.011909809814216937e-01
-1.584934121380314198e-01
-7.240688108703333126e-02
1.611478845413912842e-01
2.523519092894721538e-01
-1.128990168494556495e-01
-7.125291834483863385e-01
-8.447977613865664814e-01
-2.466523829501799936e-01
4.390705526700638961e-01
4.927305403649822613e-01
1.315737536769653881e-03
-4.337530456884581831e-01
-4.842090283879617041e-01
-2.861321774521826677e-01
-9.582364364840612048e-02
-1.119261381181360995e-02
1.616682705889288182e-02
4.457775830161837816e-02
8.267877118167807349e-02
1.218352117958557135e-01
1.581288694502173409e-01
1.806857954123266830e-01
1.811253627538273181e-01
1.722459187479609688e-01
1.706890372046376836e-01
1.742197801486618791e-01
1.727092186744920432e-01
1.688885760884877296e-01
1.789637531113012769e-01
2.102425302994128664e-01
2.365959451449551887e-01
2.152892351843337659e-01
1.455816933222082166e-01
8.601998100841250217e-02
8.513404853912617809e-02
1.177535122355802821e-01
1.151803154776268739e-01
3.532730966568233683e-02
-1.025755928980597309e-01
-2.198636845805749807e-01
-2.260484553566756982e-01
-1.046401672960024926e-01
5.828455612275169201e-02
1.541113792788123549e-01
1.451899047812695853e-01
7.119417688074530792e-02
-6.395721802060834460e-03
-4.612629895065849944e-02
-3.924978622770870090e-02
-7.579642758541048700e-03
1.785640419485398991e-02
2.381763326654646670e-02
1.830853793393566811e-02
1.193654724887066414e-02
1.935920454263005512e-03
-2.245864566507355109e-02
-5.786589576983280220e-02
-7.700969348453547136e-02
-5.370090571982845395e-02
-4.939153538552109104e-04
3.469674706108714923e-02
2.326610979058476442e-02
-8.841703260680622289e-03
-1.973916336148325359e-02
-8.309447373691951702e-03
-8.518980714589802911e-03
-2.663210046399312747e-02
2.966514914574966064e-03
1.396540643762893275e-01
2.505587126025975997e-01
2.446912326285498665e-02
-5.961496796375176377e-01
-1.097907413886437533e+00
-9.130981466725573981e-01
-2.292075286490504460e-01
1.896486724497212228e-01
-2.120496858653840924e-02
-4.963592435536656744e-01
-7.433337714241079475e-01
-6.518093891961276309e-01
-4.027946342339261410e-01
-1.786157229435673122e-01
-5.247840639601512869e-02
-3.116786432284333885e-02
-8.117081597983710761e-02
-1.215159251388042150e-01
-8.732006040815573633e-02
-7.397322820212553704e-03
4.713646435736552204e-02
6.154282137279751264e-02
6.894450627663079034e-02
8.545852785763677351e-02
9.751445315409298931e-02
9.334856159838642031e-02
8.470940193741935409e-02
9.198474293594444129e-02
1.130330896794434076e-01
1.238058750641822525e-01
1.124154916006065985e-01
9.855419177458309143e-02
1.122064590859380429e-01
1.539027394232386214e-01
1.813516345440617794e-01
1.439141039073742467e-01
3.490115886787611976e-02
-8.927546870613585484e-02
-1.475379809591201852e-01
-1.017482271181763404e-01
1.487975680222678419e-02
1.327067094896338950e-01
1.917653242401287372e-01
1.708639760370427862e-01
1.056883014325902675e-01
6.133360444790270094e-02
6.503228939470702408e-02
8.496930225870003017e-02
7.763857833730350433e-02
3.825317071382604989e-02
4.924755940014610700e-03
1.455337999867420753e-02
5.811058164584893826e-02
9.500805739082547607e-02
1.068505199504365538e-01
1.136743699778037936e-01
1.336486000926712658e-01
1.441446918115190656e-01
1.010236847344322952e-01
6.548822920015275051e-03
-5.858554911744471433e-02
-1.481015570491471880e-02
9.722448104170099137e-02
1.379873607922525169e-01
5.353547216883482174e-02
-9.134540708365550266e-03
1.319036846977486854e-01
3.735485120439869244e-01
3.048504212078615438e-01
-2.641263076346159200e-01
-8.171437578666473911e-01
-6.256932761513097629e-01
2.025201263243836536e-01
7.441257989482022994e-01
4.673441373881264127e-01
-1.775995965482071726e-01
-4.989774010242286617e-01
-3.567639963582525109e-01
-7.856991682883893158e-02
4.249672057871300979e-02
-7.098590707990881307e-03
-6.901035362790293448e-02
-3.425380099186982330e-02
5.794094198816976404e-02
1.174751694802019797e-01
1.352319678346693699e-01
1.653556528050506569e-01
2.222622410690524575e-01
2.614315617226036781e-01
2.490667473741639826e-01
2.075477964839031741e-01
1.846620361091986795e-01
1.974525268006184220e-01
2.217697434374893695e-01
2.311835486318696009e-01
2.247579742391784818e-01
2.096698855821180207e-01
1.841946929205916239e-01
1.574789889205271964e-01
1.494817899315760423e-01
1.396407573435144989e-01
6.316791936512385075e-02
-9.145154568398083939e-02
-2.237430388094756029e-01
-2.182485979454540093e-01
-7.693385293343033005e-02
8.658721158781362837e-02
1.665066041609024050e-01
1.474009777924440989e-01
8.383054751675818317e-02
3.406124672244037477e-02
1.852444162902344704e-02
2.106707324539162235e-02
1.669552805510805815e-02
-1.606764508170245576e-04
-9.667474222895350300e-03
9.366974831007842534e-03
4.790100577421632644e-02
7.174148830975499158e-02
6.487516984949898147e-02
4.904492137341034952e-02
4.624766608730754985e-02
4.210938217626933322e-02
1.338841040026466159e-02
-2.259817879610827307e-02
-2.091682151204896090e-02
3.254310150971798793e-02
1.008488386514324597e-01
1.323705207684654772e-01
1.057838833252520289e-01
5.228074168453979848e-02
5.105566157716898840e-02
1.655713543217661454e-01
3.023511938831310863e-01
1.677768977622369762e-01
-4.117292718517434613e-01
-1.060613198919725164e+00
-1.101612784978183379e+00
-4.377734167162787293e-01
2.209881744034381257e-01
2.457442982640010987e-01
-2.234817233191475072e-01
-6.513474078493158848e-01
-7.505190415032335638e-01
-5.854276011309069716e-01
-3.329825345038254225e-01
-1.225595623025473729e-01
-1.090275667223458179e-02
6.520393398089231046e-03
-2.116323469219375669e-02
-3.281056750291654056e-02
2.880524286350060609e-03
6.596603246507552754e-02
1.098922914810269019e-01
1.139759150562008605e-01
1.020308337548347516e-01
1.028466468395762695e-01
1.099645997662917346e-01
9.515139119755885999e-02
5.412688799015462349e-02
2.075495870281473393e-02
2.632724556543808089e-02
6.192447547521442996e-02
9.673618295241179221e-02
1.120749870876987242e-01
1.019973350690795283e-01
6.389391648732092865e-02
-3.165519350789774283e-03
-1.011259642672658332e-01
-2.118489271696950837e-01
-2.705826095374960216e-01
-2.154782024683828678e-01
-7.536729660090817073e-02
4.465771644803333273e-02
7.289264482129916012e-02
2.984300617074315057e-02
-1.573844414325350008e-02
-1.713180429034529689e-02
2.282642261020703667e-02
6.995228826024073310e-02
9.093212216774132495e-02
7.427270602052504778e-02
3.472789667665214519e-02
2.455003359226963153e-03
-1.159537402280044760e-03
1.668349524475715856e-02
3.177654008687085668e-02
3.691694563173847365e-02
4.790147688880511123e-02
6.871171841247421253e-02
7.475611486054953292e-02
4.679577726074127253e-02
4.777028332302693178e-03
-7.120850173972888796e-03
2.873635187043809686e-02
6.790626510137290350e-02
4.761637374070070566e-02
-4.507740001800791818e-04
6.218035788570450140e-02
2.623122964749188268e-01
3.150581827544092772e-01
-1.049919267317300092e-01
-7.768217687463274679e-01
-9.702295845963975207e-01
-3.766981414351672774e-01
3.740610967368017126e-01
5.145246229290110218e-01
7.155213707808148749e-02
-3.612363600188376322e-01
-4.227785826430363048e-01
-2.283604874853931155e-01
-3.539485007984797399e-02
5.566749861426469048e-02
9.316132074716698686e-02
1.279602629703678052e-01
1.393486124968540130e-01
7.337582698922702484e-02
-6.565238373778947700e-02
-1.783609160718782338e-01
-1.665043728024255265e-01
-5.242866083468378929e-02
5.469330133682624717e-02
9.681796254046111383e-02
1.104502409833327536e-01
1.377919926126639494e-01
1.613974397937672500e-01
1.518199053713754632e-01
1.236334991982180886e-01
1.068869984944874063e-01
1.052945566330273086e-01
1.093587484188202202e-01
1.160910556913857805e-01
1.208536749164135921e-01
1.078498928071604662e-01
5.203715726072985492e-02
-5.785851048613702835e-02
-1.791009979278807840e-01
-2.215105031468208308e-01
-1.293284963080448824e-01
5.102028637527094429e-02
2.060307503666382878e-01
2.559519925244528316e-01
2.130748699132820612e-01
1.488557397988722608e-01
1.206935045829930081e-01
1.354975221020932041e-01
1.671502758479238571e-01
1.894043847786124057e-01
1.954335632800832667e-01
1.970294376914327739e-01
2.030969065682796948e-01
2.024110213177752471e-01
1.770517831215940863e-01
1.290123154546718443e-01
8.742617347293953067e-02
8.352587522779682250e-02
1.124310642025194013e-01
1.351297577118762694e-01
1.303976578763698102e-01
1.214793907910822202e-01
1.335835826584399477e-01
1.477500783797561223e-01
1.261625412903645271e-01
8.285925821623348064e-02
1.030842349716469264e-01
2.451065539330314902e-01
3.828054516293539211e-01
2.184535401405370558e-01
-3.614496270580511150e-01
-9.421419012240843660e-01
-9.166098124390396062e-01
-2.906326588895168372e-01
2.319466663603505507e-01
1.369471876856551695e-01
-3.334176626429037893e-01
-6.435741139535057220e-01
-5.997180645517056208e-01
-3.744586880441396759e-01
-1.783730748628085672e-01
-7.537410317623655098e-02
-2.696967247989006181e-02
8.054157139760938222e-03
4.020254939666242922e-02
6.113664704679431378e-02
5.798908266434440323e-02
3.499806044614088563e-02
2.103071736783057588e-02
3.832832074957921720e-02
7.789341235283722686e-02
1.164622737089558990e-01
1.393261322338817110e-01
1.419238960461220167e-01
1.265082791025266551e-01
1.012177519702296968e-01
7.232154842351123936e-02
4.040107159779379037e-02
1.263654990054898300e-02
9.863735427750640675e-03
4.756642897466842324e-02
1.058158563148626635e-01
1.224597244889493453e-01
3.736195741970733952e-02
-1.322693585173280451e-01
-2.735135125285263480e-01
-2.749450821502920084e-01
-1.463220935503595221e-01
-4.034202000817953965e-03
6.127948495566845621e-02
5.609322963670732021e-02
2.884833687953828468e-02
1.661956792435350001e-03
-2.808854906795709219e-02
-5.545614466662692615e-02
-6.478213948177323489e-02
-5.250456193502286290e-02
-3.323693880409561013e-02
-1.978163503368160145e-02
-1.399617641634426021e-02
-2.048011371455820198e-02
-4.670885893541591727e-02
-8.203409180309143012e-02
-9.712047863658419822e-02
-7.546315724036008199e-02
-3.541082128299039705e-02
-1.284625599318822871e-02
-2.552195800640674056e-02
-5.780107596136282305e-02
-8.080418437907281592e-02
-8.779622783174367839e-02
-9.246833206948887329e-02
-7.320723111255969529e-02
3.643523792695520236e-02
2.120515452169471071e-01
2.108433106563101511e-01
-2.054385105737778494e-01
-7.873819955569457685e-01
-8.569807006670917549e-01
-1.832934941071770185e-01
5.530439147809709244e-01
5.930311506015030210e-01
3.514282078999424186e-02
-4.523621853067106291e-01
-5.047023785112539906e-01
-2.933244779384382994e-01
-1.197217395852856886e-01
-8.379628153293935955e-02
-1.065428675320541085e-01
-9.262211250996424394e-02
-2.153747798243730444e-02
6.483992861516506279e-02
1.272854802812416475e-01
1.659606169040763746e-01
1.911084732871888014e-01
1.948705820136050204e-01
1.773910405169992210e-01
1.647444999757177453e-01
1.723169984859254655e-01
1.797608855170381992e-01
1.652771401469334545e-01
1.455587886295653666e-01
1.599209373789636235e-01
2.169179317066599888e-01
2.796937461559621529e-01
3.118077348571969831e-01
3.130452175742123866e-01
3.007759362106804946e-01
2.698846446220801720e-01
1.850135448057063925e-01
3.539863992178101521e-02
-1.082594958633445181e-01
-1.388289473502956617e-01
-2.378519948152444524e-02
1.563276076056589192e-01
2.733920893142577913e-01
2.457787829218902320e-01
1.026379167324935060e-01
-3.295339920905786257e-02
-6.425056812836069109e-02
-1.902207502857573840e-02
1.191692531794385362e-02
1.247323086220698818e-03
2.690544834907295652e-04
5.315834598525089744e-02
1.381452309371928311e-01
1.952047024493562821e-01
1.897451716110208353e-01
1.321809190739693940e-01
5.471543439748637744e-02
-4.478214230977835275e-03
-1.440032755283691436e-02
2.719762620561390690e-02
9.487371328743607335e-02
1.596046582412882775e-01
2.007411601834714343e-01
1.987203020716913071e-01
1.367799615899226717e-01
3.740424081778053605e-02
-2.965917790549769083e-04
1.356029050288754811e-01
3.711699969072027594e-01
3.491600180069167059e-01
-2.144516637352915367e-01
-9.714770002068086052e-01
-1.130319075969585807e+00
-4.830200199765011249e-01
2.108958751371520224e-01
2.114459486767268637e-01
-3.128824612755180534e-01
-6.986231906655497870e-01
-6.390091597590884520e-01
-3.322329600826199325e-01
-7.800656823694138153e-02
1.749332294274297955e-02
2.435437326740980124e-02
3.742299565889739554e-02
8.117333572193237423e-02
1.245139274559219494e-01
1.394366063125792310e-01
1.245074810219606309e-01
9.105878691719454521e-02
5.331795259813294774e-02
2.866264376975458106e-02
2.697681681676947218e-02
3.784439496420359539e-02
4.129518206157443277e-02
3.322581527446689942e-02
3.049386774515230880e-02
4.467057101017078702e-02
6.140530914191390244e-02
6.075535303620507172e-02
4.783290865840635064e-02
4.297882457127195216e-02
4.387953422933333486e-02
1.400507192221296660e-02
-7.509988817360685465e-02
-1.846812791188899294e-01
-2.202052023306762529e-01
-1.340889352668886425e-01
5.777107489465735379e-03
8.792224727128615525e-02
7.790904339320321725e-02
3.041062671045023993e-02
9.082791974484773906e-04
-6.878203529736641106e-03
-8.825500782374758740e-03
-3.224110517208608057e-03
1.941746315475807380e-02
5.436134523764155069e-02
7.849491664818235293e-02
6.422073464889627159e-02
9.680666907545983774e-03
-4.808076299755048577e-02
-6.845318355475984995e-02
-4.835892673456110985e-02
-1.738944600877658994e-02
-5.793526145709993781e-03
-2.569519353380341625e-02
-6.914014001201131132e-02
-1.113669130838564197e-01
-1.261031769477596598e-01
-1.141545181486109950e-01
-1.114425021424075568e-01
-1.445720490772927913e-01
-1.653354824888937369e-01
-7.151386709393080243e-02
1.157313613526217699e-01
1.140357646568886246e-01
-3.437939177565496052e-01
-9.798172381245633389e-01
-1.073244742801855889e+00
-3.813960708345498496e-01
4.279261832779320818e-01
6.062369499020097141e-01
1.912741198603112314e-01
-2.507189039531901309e-01
-3.609287286998944522e-01
-1.929964037418658573e-01
4.300810363646963286e-02
1.958019072502306390e-01
2.246801145978810921e-01
1.756366368121565769e-01
1.206274846536340983e-01
1.000326423599102177e-01
1.108392743399089497e-01
1.338897940029044331e-01
1.610611706447821756e-01
1.951970232508058456e-01
2.346955672514727254e-01
2.655406342860294755e-01
2.689003426923297080e-01
2.406160345569348935e-01
2.009793236767858093e-01
1.806704874171337349e-01
1.986127636306341815e-01
2.465287817493542755e-01
2.862860192417638894e-01
2.752988233737059254e-01
2.116458956673755998e-01
1.392600005094700999e-01
8.475203613189988272e-02
1.339892345851091335e-02
-1.070366403045847903e-01
-2.183339783183361749e-01
-2.149047436132560107e-01
-8.004291264177845755e-02
8.403466795765029973e-02
1.738053264525898645e-01
1.757811119686585599e-01
1.339117498743287449e-01
8.387982577146220475e-02
4.336880776284272876e-02
2.873093610276393137e-02
4.311429327117380361e-02
5.913304774776176331e-02
4.673136305646875821e-02
1.908657275318897256e-02
2.152919763157072619e-02
6.701399313867233143e-02
1.127815468415191563e-01
1.176246947531292414e-01
9.482395125607083475e-02
8.732479419593874859e-02
1.075940782947354540e-01
1.239232919506177977e-01
1.090564772328212056e-01
8.538753338400782711e-02
9.717040447049098140e-02
1.395113820947807559e-01
1.540476999549632020e-01
1.234993920526495509e-01
1.332104248499122179e-01
2.518214252708709799e-01
3.259689633713460100e-01
4.141087558986643324e-02
-6.212678756711345063e-01
-1.114981106534293609e+00
-8.840784749574452928e-01
-1.610339901586078371e-01
2.531650838898463762e-01
-2.848748300715429893e-03
-5.206338022819297917e-01
-7.657121284216967805e-01
-6.366264337497276049e-01
-3.711336840127120174e-01
-1.897394115667315195e-01
-1.290544040023693939e-01
-1.114478885198762065e-01
-7.386806524021249931e-02
-1.946773649110704330e-02
1.795338068116527491e-02
2.648035107206690025e-02
2.184579393941252917e-02
1.849339208952769167e-02
2.003092204291496981e-02
3.429757335295689769e-02
7.012288875529365528e-02
1.143973752819157363e-01
1.416081008534689489e-01
1.498950787340163349e-01
1.542101509232001733e-01
1.466875071561536958e-01
1.030499134109747750e-01
2.957930346751089928e-02
-2.754613542242763391e-02
-3.065018485062463022e-02
1.693511637264900980e-03
4.151361028626971567e-03
-7.189145150844045151e-02
-1.957421826999705683e-01
-2.666255915577173119e-01
-2.140689203677719754e-01
-8.304470302350791533e-02
2.103401110855395578e-02
5.761484536767323694e-02
6.552114222433765012e-02
7.105563316018130571e-02
5.599591237056766868e-02
1.784675186387679052e-02
-6.635143741520693403e-03
3.892535917562820781e-03
2.526713869338191240e-02
2.805362428119074353e-02
1.183319539233925605e-02
-7.037498148628317657e-03
-1.539939157842093106e-02
-1.057990771362937732e-02
4.173190509293508640e-03
3.313934974772194536e-02
7.962780091994327292e-02
1.165014941456819914e-01
1.006896811914568812e-01
3.616411878875885194e-02
-1.424068619670728654e-02
-8.774490145134762956e-03
1.147676539332756138e-02
-1.179097433913766334e-02
-3.267368441922046535e-02
7.694224604180563420e-02
2.985745669442239625e-01
3.099911352486468541e-01
-1.944376252741917555e-01
-9.093120359934065977e-01
-1.029056065396152464e+00
-2.879042189017071429e-01
5.453527444645096534e-01
6.345701012916347139e-01
8.184123277639282490e-02
-4.185682784399207268e-01
-4.925146232958364512e-01
-3.026782761524255960e-01
-1.406260070144083052e-01
-1.020670299799051606e-01
-1.047242866900537223e-01
-5.881137078430054982e-02
3.198614026597654258e-02
1.011073940161573703e-01
1.121666747268686565e-01
1.033921670929007913e-01
1.369092137117846053e-01
2.212421972875334431e-01
2.967065077729865719e-01
2.948975690257715776e-01
2.144709816076456055e-01
1.292465110338095746e-01
1.070621698886196349e-01
1.431332005054476442e-01
1.892600065043853197e-01
2.117710892555030311e-01
2.063049869401119008e-01
1.874546187634371364e-01
1.710143167079834770e-01
1.559733086442628702e-01
1.241486322336536469e-01
5.412280907650635076e-02
-4.944702305427744332e-02
-1.250139258585498958e-01
-8.966477573340950191e-02
6.294617670075955407e-02
2.347026276332068173e-01
3.208001785689828522e-01
3.043561040727125189e-01
2.405579120796139392e-01
1.877764689145769994e-01
1.695582716399305634e-01
1.751541689105356736e-01
1.828345616487400960e-01
1.826711286994067984e-01
1.766627357726162084e-01
1.699180305831425042e-01
1.667100374829882936e-01
1.651627367576105343e-01
1.578937456537672646e-01
1.413767354734927206e-01
1.190947894961139203e-01
1.006415373355478982e-01
1.009648294415893127e-01
1.257306554993095626e-01
1.556954487906246909e-01
1.642347211952711883e-01
1.491401003892912358e-01
1.254940974877223892e-01
9.472298493826643295e-02
6.265204651325509411e-02
9.117808295035187416e-02
2.415181205215389815e-01
3.794882544483047515e-01
1.572154763090725937e-01
-5.440920018365773547e-01
-1.198187401125676788e+00
-1.097397321063033226e+00
-3.180815115556383521e-01
2.747685324114194083e-01
1.174001899080506367e-01
-4.547167303175175257e-01
-8.032940927401480691e-01
-7.177683836161349307e-01
-4.186662764274008963e-01
-1.666579421762908464e-01
-4.765043797224743916e-02
-1.450157975524916758e-02
8.283021297392206134e-04
2.592678792496566978e-02
5.012291567527747682e-02
5.507341771864943114e-02
3.918434070715612338e-02
2.094310765519348527e-02
2.020070023100026604e-02
4.002573801109109847e-02
7.180104411256064967e-02
1.048226204997982358e-01
1.246555164799156706e-01
1.210898462164847617e-01
1.047628665953684035e-01
9.983341157875021132e-02
1.128883601793427005e-01
1.214211377555451526e-01
1.045388562048892300e-01
7.387302278128531074e-02
5.106468533265934306e-02
2.098520371784666494e-02
-5.207545364258421572e-02
-1.482137758550146900e-01
-1.780118496111954551e-01
-8.367831433276211317e-02
7.232707930000500940e-02
1.616909318101030779e-01
1.253273907046225932e-01
2.030586993582309333e-02
-6.378580311185956531e-02
-9.340635020267158695e-02
-8.677390283074296051e-02
-6.640811877406974095e-02
-4.618713634858067490e-02
-4.121916663632432809e-02
-5.981893483929669880e-02
-9.072914539237195153e-02
-1.138237350053423469e-01
-1.189068090145000284e-01
-1.055200840945509089e-01
-7.465160699610670636e-02
-3.871626201730251488e-02
-3.035304746852023061e-02
-7.128534247038859073e-02
-1.379056618607637230e-01
-1.833418678942621560e-01
-1.832353585895160619e-01
-1.511594197794420558e-01
-1.310330347810405305e-01
-1.630776272767266999e-01
-2.125695632868241092e-01
-1.607025749503923628e-01
2.101756251751312615e-02
8.305429797415957160e-02
-2.862733355092366150e-01
-9.111935446293767393e-01
-1.107205788528005330e+00
-5.326028839239970170e-01
2.597476447780883158e-01
5.056183520728027014e-01
1.415918267095435668e-01
-3.067572809437638659e-01
-4.432204162595980157e-01
-3.046432847188810800e-01
-1.252097295595336612e-01
-4.379720016371691643e-02
-4.003764296575691717e-02
-3.291543922872876282e-02
2.302338998772603812e-02
1.150168927393018375e-01
2.017876924343227074e-01
2.539334608629819634e-01
2.757351887430666837e-01
2.925364786989652632e-01
3.150383006378996154e-01
3.259062710861506118e-01
3.102086448250972461e-01
2.841753950040889487e-01
2.787611331055595554e-01
2.998762201588281440e-01
3.169680576688124196e-01
2.993117513347910985e-01
2.563330682912229319e-01
2.257753121777162086e-01
2.257182634841398972e-01
2.270729506495106353e-01
1.680170150056235767e-01
1.004189283437010444e-02
-1.959604092838779787e-01
-3.209923460709953047e-01
-2.726390860701503049e-01
-9.133571358107815674e-02
8.967403476116861394e-02
1.703601941393787789e-01
1.518378773874765053e-01
9.487240427163787237e-02
4.969639109032081975e-02
3.450626227195287277e-02
4.717473602999418952e-02
7.269867078334868449e-02
9.199253590102064726e-02
1.002043569088154340e-01
1.128352068145113130e-01
1.417670034969292225e-01
1.696115056452058567e-01
1.681986743191618838e-01
1.377882382059994471e-01
1.019089813617325424e-01
7.421010510634280799e-02
5.956409985352569686e-02
7.257261862397584862e-02
1.221907570831159834e-01
1.842596226413936167e-01
2.168865001991670816e-01
2.024241510442823799e-01
1.549566988012478774e-01
1.055328430987639843e-01
1.133920020676588286e-01
2.414339660180413183e-01
4.158382517778683729e-01
3.462298014209338470e-01
-1.781716035723840130e-01
-8.318580109169387837e-01
-9.392267261045509352e-01
-3.471992694754126862e-01
2.714887853385073435e-01
2.669406993953910012e-01
-2.276509781134957167e-01
-6.331466850467656338e-01
-6.489373979885729726e-01
-4.044028842979972560e-01
-1.470831220178023813e-01
-6.804124354678288411e-03
1.460900192267013814e-02
-2.408180979374082917e-02
-5.288408444089884308e-02
-3.170962354897110397e-02
2.223948940507588026e-02
5.831043718975331691e-02
5.149980971545260744e-02
2.807003081168237685e-02
3.032406834607227764e-02
6.735551647404038056e-02
1.095694106234257614e-01
1.287276291538116957e-01
1.310548044164230874e-01
1.423554520771278808e-01
1.659516136263796127e-01
1.704066393814863134e-01
1.293381673126533793e-01
6.579789056770844746e-02
3.384582619057553698e-02
4.620787670552497367e-02
4.545301526354009192e-02
-2.474662479574672377e-02
-1.304541852914581357e-01
-1.665236350114410180e-01
-7.879321479351165947e-02
6.421642633409889445e-02
1.486847292436730972e-01
1.382119650090489205e-01
8.703199259733646054e-02
5.290111872254496528e-02
4.008367394429721703e-02
2.833356727108955059e-02
2.007320128406356319e-02
3.536354715234717172e-02
7.079043461053963204e-02
8.886979409756069759e-02
5.908638534317049718e-02
-3.493843870340529630e-03
-5.234800834553857141e-02
-5.653856856568935385e-02
-2.408398932675928639e-02
1.632652232446700838e-02
3.931788982467410154e-02
2.821163815399671537e-02
-1.714799297210692700e-02
-6.486688138572203888e-02
-6.811628815464958187e-02
-2.083629252155145412e-02
1.976606489583949272e-02
-1.806824712441156260e-03
-4.824786780753346355e-02
-5.538601660127547878e-03
1.448683259417027080e-01
1.744277697624952994e-01
-2.004667166165885472e-01
-8.226500938987580946e-01
-1.035592059122095288e+00
-4.799609844316762297e-01
3.029806511743778907e-01
5.188979007137407562e-01
1.052709839718267981e-01
-3.608804650671769698e-01
-4.672903314120497864e-01
-2.973766154185573107e-01
-1.182807667513385008e-01
-3.108563273866072479e-02
4.501083581466351624e-02
1.648258114332506463e-01
2.469901543355157159e-01
2.033499333938517672e-01
8.654767381613479027e-02
2.279603687354140457e-02
5.505794944049549611e-02
1.219712472456908753e-01
1.523541741739506683e-01
1.326650142217072337e-01
9.512217147866749989e-02
7.221163546246825438e-02
7.344919928313270452e-02
8.893521143587367062e-02
1.030438737151155859e-01
1.127544996245066905e-01
1.287506072193674578e-01
1.482267400588217210e-01
1.416412814240454177e-01
8.286777412721252345e-02
-1.872073413285500060e-02
-1.300289243997440058e-01
-2.226386922980687355e-01
-2.679074322991871759e-01
-2.261127751388403440e-01
-8.711350767160958020e-02
8.038303837220836523e-02
1.700691352589462912e-01
1.460759686505336830e-01
7.295471047077753401e-02
2.442181706911005640e-02
4.445368599244894914e-03
-1.988706358180603040e-02
-4.516656616939661306e-02
-2.908721313710873127e-02
4.488422854524225236e-02
1.280025561242124355e-01
1.471120633239644815e-01
8.272152944213635728e-02
-2.390254099719265474e-03
-2.531642137322359307e-02
1.351659334959923013e-02
1.050951324927176279e-02
-1.075106381268878392e-01
-2.519647592699479355e-01
-2.627995410788657726e-01
-1.132787870889400972e-01
7.087044791947617883e-02
1.695080810726486975e-01
1.580872593533364234e-01
8.456395165488897470e-02
4.752240868439314841e-02
1.468400873743728741e-01
3.241731871114534314e-01
2.742091360102558717e-01
-2.477810719287702190e-01
-9.275003463597952802e-01
-1.049449651463910227e+00
-4.247429818354364617e-01
2.428615381062655398e-01
2.548661224649980683e-01
-2.527260899758680401e-01
-6.746228047131270777e-01
-7.073804764394525657e-01
-4.920051314170359458e-01
-2.751157641949854016e-01
-1.596843401226324399e-01
-1.103108748983314402e-01
-6.390140298368200689e-02
2.044445441656161933e-03
