4.210945567057463590e-01
2.070350333249378338e-01
-6.741428873526458809e-02
-2.667914440027464029e-01
-2.464236274474826682e-01
-2.564302272272238337e-02
2.201642089941167058e-01
3.736153866853570982e-01
4.667549425774967786e-01
5.285761550917362772e-01
4.887187978874925620e-01
2.981236285876852632e-01
3.524410537442994318e-02
-1.729785197109234840e-01
-2.731435658761651175e-01
-2.758552523850227867e-01
-1.775236091135953542e-01
1.721952160100367890e-02
2.255423854070048584e-01
3.479049576387058806e-01
3.690136423789271425e-01
3.069265645506349949e-01
1.291944847033520694e-01
-1.757121720500043061e-01
-4.855859322966313285e-01
-6.057450066766112418e-01
-4.662173424919929254e-01
-2.009064533570544264e-01
8.688853087412962140e-04
6.890919826718967800e-02
4.584309502277752330e-02
-3.178310405500595071e-02
-1.845104229441205390e-01
-4.228371064277631208e-01
-6.632081746556953705e-01
-7.606700392433038971e-01
-6.459581923402065717e-01
-4.020083829919141594e-01
-1.868138481704479381e-01
-8.573810017462402122e-02
-5.428125010624365587e-02
-3.726568618285249629e-02
-1.073443344805218858e-01
-3.594872057260339870e-01
-6.528284023891068877e-01
-6.290278811462404196e-01
-1.222388935858093745e-01
5.516942002825809821e-01
9.132393483709451143e-01
8.542099372409330815e-01
6.264343730578370018e-01
4.154366685284548444e-01
1.941754605652861732e-01
-8.651641351610414588e-02
-3.660807752827907602e-01
-5.195073443295125104e-01
-4.683922512274840133e-01
-2.516520157330574547e-01
5.046576912893535605e-03
1.878405784938450562e-01
2.577399901803379412e-01
2.335636401487490299e-01
1.403685578253700272e-01
-1.475919011980086556e-02
-2.113705088275962263e-01
-3.716084635610714670e-01
-3.881003344729138105e-01
-2.194805995565282386e-01
5.713296355216633537e-02
3.010076093750779225e-01
4.109737241047884959e-01
3.777609991513621868e-01
2.495792151229076217e-01
6.887319443940231878e-02
-1.347268041435318864e-01
-2.979757554032265165e-01
-3.229259876164825016e-01
-1.663635185557014728e-01
8.568137668097919324e-02
2.761957476949145063e-01
3.161169674015600339e-01
2.429328691968727083e-01
1.404631734141248700e-01
3.027408051853082080e-02
-1.278478418179802012e-01
-3.351198483966800201e-01
-4.971137638843976525e-01
-4.964306309164704945e-01
-3.108408864546550188e-01
-4.134859132935461007e-02
1.727708731320611313e-01
2.537450633982611947e-01
2.060261913354074770e-01
6.478814968190289847e-02
-1.429698756220553202e-01
-3.729403334267215042e-01
-5.278305835651669886e-01
-4.901939882336334153e-01
-2.175757054167263005e-01
1.791880133017544896e-01
4.792366303280116147e-01
5.303186138272915073e-01
3.651332399705894405e-01
1.067852555627360478e-01
-1.411908851784587637e-01
-2.438644275956378948e-01
-4.559614139532234406e-02
4.158304824358712293e-01
8.581586772895494208e-01
1.052652426165226140e+00
1.012313334368597273e+00
8.374783673857942867e-01
5.798748409204660392e-01
2.805909013849524625e-01
-5.490672860969788779e-03
-2.348181693864008213e-01
-3.693083278287933591e-01
-3.625631827550770403e-01
-1.939493997083154841e-01
8.082768229233880386e-02
3.389774015143423025e-01
4.748245538645116115e-01
4.757906880634030222e-01
3.900285659946032268e-01
2.342891471572328410e-01
-1.890692787238750340e-03
-2.596060956274768294e-01
-3.956669896438322898e-01
-3.089325892910940730e-01
-5.496940277901430499e-02
1.983177945353638005e-01
3.180583283604273004e-01
2.870191955093506220e-01
1.607458760499176076e-01
-8.261464295545345622e-04
-1.497740320481554810e-01
-2.501422236690367118e-01
-2.843281744826733903e-01
-2.399193633041053209e-01
-1.134941514661880341e-01
5.257519746356105472e-02
1.856820772085042148e-01
2.460518280826758386e-01
2.263762251673128445e-01
1.066937773902007780e-01
-1.269868268151084223e-01
-4.208555813831743597e-01
-6.513223839858105491e-01
-6.998077499631718545e-01
-5.384195378689744516e-01
-2.565139179121699309e-01
5.188491291647362447e-05
1.248324861838043254e-01
9.751703424992820557e-02
-3.703202641163093334e-02
-2.207454613342882122e-01
-4.160845556917326382e-01
-5.799359803335981667e-01
-6.253175840405730268e-01
-4.773272337485193750e-01
-1.824196213589847348e-01
9.997739207347276780e-02
2.339578838455876053e-01
1.909815680590395415e-01
1.779789421320979170e-02
-1.779044204916500338e-01
-2.117829618968905536e-01
3.610477346435873175e-02
4.132529932021127284e-01
6.230970227865347821e-01
5.860952116137638779e-01
4.575249790334450228e-01
3.533137480457547719e-01
2.793856842078982217e-01
2.151050094877155761e-01
1.175490531542495859e-01
-5.004741289829039291e-02
-2.402249562921238701e-01
-3.348609932927642530e-01
-2.523808280889260902e-01
-2.969832286908697522e-02
2.094901148744682251e-01
3.631367269614996784e-01
4.073139154929618644e-01
3.574994926566519848e-01
2.217214731877525102e-01
1.367441554832608125e-02
-2.078806884213730555e-01
-3.390576246211499667e-01
-2.949525378446981594e-01
-9.276087725831140551e-02
1.464579909823478243e-01
3.037213053591711898e-01
3.515732336505300593e-01
3.209094773414817303e-01
2.183480062643989028e-01
2.705823057105360280e-02
-2.171024623736293457e-01
-3.998746096413161033e-01
-4.109847052720522198e-01
-2.463870816025997001e-01
-1.371743441816762263e-02
1.591756715600169403e-01
2.130800996776607559e-01
1.664031536782519249e-01
5.392711431131771982e-02
-1.207463746876880212e-01
-3.527972159802599261e-01
-5.750385212197171025e-01
-6.718027412850714475e-01
-5.767542394456663946e-01
-3.492992266673174973e-01
-1.290120939565515268e-01
-9.841292278664015222e-03
1.262956593688603982e-02
-2.871722143882655606e-02
-1.387751708113170168e-01
-3.260277352910675441e-01
-5.328192552692350148e-01
-6.334625273736629314e-01
-5.223988350568190553e-01
-2.245283094450995220e-01
9.694190598562321681e-02
2.692470540496920139e-01
2.327405707165486060e-01
5.563766257647321384e-02
-9.764701601039987855e-02
-5.061549722241363847e-02
1.981388879779057421e-01
4.154635089094484979e-01
4.158206211011754583e-01
3.120912457700517062e-01
3.157658482273862921e-01
4.224659829421328894e-01
4.672528394433796417e-01
3.697321948924444657e-01
1.826237762165652811e-01
-2.919288719552232819e-02
-2.397307033341259941e-01
-3.969486786897706843e-01
-4.034367618395235944e-01
-2.207777446642296693e-01
5.403353377911529476e-02
2.751356898224662784e-01
3.819069003930119499e-01
3.980822883486488384e-01
3.317718996888263661e-01
1.532897668054334639e-01
-1.159228377796097109e-01
-3.507448457107813500e-01
-4.042991368541096753e-01
-2.372819805661906256e-01
4.950711412712377468e-02
3.004925909952729235e-01
4.162741678472351436e-01
3.978763764295480954e-01
2.957125210867904697e-01
1.366583929531603181e-01
-6.450990488337826623e-02
-2.420084137848894368e-01
-2.972828902551992725e-01
-1.958630117165773010e-01
-5.693649418323957351e-03
1.667042044966906000e-01
2.551715000570274339e-01
2.521613878379240781e-01
1.695068175623875018e-01
6.998131296947363716e-03
-2.247852443155522739e-01
-4.671220595883523452e-01
-6.172377735406650023e-01
-5.811961392907734059e-01
-3.552744395455613158e-01
-6.298933005538256968e-02
1.342962608526588886e-01
1.771877179257257962e-01
1.186200036048564027e-01
6.541010515581511392e-03
-1.673428145629592412e-01
-3.841446987662566204e-01
-5.366166194443066084e-01
-5.062104815296623039e-01
-2.845456078106796127e-01
4.712277388310062015e-03
1.962039458953060977e-01
2.012673468886261308e-01
8.279431690705407743e-02
3.153256313636778468e-02
1.933521874702085752e-01
4.665974943802724262e-01
5.859760950901110599e-01
4.777932014733903276e-01
3.576428772346018636e-01
4.041769641514509903e-01
5.346639732794660205e-01
5.651120064813758281e-01
4.345565895608631823e-01
2.219946699949732483e-01
2.556062661533519895e-02
-1.349062529937260224e-01
-2.958131113959510117e-01
-4.331979262102929606e-01
-4.233996238864253803e-01
-1.826363530978875049e-01
1.845674386601907913e-01
4.449073138299702301e-01
4.545554077303702867e-01
2.773823570297958563e-01
6.382435528869634389e-02
-1.242905245448862883e-01
-2.965753097298599039e-01
-4.061720190237753658e-01
-3.565840531449460671e-01
-1.357644064537319173e-01
1.334617326213476396e-01
2.990360784789841686e-01
3.043703734528594440e-01
2.039605899108656306e-01
7.970679759067735015e-02
-4.907102753152103175e-02
-2.136509327745378384e-01
-3.840354725022147031e-01
-4.430968952919301374e-01
-3.352570192922616488e-01
-1.557600927651675571e-01
-1.222696704534762674e-02
9.764128408754171873e-02
1.776998089131725245e-01
1.258422193099827946e-01
-1.373832587339599842e-01
-5.074527198746732193e-01
-7.667566880851154343e-01
-7.805338701433992554e-01
-5.711633986464468293e-01
-2.519353196438280929e-01
4.529715917379496803e-02
2.128455402802933161e-01
2.160342210022460907e-01
1.003922227073164308e-01
-7.854848603615427471e-02
-3.040661475113925483e-01
-5.440511794628010156e-01
-6.830198633364346072e-01
-5.879403966837882800e-01
-2.772377652974554185e-01
3.536419842899517219e-02
1.448529591304935082e-01
1.037055966184528139e-01
1.851562562638122134e-01
5.197261976540122896e-01
8.435415289942759243e-01
7.885490665696712753e-01
3.758138182772599034e-01
-7.816976573365608250e-03
-7.707874157415402216e-02
1.173043360749151942e-01
3.521566568808386921e-01
4.490895900645735517e-01
3.563423204753806139e-01
1.321562629994665339e-01
-1.209872505410069798e-01
-3.208087462414239699e-01
-4.144239092967911819e-01
-3.629198459773312346e-01
-1.673489642975411751e-01
9.575420561942667164e-02
3.064452027206809870e-01
3.863341314644520019e-01
3.421541012693121719e-01
2.226034746425883393e-01
5.600409316373371194e-02
-1.394806853843605365e-01
-2.910550373143454550e-01
-2.779236399212133835e-01
-5.827445949063404101e-02
2.413446666539785512e-01
4.307571316676505613e-01
4.376461527795393325e-01
3.376368037975577274e-01
2.268830519954568026e-01
1.135470245898989317e-01
-5.558908313257304029e-02
-2.763127464073711348e-01
-4.306606150988603332e-01
-3.866148050859191110e-01
-1.420332814294570922e-01
1.619042904468970812e-01
3.602210737418897746e-01
3.774876274096800044e-01
2.392939799936742717e-01
9.455074617505509343e-03
-2.540115740855350968e-01
-4.844613542469892731e-01
-5.919624123435746066e-01
-5.110463870644162965e-01
-2.729647208868683506e-01
-3.816802880773698115e-03
1.687313694757162919e-01
2.025922019769040572e-01
1.314844416185971809e-01
-1.074111809535636952e-02
-2.135859472078950883e-01
-4.293711348441721087e-01
-5.455087491574346359e-01
-4.716010227157989010e-01
-2.478769451285537662e-01
-2.217392442422758125e-02
1.216019315711403814e-01
2.896963341492876931e-01
6.250495022225612818e-01
1.008643261151564774e+00
1.103711474044002827e+00
7.795259450544416158e-01
2.956361763973310852e-01
7.949436424665584644e-04
6.724674145840912193e-03
1.687741310765868974e-01
2.830968628805454190e-01
2.788013143931525328e-01
2.175449896624168933e-01
1.448369727601725443e-01
2.621459459880120385e-02
-1.645888567786290280e-01
-3.573077565731555549e-01
-4.210333435792789625e-01
-2.888728050533892477e-01
-2.976691640332562727e-02
2.157278155090731619e-01
3.544626512006555097e-01
3.802729473796094273e-01
3.176959504152709890e-01
1.673143613664586082e-01
-7.017678585047354423e-02
-3.259537527467655793e-01
-4.612620904866683857e-01
-3.758082734682364201e-01
-1.162492057449994176e-01
1.560488457167543697e-01
3.114467216298730246e-01
3.393655750436793683e-01
2.868830665807523550e-01
1.599687750372201511e-01
-6.674600993008968086e-02
-3.550625391495867422e-01
-5.691473484917136672e-01
-5.720090753638639169e-01
-3.579823679163857686e-01
-6.954237189641113148e-02
1.261626070842876979e-01
1.604501269316949419e-01
6.236125873754064242e-02
-1.174226147926454439e-01
-3.416021540142198942e-01
-5.647110936274347681e-01
-7.126690147085701366e-01
-7.049969353702745245e-01
-5.199830371910988402e-01
-2.388320233657154068e-01
3.081983170514411563e-03
1.188532482266042301e-01
1.107950826086568918e-01
1.810178508080486845e-02
-1.380264997790984216e-01
-3.363086745241364861e-01
-5.083069906346090461e-01
-5.594852370718863543e-01
-4.583110317514536569e-01
-2.593800579620514357e-01
1.225214796581826707e-02
4.269968866379106331e-01
9.636746321489593203e-01
1.325969839595127819e+00
1.187346112448403268e+00
6.161776026814009821e-01
3.857133376224469723e-02
-2.015200688003556673e-01
-8.752593272784056633e-02
1.799085498137259209e-01
3.877614996573116035e-01
4.410259256415565154e-01
3.759901919400457926e-01
2.700199012915033836e-01
1.493236428834690543e-01
-8.013075346328772663e-03
-1.912003523391876125e-01
-3.092546525264258106e-01
-2.562452093619249083e-01
-2.760864791072267788e-02
2.524181507286401560e-01
4.339313644464495856e-01
4.607433960436448928e-01
3.743226788669059557e-01
2.229292226445488412e-01
1.541944935827858389e-02
-2.226778797118629805e-01
-3.913070675047637947e-01
-3.730370531362711128e-01
-1.661081232719199829e-01
8.455314194508632697e-02
2.365312282384462450e-01
2.966588152008796109e-01
3.502678633149365339e-01
3.790707672125060990e-01
2.608532085063506867e-01
-3.684586455624989931e-02
-3.522928522217431135e-01
-4.710048252809920788e-01
-3.445974633880071747e-01
-1.204334324412182355e-01
3.305111832829984997e-02
6.677510745601762665e-02
1.919024198357255351e-02
-8.263707669437064807e-02
-2.508576746736156382e-01
-4.829872143154655406e-01
-7.076685877669737224e-01
-8.059097033016782152e-01
-7.050902229388379405e-01
-4.565088236229472574e-01
-2.010589573124545726e-01
-4.280660812195920956e-02
1.874546428802810125e-02
1.318171245108603132e-02
-8.040821619488777716e-02
-2.767912728501021324e-01
-5.031138498738975118e-01
-6.442762649956359500e-01
-6.373776072745082066e-01
-4.608709386957106080e-01
-6.738196628612275196e-02
5.254612136352206919e-01
1.047965828425954538e+00
1.128030545802039875e+00
7.358338147065959234e-01
2.278035277033146899e-01
-9.173951514796656326e-02
-1.920026011340714989e-01
-1.445006629578571566e-01
5.303782128561647380e-03
1.921803593344967309e-01
3.197384811390334702e-01
3.419380190726362123e-01
2.935476034502930709e-01
2.121209680565152023e-01
7.917681369218534937e-02
-1.269236415188141343e-01
-3.432153544448667826e-01
-4.245483212826581809e-01
-2.687519805214165225e-01
5.014123144465553600e-02
3.173974382776488246e-01
3.803677307916559780e-01
2.814959321532196079e-01
1.643063689958515483e-01
9.393995593761474139e-02
1.191870501204286836e-02
-1.439622358791386447e-01
-3.068966247025035066e-01
-3.155080437166452034e-01
-9.991159432407914487e-02
2.191938733599049505e-01
4.435067087070576619e-01
4.667619238229953060e-01
3.192472984717220630e-01
8.531957524567843065e-02
-1.784451668113393175e-01
-4.275468298042772730e-01
-5.728123751342499848e-01
-5.118314032557259585e-01
-2.476775189715342829e-01
6.067172320497025984e-02
2.211335997613438908e-01
1.804152912504520812e-01
2.820847059307990054e-02
-1.520900916016067472e-01
-3.574680688125193573e-01
-5.789936496277783284e-01
-7.201165761354544337e-01
-6.653061609481566441e-01
-4.172233706170961343e-01
-1.172261823500776873e-01
8.064125004503168437e-02
1.309128107716578671e-01
8.905852575805417448e-02
1.371833363545582954e-02
-9.781029251349024345e-02
-2.820987109127206516e-01
-5.169378519371941039e-01
-6.368322409588186295e-01
-3.941498283312991346e-01
2.643572810512945792e-01
9.861913603749101753e-01
1.283624795736056701e+00
1.058756315387084701e+00
6.373638399178710445e-01
2.967536508493928693e-01
3.457572399761758841e-02
-2.128964731067372884e-01
-3.769862548704154270e-01
-3.441124568797646610e-01
-1.284133532399332478e-01
1.207635816470556261e-01
2.687451047156583783e-01
2.955729340405784389e-01
2.417969800215522547e-01
1.181446330211580742e-01
-8.060827128453232349e-02
-2.946127739016329294e-01
-3.942456307110585589e-01
-2.917960410453809272e-01
-4.221381060551227665e-02
2.026909431543683637e-01
3.361358998137908838e-01
3.590493137324931028e-01
3.130085678084731926e-01
2.024729627742569149e-01
7.565514222353022025e-03
-2.422378555991046012e-01
-4.324136545556254707e-01
-4.271226481503012096e-01
-1.956159868552057313e-01
1.282405078090071704e-01
3.466605980713020618e-01
3.661579072555898873e-01
2.431097477363037274e-01
7.357813398976320585e-02
-1.080368889525511328e-01
-3.048127584569144677e-01
-4.844902487528032209e-01
-5.690272648736729444e-01
-4.882883554355384459e-01
-2.535253352771106861e-01
1.092254576853740611e-02
1.508969122193664913e-01
1.184274916457913884e-01
-1.343311896933754336e-02
-1.659472370777561601e-01
-3.246349154036300977e-01
-4.797967968027080921e-01
-5.549187075352411957e-01
-4.583788606542541499e-01
-2.064458835105578982e-01
5.687615464531292631e-02
1.908957520680159836e-01
1.826580977516372994e-01
1.069984556577528584e-01
-1.010666495241246618e-02
-2.142194092197192978e-01
-4.676876271325622891e-01
-5.279855843535314897e-01
-1.360547928737754209e-01
6.056117438990354929e-01
1.220645052103632278e+00
1.348036670808799853e+00
1.075377887158679879e+00
7.062259548247251661e-01
3.981670959405950727e-01
1.239585128987724244e-01
-1.510999665802206793e-01
-3.587977323327558588e-01
-3.757329490860440990e-01
-1.580925042403616143e-01
1.726448115981463194e-01
4.078226996831579299e-01
4.304036581363270275e-01
2.841821586098698393e-01
7.261782356110745018e-02
-1.390252997912508615e-01
-3.039504908864527066e-01
-3.608941519363486061e-01
-2.800009498402347696e-01
-1.058263984625808646e-01
8.343333560001781057e-02
2.409644197399174181e-01
3.495891020678444927e-01
3.679884960084941481e-01
2.321414006024377086e-01
-4.987248988083046314e-02
-3.419455342638600959e-01
-4.755248941425791465e-01
-3.877238376069207515e-01
-1.443298033564390792e-01
1.297529888793618746e-01
3.218584295192944977e-01
3.885693201763034121e-01
3.659257519190004526e-01
2.919479103087260219e-01
1.427443133892130900e-01
-1.080402353681228778e-01
-4.002857991814101624e-01
-5.929193923392493959e-01
-5.496150071398447912e-01
-2.591657901703776079e-01
1.019895497027670656e-01
3.015777799717231367e-01
2.765653721330776360e-01
1.430604013064263602e-01
-1.554715400965081887e-02
-2.323685833461457406e-01
-5.007002648397438360e-01
-6.683586404359693756e-01
-5.669432608155180464e-01
-2.056951739204646856e-01
2.067209135122305974e-01
4.406554869414474607e-01
4.354722047542689545e-01
2.855063372802500443e-01
6.842947258543374822e-02
-1.963773487607366197e-01
-3.964686232276696809e-01
-2.970092357473303468e-01
2.029748758700713196e-01
8.664680037155747527e-01
1.294690952884676616e+00
1.274859995513858646e+00
9.189873746988241887e-01
5.108556611372737644e-01
2.244450605202290838e-01
3.873826887702055445e-03
-2.539625300202301150e-01
-4.829077785962886393e-01
-5.074119969781125672e-01
-2.756205637759306937e-01
5.941470558091289933e-02
2.980953667213295244e-01
3.712517507102171543e-01
3.360568764276459230e-01
2.483727638252734848e-01
9.555475035924812510e-02
-1.423350088264939139e-01
-3.983797485942986438e-01
-5.222344323009997513e-01
-4.054353414162564784e-01
-1.017952879331795041e-01
2.081214526254735742e-01
3.791536138905970410e-01
3.962464405102544829e-01
3.101944365819474525e-01
1.458901913127029215e-01
-8.143536823230242139e-02
-3.014115467805841830e-01
-4.038221243789501536e-01
-3.269448527701980800e-01
-1.117547995340380101e-01
1.279111089396318401e-01
2.818363435772707759e-01
3.081049400471141397e-01
2.355556752344210303e-01
9.881856493152231524e-02
-1.081199487978597856e-01
-3.813613943342589740e-01
-6.273186215123366383e-01
-6.904445614760141847e-01
-4.967841231691569881e-01
-1.547301947617440165e-01
1.253688821366419348e-01
2.159521197534665093e-01
1.503299479224151636e-01
2.268714433490203602e-02
-1.361838357906783592e-01
-3.416206673198083354e-01
-5.419872229405461317e-01
-6.007084506767541576e-01
-4.313418603799046847e-01
-1.141501411723623016e-01
1.658070902033794980e-01
2.755463832049141470e-01
1.938680759779020102e-01
-2.365320266375112168e-02
-2.327413864180908898e-01
-2.103076379943026875e-01
1.406448978414844564e-01
6.060868983436977775e-01
8.534441189389505578e-01
7.911986566659169329e-01
6.091484995564677707e-01
5.079623634446396307e-01
4.955346533337446346e-01
4.386853980839463540e-01
2.403330089086522792e-01
-6.607013065667841079e-02
-3.513473170811057811e-01
-4.776392891035793897e-01
-3.840595854260200337e-01
-1.306858116897125222e-01
1.406874155613404564e-01
3.060202575756214016e-01
3.336296538396598121e-01
2.661878936082683889e-01
1.400289049587659651e-01
-4.476917542432208574e-02
-2.617615927161703882e-01
-4.114913890231018390e-01
-3.837318282069855924e-01
-1.517875607343086020e-01
2.062349222836457885e-01
5.316864270572140283e-01
6.466505392635502059e-01
4.918286727898260047e-01
1.928971563332713690e-01
-8.582430166296645124e-02
-2.949230977029698719e-01
-4.458850402917967082e-01
-4.986760059098536146e-01
-3.969056745927462826e-01
-1.752921413655216254e-01
4.364036311044870720e-02
1.581911092792847029e-01
1.451414345056577238e-01
1.683412337619794377e-02
-2.166211887541734382e-01
-5.151043234685417360e-01
-7.711232985906829596e-01
-8.533563613740207110e-01
-7.137344359523165593e-01
-4.394534824420602837e-01
-1.817730762648737119e-01
-4.271660040432161132e-02
-3.494498099823022119e-02
-1.257858120135871838e-01
-2.894140112603839077e-01
-5.026270615604945258e-01
-7.008228280779394970e-01
-7.729158514666927271e-01
-6.392228270767368326e-01
-3.478358581871717758e-01
-6.770409942209566767e-02
4.716372803668950758e-02
2.043620795552897329e-03
-2.503230025510922580e-02
1.437659100757547048e-01
4.442208400004337698e-01
5.866675918856484317e-01
4.234202623860441883e-01
1.659069536088222940e-01
1.010634647998550906e-01
2.446283492913914615e-01
3.956946687565952026e-01
4.034482097614028318e-01
2.724456315372366100e-01
7.072617485087914768e-02
-1.624866323168402127e-01
-3.954224352176804458e-01
-5.479649372784954897e-01
-5.243094243378049191e-01
-3.137276343528948575e-01
-2.502284186466554455e-02
1.998348928680602210e-01
2.967094252524625775e-01
2.937187078566075860e-01
2.261058448085809525e-01
7.874262024794062564e-02
-1.529310123909909391e-01
-3.786141731344684902e-01
-4.520868121247915705e-01
-3.077588654693192427e-01
-3.371575141257509428e-02
2.092111368246807601e-01
3.340687457438921149e-01
3.685618650901862359e-01
3.493510083932485633e-01
2.273178113321617233e-01
-6.219551829506980017e-02
-4.363655973549895317e-01
-6.571827274706065758e-01
-5.588653151971046951e-01
-2.266845629756915337e-01
1.107396471653319114e-01
2.893300537884677670e-01
2.749582244208199078e-01
1.202725340697184953e-01
-9.928501832904811086e-02
-3.347610663868287317e-01
-5.460374687066460453e-01
-6.555242207852758352e-01
-5.862288739946845961e-01
-3.531591444436222305e-01
-6.864771636939520638e-02
1.441766019028154766e-01
2.208024298306601740e-01
1.590819056089886885e-01
-1.371835589270106043e-02
-2.547685545176658906e-01
-4.796915694127923402e-01
-5.692178796800734242e-01
-4.639321245595712240e-01
-2.442346879519809166e-01
-6.315274748328389420e-02
1.862069129591099187e-02
1.188602866384708273e-01
4.171803130303218810e-01
8.888978450272805309e-01
1.204798983260221945e+00
1.053678437050597605e+00
5.417061397122684419e-01
1.029073191733555909e-01
3.677466066986390114e-02
2.665783258297618197e-01
5.159313098918406615e-01
5.957901412197736946e-01
5.038249125859647348e-01
3.258891979526096772e-01
1.086619671008011989e-01
-1.392066464750009169e-01
-3.422579119395624536e-01
-3.528159903706911127e-01
-1.137741652398711611e-01
2.324282047659513295e-01
4.672437897448540323e-01
5.026018920333368278e-01
4.194283732503223394e-01
3.203783991686261490e-01
2.015637468898794915e-01
1.001330659923634937e-02
-2.076579540092026721e-01
-3.067040400000870526e-01
-2.129579886192938531e-01
-1.384706969353023676e-02
1.551289973083573026e-01
2.572395113393986521e-01
3.410616668026199561e-01
4.195390607829059815e-01
4.187297405879253365e-01
2.558439530684042951e-01
-4.027851532569744208e-02
-3.057568434939986757e-01
-3.697137891447776492e-01
-2.055181365916930458e-01
5.744676028823476888e-02
2.551771967439117050e-01
3.091898281126895243e-01
2.414422587984554058e-01
1.047405841829235074e-01
-7.277768211334874338e-02
-2.821274571627698791e-01
-4.836404540796122031e-01
-5.685441113716228623e-01
-4.286302404052302895e-01
-1.063588891126314578e-01
1.913314652129937676e-01
2.880861949524660681e-01
1.962735531350039975e-01
4.006171547348127970e-02
-1.145963145607344774e-01
-2.828409847610091066e-01
-4.485014000150635005e-01
-5.228466330798717809e-01
-4.441131915482952053e-01
-2.478795225257240942e-01
2.728376629501653300e-02
4.341010965896583418e-01
9.716925109279918038e-01
1.386185218090732807e+00
1.327785815507125822e+00
7.522539780010157884e-01
2.772116232460514196e-02
-4.013862624127653156e-01
-3.903732337248446704e-01
-1.294474208042754038e-01
1.108936663240322196e-01
2.077175028686664426e-01
1.991145103516414883e-01
1.531375211155105720e-01
7.202424214416992820e-02
-7.755920585857591087e-02
-2.775763176471863769e-01
-4.286770393983885263e-01
-4.137393515697539992e-01
-2.028582300335169397e-01
1.021903799424747072e-01
3.425807941176770011e-01
4.261653501402143940e-01
3.722447756620833048e-01
2.436323388130731959e-01
6.673184076782866236e-02
-1.504991949507126225e-01
-3.412747046490048342e-01
-3.870944541962519914e-01
-2.339874470319932565e-01
3.212996284050325529e-02
2.564427472169207300e-01
3.435758804058905436e-01
2.956760024133548992e-01
1.517074775380894136e-01
-5.192650370593897974e-02
-2.455222245839054629e-01
-3.223142640753918764e-01
-2.348151370891994050e-01
-5.629474256133194104e-02
9.086915441262825854e-02
1.177968219498879698e-01
-7.382654216320425761e-03
-2.194614063029849682e-01
-3.712685708686009889e-01
-3.988989267984829334e-01
-4.122316150389176426e-01
-5.169323349255648958e-01
-6.288332312001753133e-01
-5.771665077788177278e-01
-3.381747590830026517e-01
-6.563238486482922407e-02
9.202678072465389492e-02
1.174238476885846871e-01
5.599260689329992047e-02
-9.176711663422866538e-02
-3.387050390532778121e-01
-6.142501939924912557e-01
-7.823998194605105150e-01
-7.311959166054002868e-01
-3.927718483361768431e-01
2.252016809331309488e-01
9.205164326872179448e-01
1.333490116037393314e+00
1.258260960862462419e+00
8.270101512334611105e-01
3.083967621422733507e-01
-1.310105901236659764e-01
-4.166783775504221410e-01
-4.811696398404068375e-01
-2.978198991155026065e-01
2.907517246453466056e-02
2.889619277095430983e-01
3.371500820294487388e-01
2.157713215105616922e-01
5.806175039231607771e-02
-8.253051889151961917e-02
-2.354484310118409307e-01
-3.840288894640586093e-01
-4.320260076989144715e-01
-3.086170092470950643e-01
-5.647970439254901970e-02
1.921600116247417778e-01
3.146264900032488265e-01
2.794049843286391388e-01
1.406953210443823987e-01
-3.848558206583540392e-02
-2.401478495424951842e-01
-4.432602537464715997e-01
-5.489978045996883882e-01
-4.401182183895494537e-01
-1.337975801715647617e-01
1.922560633034130217e-01
3.531921450842827048e-01
3.065956920588475132e-01
1.404948277639005150e-01
-5.479079281305344884e-02
-2.581344744006823233e-01
-4.583325723799172580e-01
-5.861509748793658492e-01
-5.619457521072772632e-01
-3.922862218303352910e-01
-1.760061192833657917e-01
-1.842777554239331469e-02
3.769090983736200773e-02
3.619522480559210498e-03
-1.028116766171967705e-01
-2.690708925505668203e-01
-4.551896432837554962e-01
-5.802555822375857764e-01
-5.622953010182182298e-01
-3.812183139763200002e-01
-1.138772958985086459e-01
1.056338286120059727e-01
1.914049127963504404e-01
1.685548134011266852e-01
1.040239520915784005e-01
-6.817078194284453829e-03
-2.201180890663242129e-01
-4.740882497863079248e-01
-5.014176978517999039e-01
-6.068049919630799649e-02
6.946413962668613884e-01
1.258993026176872920e+00
1.298986761117091993e+00
9.544946356291980072e-01
5.500951450478583915e-01
2.407448146048366544e-01
1.391842718398359283e-02
-1.532608097036593231e-01
-2.320256054265473211e-01
-1.762607286586305999e-01
9.266089899089963861e-03
2.307451334196408965e-01
3.665294204024212021e-01
3.753770365456753355e-01
3.033523108708877647e-01
1.875876995976409334e-01
1.511037296351853791e-02
-2.028895365732772127e-01
-3.670300544326012826e-01
-3.542037054382308758e-01
-1.491957641609202578e-01
1.241888703252494314e-01
3.210785608172084804e-01
3.917405293827657120e-01
3.578041878978462931e-01
2.255248880084070595e-01
-1.118757647398626286e-02
-2.922070068920397112e-01
-4.733650389072598941e-01
-4.211469481652191371e-01
-1.363108727036952406e-01
2.173587992502432065e-01
4.349261747352852758e-01
4.424436149487338543e-01
3.246360867757380753e-01
1.765029809997310795e-01
-9.658698768797295206e-03
-2.663163494742629700e-01
-5.136813519753882229e-01
-5.931234086523803350e-01
-4.594461657592635029e-01
-2.576303614438286704e-01
-1.400120974480061342e-01
-8.494849604870571835e-02
3.043905351385090691e-03
9.385690430401051609e-02
5.592715565382302273e-02
-1.632765208063321205e-01
-4.539457904074550298e-01
-6.185131731418543888e-01
-5.253155437305595532e-01
-2.242941411525942175e-01
9.508610311741869103e-02
2.748466231235062729e-01
2.935613849400977027e-01
1.984086192796510051e-01
2.534325267187782782e-03
-2.634442212283330531e-01
-4.121004130676024779e-01
-1.728389060546459965e-01
4.595299948131989498e-01
1.074428664463884076e+00
1.253834920774183903e+00
1.038093030057999577e+00
7.789937084507045917e-01
6.477195035318846772e-01
5.112337466864810276e-01
2.275243971801440002e-01
-1.259337651567826455e-01
-3.359478259527804433e-01
-2.790522465647872208e-01
-3.350889138043163656e-02
2.062844788213888392e-01
3.075436273264445242e-01
2.943327370122832964e-01
2.678920444162567471e-01
2.445191619748788570e-01
1.225907459575527603e-01
-1.544443756949534508e-01
-4.506270180565226102e-01
-5.260597065433679775e-01
-2.788415678780644669e-01
1.338813393374833627e-01
4.297074361243315987e-01
4.549274162446644842e-01
2.890227770373181015e-01
9.497788174342126910e-02
-6.829907474702116843e-02
-2.307096548403357594e-01
-3.708821158089521952e-01
-3.850686080124944288e-01
-2.019414884466415316e-01
1.106406872502145311e-01
3.771603785872871262e-01
4.682533008470005642e-01
4.087135785017990131e-01
3.025389474873731999e-01
1.786958120074018941e-01
-2.312833562260213985e-02
-3.091258081054558127e-01
-5.488595403069811418e-01
-5.903965332635682239e-01
-4.201781203840127543e-01
-1.618000952793539338e-01
4.724096563202401927e-02
1.329335747161568826e-01
8.048201628091941617e-02
-8.415812360732180530e-02
-3.049594539761748546e-01
-5.060022306820726179e-01
-5.953686576873723491e-01
-4.969137618625875108e-01
-2.330776211934146303e-01
5.061465033876704628e-02
2.151790507941992170e-01
2.575691002345256164e-01
2.388292341451931922e-01
1.486868681440033924e-01
-2.107817833853840861e-02
-1.178180237614914472e-01
7.034700952872360857e-02
5.311492598743247084e-01
9.798204706778710360e-01
1.130104777401436777e+00
9.489268687344427633e-01
6.327044060271311832e-01
3.764104929825591861e-01
1.979286258278973587e-01
-1.149628570608871025e-02
-3.047007754253822642e-01
-5.865184867900767873e-01
-6.967964172444842674e-01
-5.630075070366591383e-01
-2.733701317749818727e-01
-4.787020545853754028e-03
1.249230212938503698e-01
1.235632958712197804e-01
4.691635265551449829e-02
-9.901397276479462217e-02
-3.344279996539725186e-01
-5.962124488449848103e-01
-7.130147005383536962e-01
-5.509316008020406219e-01
-1.861449689830529941e-01
1.311053893160222250e-01
2.221688617204579663e-01
1.365826567824731663e-01
2.571724577614254575e-02
-6.327767240583825892e-02
-1.941441802695720031e-01
-3.906724268912763476e-01
-5.549855721839119793e-01
-5.467405715068506256e-01
-3.314470477718878261e-01
-3.561768591737959899e-02
1.655263503720271201e-01
2.002369453955008538e-01
1.131053969752999211e-01
-4.181150589858501077e-02
-2.563623698141633267e-01
-5.063139488659520460e-01
-6.890097500363678851e-01
-6.807523263448970186e-01
-4.620035757362330742e-01
-1.540239026427226154e-01
8.228036576909686373e-02
1.680946236300900620e-01
1.209173878117265066e-01
-1.998484780637935221e-02
-2.328823887688135086e-01
-4.753518422265764487e-01
-6.557061429885489012e-01
-6.751033882907087058e-01
-5.005744731922497914e-01
-2.084295287894946669e-01
4.308337200016629231e-02
1.216259516826463105e-01
4.216713013897900597e-02
-1.686081910220592339e-02
1.266549311647720000e-01
4.334327373789116922e-01
6.498023035478610598e-01
6.106780276450258782e-01
4.265795448049121696e-01
3.047832509021398684e-01
3.143651911559444123e-01
3.795855064553979030e-01
4.011516436581779033e-01
3.224943714853592547e-01
1.251334412525282047e-01
-1.559757076110629415e-01
-4.067377426114604511e-01
-4.936877312357948466e-01
-3.687484714664383545e-01
-1.000078834290258206e-01
1.781481905277579048e-01
3.474489007826674913e-01
3.778736401551528457e-01
3.186703924093754470e-01
2.091884966321517492e-01
3.661890451388186141e-02
-1.915441501856982864e-01
-3.744285952254248206e-01
-3.768058652030023548e-01
-1.719972654030077763e-01
1.090939381559869470e-01
2.986302382668774569e-01
3.479041161209268096e-01
3.303116691704955366e-01
2.923626869529972194e-01
1.722365401897646420e-01
-7.908560954778032226e-02
-3.576218127593494001e-01
-4.744464190586133445e-01
-3.479737149189500167e-01
-7.834731421934193474e-02
1.601240616661161187e-01
2.656771267936333669e-01
2.436208958356876342e-01
1.322049132114292702e-01
-5.410389152208693042e-02
-2.950086819086646939e-01
-5.135417572863062441e-01
-5.920892230558975067e-01
-4.598726421049035284e-01
-1.741851363114047535e-01
1.055840481382752938e-01
2.502083298358696029e-01
2.459712253017692918e-01
1.416306286110851631e-01
-1.980173064484017781e-02
-1.849304936989049630e-01
-2.842963282055790963e-01
-2.821311645177201344e-01
-1.883285025998674145e-01
-4.396207168444594970e-02
7.381544734212897030e-02
1.266454204824703778e-01
2.310790815333191583e-01
5.409636216454585256e-01
9.351625297620214106e-01
1.033520768465052253e+00
6.734326921162507862e-01
1.632848445775534063e-01
-7.871166047883240702e-02
4.535814660579488150e-02
3.180686792257063078e-01
4.869354288739013992e-01
4.702448226087914684e-01
3.426855309057583177e-01
1.874807691142767463e-01
9.191975391328092992e-03
-2.081317552412420280e-01
-4.006104162848554417e-01
-4.358659537184154664e-01
-2.490455449324025516e-01
6.102223601280316184e-02
3.130810304052423221e-01
4.113037884910317188e-01
3.893717724149156623e-01
2.990175771316685993e-01
1.326495971494105197e-01
-1.089139757764931299e-01
-3.357751444776591598e-01
-4.216796296731201710e-01
-3.229951123992303441e-01
-1.088105817126304581e-01
1.127186259954782444e-01
2.696762349505166800e-01
3.373799126619765887e-01
3.025701118016455582e-01
1.457271119878179866e-01
-1.206517439253506074e-01
-4.059831550710022441e-01
-5.641183644206491099e-01
-4.914533996360996859e-01
-2.254928485606318977e-01
6.164842386050078948e-02
2.007105374580442358e-01
1.582849636522310477e-01
1.502218371496337988e-02
-1.588552872310783071e-01
-3.542324915252872963e-01
-5.548872566058258293e-01
-6.782177190236102771e-01
-6.295391941777617184e-01
-4.061589174575013783e-01
-1.145003292406272799e-01
1.176693208279875613e-01
2.252830325212001883e-01
2.070683980437941774e-01
8.020801314390527126e-02
-1.281170861460716182e-01
-3.451340048149141859e-01
-4.594132867128790654e-01
-4.141341798673381924e-01
-2.685241329587252368e-01
-9.029380859202820742e-02
1.901126111415891162e-01
6.615589552222490566e-01
1.135840003807218501e+00
1.213801724077207433e+00
7.772947112450332430e-01
1.759853331907598739e-01
-1.812426786998712902e-01
-1.969508338831447714e-01
-1.845609773478731203e-02
1.816026481051302155e-01
3.062724145656176011e-01
3.369272566758049203e-01
3.047331058489197164e-01
2.408198356839831578e-01
1.313310800912402820e-01
-5.814515030803374396e-02
-2.923714895413462855e-01
-4.344021962641471113e-01
-3.562813558210990439e-01
-8.175078185927699137e-02
2.192856580965593383e-01
3.865849650133358906e-01
3.895596567311443992e-01
2.875645561829884289e-01
1.281914872545262263e-01
-6.943478664711505433e-02
-2.620229220213477483e-01
-3.642405925195172367e-01
-3.026206050909679979e-01
-8.829462874778686021e-02
1.769509179826903034e-01
3.745041259621739727e-01
4.389344673197809743e-01
3.639026511480701886e-01
1.735465641661524394e-01
-8.795790622495748556e-02
-3.441217776433332931e-01
-4.908214427426104143e-01
-4.470071651243101019e-01
-2.291761746145423995e-01
2.396446581476616849e-02
1.480911718912195918e-01
1.110844458484846059e-01
2.391978719258185809e-02
-4.574482393663831942e-02
-1.758134519310702026e-01
-4.269326551831376104e-01
-6.735734310620670184e-01
-7.027300369184098505e-01
-4.435917303512130205e-01
-4.713833724467006436e-02
2.462918226828043622e-01
3.133692561017056843e-01
2.275266508091768336e-01
1.260982485892253868e-01
3.512068254798323547e-02
-1.231569011931991364e-01
-3.692418569626162439e-01
-5.668043552333547064e-01
-4.893088555853420951e-01
4.080777354159084713e-03
7.682160044738609583e-01
1.348357480456121804e+00
1.355728551305008356e+00
8.953962251271030404e-01
4.016501520978346118e-01
1.069942865983030261e-01
-6.663204587748593200e-02
-1.937103631692072003e-01
-2.006515713047191674e-01
-3.226838122128299069e-02
2.015520789912823296e-01
3.180346055010355721e-01
2.602756627574778769e-01
1.321782155823502392e-01
2.813497669633121395e-02
-8.715449988444737284e-02
-2.730498193335781365e-01
-4.576287199524113336e-01
-4.779698162494810387e-01
-2.696182467238605884e-01
3.994310003495230021e-02
2.581830955955244367e-01
3.224955373698608074e-01
3.078689425523352674e-01
2.543977887247845238e-01
9.739233749572193122e-02
-1.884272933117462356e-01
-4.661323813572640362e-01
-5.375740204406403988e-01
-3.506398620709271219e-01
-5.892971409803104965e-02
1.371772874255076657e-01
1.742056867818851384e-01
1.193672317559154594e-01
2.865806614766745405e-02
-1.082439666362431940e-01
-2.904959732935419869e-01
-4.527326707346558399e-01
-5.145181764736677099e-01
-4.472883350076502507e-01
-2.864057699830742654e-01
-1.043639366079078812e-01
2.705866958381146145e-02
6.718565178487789780e-02
8.622748388156919325e-03
-1.430643524695297264e-01
-3.717626383294089787e-01
-6.136319851695264393e-01
-7.409455216736892114e-01
-6.467327396912098125e-01
-3.669281246394165974e-01
-7.050150600496837838e-02
9.869517169961106173e-02
1.341189894438132302e-01
1.001484714946785926e-01
1.329667284815941319e-03
-2.146945672251397708e-01
-5.039122652087235643e-01
-6.267387646321255223e-01
-3.144465529227785661e-01
3.835960800906443868e-01
1.017009088440986586e+00
1.167721690673419799e+00
8.945662712297050012e-01
5.672838247079530216e-01
3.696040034406407049e-01
1.835360823305422495e-01
-1.039711264516654382e-01
-3.861616884485676304e-01
-4.652701479358412051e-01
-2.895729082850336811e-01
3.524357395412798521e-03
2.372431622301256204e-01
3.332252158898116323e-01
3.126902917575942742e-01
2.109476511961779488e-01
3.481603678494618603e-02
-1.897940658800089664e-01
-3.726454389465267969e-01
-4.082903920860498914e-01
-2.696517276350893777e-01
-3.184314525919826333e-02
1.909585735953725771e-01
3.207201366758695160e-01
3.404734787188123391e-01
2.637143416864373702e-01
9.877620466174785729e-02
-1.358832874797668289e-01
-3.639449969464964574e-01
-4.563848504563783326e-01
-3.312570020673664684e-01
-5.507349149678410216e-02
1.971904702613831994e-01
3.047674610720030874e-01
2.918633712831120164e-01
2.384083802925306694e-01
1.483381497631490187e-01
-3.542313213158398283e-02
-2.980515541330100437e-01
-5.021091058296678344e-01
-5.065821876641977139e-01
-3.155976981543733295e-01
-7.658554366207870334e-02
6.630470578718782038e-02
8.721148437118451946e-02
4.063817482877071091e-02
-4.864867327636156896e-02
-2.039484025346718077e-01
-4.092182130226025838e-01
-5.647102113761464093e-01
-5.595309240990999911e-01
-3.683429627166818765e-01
-8.109681572883788159e-02
1.505827834490933992e-01
2.292334104348346391e-01
1.813548102987895816e-01
8.110936328475462642e-02
-4.062983629095851673e-02
-1.281446878530669020e-01
-4.864169189449873976e-02
2.329704003000940826e-01
5.394002966339576099e-01
6.897459592025003694e-01
6.875342094697117767e-01
6.215154119565632351e-01
5.283279960290064858e-01
3.872048002140248135e-01
1.708514690699453609e-01
-9.694405988685055042e-02
-3.239978823727912016e-01
-4.022996640650470246e-01
-2.777648232037839282e-01
6.245801602618290815e-03
3.093768009186941836e-01
4.754708142861696074e-01
4.549479075011206852e-01
3.183773781676443870e-01
1.394361376925676022e-01
-6.818582754829818904e-02
-2.813209818433783926e-01
-4.076794725826497490e-01
-3.483947766571589000e-01
-1.128909577591355462e-01
1.667525475146982850e-01
3.520098090269835334e-01
3.982499727259100064e-01
3.313105898695131168e-01
1.769756989763828225e-01
-4.353561654449033397e-02
-2.674195592085684137e-01
-3.914204410116491339e-01
-3.519610628802313235e-01
-1.868626949166751761e-01
6.772966011466201308e-03
1.508842270275681519e-01
2.171049806460036702e-01
2.221185777399491412e-01
1.872602164149640702e-01
8.022230072771059650e-02
-1.492006006007872976e-01
-4.403892908477166634e-01
-6.095025428005483858e-01
-5.297069998581218631e-01
-2.689989053734741509e-01
-8.755702886783123251e-03
1.240810062354872484e-01
1.191478307921765428e-01
2.510374645142627453e-02
-1.242383859036263333e-01
-3.171764852388119782e-01
-5.122385810575715848e-01
-6.096051833326667779e-01
-5.103101980440042373e-01
-2.235341191970016128e-01
9.923844469377673949e-02
2.681848722511647742e-01
2.144056971107769771e-01
6.654160898899660892e-02
5.917037002369256171e-02
2.828854014189240429e-01
5.250833879314497077e-01
5.144920120750833270e-01
3.027872627956669782e-01
1.769746864368520745e-01
2.500187503407254042e-01
3.817621173234611032e-01
4.295230814026694821e-01
3.701640246862606953e-01
2.159014595540219850e-01
-3.809577639914837888e-02
-3.405715644287912180e-01
-5.373290872291947018e-01
-4.887722081375908134e-01
-2.233881157992086974e-01
8.530107164348865734e-02
2.824390662763814897e-01
3.377801031350060046e-01
3.081369845663742280e-01
2.309596445219637417e-01
8.219485590001707198e-02
-1.465021632619912528e-01
-3.623612874410538365e-01
-4.187509356812839645e-01
-2.555503947621857730e-01
2.878830810469311385e-02
2.542197067690044610e-01
3.189975052957557677e-01
2.715606581680177767e-01
1.949327305782215247e-01
6.966545198982912468e-02
-1.639528731866716216e-01
-4.450851347266214231e-01
-5.963518011290550591e-01
-4.911508746719845941e-01
-1.690985633479750172e-01
1.963043129331007997e-01
4.135633656233709265e-01
3.865343804100421221e-01
1.563977623809278406e-01
-1.505604944573135096e-01
-4.080338072018175333e-01
-5.384287771142969303e-01
-5.263004615110649098e-01
-4.110511925658686394e-01
-2.499455195459713841e-01
-7.343297911743507100e-02
1.146325147692792423e-01
2.808264956257677247e-01
3.296337780786362526e-01
1.858172050450370150e-01
-8.566452891916620516e-02
-3.167597854192295559e-01
-4.103125411886093254e-01
-3.916126395750559319e-01
-2.889409538688167411e-01
-1.118282781795385816e-01
5.058630313732331851e-02
1.337047641117596608e-01
2.934269774062590042e-01
6.866456200815573840e-01
1.069670715198197897e+00
1.001003110983438971e+00
4.732795666910744048e-01
-4.384281623116381699e-03
-1.457459157885278127e-02
3.192894903754209812e-01
5.721725671351771680e-01
5.414799950880803125e-01
3.693208017884304084e-01
2.214930629502091242e-01
7.812868549547476171e-02
-1.277039266243590876e-01
-3.430409437283055141e-01
-4.297382170293020387e-01
-2.957327234323255949e-01
1.530874871567837470e-02
3.380202282480100351e-01
5.108741261119544852e-01
4.960067432956749567e-01
3.616733440376446174e-01
1.806104587121866167e-01
-8.223887037812259437e-03
-1.590932895544030501e-01
-2.082977641083908482e-01
-1.313184070494218814e-01
2.274436235395585482e-02
1.843370922545374824e-01
3.295136084939103704e-01
4.545617676525366968e-01
4.966970333123059134e-01
3.544453859702093590e-01
2.782408541532964755e-02
-3.221270577957546233e-01
-5.030856817296142092e-01
-4.455337119801642820e-01
-2.234075590841478609e-01
1.877294453595254597e-02
1.554560971548733239e-01
1.490249688729604061e-01
4.171799280678351041e-02
-1.201362015855108462e-01
-3.218177449334914675e-01
-5.363399829353932002e-01
-6.860374344419974957e-01
-6.820798095071024525e-01
-5.077534233728446811e-01
-2.526702999092088620e-01
-4.924359106481140252e-02
3.335506594376087819e-02
1.868875585515867438e-02
-5.990856006852152138e-02
-2.299868789661944357e-01
-5.131552167706557865e-01
-7.985082553171084507e-01
-8.757651682009014449e-01
-6.531036022506003791e-01
-2.559921411008875269e-01
1.511998183280188757e-01
5.098058476204356815e-01
7.737663029231446332e-01
8.567722659372558613e-01
7.361346016736997067e-01
4.587695673588096934e-01
8.573093651034570384e-02
-2.466024049451687461e-01
-3.539860223093321823e-01
-1.979108205796836495e-01
6.518277279911721678e-02
2.555849351604279063e-01
3.089062517333533986e-01
2.505562525411422770e-01
1.080336484948129505e-01
-1.074139174881852538e-01
-3.454415590975984385e-01
-4.892595194201808106e-01
-4.259462024817038395e-01
-1.612104270828921548e-01
1.557314501373362747e-01
3.556156388549847058e-01
3.887065660969273861e-01
3.118311669062804881e-01
1.704320223394788780e-01
-3.817077118921547579e-02
-2.865447413839199431e-01
-4.690978855808666803e-01
-4.721145629282911815e-01
-2.797135673892563457e-01
4.902661022537533470e-03
2.375645138140685952e-01
3.299159411573639455e-01
2.828434952341593034e-01
1.443402606610698913e-01
-4.561678132591791279e-02
-2.552431119272291493e-01
-4.208400557949087406e-01
-4.524097514556421062e-01
-3.117253037391474746e-01
-7.304165289734045052e-02
1.237311385789870571e-01
1.941788361307363320e-01
1.649669846188490385e-01
9.100648757097179464e-02
-3.752305269584955971e-02
-2.500340206447582148e-01
-4.897486767111452477e-01
-6.172271698545751528e-01
-5.295511488440215464e-01
-2.647203086934029059e-01
1.826726347258900152e-02
1.724642568204259874e-01
1.722924148124925225e-01
8.762986351525589579e-02
-2.355812483712226013e-02
-1.680675209258642999e-01
-3.660114893926841861e-01
-5.582743159321378323e-01
-5.682559328480952798e-01
-2.010939303952186952e-01
5.196057603020127758e-01
1.223273514180001298e+00
1.470279382020900361e+00
1.188123468478562206e+00
6.736997895387042412e-01
2.093194827837100980e-01
-1.253361342441043358e-01
-3.218237437009444091e-01
-3.398417996367342764e-01
-1.728178880666531025e-01
8.480194492625620084e-02
2.941728696988306635e-01
3.771799269782168951e-01
3.396319908385132535e-01
2.128198131731917631e-01
1.856785788096738249e-02
-1.987131325754903921e-01
-3.465142946117891198e-01
-3.383622040714884260e-01
-1.831473142955474254e-01
2.102940898297239736e-03
9.108668127554307714e-02
7.292448647579145848e-02
5.946354308305881742e-02
1.239868336008019822e-01
1.640787762726384491e-01
2.089998763190578993e-02
-2.740181136002722839e-01
-4.786411077353927568e-01
-3.937451444291895086e-01
-7.129373508404393545e-02
2.499206883659042810e-01
3.738712961169193272e-01
2.916903456001127548e-01
1.217784988850460770e-01
-4.624910849739506669e-02
-2.128826311500630064e-01
-3.916803369730923468e-01
-5.263402566577057851e-01
-5.240254724222916938e-01
-3.619724258947683015e-01
-1.244024184705581904e-01
7.087896422922410067e-02
1.532010367963360653e-01
1.096452991350407302e-01
-4.087980197179883618e-02
-2.589836235702989153e-01
-4.804496022621158047e-01
-6.163951074412914455e-01
-5.818574028649683427e-01
-3.664856952301792647e-01
-8.364371318176826164e-02
1.079568623692884616e-01
1.558187585111966977e-01
1.291348486007526941e-01
6.948629562939043214e-02
-8.025247014332405338e-02
-3.288165742771425037e-01
-4.785395552017049359e-01
-2.590705180371727367e-01
3.115903335078468728e-01
8.432032792033131718e-01
9.954207032733937144e-01
8.374234106463221972e-01
6.351661685221843268e-01
4.630179334728869445e-01
2.149336575906438396e-01
-1.219342399688390643e-01
-3.901743683963899145e-01
-4.316435386172524091e-01
-2.303811275499480782e-01
9.039501730624406595e-02
3.565745963747033453e-01
4.588218264718682549e-01
4.146659515230232129e-01
3.061114959272273062e-01
1.702957835940164533e-01
-8.251647569394853290e-03
-2.046684658719567784e-01
-3.108988716977320599e-01
-2.261525272852861201e-01
1.819882601775696385e-02
2.646818366957155999e-01
3.839723398689042222e-01
3.856193212409139703e-01
3.388847733454061761e-01
2.413744116289983643e-01
4.370558157983182174e-02
-2.186262437062843345e-01
-3.894112544236201234e-01
-3.211947113401306120e-01
-4.274510097132177416e-02
2.297507133338728136e-01
2.927526694707535126e-01
1.636193133310309411e-01
3.151360452435625348e-02
6.128941351444460936e-04
-2.185848029398063802e-02
-1.555923275622711766e-01
-3.634578081614866507e-01
-4.835583842708906510e-01
-3.991338817019407514e-01
-1.512915513748965546e-01
1.065871725046184659e-01
2.483375341825468652e-01
2.537415137906270379e-01
1.635083027312713988e-01
3.531090568799610460e-03
-2.102468091987341192e-01
-4.088726047982633727e-01
-4.713880032241444806e-01
-3.295136798029026926e-01
-5.550316542654346735e-02
1.936526894122715947e-01
3.147352999869691970e-01
2.974571550332213432e-01
1.520406492714700131e-01
-8.864404183614045529e-02
-2.706055778395972666e-01
-1.757241798483441253e-01
2.016334609721904814e-01
5.532510452155016134e-01
5.901899104598191670e-01
3.864514025227038796e-01
2.439877355235145484e-01
2.933791710268158770e-01
3.728377783937393830e-01
2.776550393216352663e-01
-2.678606839535895706e-03
-3.164830044793696118e-01
-5.048396321291116484e-01
-4.830332026234342435e-01
-2.637717879161721735e-01
3.703666595098161624e-02
2.716653509297374813e-01
3.758782108599493244e-01
3.734032653100130550e-01
2.777192015813274018e-01
7.052862955433607250e-02
-2.067333096922907565e-01
-4.087317705678965019e-01
-3.888519642373499119e-01
-1.444304158188249310e-01
1.617512549721531467e-01
3.364607629201882277e-01
3.190965315230378518e-01
2.007178432134527069e-01
8.092511929364068490e-02
-3.940981761074623113e-02
-1.946271715471825647e-01
-3.491026923334813459e-01
-4.097818141831901517e-01
-3.214264204461805274e-01
-1.224280502061149273e-01
8.497458183570975876e-02
2.096973931685199022e-01
2.220772442309244254e-01
1.365473347280009853e-01
-3.414354936787129813e-02
-2.729378812288632550e-01
-5.094373477296411101e-01
-6.255452023159905339e-01
-5.449057746095952171e-01
-3.106664213821115350e-01
-5.952062805142120661e-02
8.829031117325387978e-02
1.141106600598755100e-01
7.060079582363373851e-02
-1.780006445888830668e-02
-1.774396392648435461e-01
-3.946890918638116252e-01
-5.554171899642340593e-01
-5.258731836051174779e-01
-2.889391544036070125e-01
2.041432740571818075e-02
2.183705799357887611e-01
2.240578931823523634e-01
1.314771604456198839e-01
1.129726861864533277e-01
2.049343552609923236e-01
2.377256661996387521e-01
9.195794214748634343e-02
-6.543081882170038999e-02
5.473610355348157430e-03
2.735606665334203158e-01
4.982426085670713656e-01
5.250765304355146101e-01
3.883371878606047822e-01
2.096577271429657385e-01
7.370343307495591523e-02
-3.094367984485883738e-02
-1.594494948008678414e-01
-2.846542865721717885e-01
-2.827282648551446842e-01
-9.281859702581347904e-02
1.824809538835973355e-01
3.837779976428269957e-01
4.329046347892158142e-01
3.380386742775677855e-01
1.362375977398366800e-01
-1.166706016021810399e-01
-3.257903519038422568e-01
-3.826073496915087246e-01
-2.430115827646917304e-01
2.247348702665673617e-02
2.637457641560718713e-01
3.435010426112640736e-01
2.325902483013417288e-01
3.961382260821937756e-02
-1.003308332869882191e-01
-1.876341523346106432e-01
-3.214970971545831890e-01
-4.799271373693363985e-01
-4.820647541848496753e-01
-2.349463597735785281e-01
1.108011278603369676e-01
3.230902598743446985e-01
3.185897098371533454e-01
1.793537542741109603e-01
6.594493606902708527e-03
-1.764742713074873015e-01
-3.813324236805524792e-01
-5.605233314263760036e-01
-6.078122266692573827e-01
-4.671456364362289171e-01
-2.103468334666995787e-01
2.628733504757770761e-02
1.681441017455294340e-01
2.200672608325090762e-01
1.725378438776029866e-01
-1.462233119715912466e-02
-2.927920638256660268e-01
-4.756689831891663389e-01
-3.975914461447023762e-01
-1.040045402994400625e-01
1.739017632737345775e-01
2.614981213495794488e-01
2.452503848934813324e-01
3.804586867859996446e-01
7.450666121788759311e-01
1.049072960243486730e+00
9.317656889894920802e-01
4.303921332921833431e-01
-2.257229110230624114e-02
-7.340729248591401634e-02
2.197402773352409577e-01
5.203623009491141760e-01
5.856625425287830256e-01
4.574590534755851312e-01
3.025095790295115883e-01
1.816785291258332657e-01
5.061099324966422675e-02
-1.021896210532741156e-01
-2.115624122981240307e-01
-2.096491468470683683e-01
-9.898811290613698799e-02
5.627437743920941926e-02
2.000820369880305649e-01
3.177262271320633880e-01
3.853551278423755222e-01
3.331844658615923938e-01
1.177823217006743195e-01
-1.816899852807327131e-01
-3.879096720531387543e-01
-3.643688730828337774e-01
-1.315539324380882169e-01
1.541716959307951051e-01
3.360420784960100327e-01
3.661257805015245559e-01
2.906131245122250406e-01
1.602299870006618221e-01
-1.563900450498054845e-02
-2.251214092565808622e-01
-3.965484169404299153e-01
-4.273635120845837854e-01
-2.878990300259896551e-01
-7.798696217716129253e-02
5.288169547890419347e-02
4.198990526571217546e-02
-6.475228092735497987e-02
-2.113815759246515935e-01
-3.850169477644526661e-01
-5.700848181321052088e-01
-7.083682207008674681e-01
-7.257814829910761434e-01
-5.943523162861421572e-01
-3.690851150705475869e-01
-1.549326786231621234e-01
-3.017862307939342403e-02
-7.950118061967811900e-03
-6.717606601043946135e-02
-1.912086397899177281e-01
-3.564866151041251596e-01
-5.051759963023092492e-01
-5.642681644503368954e-01
-5.021929192653028506e-01
-3.435626651755767091e-01
-1.018122786066097546e-01
2.593977357858965327e-01
7.120509536516643756e-01
1.055081617507491076e+00
1.065302537600004040e+00
7.390614852307673122e-01
2.764331982908857510e-01
-1.028866771343989739e-01
-2.620604259115753010e-01
-1.858992680484955473e-01
1.613361618032911268e-02
2.004310156727778514e-01
2.953646616301992545e-01
2.921426426743859439e-01
1.584720433213150925e-01
-1.470000936899955590e-01
-5.262734032912502746e-01
-7.231464672077281275e-01
-5.787039228137310642e-01
-2.176184130371045244e-01
1.155095750130657600e-01
2.961955075787161551e-01
3.424383616176570611e-01
3.098139460450666238e-01
2.197598736087458260e-01
5.842743944321801552e-02
-1.700793909497193279e-01
-3.909377516237917960e-01
-4.794941283547524136e-01
-3.629689302398291240e-01
-1.013693246069964637e-01
1.553678614589536766e-01
2.896224225557438858e-01
2.777159593546591476e-01
1.522060077825692082e-01
-4.647125685164536085e-02
-2.711226542275859130e-01
-4.522991414777572938e-01
-5.117783091640221160e-01
-4.141130077154983047e-01
-2.133337652631467352e-01
-2.580736507128566018e-02
7.031879909549670904e-02
9.055143157501895079e-02
6.914217686097448579e-02
-2.656558423197467531e-02
-2.364134398164371986e-01
-4.893146874244660438e-01
-6.232184268155700479e-01
-5.412215019343304956e-01
-3.243232559644892987e-01
-1.573451509734435649e-01
-1.239648653447856380e-01
-1.310001830755028462e-01
-8.409021050691677102e-02
-4.356325845897911914e-02
-1.237689912689304700e-01
-3.242672688481560983e-01
-5.262230945118265835e-01
-5.803244207895743578e-01
-3.578314663487938696e-01
1.807224553416215684e-01
8.672726631006897335e-01
1.356969680220860397e+00
1.400037613429756966e+00
1.040921299631172969e+00
5.151525970810824084e-01
4.981718155510139745e-02
-2.236437680371322345e-01
-2.697060045747268764e-01
-1.264293792626181023e-01
1.132752043765653666e-01
3.316755281088434870e-01
4.469589469290524142e-01
4.463098780228780815e-01
3.477321944563217526e-01
1.656689117588820703e-01
-6.218797051552601290e-02
-2.508808955930104112e-01
-3.092128941637515283e-01
-2.081821808561823139e-01
9.679281746979712109e-04
2.339233196604992293e-01
4.205536171977861115e-01
5.116842514878645609e-01
4.779822996034479576e-01
3.191480014732710480e-01
6.658859729683186401e-02
-2.115869590663556898e-01
-4.033362731869853945e-01
-3.949516245402460157e-01
-1.671116309914888742e-01
1.584678939591907532e-01
3.987844648129859060e-01
4.493765381631151246e-01
3.418553043129293201e-01
1.650828736804454411e-01
-3.382085734478590400e-02
-2.359461193886746855e-01
-3.795257800110050095e-01
-3.781140460624256017e-01
-2.203255715482200228e-01
-4.750356680318618130e-03
1.462253944743561740e-01
1.865242903394098428e-01
1.493221537556095602e-01
7.105172596111511418e-02
-6.095536164265591417e-02
-2.731009383988117767e-01
-5.214068785016365837e-01
-6.630941775143901484e-01
-5.586986677076257735e-01
-2.352378460453866116e-01
1.016452075880666384e-01
2.679414886023016029e-01
2.561633345402951067e-01
1.510512277221572608e-01
-2.355227218395727212e-02
-2.882483217561436217e-01
-5.508809787568861305e-01
-5.515928907546124860e-01
-9.070309902883794129e-02
6.515454325761710352e-01
1.186057941819636419e+00
1.215303720518227770e+00
9.051595389757163268e-01
5.821103849315788503e-01
3.527296936199175725e-01
1.166610880190907112e-01
-1.727378143652410214e-01
-3.856599865881428779e-01
-3.654935026472692083e-01
-1.254990432743866291e-01
1.627299688292402347e-01
3.421467264488917137e-01
3.817520087189789635e-01
3.325416495937064121e-01
2.281158403877806551e-01
6.185550620933236848e-02
-1.512364801355326194e-01
-3.239160399781636501e-01
-3.367308071805547587e-01
-1.491845282130064843e-01
1.372696071800961481e-01
3.581123667961001455e-01
4.268781079467413586e-01
3.691977662924378345e-01
2.330171467233146665e-01
2.728146725065392492e-02
-2.268285516987425809e-01
-4.311646304046244382e-01
-4.619171137803964045e-01
-2.966514211172152082e-01
-4.221308018174413368e-02
1.744876405804990371e-01
2.917442749954346493e-01
2.934086375029542615e-01
1.722846522029673200e-01
-6.178915238786734931e-02
-3.520984484281450277e-01
-5.892088708102516392e-01
-6.641428546419428924e-01
-5.510420091687718847e-01
-3.371895976368757264e-01
-1.568167398179247662e-01
-7.905783112690119296e-02
-6.969234292668487207e-02
-7.662739494598908019e-02
-1.213544553861810593e-01
-2.617433890205381197e-01
-4.706403847626230430e-01
-6.031313500985577836e-01
-5.278517808444960213e-01
-2.707379079263675381e-01
2.059885231439342532e-02
2.274213571945460644e-01
3.094583459090261557e-01
2.378874131935337921e-01
-1.539562040693657347e-02
-3.663610510414679888e-01
-5.495634633507354705e-01
-3.050914218714912973e-01
2.976363994129194723e-01
8.632948915908682519e-01
1.077696604444927653e+00
9.603974549373348601e-01
6.945838546470710639e-01
4.051585306805819964e-01
1.338695913480785205e-01
-1.068977863407150342e-01
-2.989479022072125680e-01
-4.013569007355580198e-01
-3.693715194053794892e-01
-2.060883433402341536e-01
1.535756638334416502e-02
1.914701188357787465e-01
2.521798194039180929e-01
2.018338899775337647e-01
9.665473746629278662e-02
-3.243037216882554974e-02
-1.973861759770301483e-01
-3.632974658085671438e-01
-4.128365043899319131e-01
-2.649106742516783020e-01
2.022334061192892357e-02
2.926212002114949029e-01
4.288750347287889619e-01
3.923158113694058535e-01
2.257410443726999838e-01
2.615000703649755787e-04
-2.309564236315633790e-01
-4.168460552116887707e-01
-4.713534273419704990e-01
-3.196353444181063153e-01
-1.253923043272018450e-02
2.595240820671789739e-01
3.369012687516774740e-01
2.467741848579192709e-01
1.206908296928720092e-01
1.657663827376448795e-05
-1.777553081482871611e-01
-4.138998321089039090e-01
-5.762808880462345629e-01
-5.397568091270477098e-01
-3.403722535185180198e-01
-1.244034446088750634e-01
2.339844826630324906e-02
1.205896044153865893e-01
1.689839130815357637e-01
9.628411708791814738e-02
-1.424215703217570905e-01
-4.601365949638601127e-01
-6.796361932322826371e-01
-6.727900127862215252e-01
-4.546600558297785866e-01
-1.542087903981814723e-01
8.724900838374266554e-02
1.787579348349659925e-01
9.104334423095403195e-02
-1.054702072453068684e-01
-2.189565054910667663e-01
-8.377739940902376170e-02
2.278902619013178088e-01
4.794976311579796091e-01
5.644818854768971494e-01
5.556520145606937966e-01
5.127532166619511722e-01
4.324918188982179723e-01
3.240195897998689456e-01
1.994120580864313375e-01
3.761514692526573417e-02
-1.746797511040167061e-01
-3.798503390695963100e-01
-4.625783623782890319e-01
-3.497394248917615744e-01
-9.043321722749930736e-02
1.822300299048709438e-01
3.609592706258665240e-01
4.160075587198052149e-01
3.564846350403874653e-01
1.931124467651350596e-01
-3.999805855856918002e-02
-2.573994417090521014e-01
-3.514682929400866906e-01
-2.658747485918661613e-01
-4.312282722391079515e-02
2.058922106029822952e-01
3.811396578014009662e-01
4.451776258324678381e-01
4.096240623992866703e-01
2.883792939858220716e-01
8.676251168848947426e-02
-1.528560630611544291e-01
-3.241971625787524180e-01
-3.209872047269564099e-01
-1.401386600125219539e-01
1.024212363319525199e-01
2.721866871598009885e-01
3.138707936508388086e-01
2.460995799886132596e-01
9.656176121413630187e-02
-1.224327274368285506e-01
-3.736508206813392019e-01
-5.590276825721310905e-01
-5.644889505791055306e-01
-3.649321714104575287e-01
-7.351076124886814223e-02
1.422763669578827606e-01
2.016510162340577339e-01
1.500354091050628558e-01
5.933206193732463996e-02
-6.726035764390593530e-02
-2.576684477539857299e-01
-4.656504012245290536e-01
-5.579516949651671665e-01
-4.329773488455821995e-01
-1.467599401074212717e-01
1.040058253731901000e-01
1.689497074782179420e-01
1.365158832411251522e-01
2.709371846168044384e-01
6.541339769827877459e-01
9.634041126650152442e-01
8.266871445801755591e-01
3.532718766598154092e-01
1.536375378401037828e-02
4.614300160492112307e-02
2.564105044595056948e-01
3.911123276212159494e-01
3.962139792804147409e-01
3.327595520201966917e-01
2.177167391608189895e-01
3.120941428683009569e-02
-1.910765099351697249e-01
-3.493273539095772540e-01
-3.567238186125843424e-01
-2.053602980911217180e-01
2.851148510141696124e-02
2.352782371673792228e-01
3.411991068830012019e-01
3.340971185474281291e-01
2.266569060355216325e-01
2.767297714266717806e-02
-2.220472636870606531e-01
-4.143777864286092294e-01
-4.302025260857919031e-01
-2.479339324368584618e-01
2.260711712246766397e-02
2.283360300200574788e-01
2.946608760014869932e-01
2.556051006405278825e-01
1.716718149735004528e-01
4.485642166882143622e-02
-1.639771247090496542e-01
-4.351153875565243467e-01
-6.331273657914315844e-01
-6.017042475683309632e-01
-3.407803459923902101e-01
-3.560938224380951617e-02
1.291364253862226086e-01
1.245578361156666897e-01
1.907589253986077468e-02
-1.443134575911385609e-01
-3.488036790731919856e-01
-5.413149446343992199e-01
-6.411730110208814226e-01
-6.019999953062042941e-01
-4.339414806864293483e-01
-1.890914672113150063e-01
4.193398532221584429e-02
1.583564698379711366e-01
1.182671905494016296e-01
-4.808174886557391170e-02
-2.905978236816571525e-01
-5.389571819806060482e-01
-6.680103293064357795e-01
-5.746305633298762761e-01
-3.182127054003783817e-01
-8.215765906363495241e-02
7.073836214104972653e-02
3.029265615183825977e-01
7.207167927800146590e-01
1.070369342157533987e+00
9.684207037476685320e-01
4.287043545352868246e-01
-1.054799850859689803e-01
-2.629262361704586271e-01
-6.951562100396277422e-02
2.038624683843145435e-01
3.485119234476211081e-01
3.462230340279263130e-01
2.757105663608529489e-01
1.744500642025142989e-01
2.315029045027941490e-02
-1.716495383894063864e-01
-3.352839376287539697e-01
-3.768027794372922901e-01
-2.610671365328162685e-01
-2.890541283582184762e-02
2.251149634144345157e-01
3.898907063529962747e-01
3.925699632638748326e-01
2.480351197104657124e-01
4.541803252791395962e-02
-1.259278268980051629e-01
-2.336307910404597232e-01
-2.844414506778167873e-01
-2.641283112573762359e-01
-1.375464338782202145e-01
8.258473312432267066e-02
3.198823089344468018e-01
4.853664555080370313e-01
4.980664431253590818e-01
3.037948858243901262e-01
-5.357407379871752251e-02
-4.089653638923789747e-01
-5.768931265149119803e-01
-4.894120615215086234e-01
-2.485929278009428867e-01
-3.813386952543668801e-02
4.068820378914840552e-02
3.258328708496624482e-02
1.460074977847743150e-02
-3.158995240447148856e-02
-1.793019113013649135e-01
-4.128191650882695463e-01
-5.924317409461931083e-01
-5.847112930610465220e-01
-3.898673577279069269e-01
-1.170177903787711776e-01
1.283433706103756511e-01
2.853944262192558701e-01
3.043933114447838761e-01
1.647448781721863043e-01
-6.835041131689195693e-02
-2.766851764470119046e-01
-3.902609479397471937e-01
-4.227796479565619769e-01
-3.940279760252229369e-01
-2.237024324463212643e-01
2.211215218003426963e-01
8.690986515461679440e-01
1.326562450398090842e+00
1.234748103027309307e+00
6.990920194988541336e-01
1.536262661876558744e-01
-1.167894072938650968e-01
-1.354839336900262869e-01
-3.840593569516843192e-02
9.489056297946517338e-02
2.415836069155628263e-01
3.713326156927614918e-01
4.331100428559704341e-01
3.928937383191905552e-01
2.517631684981570528e-01
4.057562233946220703e-02
-1.732577399526644690e-01
-2.878339167134176257e-01
-2.208049117464547240e-01
1.038048180146856209e-02
2.799287395177012527e-01
4.537625264961590021e-01
4.880568350714088455e-01
4.162879027832100398e-01
2.747840106667851501e-01
7.926819691320401151e-02
-1.368315296618503041e-01
-2.930403083840897316e-01
-2.957258300944213270e-01
-1.233607085086597388e-01
1.230042406923844422e-01
2.879992527977321970e-01
3.018307518390377919e-01
2.243253390184246077e-01
1.302536487315496538e-01
4.316510904527819797e-03
-2.018098102505621882e-01
-4.445021324510994853e-01
-5.751813984123711476e-01
-4.747802630654601730e-01
-1.956205379818183876e-01
7.088580870730959438e-02
1.804175478474565608e-01
1.424761639134977942e-01
3.798804851738128013e-02
-9.896940057977698935e-02
-2.792893351432557680e-01
-4.736921616546529434e-01
-5.792353713088176370e-01
-4.994075417594313615e-01
-2.567617120174220391e-01
6.240453845797251653e-03
1.564167128556126218e-01
1.740631254251322479e-01
1.167039185618916758e-01
1.483469773551798765e-02
-1.586309819456580283e-01
-4.048135343740181247e-01
-5.968353171006592905e-01
-5.029697293239803191e-01
5.261713063141992830e-03
7.211017277545317405e-01
1.190676792214311330e+00
1.153040803511091283e+00
7.829276240894579297e-01
4.038433987773114020e-01
1.286880889790275040e-01
-1.099036773536896799e-01
-3.212519882112283010e-01
-3.927731469780829654e-01
-2.480782954462613377e-01
2.369332337231678381e-02
2.440927443178993461e-01
3.142066805882182678e-01
2.629397557871651081e-01
1.500845696006551655e-01
-1.433105006114609656e-02
-2.282774101188679572e-01
-4.153479420905521469e-01
-4.452338181591000699e-01
-2.640148645742875777e-01
2.272833294243344765e-02
2.396364352634668959e-01
3.090209967879812281e-01
2.840282446018593254e-01
2.192731450526152759e-01
8.534476744989366592e-02
-1.476645824685971498e-01
-3.995131270700008619e-01
-5.126639673070231273e-01
-3.896781936528805890e-01
-8.447424468639283535e-02
2.304045506163150125e-01
3.902627037459108772e-01
3.533805020344303882e-01
1.918228861145404029e-01
-2.160570039865780667e-02
-2.660764776822378552e-01
-4.977537271528622020e-01
-5.968750174739715364e-01
-4.695842145410968338e-01
-1.869113630143178217e-01
5.583846931473827879e-02
1.317618334417381687e-01
7.796205276650826355e-02
-5.279054979148940785e-03
-9.087279152312945085e-02
-2.282744783582322523e-01
-4.295441075587627666e-01
-5.936419028336284986e-01
-5.806405505797661570e-01
-3.598415447590319616e-01
-5.416087221532595031e-02
1.693515462549434747e-01
2.332494146720467953e-01
1.665606416981552651e-01
7.963045883468321262e-03
-2.428674475532170418e-01
-5.045860189615889446e-01
-5.188939854264672524e-01
-8.785211519719124396e-02
5.731453864637015005e-01
9.766390511938420893e-01
9.211622255861626751e-01
6.563879769276685927e-01
4.726265103007133428e-01
3.787363086798464784e-01
2.112241220831422572e-01
-9.917263815899522716e-02
-4.209241691506063199e-01
-5.489070967739915208e-01
-4.009095363788955368e-01
-8.268102122775965179e-02
2.074413228042160939e-01
3.344815068997568086e-01
3.093864673666090193e-01
2.170281158392688703e-01
8.844348425461628915e-02
-1.030441667272106870e-01
-3.310670103806654940e-01
-4.735423942155065347e-01
-4.171250018836430429e-01
-1.825896469353774920e-01
8.242043409245095043e-02
2.363041818290688156e-01
2.497593868897727831e-01
1.738791026298338593e-01
4.162242881706555014e-02
-1.479318139192275783e-01
-3.573880147581988687e-01
-4.839674749919118391e-01
-4.405556613459851723e-01
-2.508015168783646054e-01
-3.536294141460655238e-02
9.970936411992133153e-02
1.394234605816653261e-01
1.189825802066841604e-01
3.801379948544725274e-02
-1.430866454643540397e-01
-4.131250189796489281e-01
-6.481673812942094770e-01
-6.863816074232447217e-01
-4.869553057384849448e-01
-1.837330856950157576e-01
4.414250180354466896e-02
1.179213717298647490e-01
6.420498790896163321e-02
-6.056256438319714691e-02
-2.202132632426456460e-01
-4.098641748130058549e-01
-6.174238525413430212e-01
-7.544011635610272659e-01
-6.851764790525383120e-01
-3.888682575630332261e-01
-2.934760564863168192e-02
2.032391747730366571e-01
2.536261075454399605e-01
1.716443207307860597e-01
4.525059639699852837e-02
1.384389631686512578e-02
1.807297620431346785e-01
4.325468576511721785e-01
5.384544196367083702e-01
4.771996984142630183e-01
4.365065154126476776e-01
4.956381797713228510e-01
5.395312998506266444e-01
4.555257978117300821e-01
2.451715898416109429e-01
-2.908950979890573621e-02
-2.879711742719637813e-01
-4.235637187665361458e-01
-3.437233199586605670e-01
-7.895516201663546618e-02
2.128943786195249821e-01
3.898539014802483438e-01
4.275764529262682800e-01
3.641999355379876846e-01
2.230773875147509799e-01
2.971420734674403569e-02
-1.556760348093194635e-01
-2.591190656958751726e-01
-2.262285871354339228e-01
-5.424908486628500504e-02
1.788684647769287206e-01
3.529023515342831763e-01
4.037704122662267858e-01
3.552821571480165863e-01
2.507007606224428420e-01
1.041134291509870635e-01
-6.827751883183920401e-02
-2.126861528432201776e-01
-2.577270906207895229e-01
-1.671152767954889595e-01
2.094290564594204068e-02
2.090003795875789439e-01
3.124803491831068536e-01
3.124357500890296846e-01
2.256103111994824939e-01
5.441659298757529906e-02
-1.922382944909064584e-01
-4.419319736983763902e-01
-5.667175112093548739e-01
-4.779498312625879430e-01
-2.174864723201576366e-01
6.619767659975864249e-02
2.426944817618151562e-01
2.834472010330784664e-01
2.252917088016386793e-01
9.483056777991981379e-02
-9.583642356996927014e-02
-2.963345141485401180e-01
-4.066105580997091407e-01
-3.395385374752081797e-01
-1.018971477083830124e-01
1.781490279735473692e-01
3.308690312970308245e-01
3.015670501041884388e-01
2.271159684083416674e-01
3.029442181122188327e-01
5.432952910028534532e-01
7.379094207541088135e-01
7.184792170459298744e-01
5.727023119553998898e-01
4.896151724599561716e-01
5.121579284007744537e-01
5.493650176745654701e-01
5.284190925157078444e-01
4.413958933008690355e-01
2.956719502960189483e-01
9.426531546863110844e-02
-1.324298378072200355e-01
-3.069783671956790028e-01
-3.362051623239383780e-01
-1.846287584482189104e-01
7.475435101921952541e-02
3.060551769677410383e-01
4.164787003631563733e-01
4.052773504854377817e-01
3.149480357954974608e-01
1.640093244597375099e-01
-4.573546571910702685e-02
-2.616261906615443000e-01
-3.663050735015004333e-01
-2.729710214692569470e-01
-2.785718270562552445e-02
2.150005114732820299e-01
3.308434040363091300e-01
3.160539451069459549e-01
2.350807238659242959e-01
1.088968153457091914e-01
-9.565435200467591048e-02
-3.584807592074347182e-01
-5.417999382906510952e-01
-4.941238662499632950e-01
-2.214445348600017904e-01
9.205693265846599804e-02
2.553852844964031310e-01
2.285884753228656641e-01
9.179629665806317285e-02
-9.002295254234522759e-02
-3.126560190560319086e-01
-5.574758179462527830e-01
-7.327795689180975902e-01
-7.312939508804657818e-01
-5.397992984793598126e-01
-2.614784855581805956e-01
-2.686727751282443066e-02
9.137303847619276942e-02
8.313449063742917033e-02
-3.700704113176193910e-02
-2.491607830907227317e-01
-5.036635796624812089e-01
-6.894904624495661327e-01
-6.829333872019078822e-01
-4.736528037661640322e-01
-2.086518436536026477e-01
-4.193052883677608755e-02
5.822576226336663441e-02
2.553761438430731667e-01
5.525876878279821769e-01
6.931694528400910160e-01
4.725499125174154602e-01
2.760395734418631675e-02
-3.001463082047174380e-01
-3.088201565502097234e-01
-8.496768116086196587e-02
1.407490563063552302e-01
2.299642608420788270e-01
2.053207373119207146e-01
1.294869325305776364e-01
4.365298533892485872e-03
-1.878952263186393634e-01
-3.968655269034425670e-01
-4.970901702345576489e-01
-3.805743657022280235e-01
-7.610239602984603113e-02
2.296482774112258429e-01
3.437921344290649772e-01
2.521625424036860186e-01
9.928614383546531530e-02
-1.229427685539370013e-02
-1.157224799943034482e-01
-2.594639401321837680e-01
-3.913895644722416023e-01
-4.088992142591821866e-01
-2.749301766791110713e-01
-5.578214766218629606e-02
1.411560638252999378e-01
2.505750285258249166e-01
2.592605522754001246e-01
1.587012193625041978e-01
-5.776545898093166792e-02
-3.368845128549145529e-01
-5.411185570962192548e-01
-5.313358952332429830e-01
-2.983262255438682842e-01
1.150170363647161006e-02
2.216475675091422182e-01
2.566356486118513969e-01
1.532575957645440079e-01
-1.228205825678201080e-02
-1.913272588826716580e-01
-3.685635859035500395e-01
-5.113813456135937185e-01
-5.494263013846910626e-01
-4.357516484522245825e-01
-2.089542569344155498e-01
2.301127825816412162e-02
1.581678650455554391e-01
1.716074489926905366e-01
1.121459492597774305e-01
2.349444681522735306e-02
-9.880040623695814095e-02
-2.552405615406855843e-01
-3.898791496044208826e-01
-4.157635983050105288e-01
-2.590626455217981960e-01
1.223806900972696371e-01
6.680930139781757759e-01
1.130930200362632920e+00
1.223130034323558046e+00
9.202340436517196798e-01
4.692671354012796225e-01
9.767397644792906453e-02
-1.152833234023440123e-01
-1.417680295761610532e-01
2.484405868676663881e-02
2.925650923600628950e-01
4.842988646522906615e-01
4.998127553143166812e-01
4.068808700603847028e-01
3.079171534398177368e-01
1.809908301157929778e-01
-6.137307094911521183e-02
-3.682296708514655736e-01
-5.019905789974491439e-01
-2.892242838878552602e-01
1.328254961494686470e-01
4.525925200384854907e-01
5.281810909083056726e-01
4.577710521439291025e-01
3.469233007624819565e-01
1.775416196549620129e-01
-5.596010197029807620e-02
-2.251479762692401854e-01
-1.889479681924893517e-01
2.429584322287534071e-02
2.479449670530732286e-01
3.610512537846339298e-01
3.686053841569100764e-01
3.233656013027417231e-01
2.390057553470888996e-01
8.731105474825816282e-02
-1.385556168984602987e-01
-3.596392223708767544e-01
-4.358730833737720634e-01
-2.907790850415422068e-01
-6.368766062866654254e-03
2.299646213540166850e-01
2.840166324707433798e-01
1.771726902199303455e-01
1.958728352171469275e-02
-1.365211284245837486e-01
-3.221881123963228899e-01
-5.355558907017256010e-01
-6.739204864912526904e-01
-6.223480247846655544e-01
-3.859675818674149772e-01
-1.002532062023854531e-01
8.858014924109103294e-02
1.301550326285581538e-01
6.061257502103518935e-02
-7.608872995806822970e-02
-2.671169395373129696e-01
-4.930379367360629428e-01
-6.678071501327887960e-01
-6.344646343276492129e-01
-2.727305917765245891e-01
3.252441439098798237e-01
8.391778603656480096e-01
1.003495546406610428e+00
8.518260481486406022e-01
5.681579164405150539e-01
2.348953318474681362e-01
-1.304506787428951486e-01
-4.321458295379597137e-01
-5.333634328073341146e-01
-3.952309952315860575e-01
-1.226890254690282123e-01
1.261821400946305516e-01
2.581566912113381629e-01
2.681391753157674751e-01
1.791142202395916705e-01
7.776621520245229763e-03
-2.053764632000709134e-01
-3.733423299270509088e-01
-4.019652538810969955e-01
-2.581022854375433218e-01
-5.099637284880133986e-03
2.314395786241433550e-01
3.533501051691021466e-01
3.513756065867421619e-01
2.695542149346815131e-01
1.294666328447686976e-01
-7.403945866942876486e-02
-3.033546327449106461e-01
-4.444529342199363686e-01
-3.854590757245839328e-01
-1.411178926955974355e-01
1.323981631688447291e-01
2.773745691764677446e-01
2.696328549198133695e-01
1.857891857937228608e-01
7.174128839353161036e-02
-9.380332379971233203e-02
-3.116968490634962619e-01
-4.980388699798063423e-01
-5.376217839080493777e-01
-3.932379370842027377e-01
-1.489774028527434957e-01
5.956555123650233985e-02
1.547505512282471296e-01
1.450337120691223836e-01
4.675931055468693365e-02
-1.654162117992875602e-01
-4.681149357203406303e-01
-7.008883131226263385e-01
-6.836313025909154240e-01
-4.152984765134585254e-01
-7.332767786016666789e-02
1.652411060839153456e-01
2.504659529418356012e-01
2.342486261317744956e-01
1.571031597099978860e-01
-1.111516771968858175e-02
-2.695494795773230590e-01
-4.384217613204378639e-01
-2.495879852143017830e-01
3.158889784587437521e-01
9.052809363066194326e-01
1.146390226637733045e+00
1.011806333039574568e+00
7.369924226237384302e-01
5.064276936699658727e-01
3.152350095180408429e-01
8.136765415792190925e-02
-1.837027595909303257e-01
-3.510982301152547058e-01
-3.056774177207127741e-01
-6.852385274040503904e-02
2.157417097809094242e-01
4.018654087943903663e-01
4.445982478744963662e-01
3.801347675058769360e-01
