-1.080025741000905336e-02
-8.085800360607510451e-02
-1.884276538888688124e-01
-2.431409328093319944e-01
-1.929890827470366332e-01
-8.938184416554212364e-02
-2.067408213764044753e-02
-1.556740769645510378e-02
-3.853645129439667305e-02
-4.984848261637043337e-02
-4.787933388112013133e-02
-5.794179570435008253e-02
-7.845751780796166031e-02
-4.867998555856131726e-02
9.348221090992685223e-02
3.087508573951351365e-01
4.528661904430753005e-01
4.132319657150653747e-01
2.254996460807630609e-01
2.256441040781753324e-02
-1.002908268164881822e-01
-1.341226583276611262e-01
-1.136892760790662454e-01
-8.177583512264208210e-02
-7.008017759979105754e-02
-6.799609725870622845e-02
-3.684614872153099685e-02
1.018341323172627412e-02
-5.324548533435039324e-03
-1.089691282909450998e-01
-2.058208172314733575e-01
-1.992927301169051257e-01
-1.119554198097616610e-01
-3.077961105668364228e-02
-1.149592825408888436e-02
-6.864916180585142746e-02
-1.581921646735880982e-01
-1.449180098787320736e-01
7.842251123548835134e-02
3.797293952404481310e-01
4.661380234713593529e-01
2.754684350860723274e-01
8.124922776940271540e-02
1.014532749258627575e-01
2.338915170495917684e-01
2.685919461508169959e-01
1.591096700483165538e-01
7.714821627898993395e-03
-8.829108809342540998e-02
-1.071605205723127063e-01
-8.035785456942219629e-02
-5.844007083535328329e-02
-8.237827550178579428e-02
-1.509685117632477425e-01
-2.169794261581420303e-01
-2.313090223937988577e-01
-1.896917122671341049e-01
-1.292691889235076941e-01
-8.774035218178040385e-02
-7.567261809663841654e-02
-7.886669884098482242e-02
-8.054869049560756111e-02
-8.699937173874308649e-02
-1.221398475873285150e-01
-1.834703990388308614e-01
-2.141484141771458627e-01
-1.433313445001058173e-01
3.097258463260584710e-02
2.118835738538777658e-01
2.808827174002600513e-01
2.048982407684608320e-01
5.394576376853849747e-02
-7.750896634186280054e-02
-1.458824946148441215e-01
-1.610728569578058211e-01
-1.465471855721814654e-01
-1.177732367231140859e-01
-8.817941174288729256e-02
-7.122471868745046397e-02
-6.874270257042239263e-02
-7.131626186100713249e-02
-7.651181167925359683e-02
-9.278627753510623744e-02
-1.184314011006138145e-01
-1.271106189516123808e-01
-8.932740761511386018e-02
-2.177411938896180177e-02
-5.194039156948543692e-03
-1.016482925443543545e-01
-2.187980575029616903e-01
-1.351179306023639060e-01
2.060479829512720795e-01
4.958199097726271320e-01
3.992065082652846986e-01
5.141187266186811322e-02
-1.051545592217572600e-01
6.261723260709736727e-02
2.626815238029944211e-01
2.416466881509536924e-01
6.443734642463380680e-02
-7.856513310371701642e-02
-1.241953068484669132e-01
-1.300796502630175988e-01
-1.410697836509332281e-01
-1.531020328395760743e-01
-1.628493149596235423e-01
-1.782068677436649540e-01
-1.884120325864750423e-01
-1.715068523711544279e-01
-1.309404933767163715e-01
-9.951889091513362040e-02
-1.082376910156098437e-01
-1.561625577043412316e-01
-2.059879161112867230e-01
-2.157484751988298088e-01
-1.797597429703767513e-01
-1.288563723512367865e-01
-8.600493782726564840e-02
-3.323805267586250889e-02
6.052279533459604260e-02
1.818500748838400016e-01
2.667254455875588404e-01
2.622989808400248424e-01
1.807536431054552750e-01
7.887400501140891251e-02
-9.822289908355125165e-04
-4.949850889595811682e-02
-7.202707726287936596e-02
-7.928020879422897904e-02
-7.829438929869640684e-02
-6.160226876795759504e-02
-2.673269093549701658e-02
2.496495720855728892e-03
-2.772184545619081619e-04
-3.412768426258484117e-02
-7.683761094671338887e-02
-9.669365086132093723e-02
-6.168087126220919703e-02
2.558539972574542382e-02
9.944581468816099390e-02
7.336663108672436540e-02
-5.168711903432941790e-02
-1.185811003060967400e-01
5.519809145687350205e-02
3.978247128805078026e-01
5.699557750855391847e-01
3.897821319298340748e-01
1.085883064115714669e-01
6.888919613729599378e-02
2.621483588836234779e-01
4.141807634779460789e-01
3.583615353200361731e-01
1.624949980091373869e-01
-2.204499165833744348e-02
-1.141329797964983489e-01
-1.312906044439297315e-01
-1.312607353612284533e-01
-1.398910769508414920e-01
-1.355125719816604180e-01
-1.015386343003623904e-01
-6.301771565143943210e-02
-4.804111587088658736e-02
-4.670200499392389987e-02
-4.190376001426791841e-02
-4.908622787837005341e-02
-8.719389468351861072e-02
-1.309597285605247075e-01
-1.290187851821446574e-01
-7.106763449020261914e-02
-7.535252356329850271e-03
2.191772302299117847e-02
5.166815908289943554e-02
1.358988830131062087e-01
2.535437867798161493e-01
3.171861582242032629e-01
2.682568163014991680e-01
1.381561466465040522e-01
1.629860524183048692e-02
-3.532527744348640947e-02
-2.450437086452332547e-02
9.384979568112421580e-03
4.298522843529381521e-02
6.799537571853273010e-02
7.236807770886372060e-02
4.802463680314245781e-02
9.343286663888065308e-03
-1.630062996525703106e-02
-1.728268358134359486e-02
-8.910878146381615711e-03
-1.239451235920960986e-02
-2.206916125073416987e-02
-1.286314550161127800e-02
2.349493469814927654e-03
-3.576753669340576591e-02
-1.223906204297859346e-01
-1.063750864269276258e-01
1.420278734586859215e-01
4.630739241590779987e-01
5.231713655692443732e-01
2.800090411246127231e-01
6.927566426580043790e-02
1.302604551076117501e-01
3.168568378017345699e-01
3.645524440380493725e-01
2.176818285486732951e-01
1.433799243078823227e-02
-1.114520441336695755e-01
-1.385068864112870557e-01
-1.255510189440087743e-01
-1.208920512599319930e-01
-1.129065796949841188e-01
-7.061674577763189797e-02
-1.048370138863288087e-02
1.248045518524099930e-02
-3.016379607723059658e-02
-1.126163035498792819e-01
-1.832623947228975148e-01
-2.079038357403460990e-01
-1.904173100056899548e-01
-1.519886912226332543e-01
-1.053387407644457291e-01
-6.852903042098727748e-02
-7.017999470245117610e-02
-9.824578360084218476e-02
-7.946327491200060045e-02
3.385885886322552440e-02
1.763418147728161023e-01
2.192551736678851060e-01
1.116804453009421771e-01
-5.794098530126133573e-02
-1.560640757311879401e-01
-1.375081125306147900e-01
-6.581990673262179403e-02
-2.646178839620700815e-02
-4.719803598716421772e-02
-9.192122042104182433e-02
-1.123121788518639391e-01
-9.964397887898983341e-02
-8.538870319821842414e-02
-9.901824734569428244e-02
-1.357202306716855100e-01
-1.604963662426066584e-01
-1.364598224709148711e-01
-5.760949903077404455e-02
3.000867981960965436e-02
3.920361737054015722e-02
-8.017653185929854431e-02
-2.228547351560032364e-01
-1.581454673069512540e-01
1.773892781382276074e-01
4.842321884889389527e-01
4.383428859104813169e-01
1.591430827676689475e-01
3.069207485118150697e-02
1.421938205333698746e-01
2.384412779398241977e-01
1.468192789668311404e-01
-3.470826785858198427e-02
-1.419712005750091433e-01
-1.431259194360135767e-01
-1.147301697618313687e-01
-1.152994574224506241e-01
-1.328020807248445623e-01
-1.386255386240551613e-01
-1.398432014283025882e-01
-1.559068938281089611e-01
-1.828081924364583222e-01
-2.067561791729380649e-01
-2.264450662322394503e-01
-2.422563942794033476e-01
-2.417134475225263812e-01
-2.125336621267033821e-01
-1.621306800027801642e-01
-1.141382338610099356e-01
-8.761132604433710669e-02
-7.902556844182324902e-02
-6.331502597018828782e-02
-1.768974179536567798e-02
5.350463480814056372e-02
1.151795698762525383e-01
1.232053587443542597e-01
6.526525457616497161e-02
-1.780846463565517387e-02
-7.211571488681503550e-02
-8.686653272497370237e-02
-8.603678430038937119e-02
-7.901187193718733903e-02
-5.511757599634060228e-02
-2.055304860744208012e-02
-3.760559097961442034e-03
-1.621700650547181627e-02
-3.508883553506280534e-02
-3.623362767670010309e-02
-2.285356987069286222e-02
-9.219898875953206480e-03
6.081519386011315434e-03
2.629377241398482903e-02
1.392497070416667815e-02
-9.295535167316593128e-02
-2.631058700447850285e-01
-3.059091001482806549e-01
-6.111015179023020216e-02
3.175484865820140667e-01
4.662078604438630869e-01
2.851307406244286691e-01
7.396417705058253023e-02
9.305804683236877650e-02
2.446902060661063361e-01
2.946922149383621181e-01
1.930892416009599710e-01
6.358140336065083720e-02
2.975823743807944760e-03
-5.802562931556224345e-03
-2.008048055367571763e-02
-5.198641096436085879e-02
-7.394146757170064199e-02
-7.354973076370507901e-02
-7.105328184366767330e-02
-9.101138171774821040e-02
-1.358946263775901719e-01
-1.818996697101977478e-01
-1.968349185575830884e-01
-1.734673846162095023e-01
-1.367238238018749497e-01
-1.076349649625091276e-01
-8.259183037822806495e-02
-5.618838024020740562e-02
-3.428539865845808832e-02
-1.157487561520912332e-02
3.937676208331090250e-02
1.310708211957256342e-01
2.192993144154818386e-01
2.331048611937865389e-01
1.571609301603195397e-01
5.457349637714319773e-02
-3.159084443912125312e-03
-6.648574985938313607e-03
-1.376026837245306750e-03
-2.381276803078292981e-02
-5.955997866752327230e-02
-6.957000285488275371e-02
-3.999891594500781800e-02
1.067341931060701229e-02
5.521978709471175167e-02
7.255283561749525933e-02
5.999324491338776932e-02
3.932699607786700052e-02
3.503454754313897745e-02
4.885881563832428220e-02
5.903048123772160205e-02
3.255169061209989279e-02
-4.348523519686492422e-02
-1.032230909094881410e-01
-6.196993864202571083e-03
2.928540207922463723e-01
5.879635904842406280e-01
6.163494376307240286e-01
4.161836780525483004e-01
2.625849026242141893e-01
2.679576273120446994e-01
2.941911724423492691e-01
2.230189211747899691e-01
9.680648178598327824e-02
4.878190633628201253e-03
-2.924445843708744705e-02
-2.973331255679506624e-02
-1.126930595353931031e-02
2.102132881441125603e-02
3.791391675161133457e-02
-3.145583893167491762e-03
-9.851314131613199410e-02
-1.817834321507146578e-01
-1.930533264769987989e-01
-1.403783526759159739e-01
-7.181686810799911558e-02
-1.614016524861204907e-02
1.819759422653619355e-02
7.076283997928199329e-03
-7.428568155273454487e-02
-1.888336272552524342e-01
-2.395840690171369969e-01
-1.656181328436284461e-01
-4.407491244625156429e-03
1.559423393086663556e-01
2.496730123854498939e-01
2.545589678970354153e-01
1.826688666911392422e-01
7.112346165008849586e-02
-3.236069627565438256e-02
-9.312221399761463903e-02
-1.047664410172172156e-01
-8.645619990513941922e-02
-6.898665182354049574e-02
-6.903527516255313079e-02
-7.074526704996295101e-02
-4.900237041745831440e-02
-1.013548764813228080e-02
9.163283281371056160e-03
-1.522025329402002490e-02
-6.530719720743612122e-02
-9.728586925161866739e-02
-8.109422105678631976e-02
-3.036529412500447653e-02
-4.528089805582039343e-03
-5.192260523245619680e-02
-1.062832113279917196e-01
3.666604164178459413e-04
2.940788076350156488e-01
5.011225561609651269e-01
3.650576809874665485e-01
4.963488606882424797e-02
-6.844544640996440277e-02
7.990572142099532094e-02
2.374843980336931448e-01
2.183611377530186304e-01
7.371624505420716622e-02
-6.431596526608418518e-02
-1.293074575170651552e-01
-1.351203187858539267e-01
-1.341260537515440721e-01
-1.618867521104546126e-01
-2.030853555739237648e-01
-2.251500006601993009e-01
-2.313755941013171391e-01
-2.441375283908912563e-01
-2.521026860608767128e-01
-2.215816018122370723e-01
-1.591872211614472343e-01
-1.189871159396845846e-01
-1.288382382033721740e-01
-1.492589716122531829e-01
-1.403932322898604201e-01
-1.243184915918483513e-01
-1.279255156692684081e-01
-1.098397283754746212e-01
-1.034590918658078416e-02
1.462258360158026627e-01
2.513738307464819521e-01
2.214502451132931982e-01
8.128049216634347651e-02
-7.272972136455060910e-02
-1.703106585245411364e-01
-2.038596173402955347e-01
-1.894696290884924639e-01
-1.370047957021600094e-01
-6.217943459241332543e-02
5.482604525979387945e-03
4.013792040833837060e-02
3.403089109452003130e-02
-4.068708712701108940e-03
-5.547062180336991000e-02
-9.993396123555997601e-02
-1.196803432833116465e-01
-9.988920707211834671e-02
-4.570072293218969961e-02
-2.566345030471749080e-03
-2.947370273991694115e-02
-1.128033736007836713e-01
-1.159610682032654189e-01
7.904120475648902799e-02
3.361183988691711089e-01
3.566024683139544238e-01
1.044377651696394571e-01
-1.001343977886454129e-01
-2.390433346402007220e-02
1.949218807331697667e-01
2.980070269173732966e-01
2.215215497189277905e-01
7.783494042576090399e-02
-2.710792203371154008e-02
-7.501468984974074550e-02
-9.834643985873428584e-02
-1.240775213454498593e-01
-1.482969072788466181e-01
-1.529819320040240738e-01
-1.432748274860858317e-01
-1.434966335570424245e-01
-1.529007754111767203e-01
-1.452888397854002478e-01
-1.168474372907373771e-01
-9.285547280114728186e-02
-8.692532649200102046e-02
-8.991238508169047128e-02
-9.584258072876380985e-02
-1.085099676221636805e-01
-1.208608019255287269e-01
-1.048470895488581300e-01
-2.690497859887780105e-02
1.206249132509722155e-01
2.866089041079583066e-01
3.667860686027039629e-01
2.863892882903763537e-01
9.227235769425627676e-02
-7.869231282775482339e-02
-1.361549339315794582e-01
-1.013716147461197065e-01
-4.053642912916856356e-02
8.710046408281706121e-03
3.883783962211623947e-02
5.253729059567107534e-02
5.746108437327369922e-02
5.498184065494210460e-02
2.978040846448538892e-02
-2.744009051757053536e-02
-8.511724696635669662e-02
-8.591758989089817722e-02
-1.307580578961287272e-02
7.145969504133102557e-02
7.341567173549101710e-02
-3.827992769268582368e-02
-1.625130647665847805e-01
-1.083972107942818980e-01
1.917536615164602554e-01
4.983394506451041539e-01
4.878170461494100163e-01
2.036182362018502667e-01
2.150500779792698103e-02
1.258679354051129018e-01
3.096967267998710360e-01
3.248785159666592315e-01
1.737034248240572343e-01
9.619587389930461807e-03
-7.351062481672754334e-02
-9.062584590407773977e-02
-9.190825564549083559e-02
-1.005742102297643853e-01
-1.082071563916742890e-01
-1.009809834373904536e-01
-7.658484166849767460e-02
-4.372329125284834389e-02
-2.056156864722386707e-02
-2.539158981678671032e-02
-5.623834892717047285e-02
-9.060621160831033860e-02
-1.080030305477910207e-01
-1.015248687463357197e-01
-7.734653431005443502e-02
-5.232663420035450763e-02
-3.179577734128629513e-02
1.503616437168913897e-02
1.248976575269199335e-01
2.775579261172878565e-01
3.932051938554280701e-01
3.989257638798690553e-01
2.838291789283743372e-01
1.029974962719937270e-01
-5.470814017736728985e-02
-1.223061535255963311e-01
-1.052694615264805345e-01
-7.507933348683021313e-02
-9.663798736587472793e-02
-1.551355019692338688e-01
-1.742786996454852022e-01
-1.221394164373194036e-01
-5.595210935417033182e-02
-3.531513788619225491e-02
-4.922314206790232016e-02
-5.306772395894525374e-02
-2.063152919029435928e-02
4.809468338561142392e-02
1.129930211863950928e-01
8.991446244424795842e-02
-5.817264735748645804e-02
-1.941311268605639961e-01
-8.224476838290664671e-02
2.871426165432694466e-01
5.632868858483456309e-01
4.434457411726170917e-01
1.084426625800962996e-01
-2.336300406287447617e-02
1.346426475475796525e-01
2.989080887245716411e-01
2.500458599349681954e-01
5.142722658895812482e-02
-1.255183515435685793e-01
-2.040012984747281433e-01
-2.085457361818719713e-01
-1.842656290320628387e-01
-1.601382122236758576e-01
-1.468727828183969963e-01
-1.388978669671634969e-01
-1.289580410947498423e-01
-1.233960847271396988e-01
-1.350582191830948797e-01
-1.649855571040285962e-01
-1.964526526233523473e-01
-2.049862359828805991e-01
-1.752040314556869427e-01
-1.148388058466331407e-01
-5.646278375601628680e-02
-3.538149885275490569e-02
-4.938398794861505181e-02
-4.624283977892829772e-02
2.511337522844659872e-02
1.468701945009445176e-01
2.345793722801395031e-01
2.183097131295317905e-01
1.101043462029576842e-01
-2.244948965386436152e-02
-1.266981234661956057e-01
-1.783925923230826605e-01
-1.649559578291842632e-01
-1.096962278462591811e-01
-7.292752369690311265e-02
-8.474816893778625015e-02
-1.158556101264782978e-01
-1.284565781202411661e-01
-1.151003942353054088e-01
-9.090328259155243396e-02
-7.664905017464643255e-02
-7.941686879122421272e-02
-7.588081119486053683e-02
-3.518566330644049001e-02
1.978059150067607713e-02
3.808805104448015951e-03
-1.106030482640424778e-01
-1.790493409565969141e-01
-2.726129415404236409e-02
2.587741703407016591e-01
3.833224614220889781e-01
2.556218018078433851e-01
1.114381960622079504e-01
1.437968502788013470e-01
2.604719150071230782e-01
2.727652816732310526e-01
1.362235677502462439e-01
-4.749341081274691123e-02
-1.646709311742831083e-01
-1.809785469738879327e-01
-1.350033333649188760e-01
-8.245193303915965277e-02
-5.953640546364440816e-02
-7.641445285425842171e-02
-1.169018972726763583e-01
-1.527297176004610846e-01
-1.746292231731570443e-01
-1.955709112501671509e-01
-2.156333746061186440e-01
-2.097781106869935352e-01
-1.638704928763842217e-01
-9.986272721959900400e-02
-5.378699650306164454e-02
-4.185565114105031792e-02
-4.730890297883316026e-02
-3.190305551150422053e-02
3.285460058473186479e-02
1.378134715716789471e-01
2.370893055034491437e-01
2.752602903941627766e-01
2.245872683789799651e-01
1.118626985350637815e-01
2.537295414190728765e-03
-5.524830925167031198e-02
-6.327792691080619258e-02
-4.860128323563484010e-02
-2.943936395661963384e-02
-1.642334597957666870e-02
-2.545400557930967145e-02
-6.194221339972491580e-02
-9.730075258560204332e-02
-9.199174005391268227e-02
-4.557907757223189638e-02
6.252345002765277021e-03
4.334472313800721149e-02
7.172416662152839018e-02
8.231376756873672040e-02
3.855181014609428136e-02
-6.971323727273777415e-02
-1.508397767243481458e-01
-3.559091429006082385e-02
3.063213910358695835e-01
5.997041333950869912e-01
5.369675550243100393e-01
2.174872178399500089e-01
3.523440292073128782e-02
1.404323726328351174e-01
3.002678679868688305e-01
2.752095782888487330e-01
9.103641226870314018e-02
-7.506670323521397181e-02
-1.203213505186939425e-01
-7.551860243566838049e-02
-1.639039152039988706e-02
1.157454868457430570e-02
-4.258618741047898865e-03
-5.992378652849896653e-02
-1.357696084740105391e-01
-2.009406856557237331e-01
-2.332509995627477795e-01
-2.315565477304756814e-01
-2.047555532472433160e-01
-1.591570391182987598e-01
-1.013432153401653685e-01
-4.288760108160730861e-02
1.563347654961150940e-03
2.093130348109132829e-02
2.399108251593619345e-02
4.613665730756050937e-02
1.147506309398336338e-01
2.071885772404076786e-01
2.651069727716101054e-01
2.496886102668637031e-01
1.738958322745214058e-01
8.545040099798571764e-02
2.190828948455968497e-02
-1.587132317450581920e-02
-4.702116463783197892e-02
-7.893906636329220405e-02
-1.009608225746638360e-01
-1.013403521414248804e-01
-7.746805958252715729e-02
-3.524739548640049014e-02
1.142665864725718981e-02
4.736612519687279088e-02
6.476587924387991468e-02
6.285169532259682335e-02
4.749408773409048018e-02
2.710011277463132348e-02
-5.916722709992452110e-03
-7.721797327084764517e-02
-1.790875687288802920e-01
-2.078347027790916624e-01
-2.429243772714531277e-02
3.317140743841038852e-01
5.694185976086423295e-01
4.667555170596867642e-01
1.844126683233247022e-01
5.183999193595148491e-02
1.351074906353607608e-01
2.284513521428045979e-01
1.823113776317462076e-01
4.883037792958237061e-02
-5.394747193966351051e-02
-8.341201475738087290e-02
-6.968147502553262429e-02
-5.180063942291295020e-02
-5.216167218224859736e-02
-8.007249780844186149e-02
-1.271588687382284311e-01
-1.654411867178551265e-01
-1.674317323275620051e-01
-1.373804322192161420e-01
-1.159029408871954936e-01
-1.318403632893297706e-01
-1.561532825662912127e-01
-1.380106932147127652e-01
-8.020844566260626474e-02
-4.239853591154466722e-02
-6.783916074609944169e-02
-1.259744310298051839e-01
-1.344016094076118939e-01
-3.962413421144024561e-02
1.222637476297187276e-01
2.464408506037452928e-01
2.487350627852172869e-01
1.407061821405626578e-01
7.417229034972380036e-03
-8.294100128153331086e-02
-1.212313809867010539e-01
-1.278459236611843575e-01
-1.257790172611558122e-01
-1.312743659135699736e-01
-1.372593281735870474e-01
-1.185227786287823964e-01
-7.318909110826894715e-02
-3.988516066356039003e-02
-5.124937441824584800e-02
-8.877881010205276868e-02
-1.107440253319924295e-01
-1.038612404472167294e-01
-8.375687161597245023e-02
-8.052845961016080745e-02
-1.354037817937080723e-01
-2.376379361837460125e-01
-2.501641473635499713e-01
-3.290485661279678870e-02
2.955197274592828438e-01
4.086430087032110747e-01
2.101687534274342128e-01
-8.286183576746861124e-03
9.001384094746558984e-03
1.564640490123239414e-01
1.969146880340614802e-01
8.512714986855206278e-02
-5.439536414697651590e-02
-1.231298201567428280e-01
-1.256989011009212454e-01
-1.156260004207857739e-01
-1.310365609528372777e-01
-1.731630728254372475e-01
-2.164045733440199404e-01
-2.352870526777034177e-01
-2.275889558196014795e-01
-2.075986622503241952e-01
-1.814033736826894672e-01
-1.461696998778270751e-01
-1.071180895518409615e-01
-7.032598651343517637e-02
-3.310766681593649285e-02
-8.524690345395087229e-03
-3.064965305204397916e-02
-1.010451080952733255e-01
-1.499483794413491167e-01
-8.162651352760161294e-02
1.244813128015484216e-01
3.546219109153680993e-01
4.377948755867051012e-01
3.122183303401475651e-01
8.891620326037896760e-02
-6.909664749201845091e-02
-9.910033059035061598e-02
-5.866287788549315318e-02
-2.916804269001240651e-02
-2.803873236259842375e-02
-1.816403435851284345e-02
1.906941809148598663e-02
5.580823699384256098e-02
5.973971974660848699e-02
2.857471714124573681e-02
-1.842352049028362845e-02
-5.705808376573645591e-02
-6.662763143705283109e-02
-4.218251574959872713e-02
-9.571533277385468885e-03
-2.143282846930532476e-02
-1.020172001846006843e-01
-1.625560991029509905e-01
-3.253070529524231674e-02
3.046752729021691142e-01
5.623729253638855008e-01
4.557050892946442611e-01
1.205105597424230013e-01
-4.754657554039237038e-02
7.352882943790568782e-02
2.399132889743223751e-01
2.298953542863597654e-01
8.196439296562509080e-02
-3.956182485072357730e-02
-5.565409486938777128e-02
-2.162736135570582016e-02
-3.707809211253623727e-02
-1.331364219716572872e-01
-2.313914516311941783e-01
-2.251600954604117688e-01
-1.134704047441393998e-01
-9.320378895428090005e-03
6.416864567510550260e-03
-3.180833941201032661e-02
-6.086342739889565728e-02
-7.195577668897529255e-02
-7.543034324640296440e-02
-5.577808784719673341e-02
-7.742835858919158883e-03
2.423902492092567390e-02
4.823000048620529508e-03
-1.168456893206489162e-02
6.610205579236783091e-02
2.318435947414657916e-01
3.610294306779448514e-01
3.391626971655089529e-01
1.802940793446348722e-01
6.534414554837490730e-03
-7.568177495369836361e-02
-6.270877169497506010e-02
-2.317430586609578458e-02
-7.452869059340705080e-03
-7.649229843176008625e-03
3.829819737124929603e-03
2.685692239332352835e-02
3.657340311300960600e-02
1.833896334527237645e-02
-1.871532584493817986e-02
-5.904617041626806367e-02
-8.885646046215654736e-02
-8.627844732618397683e-02
-3.176226837360140998e-02
5.065427200553385828e-02
7.861794921034681582e-02
9.075462073730159633e-04
-7.311690396793067703e-02
5.418491371952594005e-02
3.686272883670777545e-01
5.609144629872623300e-01
4.192449896424876865e-01
1.481260814558684746e-01
7.846676291028530092e-02
2.205204741623542630e-01
3.204713737215910130e-01
2.299602967964714806e-01
4.256523404076641148e-02
-7.703582979871216596e-02
-8.579400739255177433e-02
-6.822069122929748375e-02
-9.877008501509934590e-02
-1.541708633037685572e-01
-1.664355215888188577e-01
-1.216755025220972730e-01
-7.805067765990800210e-02
-8.888095171223846236e-02
-1.357252908458375651e-01
-1.601897145942351997e-01
-1.428848217185184899e-01
-1.161581947579157226e-01
-1.070190608652424880e-01
-1.107208682824248475e-01
-1.234587983610234002e-01
-1.486827731155387355e-01
-1.535184277596396973e-01
-7.298858929250848226e-02
1.031171739777791002e-01
2.772100713875964573e-01
3.203269231581601373e-01
2.016728746369270131e-01
1.967297494807131175e-02
-9.976478880309648523e-02
-1.173664436802718675e-01
-8.505607946662827046e-02
-6.487672225082780075e-02
-7.151299774820547850e-02
-8.173314413592645822e-02
-7.506784703429247863e-02
-5.731241863654292640e-02
-4.786404888724080792e-02
-5.915196416371998334e-02
-9.426025326685719130e-02
-1.437330638784367065e-01
-1.747342428146705373e-01
-1.455477242174339492e-01
-5.287126707058044384e-02
3.459426824523664096e-02
1.746342792865898316e-02
-1.083348224618841393e-01
-1.748631583766046271e-01
-1.235367509055463123e-02
2.645341935839947700e-01
3.374285922286295869e-01
1.412030529184761796e-01
-1.931735432130363139e-02
7.483124236025719134e-02
2.643213566357058841e-01
2.912198091844899195e-01
1.320996414364060401e-01
-5.541183569189142566e-02
-1.575523723548589994e-01
-1.769799573156121686e-01
-1.611617071684904312e-01
-1.411979555577489165e-01
-1.266281609699607402e-01
-1.143792023258838747e-01
-9.803609291906968670e-02
-8.672382120211172274e-02
-1.034023989423788203e-01
-1.504529105875211659e-01
-1.980977057875142056e-01
-2.161150889361562466e-01
-2.020907415266781915e-01
-1.782858765509559018e-01
-1.668738188723874472e-01
-1.669371024196404374e-01
-1.550576665821871147e-01
-1.048624097099555563e-01
-2.414224348855977496e-03
1.423928472322501526e-01
2.758852153159309095e-01
3.086592110445444681e-01
1.928885768756918306e-01
-4.468217404822637240e-03
-1.479922546217417312e-01
-1.639132570225813879e-01
-9.975888099538919584e-02
-5.199208432973061872e-02
-5.977069049825602803e-02
-8.575225097677216524e-02
-8.514629533225830105e-02
-6.171855575763166013e-02
-4.602753461612561769e-02
-4.637663412931538470e-02
-4.879781541267064898e-02
-4.573572149294700961e-02
-3.270445178168730066e-02
1.748004489562680376e-03
4.174728118485936806e-02
2.050476461478858287e-02
-1.002707997978944249e-01
-2.084843180337684898e-01
-9.360102484822950542e-02
2.659400342417655438e-01
5.532568467092704445e-01
4.709981550073525924e-01
1.749959704975104779e-01
5.937817238393002656e-02
2.013586832805906168e-01
3.333581717399052846e-01
2.699611596826345106e-01
8.901874150239483252e-02
-5.439883421775865147e-02
-1.099569798536024212e-01
-1.293387845341858189e-01
-1.623395879079851112e-01
-1.896090940669815095e-01
-1.697927819690374096e-01
-1.216689394473079722e-01
-1.016958884671992497e-01
-1.196635418771792858e-01
-1.391026229117656166e-01
-1.418301502588927010e-01
-1.358216611912312632e-01
-1.205169249610732463e-01
-8.942832912378795296e-02
-4.898595997702283322e-02
-1.362707769644988347e-02
1.437540036486820031e-03
-9.691919843274164267e-03
-1.783013551748225539e-02
3.317328747185077642e-02
1.567335737110497340e-01
2.771876768440367789e-01
2.923154385810577405e-01
1.859818326477142569e-01
4.859074957415515650e-02
-2.331424432781693118e-02
-1.740289759272000900e-02
1.303690150768156350e-02
2.112929502328867587e-02
2.309540718339899400e-03
-1.854439753719691955e-02
-2.127522511989034248e-02
-1.376316302892750115e-02
-1.596622985424878127e-02
-2.498144563361365950e-02
-1.735850588447895165e-02
1.400064060907275747e-02
5.154846197895959770e-02
8.038031675672774323e-02
8.547047357677681201e-02
2.736726663889586103e-02
-9.760069703020084197e-02
-1.529848103524491798e-01
4.143135721463843402e-02
4.167550757533770023e-01
6.288827044765243901e-01
4.833089964042091569e-01
2.069931729244079699e-01
1.214498895030558939e-01
2.328702059766189492e-01
3.146578762495716441e-01
2.365758659370822137e-01
6.546502583048352530e-02
-7.259398338546566021e-02
-1.224686650145717787e-01
-1.094364312242117609e-01
-8.265540893255925170e-02
-7.357109968342295803e-02
-8.729772929296425454e-02
-1.104450028642025156e-01
-1.283889360449063377e-01
-1.386049641849655401e-01
-1.440385853908947300e-01
-1.403785434447153979e-01
-1.215661168986153506e-01
-9.350879452649715762e-02
-7.012288920003183212e-02
-5.947240201257452535e-02
-6.103607859672893765e-02
-6.829514319351794038e-02
-6.608180246989139861e-02
-3.165043820178171236e-02
4.863822559955434388e-02
1.550130070411239458e-01
2.316682255115789790e-01
2.270664144618550484e-01
1.446187536625030690e-01
3.770961602844313809e-02
-4.353770498993685123e-02
-7.945985843455730113e-02
-7.548546410794380879e-02
-6.171221283065748964e-02
-7.517640613633581881e-02
-1.160688058558356495e-01
-1.407511459948755927e-01
-1.109337642927325646e-01
-3.376040574276385764e-02
4.482227237111788970e-02
7.401311394452642078e-02
4.196081155884531788e-02
-7.949752540826507743e-03
-3.233900690083826163e-02
-5.756493870770099802e-02
-1.469510548581276776e-01
-2.714667990613221504e-01
-2.603754869932633498e-01
1.082672989192874982e-02
3.691075166679744779e-01
4.676400171611742040e-01
2.444546067160407454e-01
1.959089711626786634e-02
3.574671052247724995e-02
1.669992203153590760e-01
1.782776565320138840e-01
4.208233434900441466e-02
-1.002913166798244798e-01
-1.473416553225632697e-01
-1.125971361601755538e-01
-5.717366212883107784e-02
-2.809563222610429734e-02
-4.804515694180384877e-02
-1.120644240138546771e-01
-1.877295726065844050e-01
-2.390697905433290527e-01
-2.494251188575338229e-01
-2.191319237917216667e-01
-1.615648763222366779e-01
-1.047757058065207358e-01
-7.334448815996741367e-02
-6.659081925830842574e-02
-7.117302498144811862e-02
-8.810168177401321576e-02
-1.214645810033440215e-01
-1.353563508639150925e-01
-6.197179118028602052e-02
1.071426785616893945e-01
2.714359529180346842e-01
3.175295451988381368e-01
2.370127935612484638e-01
1.058204087217223532e-01
-1.272792209128400381e-02
-9.804946842319717248e-02
-1.387602688820346597e-01
-1.251648389362928770e-01
-7.725001861161186201e-02
-4.203769569861610933e-02
-4.771718260404684414e-02
-7.721416672757286381e-02
-9.334684790807716570e-02
-7.975215115887068773e-02
-5.575658822754240435e-02
-5.329384315495516722e-02
-7.614135483406136995e-02
-8.891142293110516903e-02
-6.304512603212619748e-02
-3.231700542529453851e-02
-6.233576455126151050e-02
-1.226114630176518144e-01
-4.578066753285833790e-02
2.457650409276776471e-01
5.132300429096665617e-01
4.529149061243847862e-01
1.536192442430184824e-01
-1.361233045413233478e-02
7.778811536126865878e-02
2.119195720943306549e-01
1.976395021791428619e-01
6.945397310361245413e-02
-4.339466668389950488e-02
-7.827454418192367203e-02
-6.416355253569384909e-02
-6.203739403890950327e-02
-1.015605926778632151e-01
-1.642060374678772916e-01
-2.128229144701894449e-01
-2.248383178424666895e-01
-2.060547757097521970e-01
-1.818422363567852584e-01
-1.699770204513560423e-01
-1.672081179086927771e-01
-1.623180803706772979e-01
-1.469786929548530241e-01
-1.187733299138321319e-01
-8.961310039672380767e-02
-8.075408893489494089e-02
-9.146469379284050127e-02
-7.957826869710310502e-02
6.861880551081621198e-03
1.680276850369327724e-01
3.250200211246501714e-01
3.705123527892457691e-01
2.659986716631050907e-01
8.437282242321494929e-02
-6.069677386603287983e-02
-1.158443017379020418e-01
-1.044663302749235523e-01
-7.288593627675864217e-02
-4.908976789088873027e-02
-3.416972626841562749e-02
-1.066967870387087319e-02
3.199381052641937090e-02
7.248584461034310311e-02
7.033872350824073305e-02
1.319715798323347657e-02
-5.865671775341921995e-02
-8.760732907548660076e-02
-5.627964153578823153e-02
-6.328703957355765602e-03
-2.522261933241990231e-03
-5.892477545907467973e-02
-7.475650174895923095e-02
9.889250765921923925e-02
4.301881617359616938e-01
6.277758045621490979e-01
4.793439730493882500e-01
1.764620450606495805e-01
6.460459397886095245e-02
1.801373083751887649e-01
2.794001653930644480e-01
2.173721287633900989e-01
7.638760744438836958e-02
-2.009441208787577857e-02
-5.264276916835155390e-02
-6.001955170455683386e-02
-5.573675491433872226e-02
-4.020923248509437192e-02
-4.034179289918204264e-02
-7.975628174007190485e-02
-1.349877842943979500e-01
-1.597369949633077046e-01
-1.386166643374742713e-01
-1.024643459861121625e-01
-9.866732923413418233e-02
-1.416157592187353986e-01
-1.904190488121352554e-01
-1.920604318826436008e-01
-1.464702043327249514e-01
-1.039404775204426506e-01
-8.679460733120300531e-02
-4.469495851876021525e-02
7.694973506866448210e-02
2.449579523643553858e-01
3.525753758395741566e-01
3.197731749698425330e-01
1.663729677393267492e-01
-8.411464567665911246e-03
-1.132401298345469820e-01
-1.271601974778923116e-01
-8.648020320611010670e-02
-3.891285593631316903e-02
-1.653408641796295236e-02
-2.488271919974591878e-02
-4.079095355209187007e-02
-3.837412525124967583e-02
-2.574455983538525422e-02
-3.382331039573441278e-02
-6.537056178870677414e-02
-8.328470452780099842e-02
-5.685669992638634623e-02
-1.512185544936785891e-03
2.543885760788431455e-02
-3.217132519317272843e-02
-1.475704480934854623e-01
-1.653699224469674101e-01
5.442798752857203742e-02
3.881482138031126516e-01
5.074999481134211399e-01
3.023794200784670760e-01
4.769574066772680476e-02
2.275372844109593840e-02
1.773487150940477319e-01
2.836427072709911679e-01
2.326950609141335835e-01
8.741237860956949102e-02
-4.484431990896337039e-02
-1.151231515354544238e-01
-1.423512828978692468e-01
-1.638930066201630120e-01
-1.857998634420596484e-01
-1.806658940264576907e-01
-1.369085594270253448e-01
-9.595409127381018810e-02
-1.095529723950798007e-01
-1.622029294192560145e-01
-1.813005122965975768e-01
-1.360148294152604409e-01
-7.588488148172753411e-02
-5.469946710029439246e-02
-6.838696159898853544e-02
-8.568530650289200856e-02
-8.916007023776348350e-02
-6.023559246437716619e-02
3.119348716952644041e-02
1.782071285481825473e-01
3.026371904105410460e-01
3.118577065818461391e-01
1.889768216958032099e-01
1.302253764790878288e-02
-1.133598445880313749e-01
-1.504877303403876210e-01
-1.265373044523786239e-01
-7.941989034377300305e-02
-3.063064345270724576e-02
1.629032809607599587e-03
6.394013862002245231e-03
-9.197122736894410358e-03
-3.466009070514530777e-02
-6.385596194817466653e-02
-7.983160075004562539e-02
-6.395524159321049062e-02
-2.185454048126704574e-02
2.767090257018835556e-02
6.745389996078976491e-02
5.672408949521040578e-02
-5.297126955322641051e-02
-2.065271870006402943e-01
-2.062887387448507637e-01
6.388114696596908226e-02
3.823941441946649977e-01
3.963631222127676490e-01
1.230142158190806051e-01
-5.656370571796016933e-02
5.719824423990328005e-02
2.607513354701018748e-01
2.938646523450216819e-01
1.408576181080056500e-01
-4.400802644858729795e-02
-1.402784212815174070e-01
-1.417215334909227020e-01
-1.092419878378430576e-01
-9.230424490423781714e-02
-9.395676187445371752e-02
-9.922684320770970567e-02
-1.099512313345475806e-01
-1.291009677615242435e-01
-1.393212870085052957e-01
-1.326011082305550148e-01
-1.346036939491052908e-01
-1.642373689789979052e-01
-1.966008594579035096e-01
-1.973860603729620800e-01
-1.686965342851172722e-01
-1.375734424306096215e-01
-1.160672461212449713e-01
-8.296610484929392570e-02
-3.388177344238455912e-03
1.206221510925894747e-01
2.209728320381753042e-01
2.162169443402200686e-01
1.032807011751488424e-01
-3.023090066365752282e-02
-9.396180620291692820e-02
-7.272729812197639698e-02
-1.525726286257453324e-02
2.939524902855060462e-02
4.824205995763181098e-02
4.360350797295473035e-02
6.214664811555149423e-03
-6.324052328092828745e-02
-1.240503676747121281e-01
-1.266408932668875720e-01
-7.218843013668820030e-02
-8.831495952713527831e-03
3.222182055518078153e-02
6.006255994787248337e-02
6.903784007380417420e-02
6.844705881570132405e-03
-1.349042248097633845e-01
-2.111200164520747879e-01
-3.333171875287026242e-02
3.337705854174281561e-01
5.403838468059350975e-01
3.820259530807288417e-01
1.004937158656075830e-01
4.459478905905130131e-02
2.062945323413178378e-01
3.151345797734153020e-01
2.327552658188697943e-01
5.486683065803306392e-02
-7.876498508299142887e-02
-1.283127913729996405e-01
-1.320548068590842727e-01
-1.238620140783997237e-01
-1.033347206928682260e-01
-6.759974820593903089e-02
-3.581067658415949817e-02
-3.180610023422708599e-02
-5.861068467209244043e-02
-9.468568872743993170e-02
-1.130212687672688676e-01
-1.141132582765968517e-01
-1.330435654999153894e-01
-1.876213545140786587e-01
-2.350783745689185300e-01
-2.199052598744947185e-01
-1.466979815385843489e-01
-6.850698006877835311e-02
-1.825641056771065349e-02
2.164890515317077074e-02
7.940410287304416892e-02
1.363418880206076766e-01
1.378863088566620321e-01
7.100644667574826374e-02
-5.752144341660238996e-03
-2.946377872996387010e-02
1.106927562452390823e-04
3.438166770306166908e-02
3.274475935354754369e-02
-4.889481495104965915e-03
-5.156107588753947035e-02
-8.500169999637806340e-02
-9.702865608146395149e-02
-8.494701845337900015e-02
-5.198973277598396142e-02
-1.137689511012459666e-02
2.133125153490006420e-02
4.145821236261661158e-02
5.351336633338585336e-02
4.499418708416678264e-02
-1.916107831286571750e-02
-1.209612054671255210e-01
-1.182409861547325663e-01
1.201089715951866033e-01
4.583209210543829348e-01
5.658414644688981587e-01
3.554307281006954811e-01
1.238433244289603441e-01
1.313952254165165756e-01
2.762065555946007778e-01
3.069643924044009875e-01
1.645366000100388637e-01
-8.066545603894553773e-03
-8.354566420149213413e-02
-6.834310216962885542e-02
-3.648773411174187353e-02
-2.864935822474787980e-02
-3.251665940724764170e-02
-2.458494225161385327e-02
-1.334170521077544802e-02
-3.837111008927972938e-02
-1.131771973217619576e-01
-1.881172367878311547e-01
-2.035207034610082288e-01
-1.560332403164292614e-01
-8.365224243338457988e-02
-1.705812217587227009e-02
2.572045067115574443e-02
2.521941267648517698e-02
-2.161682448303603454e-02
-7.178531281474576087e-02
-5.232754761283059386e-02
7.156954765168192789e-02
2.444755402004364642e-01
3.520216207815532461e-01
3.159818977871385326e-01
1.621643354737427045e-01
-6.240422363422953866e-03
-1.010193971208494246e-01
-1.109814218680055808e-01
-8.526235185158732854e-02
-7.801573581912817079e-02
-1.059886725797355295e-01
-1.404583993278339105e-01
-1.395983514325878083e-01
-9.467941818097694306e-02
-3.791697970851058003e-02
-6.702853293186434268e-03
-1.347348880141342742e-02
-4.169873863611892051e-02
-5.699728087380558778e-02
-4.369313076827279624e-02
-4.306992874565981899e-02
-1.104219174018352678e-01
-1.948277245664442603e-01
-1.201378026499464041e-01
1.915612452783591046e-01
5.014223912995459109e-01
4.814789127767593047e-01
1.835922363624615528e-01
-1.049457501757148498e-02
6.989420389080520934e-02
2.111035064376926007e-01
1.875314890614013241e-01
2.572143709007997450e-02
-1.159503339853313192e-01
-1.456073386251321156e-01
-9.095641551558472648e-02
-3.957074111371478714e-02
-5.097018291512757371e-02
-1.118930854816506670e-01
-1.685719849915679747e-01
-1.896697278221328165e-01
-1.862391333583767183e-01
-1.777780396728785572e-01
-1.627620520519797997e-01
-1.343729467437352609e-01
-1.021092635802903492e-01
-7.827760736464425828e-02
-6.402100214703242143e-02
-6.237777092593628503e-02
-8.168152251621964288e-02
-1.131402986998803900e-01
-1.203696440397865053e-01
-6.350957570014184594e-02
6.110080833807224332e-02
1.971127945670208270e-01
2.565905631756625338e-01
1.990557269120436790e-01
7.009856346280239625e-02
-5.574696747245408424e-02
-1.387915595606174224e-01
-1.724333168476910871e-01
-1.642679827062933362e-01
-1.350983594896898454e-01
-1.101171019588642330e-01
-9.970302225589749989e-02
-9.228276642614081926e-02
-6.965280918221347650e-02
-3.697575057047122749e-02
-2.832364652817593101e-02
-6.291410611219085125e-02
-1.066214114767290444e-01
-1.065359375011585702e-01
-6.887923003983706383e-02
-7.049812527175806920e-02
-1.490596559079965522e-01
-1.850365561443804707e-01
9.996859269308129917e-03
3.972429145430694808e-01
6.277051782047846640e-01
4.569816059992941604e-01
1.120044744962637173e-01
-1.372211786261505473e-02
1.193380595054486376e-01
2.418643761334093312e-01
1.920044137530692863e-01
5.083757445345080811e-02
-4.903348832983478456e-02
-7.633277844186776850e-02
-7.807782389034577386e-02
-9.590739302905164354e-02
-1.293977066396873321e-01
-1.570145123613767013e-01
-1.666056943438259941e-01
-1.622843224270670015e-01
-1.571443537921989597e-01
-1.595459436305687317e-01
-1.592807835187056709e-01
-1.397629688314819540e-01
-1.079859861135009785e-01
-9.105451898056293736e-02
-1.006507233232174087e-01
-1.230426064710667122e-01
-1.377041866395802283e-01
-1.205522444174304403e-01
-4.262658398082065647e-02
1.011398095646704326e-01
2.607963970692276368e-01
3.514119259467791134e-01
3.235262089788115136e-01
2.120852356474979272e-01
9.414609953334276971e-02
4.293568757105011707e-03
-7.349438650129401507e-02
-1.412629108996865945e-01
-1.637059447458678596e-01
-1.159938729710791594e-01
-2.438265345567828396e-02
5.285026928178716138e-02
7.464530855307655033e-02
4.235162643234094415e-02
-1.166390784038380188e-02
-4.805054309643022603e-02
-4.429147930010420703e-02
-1.215029052465372433e-02
1.202115877949593015e-02
-1.075256748559556916e-03
-5.196108115035050906e-02
-9.291671130847033166e-02
-1.910027973180253649e-02
2.318044461950912738e-01
5.115402164226152681e-01
5.417049558750917093e-01
2.840182036695786394e-01
4.600423620597517832e-02
7.853487470583156438e-02
2.712421231728271431e-01
3.664552111405571244e-01
2.840734100298564768e-01
1.306995004122248061e-01
1.587931403236939043e-02
-4.787279150855863058e-02
-1.032942586215845199e-01
-1.663661434483970081e-01
-2.049814924208444855e-01
-1.887997089793626015e-01
-1.358063090422445551e-01
-9.436762697079924267e-02
-9.061061470570141996e-02
-1.104555015561182602e-01
-1.265296094910877966e-01
-1.283719864900833563e-01
-1.269517934081229038e-01
-1.325001489517563247e-01
-1.334486901792236169e-01
-1.106193642559031437e-01
-6.650699297324091930e-02
-1.631711698706473160e-02
4.813324819321427445e-02
1.511752615511865738e-01
2.733272941557028934e-01
3.312616396818763298e-01
2.575934129336510670e-01
8.839102019516828501e-02
-6.714258988160069774e-02
-1.370485938090557354e-01
-1.311714242374054096e-01
-8.950268381450762756e-02
-3.751618498880089636e-02
4.996593721944837807e-03
1.965904579798708959e-02
1.169031189782635330e-02
8.307311511666953113e-03
2.236404344187186560e-02
3.471108264227983076e-02
2.159405225997614031e-02
-1.019934848552019567e-02
-2.487424959713828779e-02
6.444955748546431912e-04
3.258158594540731812e-02
-1.452303674148941806e-03
-1.027336006557043740e-01
-1.247197701934757569e-01
7.162302829210759336e-02
3.531578921404334714e-01
4.056570649909846948e-01
1.782736186278227331e-01
-1.838491109255925571e-02
3.833631558442401194e-02
2.101922048432507129e-01
2.613654025190578212e-01
1.540876447219939049e-01
3.658876554578072843e-03
-1.027132180521547339e-01
-1.637241151580220155e-01
-2.028395871205022905e-01
-2.164707295460605585e-01
-1.955994750653267666e-01
-1.610226028065210313e-01
-1.396213638831843018e-01
-1.258385217113411059e-01
-1.039408814756962035e-01
-9.146723577365875602e-02
-1.191231193557037993e-01
-1.743509919796159824e-01
-2.037976423212959909e-01
-1.768188376988436838e-01
-1.213864169432497808e-01
-8.695671054486528440e-02
-8.303971540588364619e-02
-6.755190765594538960e-02
3.887091579234936128e-03
1.249464592928417606e-01
2.313571171147904282e-01
2.426599543053389596e-01
1.307402739610055431e-01
-4.005229246801557397e-02
-1.619148305363800611e-01
-1.800853710110608963e-01
-1.228308185718071793e-01
-5.093583528126012505e-02
-8.652799420442294775e-03
-9.415664855850477966e-03
-3.871358680348518239e-02
-7.142342980479854386e-02
-9.259316474031410726e-02
-9.832505905486077502e-02
-8.634794522975312858e-02
-5.818383772412100835e-02
-2.351854302917229245e-02
7.787662971031763560e-03
2.340076559518899230e-02
-1.507530299408770674e-02
-1.411191684265571400e-01
-2.655036193433210623e-01
-1.765434914249005005e-01
1.734827252766582562e-01
4.636491558189603235e-01
3.633294513463453113e-01
2.968603271685860134e-02
-9.359732575462029192e-02
1.004653187361853328e-01
3.045103993789469166e-01
2.692300036672740093e-01
6.286001655015668876e-02
-1.131677035587185937e-01
-1.690634979291620321e-01
-1.547006597845047016e-01
-1.426226439538854363e-01
-1.484923564763414305e-01
-1.492299758952955469e-01
-1.293061538353011131e-01
-9.598609602265124885e-02
-7.127306044938226670e-02
-7.550464722923917738e-02
-1.082692605197247138e-01
-1.457611504490846921e-01
-1.635620712830552770e-01
-1.579659617061215382e-01
-1.376556826558681113e-01
-1.063044352514143226e-01
-6.742367361491491407e-02
-2.418741332741593253e-02
4.279928086086227934e-02
1.584485658154961285e-01
2.938513383790089528e-01
3.683240519633950161e-01
3.265439833843440942e-01
1.887382860994870071e-01
3.154921378334709509e-02
-6.831221218058661226e-02
-8.673885732322307585e-02
-5.651458026738521989e-02
-2.337149383952236842e-02
-1.479827583036047445e-02
-4.108912932633611986e-02
-8.610008734221291649e-02
-1.022252733701322636e-01
-6.142148738791995688e-02
-1.870290028424799120e-03
2.166051744911403829e-02
1.341374457754119891e-02
2.053823639934632128e-02
6.354045152065079805e-02
1.062046160281926860e-01
7.916436506607267554e-02
-4.269258211694022809e-02
-1.465303460756876008e-01
-4.059371245013324025e-02
2.801432648069370757e-01
5.273836718794727707e-01
4.672978812956022909e-01
2.526045870464749821e-01
1.787083285189074444e-01
2.640807973418061172e-01
3.107246901167564634e-01
2.321154973074316952e-01
1.089697251142382056e-01
1.345419768070763543e-02
-5.856971696489844670e-02
-1.097967107119661168e-01
-1.102657239610108225e-01
-6.076396285971276401e-02
-1.978546427186298265e-02
-3.492557224366659580e-02
-8.355881650751111056e-02
-1.098510566490158158e-01
-9.418395557153466657e-02
-6.076724194659142986e-02
-4.085840597690981735e-02
-5.388333616275240573e-02
-1.061823258967182354e-01
-1.813890992318579198e-01
-2.353291113001126089e-01
-2.233749194535707139e-01
-1.402691837231894723e-01
-1.751078339891530902e-02
1.093745840793371310e-01
2.063645216471863275e-01
2.401773734801109783e-01
2.036755582780601093e-01
1.245674666092098093e-01
4.267480854769225423e-02
-8.698140758418699409e-03
-1.641138332542989992e-02
-2.083829543390095657e-03
-8.711516011416753705e-03
-5.352413814829341809e-02
-1.035674086545960160e-01
-1.162889945558445298e-01
-9.237377243884153932e-02
-6.451681251451885091e-02
-4.093618209955334625e-02
7.941621882770227847e-03
9.167213149439393249e-02
1.591910962958665854e-01
1.474623953287910461e-01
4.360704214110346782e-02
-1.185920650256959835e-01
-2.624998353915653504e-01
-2.508757831362250501e-01
1.283663372651409201e-02
3.871634274345275295e-01
5.497683007088334239e-01
3.849292280542623290e-01
1.460988693181297648e-01
9.906104489528733126e-02
1.952794245566830400e-01
2.246258720946567033e-01
1.212449196394871920e-01
-8.534138398303430309e-03
-7.117135279468693454e-02
-8.444390286488992481e-02
-1.034760176715519425e-01
-1.356211353012843623e-01
-1.613202890472460738e-01
-1.870855642453029266e-01
-2.323390536208426727e-01
-2.845653779487981039e-01
-3.074660734625815350e-01
-2.892623394582615193e-01
-2.513166417475061198e-01
-2.063557449863442916e-01
-1.385324256021681633e-01
-4.546103604167987811e-02
2.215491808975383892e-02
5.411018988276171046e-03
-8.056055217980077898e-02
-1.493769234793781708e-01
-1.262068941186340887e-01
-5.598033986584429259e-03
1.437141397566054357e-01
2.146522519777828708e-01
1.481296228949660065e-01
-4.393068101704450390e-04
-1.168106600830158548e-01
-1.479651615165751555e-01
-1.346317414521767120e-01
-1.387735039221317246e-01
-1.739086856471722953e-01
-2.038775234333091435e-01
-1.910402718922555310e-01
-1.385626281946935601e-01
-8.042953059890849132e-02
-3.800687284171545832e-02
-7.068199944757729350e-03
1.710028248371849025e-02
2.588897165170436776e-02
1.089178062987545582e-02
-2.632852515742609145e-02
-8.621654045080250073e-02
-1.670837673502749421e-01
-2.050321796814437991e-01
-6.026246774148032170e-02
2.946667680576517401e-01
5.932335330729028300e-01
5.305884821032538223e-01
2.100949228988738815e-01
2.625982870391548041e-02
1.131638955440144728e-01
2.337828786275149839e-01
1.824939538289613583e-01
1.270891966384738239e-02
-1.182492762398942854e-01
-1.384525480417000964e-01
-8.230464206961317364e-02
-2.327998900087810755e-02
-1.734075929334922064e-02
-7.646140096760301041e-02
-1.702788553522044945e-01
-2.517422154452713667e-01
-2.821427652873469416e-01
-2.429646115809590834e-01
-1.517935326576839716e-01
-6.660393059827111883e-02
-4.096628110131624728e-02
-6.943769151781925553e-02
-1.021192489205273168e-01
-1.128588862912819762e-01
-1.210169270838658828e-01
-1.358229628725177995e-01
-1.154114320835415985e-01
-1.094763759489975237e-02
1.606564750448995771e-01
3.077123863589530939e-01
3.353722430422384493e-01
2.339965421312823757e-01
8.887834046812764788e-02
-1.109358686063903129e-02
-5.282076828539452457e-02
-7.150702688282997710e-02
-8.399949058956893144e-02
-7.798814150684774127e-02
-4.113927086745602923e-02
1.950785552777268769e-02
7.680642886060265462e-02
9.645315639127396978e-02
6.191008489100503082e-02
-6.453700811727618863e-03
-6.478426956276998883e-02
-8.051266265666452704e-02
-5.140356444919811502e-02
-1.044639740589518861e-02
-1.738768415431476283e-02
-8.915951713509695509e-02
-1.107964562689049554e-01
8.382486847421295739e-02
4.465750890241692028e-01
6.517659258730893468e-01
4.793259020185174912e-01
1.434333417130639610e-01
1.551886296560331738e-02
1.436211241784641768e-01
2.718206446462776982e-01
2.248310467668395152e-01
7.059038573790719917e-02
-4.682913710319246831e-02
-8.109477955995697540e-02
-7.294566944793887120e-02
-6.214032527208778606e-02
-6.373629666696313534e-02
-8.242965526897208517e-02
-1.044787402427981016e-01
-1.068309599089986017e-01
-9.447281134772717026e-02
-9.319158344049940923e-02
-1.019545780907979149e-01
-9.423458298202239125e-02
-6.532477022464086569e-02
-4.137589662495012865e-02
-4.494248118145847959e-02
-7.267171861693612345e-02
-9.607259892517974742e-02
-7.359073996891664360e-02
2.097666134729708060e-02
1.658027115299228471e-01
2.925685145674786769e-01
3.319621977372650412e-01
2.643997635684602332e-01
1.353171610771448097e-01
1.754422883521881971e-02
-5.068320662638547275e-02
-8.157323203714500481e-02
-9.811665186780603454e-02
-1.023104219495447609e-01
-7.987639112390838847e-02
-2.891881198256969487e-02
1.879977711415987962e-02
2.585660358158864761e-02
-4.524297162648297649e-03
-3.897914484317536316e-02
-5.816360845829961906e-02
-5.784916184320170601e-02
-2.627047587501927031e-02
3.475273597005353043e-02
7.477333443799462354e-02
3.191777692275200862e-02
-6.822805840469442495e-02
-7.787287879533118240e-02
1.271819510316365143e-01
4.261051795110244456e-01
5.140798043624387192e-01
3.021684190014842231e-01
7.389607603518164036e-02
8.475441776493988777e-02
2.236104970501618661e-01
2.471877982588800982e-01
1.370232356029315590e-01
3.981339422788818944e-02
1.149328619756180558e-02
-9.937730968275704929e-03
-6.311349922376201238e-02
-1.195054299296231387e-01
-1.454491575702084871e-01
-1.375277662680725599e-01
-1.092754745076637557e-01
-7.500304084077093203e-02
-4.575272921120539238e-02
-3.151337209174312481e-02
-3.600688458830872407e-02
-4.510386694674217711e-02
-3.820057705224168265e-02
-1.800543381886143823e-02
-1.069567700686187631e-02
-2.969205066852810895e-02
-5.332395593429067882e-02
-4.554782095548991216e-02
1.378773083061665683e-02
1.161034434440894741e-01
2.056482769693448454e-01
1.856844953642522167e-01
1.360109508437483058e-02
-2.121637820904090921e-01
-3.343378306579040116e-01
-3.036966210941342559e-01
-2.001244584747460253e-01
-1.070598277878115762e-01
-4.286245445756421690e-02
-7.191894038817774407e-03
-1.400064066559582841e-02
-5.844925584278706093e-02
-1.005210881956812019e-01
-1.056023634783017501e-01
-7.917343948839368484e-02
-4.968799282293690639e-02
-3.794807341696218583e-02
-5.383209513957602776e-02
-1.021089461704787760e-01
-1.830104817018475549e-01
-2.892654506717757257e-01
-3.640939889900476900e-01
-2.725144792861937670e-01
4.232306419768419592e-02
3.521588752617471618e-01
3.405598349995576091e-01
6.567122336532785210e-02
-8.186594688755963189e-02
6.867757361800731764e-02
2.788733231071920948e-01
2.867441702490081679e-01
1.038635693407934102e-01
-9.949997455072241703e-02
-2.120985354386472344e-01
-2.324382792061795155e-01
-2.049255775634954702e-01
-1.687749358603753413e-01
-1.439920108721008118e-01
-1.326460400395175487e-01
-1.282371560966383828e-01
-1.247982453598490971e-01
-1.216867947452566490e-01
-1.306889158285874097e-01
-1.722397846401536314e-01
-2.448397892600305825e-01
-2.987044141434196942e-01
-2.677956572572583460e-01
-1.534096573018727538e-01
-5.148234710521846363e-02
-4.325650916087449976e-02
-7.707283275192459981e-02
-2.813776386725094780e-02
1.329354205709039616e-01
2.897803904846982248e-01
3.028643709516656846e-01
1.552245009391071684e-01
-3.579556300951137332e-02
-1.421081794592000680e-01
-1.355020675554929888e-01
-7.540506370726700325e-02
-2.365887714743217934e-02
4.014463317270965809e-03
1.839266209121201770e-02
2.156864630588349596e-02
5.615230098218123439e-03
-2.762377186783894489e-02
-6.500226415662510582e-02
-9.626608227593416722e-02
-1.113029060625830846e-01
-8.941493987688453604e-02
-2.106638906523963795e-02
5.388787322012788400e-02
6.016657182603614429e-02
-2.620358378593440341e-02
-9.580212055392986481e-02
2.831386947674863902e-02
3.473225931190964122e-01
5.805574647070298466e-01
4.912413408102189183e-01
2.350735183528660788e-01
1.409786977634639449e-01
2.527840201829606448e-01
3.389442486521576092e-01
2.525370575852008970e-01
6.896245332413945828e-02
-7.561737326605075249e-02
-1.337687217696995612e-01
-1.387010205678435026e-01
-1.310507705137117229e-01
-1.220749129704927494e-01
-1.042733420857321069e-01
-7.746674551522686469e-02
-6.121465210066240337e-02
-8.121479225843176997e-02
-1.405940014941325644e-01
-2.063071398463249828e-01
-2.308479894493877804e-01
-1.925586502632877228e-01
-1.177094321836942570e-01
-5.968968911358427804e-02
-4.856832534180559324e-02
-6.386281148755433568e-02
-5.909065059992234942e-02
-3.767925493328379109e-03
9.671901776113206450e-02
2.056653130933267792e-01
2.683936507963247120e-01
2.390615967061273661e-01
1.304667988819813162e-01
2.130153416378799403e-02
-3.539522672527981029e-02
-7.317609600584208673e-02
-1.152288218680281168e-01
-9.234281719856703152e-02
3.199705260194841278e-02
1.419435067117216231e-01
1.114429435812053365e-01
-1.287672992294650737e-02
-8.683301076383745376e-02
-5.463939613601986878e-02
2.044126176041239848e-02
6.200564381743944864e-02
6.195097265861518321e-02
5.883172301577835328e-02
6.269776814492987460e-02
3.431806070937268999e-02
-4.086034606912567618e-02
-6.789632142864265862e-02
9.141208086847768532e-02
3.921708443694864044e-01
5.622766719090438459e-01
4.427631580606305461e-01
2.325176215911216593e-01
2.056791561745154318e-01
3.401615208860925277e-01
4.063221516597406158e-01
2.927808001492787637e-01
9.619897381047273766e-02
-3.744547644020210925e-02
-5.560886988381055773e-02
-5.463415493747014740e-03
3.616903644079554059e-02
2.552989193968309423e-02
-2.614735257099814331e-02
-7.468906453949161750e-02
-9.214813045500641620e-02
-9.111113695501969756e-02
-9.338083721223817968e-02
-9.623033528311705775e-02
-8.714366973448685327e-02
-6.851840292172592384e-02
-4.971935195781738981e-02
-3.127738623893933784e-02
-8.212304955978931564e-03
1.871013384296020196e-02
4.334006994410549013e-02
7.028939833296790618e-02
1.200247082829464657e-01
1.947107216541199559e-01
2.434897543257760755e-01
2.021645888334859531e-01
8.298386471578966805e-02
-2.105985908491291025e-02
-4.882254716626105440e-02
-3.414847719302256668e-02
-3.022558959041682369e-02
-4.010492352762270313e-02
-5.403401333493237924e-02
-8.841818309010214538e-02
-1.484085829970430148e-01
-1.927625264704073971e-01
-1.719829106770651428e-01
-9.180605229953259228e-02
-1.628288612777685496e-02
-1.928778453518650501e-04
-2.987937098907759645e-02
-5.211013944439533280e-02
-6.440091816354770460e-02
-1.324320111546097301e-01
-2.636515779648206381e-01
-3.000541456750027147e-01
-7.428694908995471524e-02
2.902831363722747082e-01
4.366488180147942710e-01
2.450814162624048165e-01
8.586321130762492038e-03
2.737424267168041617e-03
1.367474883174626676e-01
1.632839444598926937e-01
1.963348762602166314e-02
-1.598044915443316005e-01
-2.443660091056123196e-01
-2.227069589370055669e-01
-1.631621813875201443e-01
-1.264701537359821382e-01
-1.269977471305996364e-01
-1.555845438804918934e-01
-2.102643107638706155e-01
-2.831086722384268950e-01
-3.325017923045475721e-01
-3.100354256006321307e-01
-2.202070711498389788e-01
-1.224335278991019044e-01
-7.229068891119173890e-02
-7.810918897540257422e-02
-1.051395678814354556e-01
-1.138671681800794977e-01
-9.912543564653031325e-02
-7.922417041651316771e-02
-4.733832945976716028e-02
2.784781744678870019e-02
1.358710376180025103e-01
2.005008572554547175e-01
1.592205007808307204e-01
4.119662691723710579e-02
-6.740452457967070765e-02
-1.178119778540443752e-01
-1.275850624925926047e-01
-1.223386525179127604e-01
-9.091178791634395295e-02
-2.604932015158955422e-02
2.686275064829921760e-02
1.394838776071512070e-02
-5.190099502176491464e-02
-1.052670059208585668e-01
-1.064773349158860405e-01
-7.640117229972340218e-02
-6.058673911465085882e-02
-7.711154566406550059e-02
-1.116689025666669360e-01
-1.612490485678605145e-01
-2.360621961389761936e-01
-2.721906621909261359e-01
-1.149430098593610117e-01
2.619530005196482603e-01
5.689212131298588826e-01
4.844840735585960734e-01
1.206902861221120504e-01
-9.343589356103051968e-02
1.629835380492204722e-02
2.123560478880212044e-01
2.344812895137210196e-01
8.410167480490896019e-02
-8.207805349832081321e-02
-1.610811739937933751e-01
-1.574037736272880517e-01
-1.138690338074365149e-01
-6.343995674715416366e-02
-4.271963345210930824e-02
-8.616058430312549532e-02
-1.724888702141420260e-01
-2.131471137471951938e-01
-1.342702486682718077e-01
2.680068253855039800e-02
1.384133674877824349e-01
1.167655093215385492e-01
1.516929932723254729e-02
-6.108486066216989308e-02
-7.619668566483235594e-02
-6.904175978209857456e-02
-7.847798644365573673e-02
-8.702031333789424228e-02
-3.762963865629056354e-02
9.022394023610351421e-02
2.314057597123484744e-01
2.822843873502443035e-01
2.051440467987984961e-01
6.595856272607171500e-02
-4.448794182535670272e-02
-9.379431336533944341e-02
-9.874518214038585651e-02
-7.932514623699753187e-02
-4.712700208087553660e-02
-1.041039847426957453e-02
2.905921028725745245e-02
6.840781943872413506e-02
8.774134165424973819e-02
6.596364059617454423e-02
1.789151772557268094e-02
-1.349673696027087200e-02
-5.948437525774220164e-03
3.021375181506381208e-02
7.129583993449256640e-02
7.183050389983056117e-02
-3.992751231075408053e-03
-6.868640473169544680e-02
6.885582516099185424e-02
4.220687677551513972e-01
6.790007257319490286e-01
5.636383315392032856e-01
2.373690955560150417e-01
7.567856184739987779e-02
1.606624627170429032e-01
2.599766600617401946e-01
2.068901187529106067e-01
6.730337730485252967e-02
-2.707429827515577328e-02
-4.435834496418880613e-02
-3.712125743249478083e-02
-5.408173041301356926e-02
-1.038650224818641193e-01
-1.670280314873307803e-01
-2.106821710335184950e-01
-2.068609562477658759e-01
-1.614796171164019356e-01
-1.161161809779291121e-01
-1.055176341959961073e-01
-1.242627635110030021e-01
-1.440597033365306756e-01
-1.479812079836533290e-01
-1.347137189100969801e-01
-1.036098903947936800e-01
-5.788123931915427345e-02
-1.354991773934737832e-02
2.477689545433406706e-02
8.933321307363488450e-02
2.064105517425566250e-01
3.250373787693283667e-01
3.404456676668591864e-01
2.117239965863315365e-01
1.834011644385676043e-02
-1.213399345766133647e-01
-1.574562199308650323e-01
-1.221012527048045415e-01
-6.740822824813826053e-02
-1.214997436006607680e-02
5.597450059424503854e-02
1.340762809309672676e-01
1.797885659417214066e-01
1.530883089077552939e-01
6.263827780907335607e-02
-4.598358733325048908e-02
-1.194347130334817708e-01
-1.125588961157209938e-01
-2.106642076544003664e-02
8.759199197797770675e-02
1.092607834801893746e-01
1.355317443558182872e-02
-6.610625875421818898e-02
6.339994890156021301e-02
3.685745347761429924e-01
5.321764129855937053e-01
3.579407128260564397e-01
7.887947563216987645e-02
4.004775389356043935e-02
2.323415262533667647e-01
3.643379490894021466e-01
2.738162018688268251e-01
7.254306631067178324e-02
-6.306433693357067771e-02
-9.339915506972776282e-02
-9.281529190140501429e-02
-1.180275211440495325e-01
-1.525993059222718329e-01
-1.576968357359422868e-01
-1.335384296497354462e-01
-1.115945009817966849e-01
-1.072687834443296906e-01
-1.140673972515680451e-01
-1.332721729754391959e-01
-1.691976735741446136e-01
-1.994576488655660784e-01
-1.926165747490149183e-01
-1.597417113383470533e-01
-1.473454454700890148e-01
-1.678965118436782644e-01
-1.709448924446469731e-01
-9.991645175002117352e-02
3.756252815149158791e-02
1.666824137124734706e-01
2.060712136105471159e-01
1.317430627780431518e-01
-3.429251417530199131e-03
-1.138216101517274120e-01
-1.558824908096172468e-01
-1.519504465813760474e-01
-1.413577078153182842e-01
-1.330277939622104000e-01
-1.113908847175352629e-01
-6.823948546657955527e-02
-1.897862967051289207e-02
6.970710349905847106e-03
-1.408158520848926815e-02
-8.411369126599589630e-02
-1.683481412408392996e-01
-2.027495047660528571e-01
-1.500401660786281066e-01
-4.970964311118790391e-02
3.957984139848760505e-03
-6.113284611194819834e-02
-2.031489315686643149e-01
-2.433583103264848335e-01
-4.443413857396743410e-02
2.439798589829702546e-01
3.043737987827188629e-01
9.943434899416575545e-02
-5.044879341794467759e-02
6.614848478270560217e-02
2.851035865242796952e-01
3.548591041873237484e-01
2.480974629021831523e-01
9.800549865450647324e-02
-1.290555372565837730e-02
-9.978850986616491503e-02
-1.836294289117242351e-01
-2.445331314226094344e-01
-2.577860910491718838e-01
-2.246529612172330215e-01
-1.684152589536175859e-01
-1.237038116895221446e-01
-1.186608071180352691e-01
-1.520728616883846029e-01
-1.961701700854567021e-01
-2.249662377808854252e-01
-2.293916712304649996e-01
-2.081118783447047926e-01
-1.630729849262846087e-01
-1.095439820668076686e-01
-6.948845124744586210e-02
-4.025393332603364321e-02
9.345380955532852849e-03
9.307195099323320453e-02
1.771951970288718758e-01
2.109660048502209617e-01
1.711956107144478045e-01
7.456970165630989744e-02
-3.436615968183693443e-02
-1.036123190194934152e-01
-1.029057362108740242e-01
-5.005460461045605630e-02
3.305468860043046103e-03
2.246929347603862995e-02
8.636136790296310151e-03
-2.453399188983824628e-02
-6.045934286157645526e-02
-7.931960811001392830e-02
-7.567824927677169189e-02
-6.284363815546817333e-02
-4.816690560613760830e-02
-1.978716271468939497e-02
2.417039814870121373e-02
3.523651390727870758e-02
-4.721197038890847381e-02
-1.634164809199893931e-01
-1.077496776608667384e-01
2.121531930584229508e-01
5.389425296834438051e-01
5.352140360542205766e-01
2.640700929515801820e-01
9.765306840072152106e-02
1.842261575381142491e-01
3.225776779903778979e-01
3.201476118775939406e-01
1.985673669382300721e-01
6.247297687804954924e-02
-3.922803828531015030e-02
-9.912905575808013403e-02
-1.080035109992953102e-01
-7.102937858292998619e-02
-2.802843373039626967e-02
-2.200910011253216780e-02
-5.430356159229149382e-02
-8.972603341462172255e-02
-1.037418475526716705e-01
-1.070236067318927897e-01
-1.205994789855108495e-01
-1.433423007116300940e-01
-1.522116154954765987e-01
-1.264974740443537415e-01
-7.022490207681855723e-02
-1.445871999550424856e-02
1.084531611937463412e-02
1.360315332539389389e-02
3.758489768607404385e-02
1.117395323394418383e-01
2.061875758484722765e-01
2.532123822119259904e-01
2.143949840824984354e-01
1.179826594110334054e-01
2.825381949539515491e-02
-1.645789818831578863e-02
-2.863629282613792959e-02
-3.572646964703928008e-02
-4.174194356083313351e-02
-3.762809563832336668e-02
-2.341875646225066027e-02
-4.249596227580485289e-03
1.480528949415662113e-02
2.537711718634685573e-02
2.357742252146985060e-02
1.934203804047130576e-02
2.994066724329161322e-02
6.222333102103737301e-02
9.047182073372449229e-02
5.590012112314800968e-02
-6.648725376194430936e-02
-1.716624996561850747e-01
-6.517294184828022197e-02
2.885679729468852428e-01
6.105045807317066586e-01
5.957353762652443097e-01
3.271633406256608811e-01
1.533903204556185951e-01
1.993209003067024365e-01
2.650688237822066418e-01
1.733411763928849603e-01
-1.212126769200115757e-02
-1.277362558688398264e-01
-1.235795058427060639e-01
-7.449306845700942592e-02
-5.109978626816798208e-02
-6.009334980297337259e-02
-8.735822945188941036e-02
-1.285034526281442213e-01
-1.703267329623456561e-01
-1.883114542017019777e-01
-1.775060575764523807e-01
-1.570573397857789877e-01
-1.362805806516835250e-01
-1.044637628967029497e-01
-5.831985624021351206e-02
-1.727324601354199296e-02
-1.177802560644739330e-02
-5.656462743009030292e-02
-1.178366054224900678e-01
-1.202790518087894084e-01
-1.717727929122696978e-02
1.510142085977402848e-01
2.839722631613330051e-01
3.062084916431492831e-01
2.225898492893043090e-01
9.478064678511027852e-02
-1.879054342853322263e-02
-8.651126902339903446e-02
-1.004274769987773680e-01
-8.154852371107870757e-02
-6.428920844673124968e-02
-6.346958057991625157e-02
-7.964306601288702325e-02
-1.156959591352970107e-01
-1.576234748416038001e-01
-1.778962349468100890e-01
-1.819596289788064092e-01
-2.010946740514000519e-01
-2.251794084773315885e-01
-2.036589664742905204e-01
-1.370801146473388521e-01
-1.138779469873181516e-01
-1.981123307626415364e-01
-2.779955045480488329e-01
-1.196099252190205992e-01
3.062328471219038506e-01
6.421929599162918834e-01
5.385181074509236554e-01
1.560595324579232002e-01
-4.418475397926315690e-02
7.172335819834683990e-02
2.304163115372682979e-01
2.068056235298041390e-01
5.665456246774046994e-02
-6.497835614626361334e-02
-1.042846653516172339e-01
-1.041893852929614978e-01
-1.079424683306114685e-01
-1.216496298936387416e-01
-1.366442612670296930e-01
-1.443404199243002450e-01
-1.423302605314352987e-01
-1.457133175608398279e-01
-1.717703136487624682e-01
-2.071825454914456022e-01
-2.142181168149979442e-01
-1.740637649463930015e-01
-1.096635043571145135e-01
-6.310906220181337900e-02
-5.840898107060778222e-02
-8.521714747156981795e-02
-1.086192432552016418e-01
-9.092194211383752833e-02
-1.108785620680220220e-02
1.195828284351250909e-01
2.477501116271191017e-01
3.009330400724593013e-01
2.451356523632353956e-01
1.139072431749359599e-01
-2.652463270629802639e-02
-1.212397609354357170e-01
-1.404824992965517938e-01
-9.403568676816974337e-02
-4.786974652331321689e-02
-8.772868495847742365e-02
-2.241889813657050867e-01
-3.454386713582853208e-01
-3.209359669238819324e-01
-1.612931160605634850e-01
-1.401339888328672484e-02
1.358806533518724068e-02
-3.395542554737919494e-02
-4.680769848281740586e-02
-3.083354095247026368e-03
6.321408955989159077e-03
-7.675975354350721147e-02
-1.332325592077556742e-01
2.660304564665368077e-02
3.529946282628466103e-01
5.175242499324925749e-01
3.369272451651926237e-01
4.990007373576004629e-02
-1.756406019693003417e-02
1.326849096979547393e-01
2.634776408259895120e-01
2.353097718514063630e-01
1.042481209108725992e-01
-8.934928985007875579e-03
-4.896168299203883939e-02
-4.737636215324136923e-02
-5.468618184787749081e-02
-7.853027041634041971e-02
-9.721363350779348156e-02
-1.009982358492003129e-01
-9.769544911508591667e-02
-9.639891372957161420e-02
-9.651474795186348876e-02
-9.029754723866985355e-02
-7.943325444674066704e-02
-8.003338899428993902e-02
-9.965705078640794967e-02
-1.216430500239364110e-01
-1.283769352937413344e-01
-1.285904220953358601e-01
-1.340549671712912561e-01
-1.125185582118568561e-01
-6.619667259931086289e-03
1.776965838122291919e-01
3.338791487131624325e-01
3.478674516432584962e-01
2.244255553156032090e-01
8.165788587905102591e-02
1.601767776574847257e-02
1.645781532019096466e-02
1.991381306568017900e-02
4.154858393580792945e-04
-2.159012389296549594e-02
-2.540836057041565704e-02
-1.651650655720416846e-02
-1.350865130568229024e-02
-2.550402442069784475e-02
-4.711483113317848498e-02
-6.550345986962106959e-02
-6.284105070395523684e-02
-2.108379918807307130e-02
5.720030358620676464e-02
1.246192528745901223e-01
1.055993212905414758e-01
-7.889768936862235488e-03
-6.857718083511411822e-02
1.032314416065723273e-01
4.309256570872548320e-01
5.728519687815158967e-01
3.595863786722418576e-01
6.100699435130269715e-02
1.465402607185640159e-02
1.813798201642846664e-01
2.814763509315673096e-01
1.968939487293988322e-01
4.375823801336191365e-02
-4.473827540638836836e-02
-5.248232934558630380e-02
-3.527797039989351291e-02
-4.326069304553106787e-02
-8.856794277896201661e-02
-1.404270612533541074e-01
-1.558243681559288163e-01
-1.303547021831820141e-01
-9.567472089436006299e-02
-6.925332174360494808e-02
-4.576411004643025915e-02
-2.936476108217968978e-02
-3.068400377147413594e-02
-3.912626652935358162e-02
-3.602596449747423601e-02
-3.238338148896018759e-02
-5.659488414587308946e-02
-9.135575619652344659e-02
-6.152684043823701543e-02
7.754869116188475853e-02
2.624205299959967985e-01
3.654084224864373454e-01
3.092802045323124749e-01
1.338084134916781298e-01
-4.258730261675416906e-02
-1.292341113758301574e-01
-1.284786426152189354e-01
-9.671684465181051849e-02
-7.079329483632199049e-02
-5.289824516715382896e-02
-4.153525304658565315e-02
-4.200122537062571382e-02
-5.017092581338002122e-02
-5.115095608487194023e-02
-3.840466873694689531e-02
-2.070726085063075497e-02
-5.684423364434262362e-03
1.235664231904103072e-02
3.638026570215938116e-02
4.120308282592852894e-02
-1.579024028972871377e-02
-1.275559785659386713e-01
-1.752094775768362755e-01
-8.704239042585590336e-03
3.211545349192633791e-01
5.049509301266985606e-01
3.357936745685602964e-01
2.953929699886103516e-02
-5.671685669932367835e-02
1.023999184613651192e-01
2.517631125447410412e-01
2.308036513171563275e-01
9.096672955706264219e-02
-5.412578972796726340e-02
-1.517014521257792348e-01
-2.072793094666227354e-01
-2.299143323635207126e-01
-2.145183791235306392e-01
-1.677366935067775566e-01
-1.178442150227089896e-01
-9.560466623685995313e-02
-1.163497890962559983e-01
-1.702662832347340283e-01
-2.240130477219463567e-01
-2.421255303354959976e-01
-2.145851110488262714e-01
-1.650462807789248865e-01
-1.290762021264128256e-01
-1.226911809316082597e-01
-1.327516036693473789e-01
-1.272785214766025130e-01
-7.012379925200579178e-02
4.900054061922800436e-02
1.818116744850106770e-01
2.434599340422116953e-01
1.906599235332517295e-01
6.583847250879940050e-02
-4.975826866854206332e-02
-1.107350126995893663e-01
-1.232110778358943559e-01
-1.107663704960929751e-01
-9.178524060060086476e-02
-8.141140397152026031e-02
-8.915337176183084356e-02
-1.058425917431255053e-01
-1.070002338980202555e-01
-7.993744061195194595e-02
-4.117481212754661724e-02
-1.668297147038881947e-02
-5.894588307770612032e-03
1.726325298582159773e-02
5.823395724653516320e-02
7.337559787271055733e-02
2.422385068405039435e-03
-1.522350020359297396e-01
-2.563266681899361576e-01
-1.254906336218925833e-01
2.105152193610818900e-01
4.332022404928890236e-01
3.257044304914267219e-01
9.497023474220170347e-02
6.048220630261722658e-02
2.030670724758323886e-01
2.728424244172433233e-01
1.719292545575648590e-01
1.063659258547490147e-02
-1.016118547588057419e-01
-1.542305398790132231e-01
-1.712205827260651625e-01
-1.600060351038202489e-01
-1.271961460476760952e-01
-9.183309497393724041e-02
-7.376727908153467295e-02
-8.638261025473278898e-02
-1.300566548204323547e-01
-1.811808153189058967e-01
-2.054991217131447723e-01
-1.900880424948794278e-01
-1.521221347641332489e-01
-1.213813860664905292e-01
-1.181827010765238301e-01
-1.341348724322083685e-01
-1.359130727424954777e-01
-1.001363230916573616e-01
-2.806372176181310199e-02
7.643685909309139159e-02
1.992484554690525100e-01
2.824274345377638107e-01
2.591701111680514424e-01
1.437230410276415515e-01
3.579910066270610564e-02
6.634721768927790905e-03
2.524174511381710451e-02
2.747591716179553431e-02
8.229217524917571691e-03
4.847219670875669087e-03
2.445730673108898606e-02
3.285163456326204573e-02
9.897483716558602707e-03
-1.992123655956914638e-02
-2.395077703859234755e-02
-3.354201258867326677e-03
1.885741257925789907e-02
3.629603844113928751e-02
5.802797441733254652e-02
6.229691915039993477e-02
-9.560900805463307811e-03
-1.507008265672094283e-01
-1.949117147056737831e-01
3.597470873959426191e-02
4.270464777726151184e-01
6.038759938804646454e-01
4.094426384795513130e-01
1.286413039643151679e-01
7.670697432352578671e-02
2.047926616416550771e-01
2.717788296703729789e-01
1.879953658402424010e-01
4.339283657051115628e-02
-6.129475207100411327e-02
-9.779028978497153468e-02
-8.955746975158249135e-02
-7.813240359348465336e-02
-9.312027499520407481e-02
-1.247411612446265028e-01
-1.346811391616617171e-01
-1.096090905333032273e-01
-8.618125599394134417e-02
-1.036637623876622977e-01
-1.536994167442904957e-01
-1.924435709606926170e-01
-1.812451274895390541e-01
-1.171465657330086618e-01
-4.475444597182666462e-02
-2.328240607437460225e-02
-6.135650686227707429e-02
-1.009467329883421138e-01
-7.882666661601205049e-02
1.485287701229065331e-02
1.412509931845843392e-01
2.437076735662886406e-01
2.683650178061273150e-01
1.934265661585924112e-01
5.729908088481935891e-02
-6.331611430939537710e-02
-1.143684338089222263e-01
-9.973583880363362519e-02
-6.393594066069446802e-02
-4.660428504477479722e-02
-5.149075228574997998e-02
-5.547575574783588509e-02
-3.482283949553593994e-02
1.935716432712113882e-02
8.631267063657349636e-02
1.145297572762173088e-01
7.199024495370281995e-02
-2.634218328942901366e-03
-4.088462915288491872e-02
-3.824207034957949336e-02
-6.441724414100026552e-02
-1.507455513785039003e-01
-1.850042514666222493e-01
-4.645282370076265349e-03
3.421090600868658682e-01
5.509078986133495448e-01
4.261109906210814868e-01
1.601120868128292352e-01
6.640660970054201862e-02
1.723566979006421751e-01
2.588790574662565014e-01
1.884078493656784481e-01
3.126296098670579976e-02
-7.831185568816882714e-02
-9.243998397524168242e-02
-5.671329485183190799e-02
-3.706438806922141005e-02
-6.292703091918258607e-02
-1.139027881362324052e-01
-1.437008024109159843e-01
-1.278818711950170939e-01
-9.438529183539384748e-02
-9.144629004251560167e-02
-1.225823153490586959e-01
-1.408330928481827116e-01
-1.143132458194422163e-01
-6.599489102026334653e-02
-3.993663143248377123e-02
-5.474059896971082001e-02
-9.305078717940426514e-02
-1.134155574825570223e-01
-7.373650795033422078e-02
3.560442013980724685e-02
1.753931382335539857e-01
2.762277651743659246e-01
2.778124882357010939e-01
1.689508637553167325e-01
4.366623516833461477e-03
-1.266792200910181465e-01
-1.649464622429089589e-01
-1.248287744400187887e-01
-7.511959181944347086e-02
-6.793705514586874383e-02
-8.865898908983937954e-02
-8.774663314080398402e-02
-4.786653423005378383e-02
-5.238327975940534204e-04
6.797596658172999975e-03
-4.837409610465625426e-02
-1.319299477423238054e-01
-1.677449358456734041e-01
-1.141637221932527424e-01
-2.638149430509399707e-02
-1.584751125617994694e-02
-1.128638349998689339e-01
-1.687643456300955414e-01
1.061880969132638665e-02
3.627093076388397952e-01
5.479108708700501928e-01
3.838108177629983575e-01
1.130454534994671939e-01
4.610094683106200075e-02
1.532400138742500417e-01
2.069353377383572057e-01
1.295930812627388296e-01
2.194969055325154961e-02
-3.089427579671213259e-02
-4.517834931021436767e-02
-6.830118795548190125e-02
-1.075178777031295524e-01
-1.408608950619898159e-01
-1.601653467096703087e-01
-1.781663499865875910e-01
-2.005114831386992369e-01
-2.114435530822590947e-01
-1.961490262219901248e-01
-1.652088934891899064e-01
-1.458427890302953778e-01
-1.541737770411612252e-01
-1.794965843942726291e-01
-1.921377272115922796e-01
-1.720267704510426710e-01
-1.310971090115122528e-01
-9.044408353307391291e-02
-3.707348071189465327e-02
6.111564318811555513e-02
1.880443940180366036e-01
2.634721670023793538e-01
2.168748646488161402e-01
6.694771430127940959e-02
-8.591338216727258115e-02
-1.541081975021426353e-01
-1.455142654933956614e-01
-1.373993344343147349e-01
-1.782519042259061992e-01
-2.444661746889063569e-01
-2.849412096505701819e-01
-2.704493053247567502e-01
-2.012967244854447502e-01
-1.029471917979789125e-01
-2.091209012729480787e-02
4.522407041660982813e-03
-2.584779989618170640e-02
-6.071604558584252354e-02
-4.107934462082167559e-02
2.424711420877087228e-02
4.424470709835128662e-02
-2.661617765941683839e-02
-5.617879695452457356e-02
1.231311816058621861e-01
3.988604504745520973e-01
4.391847311734007331e-01
1.822523829231205705e-01
-2.498272352570768406e-02
7.177277852079365361e-02
2.939893352971685858e-01
3.380872744046710676e-01
1.682986001267020859e-01
-2.656919797000202935e-02
-1.052618138926251362e-01
-9.336252320967436402e-02
-8.881269615131007211e-02
-1.258290200713343132e-01
-1.529467550862672887e-01
-1.178930170452510834e-01
-3.603563971587923215e-02
3.082802440527911830e-02
4.540620559121949507e-02
3.103296994976803905e-02
3.028907048131374014e-02
3.973022287920637691e-02
1.792930749029802290e-02
-3.973285485516565851e-02
-7.765923235905283772e-02
-5.050043695193196652e-02
2.143724358745439235e-02
9.506991581326368346e-02
1.693379055835754765e-01
2.681096221508431077e-01
3.746367521215619445e-01
4.225551121704823054e-01
3.626251786305688674e-01
2.254409837327836230e-01
9.868789778883738095e-02
3.073257310595584740e-02
-1.564679360692219218e-02
-8.403975362818377759e-02
-1.428525581045541337e-01
-1.334053613616896783e-01
-5.774500380854571957e-02
2.940272606369474448e-02
8.237857112719960961e-02
9.009290054658579405e-02
6.841214152824828809e-02
4.251894815781845360e-02
2.880841075860382863e-02
3.505954674587268005e-02
5.963147574813133095e-02
6.584325182217318218e-02
-3.019817883701998891e-03
-1.216717987339694385e-01
-1.324059565619973011e-01
8.503610361668761941e-02
3.829271132388975540e-01
4.588330604513073396e-01
2.646806259097753689e-01
8.893178581019685336e-02
1.446199091015849536e-01
3.049926577022962770e-01
3.389150357438579508e-01
2.118770192568441846e-01
