-1.731148939794713848e-01
-8.938110421174270959e-02
2.498399568194833997e-02
8.935394792074605186e-02
7.273188259920945753e-02
2.330660211491944467e-02
-2.119581136793738038e-02
-7.691089322531884098e-02
-1.557031933773004306e-01
-2.295670416673788461e-01
-2.656888023387106168e-01
-2.642980253716251116e-01
-2.535891510984676356e-01
-2.379702722324999464e-01
-1.292226618046986020e-01
2.089230078785373756e-01
7.229443375218348455e-01
1.044523058187690090e+00
8.460619088354812689e-01
2.948981786281933970e-01
-1.149683430915658666e-01
-1.469840150558400782e-01
1.008979053588627411e-02
9.290768382686503957e-02
4.615966821068447773e-02
-3.617471698364559118e-02
-8.514822112177708457e-02
-1.159679219580024845e-01
-1.709146158846315267e-01
-2.507359008046354254e-01
-3.048258468015176414e-01
-2.798871505179260089e-01
-1.730898103592971582e-01
-3.419294992040758374e-02
7.843619471456381165e-02
1.298948077580837357e-01
1.072008869212497245e-01
1.999018642024965806e-02
-9.370758277581384132e-02
-1.881441759232971300e-01
-2.412179340264857252e-01
-2.592541028428002603e-01
-2.523643358642066459e-01
-2.064781595345683285e-01
-9.743757614451792337e-02
4.938376382302242518e-02
1.449548262288252731e-01
1.217936129347385599e-01
1.318741522663115576e-02
-8.283160807226050415e-02
-9.838851901942859135e-02
-3.341644415072697605e-02
7.319212820979881240e-02
1.716770621108946460e-01
2.150555347426844066e-01
1.880676595475454516e-01
1.225350005350239607e-01
5.822922621273599747e-02
-3.298186061965867159e-03
-8.438776194096488104e-02
-1.799993657400923153e-01
-2.419597056589331552e-01
-2.161142639160439083e-01
-9.163675962284462129e-02
8.072532685576941369e-02
2.182457761120655815e-01
2.627639091145604344e-01
2.203861329467011188e-01
1.478160698555887886e-01
8.473145446870306019e-02
4.395277115418920466e-03
-1.357192331243564087e-01
-2.873784953819183419e-01
-2.827215757740718094e-01
3.184239870160706504e-02
5.623525639029355316e-01
9.281671685482819623e-01
8.296350501832672197e-01
4.205163127955598990e-01
1.118141032494881087e-01
6.707969856093104477e-02
1.123951819896791271e-01
7.150796707901645177e-02
-3.374143670065858636e-02
-9.620930337601453497e-02
-7.711970473205380372e-02
-2.130696082205880623e-02
7.380095542705477490e-03
-2.267926985273022167e-02
-1.013179967019091354e-01
-1.941699432085569887e-01
-2.629634469258776974e-01
-2.841812331464910746e-01
-2.636992771958318049e-01
-2.217094501220962799e-01
-1.516954529988185085e-01
-1.810386511227779840e-02
1.786353181868653994e-01
3.540255425597771399e-01
3.988873619161575346e-01
2.884784863760772589e-01
9.742653337513912382e-02
-8.226704593885884875e-02
-1.943544275653874553e-01
-2.183330354912523807e-01
-1.691093240037127854e-01
-8.531269863570742351e-02
-2.679996798549747622e-03
5.255434183192420061e-02
6.417071811736317632e-02
4.295096989875733795e-02
1.737847120520527242e-02
-1.297207688349888421e-02
-7.574551163229309436e-02
-1.564131715554892277e-01
-1.819046251029118877e-01
-1.101103921072279918e-01
-1.486945037222752591e-03
3.466757016030421606e-02
-4.440632160085998537e-02
-1.718858711164733544e-01
-2.469048302306540710e-01
-2.431908837840233151e-01
-2.186203112850897412e-01
-2.156608450455182180e-01
-1.964262563357943858e-01
-1.068354096163314781e-01
2.400142635700783927e-02
9.012744442263093125e-02
1.443601889052752683e-02
-1.573293702554375006e-01
-2.445091252605130772e-01
-4.331865421618108503e-02
4.313770293874503170e-01
8.205414046044314791e-01
7.582494016063300313e-01
3.668196035859749293e-01
1.235813546868316515e-01
2.163272056481518602e-01
3.622355184741510858e-01
2.749570467880261826e-01
4.146981927028725590e-03
-2.314682048040389295e-01
-3.252767391141233033e-01
-3.105814107766496357e-01
-2.362835282512718293e-01
-1.294462735737517967e-01
-4.644875759504121099e-02
-6.219776910809612924e-02
-1.811906332038394907e-01
-3.139311348791327116e-01
-3.709954962766494613e-01
-3.449190746193889767e-01
-2.871750563308858029e-01
-2.408741437072202396e-01
-2.081245138491174262e-01
-1.651799317867155559e-01
-1.015401844713576252e-01
-4.209715992390446887e-02
-2.558156788638094731e-02
-6.372184197690343443e-02
-1.271916812233605532e-01
-1.686273021380860493e-01
-1.588605953513633762e-01
-1.022807663623615110e-01
-1.129800234313926323e-02
1.244897189925510544e-01
3.167433755895438519e-01
5.155415461300917324e-01
5.976165806352782273e-01
4.703910724657480724e-01
1.901313896679451276e-01
-7.745585037974650477e-02
-2.172706907373356811e-01
-2.397748502857426633e-01
-2.139873817362142050e-01
-1.835710257949193791e-01
-1.444265338563850976e-01
-6.518164291187802939e-02
6.243489153978525746e-02
1.710798155380761632e-01
1.540324704546225387e-01
-6.906671344516175648e-03
-1.945511368438758437e-01
-2.743618795767625573e-01
-2.256537814879834569e-01
-1.511867518088627349e-01
-1.707415228907640525e-01
-2.519111245562228873e-01
-1.480613446176476666e-01
3.262289998597056595e-01
8.917372540585840612e-01
9.670835572483753584e-01
4.263221213359856820e-01
-1.510124460982845973e-01
-2.174337799214173805e-01
1.235921435090414078e-01
4.255736165398572024e-01
4.691379057469454161e-01
3.461574363274287358e-01
2.205713196022301981e-01
1.740255594311605203e-01
1.824042154334914734e-01
1.436450426358002741e-01
-1.149593415632036049e-02
-2.072763259701307648e-01
-2.984703113902598681e-01
-2.492069136681101804e-01
-1.512737730889517351e-01
-8.758958145698697573e-02
-6.067376799212893801e-02
-4.807551521820748602e-02
-6.010814150904474074e-02
-1.205519667675695322e-01
-2.172941146841322890e-01
-2.929569527402425266e-01
-2.911602374114184433e-01
-2.139175237623950343e-01
-1.181237704785604303e-01
-5.036964621121023389e-02
-1.333900086584813988e-02
-1.979661989639302545e-03
-3.212375590329604597e-02
-1.102524143986924055e-01
-1.950379333484390243e-01
-2.077634734762251467e-01
-8.876335269812281326e-02
1.347716574203186024e-01
3.357934734567876167e-01
3.896341820174992199e-01
3.014847326804375727e-01
1.796801047683296848e-01
9.102833853738746817e-02
1.365764313618727382e-02
-7.893846879002607009e-02
-1.592573536103303322e-01
-1.819577789828099312e-01
-1.400753332888468872e-01
-6.751163045761965353e-02
-7.188837148217096587e-03
4.318855657480073773e-03
-5.221469048701819077e-02
-1.483492999033678428e-01
-2.130270879148979946e-01
-2.145781153786927298e-01
-2.119286766328287996e-01
-2.533917023580795624e-01
-2.330357198911255090e-01
4.416260697311807926e-02
5.647366127206777664e-01
9.590714553288063327e-01
8.600284686791745958e-01
3.877097151132820607e-01
1.608987316236577814e-02
-2.125628563089358367e-02
8.721136953107658241e-02
1.034719854846306575e-01
1.897591545007312058e-02
-5.670024024516537309e-02
-9.244310434517453989e-02
-1.309961379686538363e-01
-1.623312555278955960e-01
-1.150010981275511601e-01
1.168265207956426660e-02
1.033061973730733801e-01
6.491961049514063942e-02
-6.671790809379629650e-02
-1.742077715809435545e-01
-1.741592318316485533e-01
-8.108632995595752013e-02
1.056229098691827475e-02
2.257591509222419204e-02
-3.007513657885575731e-02
-8.530603299079207724e-02
-1.242212391510465197e-01
-1.689171543170735201e-01
-2.166678699222727711e-01
-2.263330614262064333e-01
-1.705342659473148281e-01
-7.118888222655113396e-02
2.146722315563078312e-02
6.653853210631942294e-02
5.360428463155988282e-02
5.679891430934435118e-03
-3.716881719439876081e-02
-4.053694861738689481e-02
4.331062980985165602e-03
6.110537565435680829e-02
6.922835745197793156e-02
1.440123404743289329e-02
-5.161790288229298196e-02
-8.362764444523566876e-02
-8.960498921218734703e-02
-8.651347812222183464e-02
-6.402225181603768411e-02
-1.630617110809629358e-02
3.349957272176251610e-02
6.200091549127340756e-02
6.373511770457390702e-02
2.137171493356086749e-02
-8.986366419445300513e-02
-2.206657545393601316e-01
-2.507238588831655624e-01
-1.603744401229087180e-01
-9.858189916055971891e-02
-1.703960573128768807e-01
-2.414624587335719441e-01
-6.688231263523457260e-02
3.789196391377246398e-01
7.788345133295535572e-01
7.953699844901772620e-01
4.822885453475744266e-01
1.988359879959177012e-01
1.469869036529276585e-01
1.992229811012406204e-01
1.616011916749633681e-01
1.594367896484145258e-02
-1.246663368088062607e-01
-1.816271133192782772e-01
-1.683255079162163659e-01
-1.282868050583243491e-01
-8.914618283752763495e-02
-7.559931612290989034e-02
-1.067742887154694842e-01
-1.687411045793642816e-01
-2.243897942893328945e-01
-2.480043592854355161e-01
-2.312404894672425160e-01
-1.687816305014294693e-01
-5.603163208909365395e-02
8.884516714725250452e-02
2.070220198798311262e-01
2.376845279976579073e-01
1.736998174498202707e-01
5.146651980629643464e-02
-8.669616712741311237e-02
-1.987530430831486172e-01
-2.515611744984118658e-01
-2.446100892788662939e-01
-2.086994648460009094e-01
-1.684950878456006607e-01
-1.096701290607127177e-01
-1.604812492887222955e-03
1.437695785995504738e-01
2.560338994015712299e-01
2.553863661482211889e-01
1.180735400298190962e-01
-9.085948593611234414e-02
-2.532307392044158001e-01
-2.940324449739282753e-01
-2.429819011459452283e-01
-1.817014216468131882e-01
-1.490474874990538323e-01
-1.293521907302937202e-01
-1.103169868174488366e-01
-1.077835589838480185e-01
-1.365346108757082288e-01
-1.870293918611614370e-01
-2.342462358898103891e-01
-2.482392584463813112e-01
-1.939227073763567510e-01
-5.757492114673074673e-02
9.769599324554449626e-02
1.535549130980800314e-01
1.025790777005202437e-01
1.471716269496623763e-01
4.477035418221466112e-01
7.765325509663790760e-01
7.151669574083402425e-01
2.626995376585072317e-01
-1.038754860203207619e-01
-7.181133597187322470e-02
1.623027876772166755e-01
2.718656303142699682e-01
2.036895237999317432e-01
9.430310482996581700e-02
7.084520054374864387e-03
-9.376038591506381803e-02
-2.090825004655832986e-01
-2.848025424933263716e-01
-2.928997893823331866e-01
-2.506169277367302217e-01
-1.814905284363982907e-01
-1.036123595542221554e-01
-4.352357612742396853e-02
-2.882414109334542271e-02
-6.528417830743814265e-02
-1.377284086904022042e-01
-2.224870633095871741e-01
-2.816757725348386088e-01
-2.706802850735321453e-01
-1.769419707095719607e-01
-3.492205885341100047e-02
1.067212019292636815e-01
2.154965911906349396e-01
2.720371503480160102e-01
2.619865146490870100e-01
1.902323409052257552e-01
9.554557385176801199e-02
3.331177717543988559e-02
4.695674122090592872e-02
1.574687992678043547e-01
3.383178519701108833e-01
4.840835763546336157e-01
4.745857088174185723e-01
3.075836406711757731e-01
1.105211498678701498e-01
-7.735331044438364251e-03
-6.604841282024984106e-02
-1.300823601013930131e-01
-1.716316374418146995e-01
-1.067686797889892680e-01
3.372356630654158027e-02
9.670035709436372584e-02
9.045085183828811132e-03
-1.248357079644752954e-01
-1.777032349966096991e-01
-1.450360952958950067e-01
-9.240633951787984024e-02
-6.260034070584229171e-02
-8.457231651973705355e-02
-1.725474415203004375e-01
-2.235636532309281665e-01
-4.956599012343930466e-03
5.632849852216950115e-01
1.126172085506658815e+00
1.168907991879892139e+00
6.550722508049757753e-01
1.093732345652217303e-01
-2.640880282287187686e-02
1.474506820660222151e-01
2.580056737824835134e-01
1.534727591066978314e-01
-1.460735219933910305e-02
-7.990585285532333937e-02
-7.238250325497454229e-02
-1.335716534269463240e-01
-3.006148772727286755e-01
-4.479372541363807469e-01
-4.579889927754760004e-01
-3.644292296118737395e-01
-2.728463982507109975e-01
-2.253497116237888898e-01
-1.999574578593658059e-01
-1.749395914957601605e-01
-1.457675646133236580e-01
-1.159148828802551157e-01
-1.023175798082734400e-01
-1.276318802180225198e-01
-1.852872990578721679e-01
-2.287477875235570668e-01
-2.118802226636152530e-01
-1.352938765597865300e-01
-4.522176043033081932e-02
1.367513870014920412e-02
3.093466123229292666e-02
1.267161896738220814e-02
-3.491435095699119140e-02
-7.947455077827202119e-02
-5.167962480028651107e-02
8.744399556205616209e-02
2.670377001681689122e-01
3.483648101346211723e-01
2.705715384940050594e-01
1.163639499132717581e-01
1.223894162035665985e-02
-4.606948267730399081e-03
1.822669478001159339e-03
-3.813014144541786166e-02
-1.249733714405994872e-01
-2.057546214696443498e-01
-2.381235740557609004e-01
-2.256097930320742628e-01
-1.918217933126770969e-01
-1.383722913165346680e-01
-5.341295954202635032e-02
4.473291781932679789e-02
9.893915332688507647e-02
4.733507051429416274e-02
-1.272310222064848284e-01
-3.339142471533872447e-01
-3.573608924269007781e-01
-1.473828016188502565e-02
5.658331797382408768e-01
9.275496747731925007e-01
7.525453658292232673e-01
2.752361824961995773e-01
-1.101149845829148960e-02
3.502887752939728983e-02
1.423586849327035941e-01
7.862828958689456471e-02
-9.499336559028884186e-02
-1.892080837399408022e-01
-1.266855668279321112e-01
1.560902352450681263e-02
1.221241504333352712e-01
1.446620218450088147e-01
1.082461946866023067e-01
5.344050452689602659e-02
-1.191179719270603690e-02
-1.056459172573436106e-01
-2.144770089676278912e-01
-2.763341300797598765e-01
-2.515757038938601919e-01
-1.725215084419105815e-01
-9.394089751298512203e-02
-4.142890545517745327e-02
-2.233139741735452877e-02
-3.890468521035288230e-02
-8.164297936354514285e-02
-1.389074343334387174e-01
-2.083865025553098271e-01
-2.760677856535205255e-01
-2.887467821176994964e-01
-1.798451530448393898e-01
4.297055057048422555e-02
2.553430057127052399e-01
3.268583973807782650e-01
2.637843282761419550e-01
1.704479587620265635e-01
9.363870652230110725e-02
-1.024197344572728811e-02
-1.641379333081498526e-01
-3.051722853477240593e-01
-3.457085498596181861e-01
-2.520393397257665313e-01
-5.920561932151578721e-02
1.493041939576236765e-01
2.752614382642760149e-01
2.552012029877578358e-01
1.002509650551538511e-01
-1.043254495333157533e-01
-2.494777605032377499e-01
-2.753336524862768919e-01
-2.027919301652899298e-01
-9.886710319488160870e-02
-2.747151774170465688e-02
-2.767617375435453206e-02
-9.842600233828051326e-02
-1.649110789097258389e-01
-8.494815704304314874e-02
2.010846045644436864e-01
4.986176827685165347e-01
5.110386733162650685e-01
2.347827611743110998e-01
-8.611929474273541385e-03
-1.170854711715565641e-03
1.381800314378014150e-01
1.923575623732636242e-01
1.047023061949196587e-01
-4.728725177343264668e-02
-1.818681206699417907e-01
-2.580692439454977394e-01
-2.677598444890146867e-01
-2.345522694714828882e-01
-1.979709435983972310e-01
-1.717484047230180000e-01
-1.288910395851460278e-01
-4.429530650946347792e-02
5.789087673751670132e-02
1.189603921518174734e-01
1.062064916558000810e-01
3.759585645550529015e-02
-5.235207884904063275e-02
-1.356242943049854877e-01
-1.778374788399779693e-01
-1.496042919964014339e-01
-6.360380979864407869e-02
2.453605604825432121e-02
5.564511352511573861e-02
1.170490436310150754e-02
-6.646507446265671748e-02
-1.196886822961302221e-01
-1.298977489956137932e-01
-1.151560838072926696e-01
-7.566196983198836268e-02
1.683452892549305163e-02
1.570188123163598903e-01
2.569406627821005373e-01
2.189331395599958263e-01
6.411956068828605915e-02
-8.244543961204106597e-02
-1.427800449450413178e-01
-1.509131458645156521e-01
-1.624040177203297519e-01
-1.707003366820736279e-01
-1.376374868769556781e-01
-5.934724217178434513e-02
2.555339105490845100e-02
6.927599192929408123e-02
4.680462408765414389e-02
-1.904538979803203913e-02
-5.961321228570393149e-02
-2.233817281617384368e-02
5.112122679505211320e-02
4.446094344009893229e-02
-7.209660053353096620e-02
-8.847805000483772997e-02
2.942738105188018038e-01
9.908122584846802416e-01
1.388899580176064186e+00
1.029091574918708840e+00
2.599479896679917634e-01
-1.931658447691980418e-01
-1.163447077547028613e-01
1.248280723471185266e-01
1.967352556566285549e-01
1.121579242303139823e-01
2.651026151865452929e-02
-6.297256637814319796e-03
-3.492114498295544739e-02
-1.013532586392906221e-01
-1.994381713454211058e-01
-2.967066196262742039e-01
-3.556158194475779744e-01
-3.521879316365238433e-01
-2.954131933430921286e-01
-2.203441435485516131e-01
-1.524659798051220261e-01
-8.222039197646463515e-02
9.347071969668111630e-03
8.920272389611663688e-02
7.844936329047330625e-02
-3.398077387551402123e-02
-1.386858697831015175e-01
-1.268107848509606728e-01
-6.607583250469447472e-03
1.405964856616173375e-01
2.580486172871828132e-01
3.298387533141184380e-01
3.407160794978537632e-01
2.698479922067539283e-01
1.336586169849866279e-01
2.654177228850293502e-03
-5.331547844616105203e-02
-3.206024897721149874e-02
2.500497408263628596e-03
-7.977283043048085873e-03
-5.585516454440214024e-02
-9.206270977531802457e-02
-9.630355235424956084e-02
-9.400857076488976227e-02
-1.141525396083677563e-01
-1.598925185619745615e-01
-2.119362750406394713e-01
-2.368209894830698437e-01
-2.044653387770884734e-01
-1.220074028004666661e-01
-4.230748585564737818e-02
-1.813045022451745258e-02
-4.675825030064358762e-02
-7.598403641185753898e-02
-7.888917578580148526e-02
-1.068080671876446563e-01
-2.199413985121940474e-01
-3.389074578476137800e-01
-2.292167605226843874e-01
2.342789246829165561e-01
7.831225281660633142e-01
9.559011049365789825e-01
6.687036174854933401e-01
3.174229093694614368e-01
2.186534724266658014e-01
2.602055548546507446e-01
1.960565588437852280e-01
-5.742778584417948529e-04
-1.832411299192954757e-01
-2.498257771401451444e-01
-2.155162760588614779e-01
-1.455766898099102868e-01
-8.733578964467661465e-02
-5.751046646341456681e-02
-7.002502813255583047e-02
-1.520362945589784909e-01
-2.935547001148203772e-01
-4.062412336227363974e-01
-4.086424913814903359e-01
-3.243797578511694590e-01
-2.287170116885118842e-01
-1.517204376484278250e-01
-8.685606423808592269e-02
-4.043900266012352696e-02
-3.152598557080305702e-02
-6.531330834746285063e-02
-1.228992114486657100e-01
-1.731899008700605036e-01
-1.941042550034371150e-01
-1.829849929685007925e-01
-1.472910443402233038e-01
-8.433418701946979179e-02
2.860071048916902614e-02
2.002168442107683521e-01
3.740055751024824460e-01
4.545570159694131140e-01
3.943397917677351483e-01
2.228924918073674766e-01
2.207684805407521267e-02
-9.959180928047038639e-02
-7.866608702590499602e-02
2.236145191719025177e-02
7.015862323982802184e-02
1.158683747961124742e-02
-7.901582328663753207e-02
-9.924637781559804417e-02
-3.213619387395931504e-02
4.396758331447873230e-02
5.412497712032156988e-02
1.000115236099225619e-02
-2.888828327421153613e-02
-3.539899841570212646e-02
-1.842329795623787528e-02
6.523552606940624665e-03
7.761410974487437629e-03
-5.255497492310522156e-02
-1.369944961298734387e-01
-1.052041324677230882e-01
1.229122811795330117e-01
3.872467225745979125e-01
4.248178089574016214e-01
2.170754737455276029e-01
2.665913668211418452e-02
5.023695605092586697e-02
2.170950866814935487e-01
3.578030345075528529e-01
3.913597266893046323e-01
3.136733250605024392e-01
1.496438004621720719e-01
-2.955398391048121021e-02
-1.231655385588142776e-01
-8.985100286712680018e-02
4.700850855999146038e-04
3.944290345037762546e-02
-2.767180731530483485e-03
-7.383950737716864221e-02
-1.354663108766025748e-01
-1.955090650814713116e-01
-2.519767368416686026e-01
-2.734351532440147947e-01
-2.433118974540891821e-01
-1.859583403178174665e-01
-1.383498553159701328e-01
-1.093935064351759107e-01
-8.280942720989392658e-02
-5.958033563306937286e-02
-7.111922568896197894e-02
-1.367604124779577823e-01
-2.288807240273015575e-01
-2.922194154273710653e-01
-2.834062937390603443e-01
-1.907501509305265519e-01
-3.526316529752307471e-02
1.387545365246545259e-01
2.714141654123091718e-01
2.945433191631707803e-01
1.800275185009802548e-01
-3.602512804948936054e-04
-1.234429803296033940e-01
-1.409323821961200318e-01
-1.005425753877173395e-01
-5.050115377681749923e-02
5.121083659913762756e-03
5.975214678264761242e-02
8.085290319181555330e-02
4.839874018470712025e-02
-2.468832460585016625e-02
-1.184979164619652109e-01
-2.170284823929215234e-01
-2.910449113313150482e-01
-3.055916419104598991e-01
-2.574077904213313284e-01
-1.912951604057822885e-01
-1.621804637997948106e-01
-1.582983570543021190e-01
-6.629506245048615021e-02
2.141500866917079582e-01
5.732374978727731163e-01
7.156896379252239981e-01
4.948982263904218026e-01
1.219746430301850565e-01
-7.991156610684656270e-02
-3.077720006170554801e-02
9.978349596940354338e-02
1.447629303053789562e-01
8.835989470969603243e-02
2.887994927848009860e-03
-6.748062980633336150e-02
-1.336700484528653698e-01
-2.097729866260623355e-01
-2.664486214050405533e-01
-2.437823766090631561e-01
-1.152515304687011105e-01
6.704549875113580137e-02
2.093935873287245675e-01
2.518237683142572347e-01
1.910768759992093890e-01
6.082293800062987810e-02
-7.566983675701639822e-02
-1.452695346088275496e-01
-1.212138113493463898e-01
-5.203603854774568882e-02
-1.230443502541528518e-02
-2.443401904577699110e-02
-4.494467634179911963e-02
-3.227275700882887427e-02
-4.154710337629172710e-03
-9.855028893634544887e-03
-5.927291846415517346e-02
-1.043058373745051060e-01
-9.473833023526621877e-02
-2.641209423023446051e-02
7.400789393502768543e-02
1.730401534296417410e-01
2.256436897585569201e-01
1.919658021205623288e-01
8.322304585704855262e-02
-3.755409810252242908e-02
-1.167128072365723190e-01
-1.530216624561861749e-01
-1.737077927380988041e-01
-1.902709942340692073e-01
-1.928858997604848136e-01
-1.722063344152491293e-01
-1.228654399915533185e-01
-3.728628638318586680e-02
7.181845267752005879e-02
1.572767499035472027e-01
1.866925375767314599e-01
1.807985995502613130e-01
1.497185201773062468e-01
4.375355110577795748e-02
-1.311982239220009228e-01
-1.934616306441431510e-01
6.253364376606118658e-02
5.487483912714037348e-01
8.628278902387224170e-01
7.241942515066157604e-01
3.218930474564345445e-01
5.114124433818444809e-02
2.750493917472090002e-02
6.591736890802303572e-02
1.965259294007492413e-02
-7.238642762504944594e-02
-1.200627151877568799e-01
-1.050705290760947097e-01
-6.752557425016614268e-02
-5.161980399057841673e-02
-7.891528473995471082e-02
-1.424125271714845042e-01
-2.170891683975581243e-01
-2.780607629928444902e-01
-3.056652907571656419e-01
-2.866618281305680638e-01
-2.249915278379444605e-01
-1.419492920260436719e-01
-5.883551393840821125e-02
1.439187157389026223e-02
7.744964794111409978e-02
1.336158941506948306e-01
1.732123460665236925e-01
1.538427653362146041e-01
2.896925898934411131e-02
-1.646666058993929704e-01
-2.870270846992129532e-01
-2.338604896753953277e-01
-6.405096155795239610e-02
8.179822180323552405e-02
1.483508638234141697e-01
1.816785880620473970e-01
2.094920743657832651e-01
1.846094572710662018e-01
7.009020883125546830e-02
-7.797540871819039210e-02
-1.607861291860750164e-01
-1.370330655968908518e-01
-4.451880194110027777e-02
4.171465198239049377e-02
5.560504309435565506e-02
-1.939554483181864936e-02
-1.345012769757323590e-01
-2.150830364683829765e-01
-2.285030159728833610e-01
-2.016707366082846620e-01
-1.666134733517133926e-01
-1.170235631058889059e-01
-3.772802342554319038e-02
4.266944156802833510e-02
5.109023327712099161e-02
-5.253704439481170219e-02
-1.558288446762497448e-01
-3.140765186249344296e-03
4.963884283046965384e-01
9.754888266780318284e-01
9.424906157346303326e-01
4.594544212440943576e-01
8.695491869298019316e-02
1.193970401176399354e-01
3.041544297232113836e-01
3.184619784453584512e-01
1.408127736286430010e-01
-6.848702652372495869e-02
-1.964512062095069289e-01
-2.335049073156268418e-01
-2.208708592127073267e-01
-1.941955816871463458e-01
-1.525308031544355680e-01
-7.726951399240521157e-02
9.446991506187666504e-03
3.785626464745132924e-02
-2.889144937988286088e-02
-1.437993055541733067e-01
-2.338790245966187731e-01
-2.680231342719643917e-01
-2.524737025905955390e-01
-2.074781283777732410e-01
-1.589886859687214826e-01
-1.205466642385994991e-01
-8.707958435771755157e-02
-6.016432383071956130e-02
-5.949611639796913154e-02
-1.014405112821243071e-01
-1.782356986875686944e-01
-2.497185063151561302e-01
-2.503142420926722789e-01
-1.318370636508719995e-01
8.565499023222128416e-02
3.200167477615657452e-01
4.768011327872307414e-01
4.826550792042056948e-01
3.135639458067930319e-01
3.721419585824380788e-02
-1.928151380058257813e-01
-2.427914553471488268e-01
-1.300036434661905604e-01
-1.293452516429515267e-02
-7.878671085627793336e-03
-6.746247663098942082e-02
-8.826106005488937312e-02
-5.818250963077455790e-02
-3.973551481001029451e-02
-7.484670313964685018e-02
-1.506815662430897595e-01
-2.190100595505527215e-01
-2.303794882188704429e-01
-1.826670530152426919e-01
-1.414688130452093906e-01
-1.616944966571265407e-01
-1.621991892705254013e-01
4.343186734841972263e-02
4.750306107189338767e-01
8.032428297308331633e-01
6.665483169177335299e-01
1.721133399599666380e-01
-1.964141718686928939e-01
-1.745939806133932626e-01
6.283893729391117067e-02
2.464480498753036930e-01
3.013168675673167929e-01
2.898809448044263881e-01
2.569878061948174808e-01
1.848381763472989603e-01
4.489624368467143301e-02
-1.381803575030999542e-01
-2.868134826356856792e-01
-3.393239448571214734e-01
-3.025641862822279204e-01
-2.277038567064768038e-01
-1.549272178424787594e-01
-9.914935421316053987e-02
-7.050932572719709190e-02
-7.967233466832965294e-02
-1.220714644389877812e-01
-1.725616171383122788e-01
-2.029577211276093751e-01
-2.004538041496916057e-01
-1.668209455219851756e-01
-1.104608446440593916e-01
-4.615244320528699706e-02
2.668001323986647112e-03
9.669435521875520759e-03
-3.243869184913572568e-02
-9.334294802707948646e-02
-1.281227099682880621e-01
-1.186422497979793961e-01
-6.944955493356573528e-02
1.950222230643474525e-02
1.344321237073368980e-01
2.249646290480022959e-01
2.453810446661321698e-01
1.997983856091412880e-01
1.303906183194201152e-01
8.209442765912353113e-02
6.657104726790202820e-02
5.061996845662416339e-02
4.793006112733618276e-03
-4.796765329161606362e-02
-6.152868596134457996e-02
-2.789172559754085623e-02
1.517625194518718718e-02
2.908384874066688094e-02
1.021338923456739482e-02
-1.858220816793509228e-02
-4.289306131586021614e-02
-8.148651872942869190e-02
-1.660775408330520120e-01
-2.597179403676889153e-01
-2.025700471624370114e-01
1.449256190252507792e-01
6.377342079942281972e-01
8.813076459752385849e-01
6.736465951791702489e-01
2.605355637001583458e-01
8.281710644195909576e-03
-5.912056405481367835e-03
4.867176058812693051e-02
3.586741210136425856e-02
-3.964515540483751904e-02
-1.085547915635742267e-01
-1.250542706866746567e-01
-9.515582209605022435e-02
-5.244644471416317483e-02
-1.706665680264687207e-02
1.298994253598974129e-02
3.419700029831664045e-02
2.713678420933936936e-02
-1.375734489283680743e-02
-6.071844397154833872e-02
-7.972972156474644745e-02
-6.566339175710565745e-02
-3.818024871965489120e-02
-1.748185629703024463e-02
-2.371786055636842389e-02
-8.158662227007289214e-02
-1.892580514424916371e-01
-2.930186546001784520e-01
-3.297035685784133752e-01
-2.839053533854419831e-01
-1.814265941387130376e-01
-6.074017076862654047e-02
3.299790010360301867e-02
7.183172102397272774e-02
6.919110311358682430e-02
5.191394557002391302e-02
3.130829710841259023e-02
1.180926170372255044e-02
-1.239798493388239234e-02
-6.295633810808852482e-02
-1.364252375974367160e-01
-1.757747020085187184e-01
-1.312221103646321330e-01
-3.947944987957659191e-02
3.231956007288093978e-03
-5.056092781243292505e-02
-1.489268061505786833e-01
-2.005826843222580369e-01
-1.651217910534923949e-01
-7.708291186279107865e-02
7.553586932366987590e-03
6.814140341705021697e-02
1.127947103929118483e-01
1.290048831365021575e-01
6.793625380714050921e-02
-9.824491352851830173e-02
-2.979629560262084809e-01
-3.550410901224352878e-01
-1.162698473957844564e-01
3.400971121488794990e-01
6.698951925861758028e-01
6.003489020446508562e-01
2.792531603743569901e-01
8.684140206241069970e-02
1.438243514502509923e-01
2.365056969385216645e-01
1.779777151101110122e-01
1.252273740879173911e-02
-1.258931256182866665e-01
-1.821120540878333471e-01
-1.787669481555798634e-01
-1.483343767038363681e-01
-1.095187883524288835e-01
-7.526981380335931449e-02
-5.526588208768656169e-02
-5.388811997695205913e-02
-7.481008829266240501e-02
-1.235303802798877887e-01
-1.948889373809416237e-01
-2.567239920280254273e-01
-2.540468970814404037e-01
-1.466835334330455209e-01
4.108363453776545104e-02
2.220356165200584597e-01
3.194077209292170982e-01
3.223042351341878775e-01
2.540533781790107470e-01
1.291115351256018895e-01
-2.759159090129412878e-02
-1.600300516983310384e-01
-2.129147045558161533e-01
-1.674052968399269425e-01
-4.132603685649632874e-02
1.278296951960280758e-01
2.901512221611528553e-01
3.789309144003876195e-01
3.310815396831064406e-01
1.447676954484136691e-01
-9.535528201857942920e-02
-2.754557108368289597e-01
-3.334506267239396027e-01
-2.869479761297046849e-01
-2.029902936600825880e-01
-1.441549760174297146e-01
-1.250647596723846733e-01
-1.163758146565889717e-01
-1.008603250777735522e-01
-1.044387151720241880e-01
-1.493409499557046272e-01
-2.078594015425231367e-01
-2.297966227074318968e-01
-1.987799087646334173e-01
-1.503912617656265327e-01
-1.297136388823301456e-01
-1.046760922975580599e-01
7.343740427005909788e-02
5.210422030158160522e-01
1.051046784418824043e+00
1.209006746193074466e+00
7.921979913597243517e-01
1.781129086016586260e-01
-1.077429477413964776e-01
1.768311318116552733e-02
2.436262124615370117e-01
3.158694760592267725e-01
2.356588862886890012e-01
1.148799921252440376e-01
7.209549955854444199e-03
-9.912550335781498967e-02
-2.052634453225792299e-01
-2.776360329001870131e-01
-2.913438343811389220e-01
-2.627404994122123916e-01
-2.230978062839711618e-01
-1.745081036597663782e-01
-9.113795961105750076e-02
3.374490807165454742e-02
1.423836429053079167e-01
1.339658567029304859e-01
-2.617068542109537987e-02
-2.336582915983808073e-01
-3.351796706021873407e-01
-2.834231894668660101e-01
-1.683798106810830419e-01
-1.012051641599945873e-01
-9.632327636159958295e-02
-8.648987597063705068e-02
-2.657953647397916577e-02
5.847905729791345875e-02
1.163828601972765053e-01
1.347506810057638449e-01
1.658463754357978326e-01
2.609036253095744495e-01
3.728844137455561425e-01
3.824308134400983827e-01
2.449475576919180886e-01
5.362231636996483974e-02
-7.152327113747872223e-02
-1.092421511490354741e-01
-1.236548773846463806e-01
-1.633684637962821984e-01
-2.135522315382180070e-01
-2.337673954141122334e-01
-2.069637857412675863e-01
-1.487712178576861555e-01
-8.881688471755201653e-02
-4.680764860726643883e-02
-2.258787972851558634e-02
-1.770321376908921829e-02
-6.703615303523667579e-02
-2.117406497838677237e-01
-3.907571884440055876e-01
-3.772267800626567524e-01
4.698873802826636359e-02
7.396674429503368176e-01
1.159999215469688982e+00
9.355330028342561111e-01
3.570124590571198686e-01
1.184135613306756818e-02
7.118922744224590038e-02
2.401758446738068709e-01
2.508953460249607192e-01
1.220007076953194686e-01
9.134297023319741526e-03
-4.281448666164070285e-03
4.160219838920417579e-02
5.118491138625707454e-02
-2.994487074052109427e-02
-1.663521908333556731e-01
-2.806824150567333032e-01
-3.332336378017737855e-01
-3.330938665144322908e-01
-3.029103193000652894e-01
-2.657273596396515503e-01
-2.465453162043670376e-01
-2.590898975115940028e-01
-2.886685369211166585e-01
-2.934423540081972925e-01
-2.407815378673433537e-01
-1.619191811519891389e-01
-1.365687724504653089e-01
-1.924624268814728312e-01
-2.668381232553659332e-01
-2.855438271817823948e-01
-2.319067886930878120e-01
-1.375273612683725888e-01
-4.453711155964446000e-02
2.478682585323387783e-02
8.105732274649415925e-02
1.424191694831902777e-01
1.843025188998410335e-01
1.417545231134063333e-01
-3.224928245539649546e-03
-1.560059093337712033e-01
-1.806497807873937433e-01
-4.559279483110291464e-02
1.353151464907303148e-01
2.185190001297185880e-01
1.577540163906277215e-01
1.300302968973065035e-02
-1.220508790612484934e-01
-1.907335990321031016e-01
-2.036427264924795255e-01
-2.055089190135885313e-01
-2.092698792770311678e-01
-1.797073222441644413e-01
-9.248103507114577293e-02
2.380733138257047632e-03
7.259776304021774672e-03
-9.810714747736139218e-02
-1.631976891757398740e-01
2.094750009504660337e-02
4.298856661115507682e-01
7.110036083337681889e-01
5.673044233719868323e-01
1.703594014055764827e-01
-5.015986354995475432e-02
4.361985185643385554e-02
2.185816083372304486e-01
2.673086123455449270e-01
2.180607018548820775e-01
1.560297433658460742e-01
6.181954688603967518e-02
-9.319561953188396086e-02
-2.323864557712300716e-01
-2.472127341213859464e-01
-1.135436532536293203e-01
9.934606636820875192e-02
2.756036131606025563e-01
3.192577155149127766e-01
2.344940051888595445e-01
1.195551613464029272e-01
5.125813776557833212e-02
1.662808888813605002e-02
-2.396080434743372289e-02
-5.636319744063921638e-02
-3.210053139983653353e-02
4.923402881117094898e-02
1.168401541300253116e-01
9.965162159715822143e-02
-2.830614881159170329e-03
-1.297827594158538489e-01
-2.208109756967347181e-01
-2.537431964540798335e-01
-2.308534622501146605e-01
-1.586221621354546030e-01
-5.087273278561492418e-02
7.211848875171562867e-02
1.865297432862400573e-01
2.459970349234116838e-01
1.920315809814894525e-01
2.733976652903336024e-02
-1.543924637811224798e-01
-2.579009088998727162e-01
-2.763526321560968446e-01
-2.591364484361074472e-01
-2.277656018281951633e-01
-1.634736244562151886e-01
-5.701082392258317866e-02
6.083313300222464859e-02
1.401521234007793992e-01
1.558675446542167331e-01
1.213402404639406518e-01
5.988864179409512239e-02
-1.559347875030318853e-02
-9.370774168889971223e-02
-1.586666026964265452e-01
-1.895517981711207500e-01
-1.387319725411216842e-01
6.393632400687139505e-02
3.960371521402180073e-01
6.358381894240058285e-01
5.382728798784759405e-01
1.690217801699752664e-01
-1.246552468200616548e-01
-1.313287534314606375e-01
2.144596315119701169e-02
1.124445811373797621e-01
8.942635308230498237e-02
2.981539487145893480e-02
-1.779460876857276788e-02
-6.525261188707236204e-02
-1.265340209941331340e-01
-1.920577477352955198e-01
-2.426607500639809123e-01
-2.703843084051594237e-01
-2.841670107691491309e-01
-2.863724223063625063e-01
-2.575108734383656506e-01
-1.851103658256353091e-01
-8.956911279501009182e-02
-6.429378523793371006e-03
3.591483172250333616e-02
2.692099789524236494e-02
-8.589262608464810073e-03
-2.165115823507832160e-02
1.017286567398972830e-02
6.164509740150522776e-02
9.294179292052920371e-02
8.785813992473770484e-02
5.686330625179079890e-02
1.505094748319662536e-02
-2.451296770603601446e-02
-4.446363925074801188e-02
-3.096514440582805172e-02
2.008783002667222095e-02
9.555954647712365524e-02
1.471023403236306482e-01
1.245759427590640150e-01
4.821077789564862104e-02
-1.215368678141535118e-02
-3.604190575081520076e-02
-6.541689133811474932e-02
-1.242499339683750537e-01
-1.842725568849216955e-01
-2.120416702206326387e-01
-2.088794933409157950e-01
-1.879469269520037678e-01
-1.412253646190932688e-01
-6.531903307258336844e-02
-8.621222328330548079e-05
8.720476597706039619e-04
-7.076455115323435074e-02
-1.693973840871847159e-01
-2.243593375881422491e-01
-1.640748550770330660e-01
6.033527200895526243e-02
4.425756725044208695e-01
8.692993837881040076e-01
1.099859606763160524e+00
9.374766966568899296e-01
4.973453678777939313e-01
1.433009120134989267e-01
8.559238799521826091e-02
1.917798638800408406e-01
2.163914272549032070e-01
7.636122359831686024e-02
-1.202595538273946441e-01
-2.271122575971293855e-01
-2.022156635485795051e-01
-1.214587094191444949e-01
-8.181206580520142269e-02
-1.094630457827608094e-01
-1.626701466736057422e-01
-2.050550957672186148e-01
-2.430493057313782013e-01
-2.822200474688863481e-01
-2.889376792816408246e-01
-2.311496548269555695e-01
-1.329576440332329579e-01
-5.755014129376707921e-02
-4.625892403097499328e-02
-8.782767235661109728e-02
-1.404123031534849075e-01
-1.772743740342127283e-01
-2.049803562931409029e-01
-2.297239226566262504e-01
-2.207124752273798007e-01
-1.353320538402959794e-01
1.983969025073021100e-02
1.833604925513337980e-01
3.055258763835199121e-01
3.914590345631914770e-01
4.471786920559694956e-01
4.127062306392935698e-01
2.262411860409935804e-01
-4.709970836134351468e-02
-2.458312649641465064e-01
-2.852463663406781813e-01
-2.237537712551227187e-01
-1.590816262440571949e-01
-1.263379838202509375e-01
-1.067137554833426649e-01
-9.127910693469355741e-02
-1.036049658599444284e-01
-1.619276586320045619e-01
-2.411588536517955683e-01
-2.826472954889401312e-01
-2.380611632204307770e-01
-1.122815166936352721e-01
1.908187108647420999e-02
4.309300413864793067e-02
-8.025840861287726613e-02
-1.912700596055305347e-01
-6.068538541214779647e-03
5.077437483228134374e-01
9.078963994858587627e-01
7.385129498523952396e-01
1.778129725988098486e-01
-1.518163119232974478e-01
2.199547342494748842e-02
3.920348338603825145e-01
5.715623328348955479e-01
4.953699093617500715e-01
3.288212503101818895e-01
1.957374346801450393e-01
8.186728774374728290e-02
-5.627071462927203671e-02
-1.862442542015773916e-01
-2.384218601018677497e-01
-1.990780853378924520e-01
-1.219756738838126547e-01
-7.129333872574068753e-02
-7.811970039046592373e-02
-1.330625934743029926e-01
-1.996995073295508849e-01
-2.449251792714124132e-01
-2.725283099414524957e-01
-3.108631065383180569e-01
-3.420255319191936039e-01
-2.838159455797522601e-01
-1.078363707002537031e-01
7.112238430045481064e-02
1.145842579120752991e-01
2.127491504546888401e-02
-1.084314159998569088e-01
-2.007766993438943326e-01
-2.349492577449994180e-01
-2.010878471473859508e-01
-9.028508968981201199e-02
7.874469011323501078e-02
2.369552584123770511e-01
2.946233083602306513e-01
2.260526352824631657e-01
1.091717517094821510e-01
4.222933387105137076e-02
3.705362094930807898e-02
3.096834367643365796e-02
-1.919462590218272077e-02
-9.545107012155545911e-02
-1.528000024798482626e-01
-1.593689859501740969e-01
-1.158784326197039027e-01
-5.943246522874474219e-02
-3.481002529759887054e-02
-5.223084883347035162e-02
-8.843709341184127770e-02
-1.301728078856508042e-01
-1.973092048963847323e-01
-3.019403404360199161e-01
-3.614031316805429439e-01
-1.795297760206568671e-01
3.462280184909613534e-01
9.351129821302103240e-01
1.072111172639181653e+00
6.273767980723025106e-01
6.980232629115959431e-02
-1.312121932484590359e-01
-2.493853797815596268e-02
6.635910262495584022e-02
1.574063696020878284e-02
-6.930775852673283499e-02
-9.065243843674902768e-02
-7.155346873844831146e-02
-7.620638776800338354e-02
-1.208452971642427487e-01
-1.715497941852936747e-01
-1.887050131170000533e-01
-1.617453081563248463e-01
-1.113335926653494928e-01
-7.069703137322524977e-02
-6.644842435494499600e-02
-9.921235623291738137e-02
-1.358933281730231868e-01
-1.414359585881586057e-01
-1.263333431327718914e-01
-1.398793403912249600e-01
-2.003564740381205411e-01
-2.506316313350893110e-01
-2.134006460969771202e-01
-9.086632782119702378e-02
2.724557068791415987e-02
6.602267270492606643e-02
2.489658997999549817e-02
-7.058565148795284405e-02
-1.855331389385836416e-01
-2.144347216799973033e-01
-1.913383654454120508e-02
3.663509794851945167e-01
6.526305725044816430e-01
5.808218324201348537e-01
2.429227342516599164e-01
-4.124071597184672533e-02
-1.041253911490489514e-01
-4.980000752742737291e-02
-4.702883458612243384e-02
-1.285125545547090298e-01
-2.118770773892379999e-01
-2.293912260460952424e-01
-1.763404142001068764e-01
-8.303724485387647958e-02
1.319554289226595838e-02
9.379218118444018759e-02
1.671940424333066555e-01
2.360195227157530495e-01
2.638429485806084163e-01
1.907383779629413523e-01
1.535065807559916895e-03
-1.986263799592416501e-01
-2.055808580586656609e-01
9.024890852940987973e-02
4.981005226505751948e-01
6.551694796050216985e-01
4.552469212573941881e-01
1.856724533749297135e-01
1.309140973589207335e-01
2.308527139086032354e-01
2.464700881319298320e-01
9.312493182810696601e-02
-1.138883588668129221e-01
-2.428636770370135312e-01
-2.625787031404112626e-01
-2.113525480904314413e-01
-1.338816089540512122e-01
-6.388965818263682428e-02
-3.276407637327632266e-02
-6.226381417720552869e-02
-1.422475040880437636e-01
-2.332352681443349285e-01
-2.977159506942285150e-01
-3.148738098032671795e-01
-2.732175449442086901e-01
-1.774301812373690890e-01
-5.267634173292599226e-02
8.391195858007530206e-02
2.276197029566429386e-01
3.325343117923910130e-01
3.087036738885708953e-01
1.313754179825149249e-01
-8.695319403827264648e-02
-1.881239609958732517e-01
-1.162187219168556718e-01
4.549805231161532793e-02
1.731256965127899172e-01
2.221557236143199832e-01
2.371084181239767330e-01
2.577185265544109094e-01
2.542327762640450017e-01
1.674275524062031895e-01
-7.553353400509296364e-03
-1.998800128899100026e-01
-3.238569939531391051e-01
-3.438159303882630247e-01
-2.824325183002637241e-01
-1.884325335638893373e-01
-1.076221138771834424e-01
-7.125967402900716674e-02
-8.808559344821520476e-02
-1.409648770499117854e-01
-2.003036281772024030e-01
-2.413344693461097201e-01
-2.471276082716897249e-01
-2.069743287515615759e-01
-1.237967960495450909e-01
-2.385226201003402130e-02
5.614060002158308832e-02
1.268146889231541730e-01
2.832776432105185149e-01
5.839950330790548705e-01
8.597177536175875101e-01
8.142264752497865299e-01
4.244882299944674475e-01
5.168390028343931158e-02
7.917619067481913159e-03
1.939282381308175540e-01
3.040577989951283033e-01
2.149455778059774225e-01
3.376858228211833401e-02
-1.112937549026122297e-01
-1.950017981255224853e-01
-2.498676470742761391e-01
-2.894300589027598569e-01
-3.022108929574805480e-01
-2.844961070129852221e-01
-2.423142930515738147e-01
-1.770636668137039182e-01
-1.009452820861016648e-01
-5.194589221372515608e-02
-6.224888733335955104e-02
-1.170479388631796430e-01
-1.668784474301562570e-01
-1.807141293233176793e-01
-1.753726688558161495e-01
-1.929450732357038123e-01
-2.499121635679816267e-01
-3.098387747790673497e-01
-3.167065821733063835e-01
-2.483965955481282073e-01
-1.265858457002978221e-01
4.177853619507248054e-03
9.595867690493395386e-02
1.282180368169008045e-01
1.376654169747773548e-01
1.875715617220184983e-01
2.812375934683978285e-01
3.348081449236198215e-01
2.698616248371663029e-01
1.081592213931388824e-01
-5.589414493981348375e-02
-1.538314565774415721e-01
-1.873959216094903402e-01
-1.940132472036514566e-01
-1.972122702927804339e-01
-1.899924842272862346e-01
-1.548213647568535412e-01
-9.474362204220342087e-02
-3.939601507949930248e-02
-2.027841482680878618e-02
-4.509651819180118121e-02
-9.060866948008389210e-02
-1.225647326476950738e-01
-1.451585879188652117e-01
-2.122880499510800267e-01
-3.180604896437226881e-01
-2.790162016327452643e-01
1.228082087957889229e-01
7.635913677781906994e-01
1.119632125758050156e+00
8.423838893068223976e-01
2.452132660314162993e-01
-8.393096844611164231e-02
7.318257228703294037e-03
2.082008318981121708e-01
2.588693280817707665e-01
1.987762301340493809e-01
1.660143393264807699e-01
1.733411736623652333e-01
1.363754793623395967e-01
2.217693469228870090e-02
-1.092403093327471153e-01
-1.947006504130865956e-01
-2.427549576262182929e-01
-2.966189532303332710e-01
-3.529665557175630242e-01
-3.509923787261909345e-01
-2.370809683120620737e-01
-3.791456507555676647e-02
1.294619714509469277e-01
1.542668183324706066e-01
4.133022931983865167e-02
-1.101203475283792227e-01
-2.122098473323407175e-01
-2.395463827965300108e-01
-2.127856472729535986e-01
-1.681839836336083693e-01
-1.277341802600539533e-01
-8.673546121856583191e-02
-4.051679504193127224e-02
-1.070956741925284395e-02
-1.715721886053820505e-02
-4.126032903515731293e-02
-6.165997559099600789e-02
-9.851655973165990288e-02
-1.580449132288680170e-01
-1.760211851016481033e-01
-9.392316930582075840e-02
5.178111968401603177e-02
1.757855441390743234e-01
2.341296969020714158e-01
2.254693984745147484e-01
1.507590739090547971e-01
2.421990840921453905e-02
-1.034699825432027348e-01
-1.778091976401361685e-01
-1.864190904554679229e-01
-1.512252975975864333e-01
-8.656458475748937675e-02
4.169022618862534661e-03
7.817741349301160492e-02
4.664080291840283499e-02
-9.838283027397856650e-02
-1.465361173020664765e-01
1.802028452936720593e-01
7.925780741373272820e-01
1.134976160159028247e+00
8.208481012495864038e-01
1.943748799994603760e-01
-1.046444445267352696e-01
5.548866453182407787e-02
2.853523294210764671e-01
2.699404581208587617e-01
5.323836346461448266e-02
-1.684655364806171840e-01
-2.929892643949182363e-01
-3.329719887324845695e-01
-3.111876026377010107e-01
-2.131143108676213649e-01
-4.202292695560573554e-02
1.304870927971676364e-01
2.144000916208813334e-01
1.863627498348668921e-01
9.727155092820172211e-02
1.197158736820352898e-02
-4.513306831825833476e-02
-9.062059369967180589e-02
-1.346319310345742981e-01
-1.554842279410997563e-01
-1.314923053520337115e-01
-7.414329947532151410e-02
-1.842816205301518739e-02
4.012133519572343675e-03
-2.204763935894708815e-02
-8.900584002588791954e-02
-1.644909044889731331e-01
-2.102331920229116857e-01
-2.052355797804298332e-01
-1.420275266008494963e-01
-1.689672854767558866e-02
1.465841573805809761e-01
2.705840716978477611e-01
2.652467772032864879e-01
1.211238324684524581e-01
-7.077810259611197474e-02
-2.099885228391154823e-01
-2.670266870393620540e-01
-2.638104677548195887e-01
-2.226912745672750271e-01
-1.615389628459652505e-01
-9.901928072961264926e-02
-3.528097822561124947e-02
4.525112836160549018e-02
1.339473004882979768e-01
1.882281583977092887e-01
1.781480496921556966e-01
1.218591895722493379e-01
6.127155714731469249e-02
1.165207529271081351e-02
-5.931623776992125952e-02
-1.808115802328196797e-01
-2.631564597875265532e-01
-9.229300603397802560e-02
3.864039388581589907e-01
8.137247324881454746e-01
7.436681854664405344e-01
2.432729563527155914e-01
-1.679748888487911096e-01
-1.818579726287857246e-01
2.437221409260045824e-02
1.529385625852434094e-01
1.248734567258387995e-01
3.385855287348971815e-02
-3.760800858720200757e-02
-7.999046152104566376e-02
-1.132696225345290325e-01
-1.513926791714735043e-01
-1.964354923176316325e-01
-2.351745673732114628e-01
-2.475253737222278816e-01
-2.263412843855142353e-01
-1.795674989250224118e-01
-1.219819256255844087e-01
-7.639852076446904117e-02
-6.256553145067529631e-02
-6.969666871524840546e-02
-6.248946235731622084e-02
-2.520148475002413277e-02
2.764289028789526301e-02
8.528748605382861780e-02
1.437620915882227290e-01
1.744596430544714527e-01
1.399244159818453515e-01
5.095636161186849200e-02
-3.068204076576168740e-02
-5.799687242770099060e-02
-4.362774987160028539e-02
-2.635773621678432627e-02
-7.769414995851231867e-03
4.372143564883502337e-02
1.144219913398145938e-01
1.224812272159077342e-01
2.171932891788373038e-02
-1.179350233291133893e-01
-1.966435291386929296e-01
-2.085813206414063037e-01
-2.190283227643033681e-01
-2.587806310649291008e-01
-2.937025348915738299e-01
-2.749367891463498914e-01
-1.919739367474689318e-01
-8.870851071718781344e-02
-3.012875211047257029e-02
-4.038990450634660778e-02
-8.314846391742372611e-02
-1.138602802731997488e-01
-1.270418254186103657e-01
-1.390619056617798943e-01
-1.488364605089307346e-01
-1.073764233318909161e-01
8.918915802232792178e-02
4.922659519108271708e-01
9.233965484200102880e-01
1.045123511710194686e+00
7.429059823137401652e-01
3.064897154486889708e-01
9.511153589686456578e-02
1.390481087313259201e-01
1.944927280468234654e-01
9.921704369413371360e-02
-6.887857540068834106e-02
-1.628990036915629047e-01
-1.540977136195919028e-01
-1.131965517123199733e-01
-1.038165248486588033e-01
-1.402559267495003259e-01
-2.054596141992229841e-01
-2.762094565159855519e-01
-3.309559796557371980e-01
-3.479681745506129631e-01
-3.172290868248517359e-01
-2.534275559868370276e-01
-1.802454179721109939e-01
-1.111846350358730445e-01
-5.822920390944222313e-02
-3.830080045677387857e-02
-5.826104936486932451e-02
-1.089114601477113448e-01
-1.721711969517252805e-01
-2.167422499725288887e-01
-1.983014010552799633e-01
-9.181849044855727726e-02
7.726480095729726383e-02
2.492448936696178008e-01
3.710050138370662443e-01
4.229293253119094098e-01
4.265057686305434026e-01
4.040268740715440288e-01
3.154696755634183170e-01
1.060284424366675637e-01
-1.626694743289904543e-01
-3.273556077572019607e-01
-2.992489423358709599e-01
-1.515143275002482637e-01
-2.152025375628561707e-02
1.548307355097907657e-02
-2.981091542851625753e-02
-1.105376938693280464e-01
-1.866522560571725053e-01
-2.369041965097822000e-01
-2.567049708337614256e-01
-2.473122502771175346e-01
-2.009122140299192116e-01
-1.090931356608884351e-01
-1.412045691092574454e-03
4.242708947203212982e-02
-3.377391903175754051e-02
-1.516793722210437734e-01
-1.093813151149027607e-01
2.045174919101954703e-01
6.050090854210566915e-01
7.525600435708248437e-01
5.601076611172743913e-01
3.047517559415387489e-01
2.508464154750954522e-01
3.457607145346289768e-01
3.900484085071714291e-01
3.183669250910833859e-01
1.930315374128470929e-01
5.620639816573687331e-02
-9.523953365508330826e-02
-2.364150783388177801e-01
-3.021371401512816246e-01
-2.623599735655908760e-01
-1.657934771159009779e-01
-9.085954442084513694e-02
-8.023338544160363295e-02
-1.282235282904428120e-01
-2.048305706050745356e-01
-2.781952910737204854e-01
-3.206377848850018308e-01
-3.073315061541798121e-01
-2.302045860580995418e-01
-1.211959129417228553e-01
-3.999344886093822438e-02
-2.045824042802201273e-02
-4.029612522404541625e-02
-5.885440551956176713e-02
-7.545071079373810718e-02
-1.207045740149016999e-01
-1.821272650884592503e-01
-1.802744904658440117e-01
-5.515160577276653070e-02
1.478365395650921010e-01
3.086069475404467077e-01
3.402801014181001116e-01
2.598317763179310846e-01
1.555683383105029849e-01
8.730313991709291732e-02
4.092260437574626181e-02
-1.240069873709542976e-02
-5.740939641963063722e-02
-6.296218464354592925e-02
-3.426150838012343575e-02
-2.405802908766944796e-03
1.649097201169997043e-02
2.061070910128893000e-02
-2.552867703159889153e-04
-5.662928015534424153e-02
-1.314772516884018805e-01
-1.804765381901664856e-01
-1.825274503688415484e-01
-1.861089354232632609e-01
-2.489890979749751765e-01
-2.888478642040269162e-01
-7.475783071897063037e-02
4.703867885379048874e-01
9.816036119580024977e-01
9.496512664047327412e-01
3.869881853420523710e-01
-1.345509984526583325e-01
-2.061603015919946935e-01
1.018197731060781902e-02
1.607785166806570687e-01
1.409993577587161651e-01
6.022515971431267878e-02
5.659547008634613872e-03
-3.094728376492967420e-02
-8.214636652938964168e-02
-1.465977143003164007e-01
-1.898963817223768280e-01
-1.819251163359473233e-01
-1.336289175931276996e-01
-8.182087713070659851e-02
-3.570354386041221795e-02
2.895419781283832539e-02
1.148175775474598592e-01
1.738701225607589551e-01
1.489969483010450957e-01
3.555339724036858662e-02
-1.075544887847085657e-01
-2.086006281489223846e-01
-2.357001766559068123e-01
-2.002592228717998968e-01
-1.295635772714156531e-01
-5.069227310642727274e-02
6.408979713085815634e-03
1.269673811458593531e-02
-3.466762104645870757e-02
-9.507763725397422316e-02
-1.093944085409336853e-01
-5.099188179858674119e-02
4.489234975358583762e-02
1.060673486838160234e-01
9.150020654628289452e-02
3.419378594106560476e-02
-1.217523159598513094e-03
1.493329496050251060e-03
-5.202279809767104690e-03
-6.802115581652347365e-02
-1.700167222610041440e-01
-2.399776467265192503e-01
-2.192433214459517388e-01
-1.120302003529376617e-01
2.760358140282941769e-02
1.441639931286342047e-01
2.093094778372765752e-01
2.204151811756825396e-01
1.862730129736517859e-01
1.070409476441518959e-01
-2.679952634124111582e-02
-1.904814447681755507e-01
-2.651860439849117457e-01
-7.158586100770933380e-02
4.076106948752768466e-01
8.439346193543049157e-01
8.421311259044529374e-01
4.518403582221141024e-01
1.207565541702705636e-01
1.066252337676008993e-01
2.295319890931089291e-01
2.206352423204929192e-01
5.008606774680629536e-02
-1.338423615051773374e-01
-2.153726308022291536e-01
-1.941742576429699163e-01
-1.369370988482690454e-01
-1.041076993325281558e-01
-1.111218837783227165e-01
-1.371722837089792424e-01
-1.617864482725768493e-01
-1.853379274863200254e-01
-2.142267500848009931e-01
-2.384323215367805393e-01
-2.286242432911312628e-01
-1.511014095976472849e-01
2.884897813462876034e-03
1.864258823731410886e-01
3.073799909096950334e-01
2.968328342359865535e-01
1.789750603650046290e-01
5.439052380144415721e-02
-9.065696313544912080e-03
-4.319463792967175725e-02
-1.095983260618774435e-01
-2.021273279581045357e-01
-2.518805595020804922e-01
-2.063638689855145647e-01
-8.208013131321335865e-02
5.879882915696851148e-02
1.580972562871032217e-01
1.762755720114448088e-01
1.071171528388069755e-01
2.681465964361057219e-05
-8.824774429210957560e-02
-1.628860868670845841e-01
-2.438879801454578999e-01
-2.839207190033081751e-01
-2.276688809645976697e-01
-1.193603757880275507e-01
-6.234538992870381630e-02
-9.553061143189832405e-02
-1.670577159983321069e-01
-2.075577749637961822e-01
-1.905595876776742525e-01
-1.334802542636847889e-01
-6.960043339708221755e-02
-2.213415474411595599e-02
7.490427280225578008e-03
2.818403907680837317e-02
5.146576158415348129e-02
1.277766698803136647e-01
3.446134547938675685e-01
6.741205185980492232e-01
8.657116117101559816e-01
6.934863997882160236e-01
3.010663896327807620e-01
6.387806289875319621e-02
1.148488784331760243e-01
2.374687869688503761e-01
2.082177400438506021e-01
3.274317273681400658e-02
-1.581284587621447635e-01
-2.792742227379472753e-01
-3.189546887347989301e-01
-2.979127496909632078e-01
-2.497190997056878414e-01
-2.009476384523420645e-01
-1.534275076561200379e-01
-1.059325855055481824e-01
-8.968270750819891390e-02
-1.547469396395172447e-01
-3.002033988668233455e-01
-4.371484832857670533e-01
-4.673510206891394736e-01
-3.901009859126665091e-01
-2.893492941854632905e-01
-2.347221211977240651e-01
-2.307821476011159834e-01
-2.414892253580174786e-01
-2.283855938868772084e-01
-1.704988888343549891e-01
-8.159595720977541600e-02
-1.377454817751910116e-02
-9.782222754171034790e-03
-4.299252858983503012e-02
-3.226952615727342322e-02
7.601511408827661687e-02
2.549157509789934384e-01
4.194545453410373770e-01
4.761068638973926515e-01
3.663339389968927051e-01
1.224829431326613927e-01
-1.238355895290312592e-01
-2.479636782201446177e-01
-2.381953084898156270e-01
-1.703322047856714316e-01
-1.138724277509597094e-01
-8.528269148604196437e-02
-6.452958370078969164e-02
-3.679527678676302455e-02
-1.865409673196312748e-02
-4.217952235000265587e-02
-1.119861856400860001e-01
-1.842430447134839056e-01
-2.031107174294362050e-01
-1.700780674997787456e-01
-1.514679009317178859e-01
-1.646206323748626577e-01
-7.420681587038127636e-02
2.812545385264871300e-01
7.955388861290350055e-01
1.060719874986036482e+00
8.024847658046458942e-01
2.670176121584078022e-01
-3.869768029478693611e-02
6.718604945839519449e-02
3.156397942884576202e-01
3.865821024809806827e-01
2.398394758624393941e-01
4.351068129024364406e-02
-7.762328676734663035e-02
-1.322674037864152163e-01
-1.654232390639897854e-01
-1.854986102065365183e-01
-1.933445762969143999e-01
-2.047405806569289888e-01
-2.206351011898577408e-01
-2.174765831294100948e-01
-1.816027325783632351e-01
-1.281393700573093541e-01
-8.403139112438826053e-02
-6.892437249556723766e-02
-8.597683126343343141e-02
-1.224569976198974647e-01
-1.632363560194759200e-01
-1.950074026793867099e-01
-1.942112196317491157e-01
-1.363482041866456995e-01
-3.110509564266302623e-02
6.577508114761541902e-02
8.838542725301579139e-02
2.004872514272738188e-02
-7.384528703264320315e-02
-8.677136798305380705e-02
2.284638230205447706e-02
1.570468454114185564e-01
1.571749537063996949e-01
-7.243542823557047594e-04
-1.420673618363414437e-01
-9.478858606270551546e-02
9.291362063415191386e-02
2.235650523348160501e-01
1.971668443072697730e-01
8.416172168908039875e-02
-1.558244613086696984e-02
-7.531102229592512298e-02
-1.026312185749763961e-01
-9.139586129293528205e-02
-4.358040891831862357e-02
1.735379938318518112e-02
7.621625727872459455e-02
1.250341217197238342e-01
1.221849953632436203e-01
-7.281424337334746824e-04
-2.377338341333193328e-01
-3.953957319795882719e-01
-1.717482626532065570e-01
4.773636192763632824e-01
1.083773973249167577e+00
1.089181494454082300e+00
5.587784304197072061e-01
9.902288361204582279e-02
5.292016063837968326e-02
1.930177123495904756e-01
1.982723687521340539e-01
4.485328127496247125e-02
-1.089588431089596049e-01
-1.672402131366820810e-01
-1.420282594183124025e-01
-6.740970028538614822e-02
3.307585822979202533e-02
1.140971559991603018e-01
1.268477149665864501e-01
7.957052962264972440e-02
2.362262767247733791e-02
-2.043640661226725497e-02
-7.361118452469228579e-02
-1.398721246498552673e-01
-1.855840043069748868e-01
-1.813809088011507087e-01
-1.343803815911158717e-01
-8.205649111541471474e-02
-6.323097349858425309e-02
-8.147511464375781221e-02
-1.035644640361125385e-01
-1.095798048015538123e-01
-1.275110896261771598e-01
-1.937108154214394751e-01
-2.833696192068437258e-01
-3.041791185112630580e-01
-1.811028260583463778e-01
4.911545615205982485e-02
2.498833480309074762e-01
2.998154461715933361e-01
1.830466881472968821e-01
-1.554341686716224566e-02
-1.779169559170389325e-01
-2.357639121064293852e-01
-2.125361815285614631e-01
-1.816915682867837334e-01
-1.818470107169707917e-01
-1.831422970002418438e-01
-1.384507644324335374e-01
-4.761655629246867166e-02
4.739006953762006646e-02
1.094086167526182318e-01
1.233964594012708083e-01
9.726557941600116886e-02
6.566692699312151604e-02
6.022435518107701474e-02
6.041149132940383526e-02
3.146350947798247019e-03
-9.984633827563525743e-02
-5.733329772242820588e-02
3.206471925832667935e-01
8.372263712992146223e-01
9.562266299999244712e-01
4.656059440232896973e-01
-1.670807503716289222e-01
-3.670815358675875717e-01
-1.175445341770918473e-01
1.784143065778267256e-01
2.473065378035179951e-01
1.334753339936435301e-01
-1.037573663422412980e-02
-1.169090519933115024e-01
-1.978111043594293628e-01
-2.625651711517349995e-01
-2.962702313064231041e-01
-2.871924005438397653e-01
-2.424376492512214099e-01
-1.798556969862186716e-01
-1.208349113740482678e-01
-8.795117850831617179e-02
-8.901600328849301746e-02
-1.007249622204577227e-01
-9.466269303945402946e-02
-8.024415845277133030e-02
-8.246146635089875165e-02
-8.264653288290560451e-02
-3.698374021213131357e-02
4.321204838155434658e-02
8.351148261211589763e-02
3.752997068284923132e-02
-5.437690235135370087e-02
-1.230368212630984087e-01
-1.488624348599270897e-01
-1.519883670143557519e-01
-1.351309304882251650e-01
-6.955052178661916273e-02
5.858003804548012061e-02
1.946093415520342429e-01
2.383615339442495817e-01
1.481445999870356078e-01
-6.860190207367736215e-03
-1.258032761052869930e-01
-1.759314296454036197e-01
-1.921590725682754686e-01
-2.135411866502829881e-01
-2.459344932183865073e-01
-2.581911011656342625e-01
-2.038838581112735193e-01
-8.393913498810698370e-02
2.454218478332457001e-02
4.534510860386617437e-02
-1.837368139052199256e-02
-1.081012631927065343e-01
-1.756516670274197445e-01
-2.110737962946667712e-01
-2.224360127604352866e-01
-1.792323682316626920e-01
2.087796795471075911e-02
4.520180997592762595e-01
9.606396691044734037e-01
1.174756807426434069e+00
8.862302041293541599e-01
3.515913996396931029e-01
1.498634144845546051e-02
5.054241189220460596e-03
9.759729160012083071e-02
8.908590652832014400e-02
1.429557219328688594e-03
-5.615861759166855538e-02
-5.804587287147150443e-02
-5.025442670424179470e-02
-6.395827253267960533e-02
-1.057980013041828066e-01
-1.853547200953759855e-01
-2.861218724112566392e-01
-3.293364521320079619e-01
-2.371656017161281882e-01
-5.046086202083518990e-02
8.135257383168043033e-02
7.005901141061211812e-02
-1.701032112886693634e-02
-7.315887441734653107e-02
-8.576868093654033132e-02
-1.102928960071372366e-01
-1.711841374390722925e-01
-2.310295695197917554e-01
-2.349417515970352588e-01
-1.570645453817838266e-01
-1.318333004891911533e-02
1.456562022092693920e-01
2.603206126592249037e-01
3.062444717994410870e-01
2.965625072306302679e-01
2.476779147373111001e-01
1.791065606686049472e-01
1.251433756723685509e-01
9.620628517928604684e-02
6.006721036566087246e-02
7.919206370572669587e-04
-4.783144627827169010e-02
-5.617889558947437856e-02
-4.299964453896568117e-02
-5.188658406486039432e-02
-1.168260228526741135e-01
-2.390828874720826447e-01
-3.628603915848465644e-01
-4.016957127960568141e-01
-3.257940604329254697e-01
-1.948342316928413087e-01
-8.086637648694022795e-02
3.373926925553878079e-03
6.704255724147623052e-02
6.069135179674446656e-02
-9.757393088806871895e-02
-3.608084242306149325e-01
-4.652307788140102596e-01
-1.520788655060224537e-01
4.606199726563895980e-01
8.760935508839591268e-01
7.507187990990138449e-01
3.270947798927091865e-01
1.199142129100361498e-01
2.639506908034268129e-01
4.401137413478264371e-01
3.697656393563885646e-01
1.073967115845455012e-01
-1.364454446377111052e-01
-2.504072402483431548e-01
-2.576504517420670215e-01
-2.142819684068119346e-01
-1.514845615741036433e-01
-9.181673700631517998e-02
-6.533814469316484574e-02
-9.388185155292801121e-02
-1.704151603537105708e-01
-2.569308513098561009e-01
-3.044090001544748070e-01
-2.843279395181040892e-01
-2.078883234313731732e-01
-1.144150358902565889e-01
-4.120495030410918635e-02
-4.550383814504578225e-03
2.458958003066094924e-04
-1.262066253046298034e-02
-3.764036576511312071e-02
-8.095615473490257175e-02
-1.370926977778534339e-01
-1.768521997828804426e-01
-1.684904850458274761e-01
-9.800794393248109249e-02
3.377514669617970311e-02
2.088843515353208946e-01
3.647327297499809995e-01
3.945777349185567440e-01
2.406561295172111037e-01
-2.603992398774256090e-03
-1.567849277740834546e-01
-1.550689434581120629e-01
-8.389010139822891676e-02
-2.761006151618643906e-02
1.224727005578520912e-02
4.205595194155519606e-02
3.618708153584717507e-02
-1.016700408162941882e-02
-6.233462453632533651e-02
-1.017861649400959023e-01
-1.585604867069052293e-01
-2.554978125201697869e-01
-3.354608515593612283e-01
-3.066987158879581066e-01
-1.876919288126603913e-01
-1.091466372846520705e-01
-8.388498176496646253e-02
1.045154132294102423e-01
5.835501826625950628e-01
1.030522606675709607e+00
9.552427323682697313e-01
3.833203018430175746e-01
-1.161793164362807523e-01
-1.439625941632589334e-01
1.516138533407886957e-01
4.065289026756068735e-01
4.274073745171814709e-01
2.510442166409996845e-01
2.259404164793032618e-02
-1.392857831149959535e-01
-1.970691385131769502e-01
-1.683969833127314797e-01
-9.472470368762743453e-02
-2.343051131012062124e-02
1.192503279408632828e-02
6.676986879305709180e-03
-1.389939373475989823e-02
-2.427537856100226571e-02
-3.690046414191011648e-02
-8.294513519317164851e-02
-1.582033677707943842e-01
-2.236949200404055593e-01
-2.496919163836706645e-01
-2.318846171954872248e-01
-1.780954152227605114e-01
-9.913736644761342309e-02
-1.116065942658671199e-02
5.848977662465950494e-02
7.604876378846200935e-02
2.608654678912850078e-02
-6.218855758448067067e-02
-1.220401078841830134e-01
-1.005938360783165675e-01
-1.314077430954734699e-02
6.821354088901565582e-02
9.019157361419495589e-02
6.058340689611156626e-02
1.170173260171556741e-02
-4.092536518396326650e-02
-9.504062253563949625e-02
-1.482067478942196426e-01
-1.950301560752523145e-01
-2.208637512070874276e-01
-2.023841246552491591e-01
-1.244273204918017323e-01
1.102685480629038602e-02
1.795469105006020638e-01
3.166890495781686798e-01
3.387223516566027492e-01
2.239908876675102412e-01
4.658203200415435979e-02
-1.149119382136659234e-01
-2.597524411511746845e-01
-3.696254998687573678e-01
-2.644011363894931410e-01
2.489050369590379841e-01
9.740759201534614498e-01
1.316226286322473626e+00
9.478773221835691265e-01
2.714534709354955444e-01
-8.976376446152203870e-02
-2.978070554580584950e-02
1.009691680646513379e-01
5.713773476703522258e-02
-8.850499044480611421e-02
-1.702923513279329115e-01
-1.485571865084169274e-01
-1.022070969381299876e-01
-1.078234148161911765e-01
-1.701825397497247205e-01
-2.498793839890858237e-01
-3.198638687540776848e-01
-3.742776647131667578e-01
-4.011333239004444828e-01
-3.755710226464635815e-01
-2.779803036968842567e-01
-1.137709831198160382e-01
6.872665002290888336e-02
1.902833409619735516e-01
2.031738584963138916e-01
1.287638721114270079e-01
1.633373071866354304e-02
-9.126853738048569531e-02
-1.451400313030527522e-01
-1.202969952193652797e-01
-7.125173785968352824e-02
-8.764706250232483231e-02
-1.819113141939609490e-01
-2.684850283111911429e-01
-2.622194913658617010e-01
-1.601920473615444096e-01
-2.381216498236976564e-02
7.207593530532056814e-02
7.189142363252226664e-02
-2.038491043932234847e-02
-1.272840043285653200e-01
-1.653147413076494210e-01
-1.285919612155206615e-01
-8.240017148389200408e-02
-7.957220154054128747e-02
-1.102942397809691943e-01
-1.391046772530523667e-01
-1.601169394961088344e-01
-1.900821158805320599e-01
-2.234848146331429031e-01
-2.260245695652606523e-01
-1.750768296067095331e-01
-8.654259791085770759e-02
7.363901881405283782e-03
8.880346218267691494e-02
1.403052231378468240e-01
1.355566943940824109e-01
1.185454444742342628e-01
2.429524989490250420e-01
5.647822392898665944e-01
8.282989507146513164e-01
7.217781274281349635e-01
3.450529319823399943e-01
1.126214907447874169e-01
1.903289079321627553e-01
3.370875450994729738e-01
3.020556128640495830e-01
1.080316161143254211e-01
-8.030287915877845628e-02
-1.710037914662393965e-01
-1.737671399434242148e-01
-1.302039487360096559e-01
-7.899973952232464125e-02
-4.927016674710280736e-02
-5.245333210838173249e-02
-8.324603681214230722e-02
-1.300941384388081823e-01
-1.810635029599408918e-01
-2.224011463170491865e-01
-2.394682166817048430e-01
-2.252076842165026127e-01
-1.841504693996012798e-01
-1.240754173315103542e-01
-5.425741577519339193e-02
5.540793695767174364e-03
3.634812538357281436e-02
4.351744655813533785e-02
4.398262515707716119e-02
3.626038304550788932e-02
1.802280861465759693e-02
2.308183370077020180e-02
9.341273642144141964e-02
2.126260494407294921e-01
3.106903466188232765e-01
3.461583877386980035e-01
3.407159689485307896e-01
3.101701146732437908e-01
2.132815359754784978e-01
1.080623452067628644e-02
-2.542964839774604080e-01
-4.645000689075424183e-01
-5.160920631522363244e-01
-4.040639033298565885e-01
-2.204898862685367444e-01
-7.250775266733047730e-02
-1.013653390426549200e-02
-2.116264002685110807e-02
-6.983279316861401576e-02
-1.295777190928317224e-01
-1.839315147985976506e-01
-2.099154224854146711e-01
-1.817979615864409038e-01
-1.059636452474609358e-01
-3.807057009607842102e-02
-3.084597831677932459e-02
-4.652532718229410863e-02
4.745584459262813110e-02
3.137496150785624716e-01
5.663607413402731439e-01
5.208935800124192550e-01
1.990328215307064774e-01
-3.119369143179551856e-02
7.841655722870426171e-02
3.669144358815592533e-01
5.239451166543610539e-01
4.465025804280436938e-01
2.550352549882294872e-01
8.512792560821248744e-02
-3.581347341626322373e-02
-1.397757004326269092e-01
-2.287102876382236805e-01
-2.684016687467524753e-01
-2.430301741200957544e-01
-1.782298851837310349e-01
-1.113356009883924025e-01
-6.199478189281083795e-02
-3.595339274000404484e-02
-4.052485185227686082e-02
-8.482686892315946525e-02
-1.638447778041008107e-01
-2.453289330799844625e-01
-2.827132547670641038e-01
-2.500893934928284934e-01
-1.636453681256148096e-01
-6.636316209852578807e-02
4.217998193254597801e-03
2.900886415061101550e-02
2.327261849941907393e-03
-6.084561897401796066e-02
-1.167818198871072993e-01
-1.229080993216286333e-01
-7.622314993895258628e-02
1.287852839572968359e-03
9.872330674910319293e-02
2.043876578194311622e-01
2.758786021390292609e-01
2.646405899159094410e-01
1.791517787800858963e-01
9.682339346179921757e-02
8.230842085996470381e-02
1.024706251018093345e-01
6.736226025000821571e-02
-4.141786546785476697e-02
-1.391682667997270473e-01
-1.456938468858951230e-01
-7.367297343884257610e-02
-1.285944446160954338e-03
1.029080661855925893e-02
-3.230911429167148546e-02
-7.648563497448010451e-02
-9.630121262425109241e-02
-1.300904415765708477e-01
-2.117912995134876297e-01
-2.571738486475133034e-01
-9.013190069685374228e-02
3.225023039804837954e-01
7.043324827251338238e-01
7.134773617816354552e-01
3.715716603108361049e-01
4.474147288816141682e-02
-2.682748033216086903e-02
4.381072797034456234e-02
4.946115068019264760e-02
-4.109658165285057924e-02
-1.142357654531949984e-01
-7.258337115537588646e-02
7.654708882190489061e-02
2.298135032765329100e-01
2.669078748855803207e-01
1.479949441876469707e-01
-5.138955494333297819e-02
-2.029887395550807605e-01
-2.407158504967506774e-01
-2.092659442490748256e-01
-1.773350630564074770e-01
-1.457784324081289329e-01
-9.040867696410541388e-02
-3.561507546637929233e-02
-2.301345251168312664e-02
-5.320998683390441159e-02
-1.040531813837942132e-01
-1.759187207458245417e-01
-2.785680977546796666e-01
-3.699102901176319902e-01
-3.604628418662593758e-01
-2.301195639470614007e-01
-8.003875928795287087e-02
-3.356020563120593915e-03
2.330634727482608359e-02
6.855212124114334893e-02
1.372042562557185541e-01
1.684553665196175665e-01
1.089453686919959474e-01
-2.058192626280260645e-02
-1.295566755706109852e-01
-1.452995437280515945e-01
-9.017998272002364368e-02
-4.903082991767036825e-02
-6.479193981080152986e-02
-9.309833045373526461e-02
-7.226138342154603267e-02
-8.287395815657298132e-03
4.380368077232985047e-02
5.509225038996778262e-02
3.624338976438570142e-02
7.021698267836948629e-03
-6.796550049940291646e-03
1.226302571581883508e-02
2.366368005043033643e-02
-4.906751601823331616e-02
-1.801086669961712849e-01
-1.677977384248130199e-01
1.625227465877219779e-01
6.353309568395212326e-01
8.070603442194455024e-01
5.233704029828675219e-01
1.534547211755399321e-01
8.140287738669241269e-02
2.394243718056449921e-01
3.244262744548127020e-01
2.156365193583162088e-01
1.049142953983398657e-02
-1.725172091720825474e-01
-2.804300157369434832e-01
-3.001733530094066182e-01
-2.466294792754201437e-01
-1.593708454518069362e-01
-7.882056652246502426e-02
-3.376974822099621659e-02
-4.544342504531108384e-02
-1.107215609436441872e-01
-1.773162585269670022e-01
-1.754493863908943296e-01
-9.431159211933137776e-02
1.937639432166278139e-03
5.155278134070294394e-02
6.266589140520023582e-02
8.000769972379458139e-02
1.064396461561068624e-01
9.984932986212885497e-02
3.964660282429743887e-02
-4.457867769826187598e-02
-1.072563305248220161e-01
-1.253940529257893399e-01
-1.045864019829795682e-01
-5.340084266084827586e-02
3.995114781852775881e-02
1.813922263543566449e-01
3.178400935996019139e-01
3.530738473068277816e-01
2.449848327809167059e-01
5.892567690708091360e-02
-9.861567209876861972e-02
-1.794093850918180577e-01
-2.126345974328989752e-01
-2.401397695630240470e-01
-2.546597469729811047e-01
-2.191866590793249692e-01
-1.357935717348220384e-01
-5.523033243423931815e-02
-1.973470445699053444e-02
-3.763937297340119031e-02
-1.004331035661335525e-01
-1.767270076333074258e-01
-2.073594650239615755e-01
-1.615011701995921478e-01
-9.244708886814219373e-02
-6.184126619310577333e-02
2.798206159245262767e-02
3.940660753645167103e-01
9.978988062447257112e-01
1.350847223833799626e+00
1.023473302457657441e+00
2.741861658357122589e-01
-2.152355390418833059e-01
-1.682029870162227991e-01
9.564820275482804890e-02
2.061646626963539730e-01
1.215741644646860797e-01
-8.586189572320625935e-03
-9.105591112163863299e-02
-1.382382208899781695e-01
-1.940865935720340052e-01
-2.810203112367560818e-01
-3.823853889240816373e-01
-4.437670289177699234e-01
-4.154710380026738203e-01
-3.082697572747641890e-01
-1.897791658151934679e-01
-1.269984309604225148e-01
-1.434403310779883978e-01
-2.140211591018057746e-01
-2.873767157685972462e-01
-3.251189821914239331e-01
-3.191822085787071051e-01
-2.747437448455261055e-01
-2.068273167838282078e-01
-1.472744968547411437e-01
-1.061841814369478137e-01
-3.709366051409758447e-02
9.390810351691045166e-02
2.175495742107669273e-01
2.187885240245523721e-01
8.645463127401811776e-02
-5.416149639574287245e-02
-7.153727467923139127e-02
3.712544737212120083e-02
1.552125900930024782e-01
1.770694269217018280e-01
1.062069066366109760e-01
2.277277180968223860e-02
-1.855577506388966791e-02
-3.662727163805065689e-02
-8.096259869987550151e-02
-1.633599221101176557e-01
-2.410098490077479949e-01
-2.610947358122623352e-01
-2.099457642993293183e-01
-1.175955488999487625e-01
-2.947117687734960093e-02
1.972856841358333266e-02
2.123970159895748056e-02
-5.983021474098853751e-03
-4.293439496854219856e-02
-1.044831168113945497e-01
-2.009676707207998791e-01
-2.352036970062973686e-01
-2.819897483651357534e-02
4.234437077232085511e-01
7.944541247651729643e-01
7.580059556971172618e-01
4.253592045286570533e-01
2.054275024125830074e-01
2.758596884584606501e-01
4.462402862150528504e-01
4.794896620968072121e-01
3.276853340056307684e-01
9.548142664693659576e-02
-8.179180725672793861e-02
-1.351959787855258055e-01
-9.886710187854233500e-02
-5.467189147228741775e-02
-5.111555906278088257e-02
-8.847296129881968008e-02
-1.508216008153329957e-01
-2.207274896222603811e-01
-2.720998772366376994e-01
-2.714857650629941554e-01
-1.993381384848698090e-01
-7.671717714097926744e-02
3.455675512165595764e-02
7.517349565527255140e-02
3.619337738136663152e-02
-4.167821205148582175e-02
-1.137434486346198259e-01
-1.707331658903905036e-01
-2.259227716202107938e-01
-2.675906407064254089e-01
-2.555514217085164685e-01
-1.799899115895967627e-01
-8.821724832674543437e-02
-2.383657392486970145e-02
3.470296577425114465e-02
1.431597967988230413e-01
3.003695555203362844e-01
4.103709904408695541e-01
3.728545157596970250e-01
2.100290954836146473e-01
5.033950276969677284e-02
-1.339396268206146864e-02
7.878021958978312367e-03
6.177501384473837315e-02
1.062216501577300798e-01
9.111074712702676992e-02
-2.337007209138091887e-02
-1.931714018554685774e-01
-3.021860464207424823e-01
-2.856541732981743298e-01
-1.944930029283140627e-01
-1.124326290327598427e-01
-6.150703033126384001e-02
-2.510084264510158494e-02
-1.750418900216328677e-02
-6.286112068009987175e-02
-9.989029181781719502e-02
1.289611664494896143e-02
3.039617843506380868e-01
5.464018796968799219e-01
4.776243576128141877e-01
1.646818785698473397e-01
-5.012631437934420703e-02
1.309905065080662137e-02
1.898344218602461275e-01
2.410354796802863520e-01
1.199290693705569177e-01
-6.055422990270334371e-02
-1.807323662830005173e-01
-1.862037425517520384e-01
-9.758155963854880932e-02
1.063400217545890092e-02
7.670428536875624481e-02
1.006030693733515613e-01
1.077108907660514481e-01
8.962669908720763412e-02
2.124759814099185309e-02
-8.151174557394010034e-02
-1.682579647871656481e-01
-2.086901685838247478e-01
-2.078486046651096819e-01
-1.818605736426458230e-01
-1.405903211849568180e-01
-8.707952634841807649e-02
-2.833115638673214948e-02
1.517696848778281142e-02
1.876000542096319806e-02
-2.734870780557464159e-02
-1.082039563875445559e-01
-1.846112083032308837e-01
-2.062296256100957237e-01
-1.434254630394342089e-01
-1.232875214557830994e-02
1.402871687100646636e-01
2.627001327413269194e-01
2.992109110674657235e-01
2.129379184565369232e-01
3.727707178631885221e-02
-1.389353576404900037e-01
-2.551262382774322490e-01
-3.056143864749855665e-01
-2.814323466471506663e-01
-1.525403435305137112e-01
6.089153678262194946e-02
2.598964353139499028e-01
3.532763848186193378e-01
3.294577752439616924e-01
2.201273778537288506e-01
5.655864108573843002e-02
-1.028256856247997536e-01
-1.776706401827280735e-01
-1.666094030044275032e-01
-1.845428751941952383e-01
-3.012485082162003613e-01
-3.578758841597122209e-01
-9.084954503858085062e-02
4.672246116553289697e-01
8.679354777106244034e-01
7.376415559629676544e-01
2.615340686007644466e-01
-6.763669624437379513e-02
-5.243850120284236638e-02
1.058658159381475478e-01
1.794293410247929654e-01
1.468198443583443868e-01
9.563378563929933462e-02
6.199452360928932315e-02
5.433301720950624476e-04
-1.409651397886581281e-01
-3.300862314217881122e-01
-4.483146573169475846e-01
-4.215467575295320790e-01
-3.094419295979110585e-01
-2.065271563399590227e-01
-1.231929429633687456e-01
-2.959072896543083961e-02
5.897493359197179819e-02
1.036755768008311707e-01
9.326982039478307063e-02
4.177653709577693747e-02
-2.743624317693465348e-02
-9.479277973003222280e-02
-1.550409027740246581e-01
-1.966479795119732421e-01
-1.878062486645269702e-01
-1.161432165295630120e-01
-1.955711713276718153e-02
5.087896136759936100e-02
8.373092526077863251e-02
1.086220175617288453e-01
1.494588818887227499e-01
1.836720435814026553e-01
1.592034419670296241e-01
5.706980974080760882e-02
-7.085537844471170854e-02
-1.349431332184112819e-01
-8.692867158031591934e-02
2.366378048747530549e-02
7.187613786076034461e-02
-4.216053970104186033e-02
-2.865142908827287282e-01
-5.030881357605739845e-01
-5.533906556232138785e-01
-4.350399589921503107e-01
-2.347820489303088509e-01
-3.591684258318526834e-02
9.867778126584163256e-02
1.334407170778025842e-01
8.675309339407624720e-02
1.653048920840768932e-03
-8.290650002916785666e-02
-5.073542241304287992e-02
2.829763831748529634e-01
8.605633694988398252e-01
1.221548430441324884e+00
1.001918407030236935e+00
4.613183648338886611e-01
1.469260716777988640e-01
1.976777107276647960e-01
3.132157874480179793e-01
2.455135438751076815e-01
3.741732896743378556e-02
-1.445928318072948471e-01
-2.159644412455997142e-01
-2.018416555602852991e-01
-1.592459282205864746e-01
-1.222454314657837882e-01
-1.029852109434064716e-01
-1.101012999109921287e-01
-1.510837841743875587e-01
-2.193451708593543714e-01
-2.874719602616180314e-01
-3.218730222913251948e-01
-3.074428217382884632e-01
-2.545022159348214186e-01
-1.834799081805904286e-01
-1.139650145731127551e-01
-6.828150694867844706e-02
-6.802558901903289768e-02
-1.141224074392985233e-01
-1.726521015343059073e-01
-1.926143911954838472e-01
