3.312889968854094980e-02
1.736862667428394069e-01
2.274506213349638262e-01
1.136510905468910843e-01
-1.614298918152539536e-02
1.501976234432364776e-01
5.916401192565808875e-01
7.158393659558596189e-01
9.682413116196085523e-02
-7.349577174963108916e-01
-8.930575153694955137e-01
-3.189581952455849412e-01
2.792813253302204313e-01
4.163332142227721966e-01
2.117319858836625990e-01
-1.858506247880811757e-02
-1.394716540776461122e-01
-1.892540729430911561e-01
-2.216955491170742865e-01
-2.361217886428950419e-01
-2.018459715708902369e-01
-1.013362568825670607e-01
3.718144462056220678e-02
1.433812167635594159e-01
1.568998532761987641e-01
7.527014468820145132e-02
-5.222564618261445191e-02
-1.669424253850525230e-01
-2.303400961623870979e-01
-2.228635767850880300e-01
-1.393652201908740229e-01
2.663551284248985573e-04
1.430066488770939670e-01
2.214647148081801131e-01
2.010018081004673884e-01
1.076053978921577281e-01
-8.209071527341771021e-03
-1.157441966349328222e-01
-1.875151578173217815e-01
-1.765840746684027573e-01
-5.837652191146189273e-02
1.171762500394222944e-01
2.522265837228432894e-01
2.858106228817952066e-01
2.294296126582865414e-01
1.203325636720235098e-01
-1.708738802628470208e-02
-1.514873273188082625e-01
-2.323786167916352674e-01
-2.259532577184687474e-01
-1.412952194542745621e-01
-8.704454099800144201e-03
1.398543325465097242e-01
2.615995359484867278e-01
3.168285518372597753e-01
3.012501463718787464e-01
2.179996548589735184e-01
2.951355929416753579e-02
-2.594002376003823884e-01
-4.457403717538432897e-01
-2.554737303735726273e-01
1.948490103528920658e-01
3.342762988111788180e-01
-1.062307917955608721e-01
-6.045820317115307985e-01
-5.616137474776258243e-01
-1.127740242182754260e-01
1.873525704469603814e-01
9.749090187459930057e-02
-2.065594773922964367e-01
-4.462166669533585983e-01
-4.263484256410683959e-01
-1.009722211108910472e-01
3.488938212937836569e-01
5.927439772735889623e-01
4.650671707341812455e-01
1.356992338911157669e-01
-1.279118450209886237e-01
-2.421870471222265231e-01
-2.760062981740419308e-01
-2.782098170004279059e-01
-2.311656019781976601e-01
-1.154706744991587791e-01
4.551612513851946429e-02
1.947637041714742334e-01
2.690107309786364809e-01
2.313794262307058147e-01
9.846452023178466073e-02
-6.501270557369195902e-02
-1.840773496766507644e-01
-2.124318987972371175e-01
-1.488782031171841935e-01
-2.854666651980316064e-02
1.009358648533619507e-01
1.992116367575073321e-01
2.375844009340262186e-01
1.981516056883376176e-01
8.314615283614024133e-02
-6.997900022188727198e-02
-1.959417765520652666e-01
-2.427207690598423007e-01
-2.052374986186179529e-01
-1.131592387144027961e-01
-4.901184510932004440e-04
1.013761929115881977e-01
1.583601072827559852e-01
1.431627839773132460e-01
5.510186488339446909e-02
-6.790409142490839989e-02
-1.611100686828926265e-01
-1.783766244120076339e-01
-1.427384025754075969e-01
-1.267585861706669315e-01
-1.325440358441654365e-01
-1.922469676235227451e-02
2.931123023687434159e-01
5.151162946014561372e-01
2.105559219767696444e-01
-5.063658569217248662e-01
-9.438668194845880599e-01
-7.236118397414910142e-01
-2.097105221257888341e-01
1.018138040337046024e-01
1.462527456475709309e-01
1.302504570021829067e-01
1.669241066379533178e-01
2.077814451091009318e-01
1.747821897223447163e-01
5.297280347844569859e-02
-1.118485919638405324e-01
-2.547219927989982646e-01
-3.202016003632407459e-01
-2.738103134487421264e-01
-1.226990461007043398e-01
6.541852638566068856e-02
1.959061342783625648e-01
2.208747448480467557e-01
1.601970074778102382e-01
5.170608079156030490e-02
-7.671766356601389392e-02
-1.843149906240750813e-01
-2.178410901090731544e-01
-1.548216439542753065e-01
-2.349410127404041523e-02
1.266965535773723894e-01
2.553480972911897906e-01
3.302531741516089303e-01
3.284571096311017513e-01
2.602671139105945386e-01
1.693630324816871868e-01
9.266213561516228880e-02
4.190126534194047597e-02
2.577247142941101188e-02
5.788994879542610356e-02
1.310644860393810618e-01
2.038337334758724695e-01
2.312505523386389206e-01
2.001234117513903399e-01
1.220236469293315695e-01
1.389999705773998541e-02
-9.527150462941670617e-02
-1.644647966298848907e-01
-1.668116042737102234e-01
-9.360819349620423668e-02
6.274405389916640208e-02
2.697237900011725253e-01
3.892916751005202070e-01
2.589572409508963391e-01
-5.070262148683679637e-02
-1.428671802246412048e-01
2.542803337297486754e-01
7.078341706125598209e-01
4.616191322210306813e-01
-4.157466033494356950e-01
-9.574047696979841593e-01
-6.073408346767570354e-01
1.387323882632734429e-01
5.478492216770615153e-01
4.483840911390333805e-01
1.215347279851907714e-01
-1.442669035259448174e-01
-2.500144081388154249e-01
-2.357449476450673154e-01
-1.723157562670265541e-01
-9.309935245630582279e-02
7.941406426804548113e-03
1.230131261064521947e-01
1.953736841867358132e-01
1.627442146928286260e-01
2.732574259112266479e-02
-1.379136235954545597e-01
-2.502752210546317913e-01
-2.727507697242067541e-01
-2.143842185984335680e-01
-1.018750205809574871e-01
3.128588035632766384e-02
1.425368752127105509e-01
1.990354288839491226e-01
2.024785732153206730e-01
1.670920630896488290e-01
8.393431840665135923e-02
-4.515612402739523079e-02
-1.562535376225099581e-01
-1.656656392878501083e-01
-5.829961848331015328e-02
9.945786742878275077e-02
2.229243533628259555e-01
2.661161571288214178e-01
2.316054756158515415e-01
1.472417977634401520e-01
3.894872637489615874e-02
-7.624992012761806770e-02
-1.742369351424003510e-01
-2.141875468892115719e-01
-1.627609766732697472e-01
-2.976687617300763714e-02
1.305796683599010910e-01
2.542138070465159161e-01
3.016899218671555971e-01
2.697414079827324396e-01
1.710064362081877010e-01
1.819721028033412236e-03
-2.240440076346651987e-01
-3.611887522589423694e-01
-1.509849254183405209e-01
4.210126056761329116e-01
8.301268802370942446e-01
5.172453468089782680e-01
-2.579018581675427413e-01
-6.557258768583350550e-01
-3.896131461950055885e-01
1.804588128118035650e-02
8.249318419494659771e-02
-1.197771995136947265e-01
-2.657314456730984209e-01
-2.193134491581160694e-01
-7.600938925268385660e-02
2.808787019688591124e-02
4.362792996624248465e-02
-6.905601592192609980e-03
-9.327384584142360546e-02
-2.004902314177133826e-01
-3.064951452340666793e-01
-3.677936193735821813e-01
-3.462894219962294740e-01
-2.450455781496465035e-01
-1.033447672988291044e-01
3.424379116405819323e-02
1.290310890349605777e-01
1.505466636179093876e-01
9.490432742503057684e-02
-9.166758717364994341e-03
-1.219783209155060333e-01
-2.061057925958972858e-01
-2.255174904822526138e-01
-1.620062743905571478e-01
-3.528764751335566191e-02
1.058802826432646838e-01
2.086925556367293100e-01
2.370570491510090583e-01
1.845554887680121714e-01
7.175649042141714340e-02
-6.454967041285564200e-02
-1.773515562213398844e-01
-2.247180937958463409e-01
-1.913666344809202002e-01
-8.955101593830396001e-02
4.796866720297795345e-02
1.664994779219803045e-01
2.094333809986564932e-01
1.584322808314861664e-01
4.333083627827570561e-02
-8.363489495428060028e-02
-1.717491777064758807e-01
-1.877771316787559819e-01
-1.382167680547549404e-01
-7.771190548942437382e-02
-5.403221804933892175e-02
-8.370484896741614209e-03
1.867558299491197948e-01
4.471693269610300114e-01
3.729229193970335365e-01
-2.327558780518876880e-01
-8.855077980345815725e-01
-9.420348143218881809e-01
-4.390925608859714835e-01
5.915754156085197002e-02
2.322219392082259803e-01
2.107865469398325642e-01
1.940647541860663905e-01
1.882206638743644522e-01
1.007216196172142642e-01
-8.003588163614058781e-02
-2.597221614938178269e-01
-3.451627662151939280e-01
-3.240469106934792953e-01
-2.402197169561337553e-01
-1.324961124631460763e-01
-2.164721080360753475e-02
6.715114529501628460e-02
1.020305006594373343e-01
6.542375626302598945e-02
-2.992529495844992171e-02
-1.428080636572560402e-01
-2.244371942820492516e-01
-2.386178105350600653e-01
-1.604939101285637326e-01
1.302506837781204282e-02
2.196293937921115214e-01
3.412498628657065214e-01
3.140538586592029890e-01
1.941095940313299073e-01
7.755318204703838536e-02
7.143370212694294050e-03
-2.400437108380623977e-02
-3.051725906984633502e-02
-3.931471860940817520e-03
9.922380409882097796e-02
3.137251588324834195e-01
5.931890250938853804e-01
7.986534136075594814e-01
7.844129691244720037e-01
5.349504656137551439e-01
2.026815635271111415e-01
-3.697366960113366435e-02
-1.238358985478983931e-01
-8.593584915355567677e-02
3.432415682458385409e-02
1.926756447327032384e-01
3.350942525794252669e-01
3.947228279956048191e-01
3.012704898796725317e-01
6.682156715357745469e-02
-9.996131470023904286e-02
5.596469223367890600e-02
3.870406569425755561e-01
3.246988936004860937e-01
-3.094452516678712906e-01
-8.471459883833062365e-01
-6.390094842416249588e-01
5.041724689516136060e-02
4.910581629071034682e-01
4.044145992329108430e-01
6.371158575356800080e-02
-1.943236002940897100e-01
-2.667413427019474370e-01
-2.236004658128971367e-01
-1.448313919539218619e-01
-4.629320001570089160e-02
8.580909598659623716e-02
2.173969887345249818e-01
2.451505630673014857e-01
9.319461534423768845e-02
-1.646408812011039280e-01
-3.459407920296571626e-01
-3.571177742083895268e-01
-2.731904053757337469e-01
-1.924087416275816753e-01
-1.162768178033992128e-01
-7.364694459657858405e-03
1.215581654984282528e-01
2.096160780519930045e-01
2.056846096830352577e-01
1.108584857919585331e-01
-2.697586041935265411e-02
-1.475228921414033778e-01
-2.037784193018553902e-01
-1.653806212491644445e-01
-2.007412912272865321e-02
1.950385695220685500e-01
3.584059723131541864e-01
3.259600670552908475e-01
9.382205127392188870e-02
-1.588117540001200978e-01
-2.703275765082425175e-01
-2.644731537647236896e-01
-2.451806515648497220e-01
-2.280896641934568592e-01
-1.555649109074443426e-01
-9.534695921906902530e-03
1.526138681119694751e-01
2.570343545984858369e-01
2.771111301954883865e-01
2.394198405362712168e-01
1.814567927409391213e-01
9.717293783964550680e-02
-6.097177671855447123e-02
-2.511979072670170732e-01
-2.211692834565475163e-01
2.501619723673880746e-01
8.476641583180478667e-01
8.407263198624521650e-01
6.125306584939790855e-02
-7.098578543717843914e-01
-7.634950477287996140e-01
-3.290854946308863771e-01
-4.189661194809608802e-02
-8.604395538144647693e-02
-2.022669586713281842e-01
-1.782765302694722664e-01
-5.016626074718534556e-02
5.062055492229991516e-02
6.460647728001063517e-02
1.017607078465614275e-02
-8.223848017589331649e-02
-1.930779518931338146e-01
-2.995232530341117028e-01
-3.660330745251544893e-01
-3.528958313873535868e-01
-2.485144480461278782e-01
-9.752213773646192796e-02
2.881867515071653493e-02
1.011386487124215638e-01
1.459864376951374165e-01
1.785105566923448350e-01
1.552822801889531257e-01
2.693517969198115647e-02
-1.760022654199012992e-01
-3.281237601600656140e-01
-3.003975623712619170e-01
-9.691417464477705690e-02
1.337824816177554110e-01
2.575808427771554276e-01
2.651823099739084033e-01
2.107327344019494786e-01
1.226904494339031287e-01
9.057447388646909514e-03
-9.469160340016150035e-02
-1.330256632395535321e-01
-8.741644389090724721e-02
8.663736960293988432e-03
1.125020544166598219e-01
1.965924039085403807e-01
2.364653690186965251e-01
2.104174808164314403e-01
1.175223101140187854e-01
-1.217434317022108442e-02
-1.203994895320356501e-01
-1.437894537708386267e-01
-6.136939481734549756e-02
7.046894495837771610e-02
1.487837853498359675e-01
1.386143533124730431e-01
1.656019597870429516e-01
3.540772073765063865e-01
4.882251956943529647e-01
1.342751338276827466e-01
-6.622687541432982217e-01
-1.205069288449385878e+00
-9.717561264831069412e-01
-2.041855494087613243e-01
4.942821335337262423e-01
7.669328936377368677e-01
6.459961161116187789e-01
3.598572947776353947e-01
8.818341140732809114e-02
-1.267547685063886986e-01
-2.858864830381689370e-01
-3.523506647750775378e-01
-2.972435253369000718e-01
-1.627557598304483766e-01
-2.786660762093126978e-02
6.448950428576717686e-02
1.141067829745863044e-01
1.229846522923319641e-01
8.010375573436945285e-02
-1.428276824797390827e-02
-1.261555091182367250e-01
-2.047115310383053888e-01
-2.167132624737484747e-01
-1.553169159356038442e-01
-3.237059609602391252e-02
1.197770036169987923e-01
2.480179689884165206e-01
2.974376262729356291e-01
2.401759167483573654e-01
9.595356147249167744e-02
-7.073731567127487796e-02
-1.884031067070289500e-01
-2.261989859837678085e-01
-1.961383985043946288e-01
-1.145758619537223244e-01
1.084276416118128486e-02
1.528915017970421397e-01
2.422377566845006491e-01
1.940714292673798302e-01
-5.935967951850959490e-03
-2.151136619945398787e-01
-1.815158227746101194e-01
1.704286659657940073e-01
4.630487715371753299e-01
1.996707831737552230e-01
-4.630758246720975135e-01
-7.708667759227793015e-01
-3.967103944762191414e-01
1.642755567415603579e-01
3.499553044195052309e-01
1.437905682443940680e-01
-1.392504649621253421e-01
-2.795059403726570246e-01
-2.620681227843930650e-01
-1.625465409428648589e-01
-4.524550478872841480e-02
5.919101407719058044e-02
1.352796182787638635e-01
1.665871994068229278e-01
1.396189400631385746e-01
5.489425554876205260e-02
-6.534603482211945313e-02
-1.752228335607790011e-01
-2.236046151094473189e-01
-1.813125204705883509e-01
-5.013641546096994639e-02
1.323719575615475152e-01
2.884735856635730067e-01
3.344543126863687155e-01
2.457838990234145760e-01
8.325622587413948616e-02
-5.564474514867624733e-02
-1.141849476128402041e-01
-1.017657053909444137e-01
-4.510707652976960608e-02
5.949054505690022643e-02
2.227711100458086013e-01
4.056186249936730159e-01
5.158092687214383965e-01
4.780231400017047050e-01
3.050346806892553775e-01
8.927243530331305243e-02
-7.313895006678164390e-02
-1.366578088760579124e-01
-1.004536649405767396e-01
1.176054929366115998e-02
1.568261553762271276e-01
2.803765750709851790e-01
3.356631318808047659e-01
3.028888147328306912e-01
2.034142512492265464e-01
9.541981712082507616e-02
2.621066360570419723e-02
-3.667167559324957526e-02
-1.702032101227561878e-01
-2.904605573033680055e-01
-6.829791701205133181e-02
6.375752583507540150e-01
1.255101711031978873e+00
9.758436926034627090e-01
-6.608084513501143176e-02
-8.153778268574558563e-01
-6.907320767818014851e-01
-1.840139239343218658e-01
3.645674655088929073e-02
-8.844214313052486953e-02
-2.229466310263829854e-01
-1.647853515933285495e-01
2.562435907688703773e-03
1.012917617328926712e-01
5.323383067185093187e-02
-9.699395858253634373e-02
-2.580612216050090502e-01
-3.576963869440897281e-01
-3.700945125096727906e-01
-3.102538582008737000e-01
-2.031170356668067778e-01
-6.234567793141607139e-02
8.181789578991331691e-02
1.402986398420394687e-01
1.282428662262826737e-02
-2.686431449951498518e-01
-4.993110111688033315e-01
-4.969267309762774310e-01
-2.971268289780797378e-01
-7.623279399293392267e-02
5.544775027270301693e-02
1.128783519141435127e-01
1.505634342936688908e-01
1.861662690519329810e-01
1.978680721063768300e-01
1.590833869128227829e-01
6.386651328142792239e-02
-6.390468888893688360e-02
-1.718328278830353051e-01
-2.027210509133833549e-01
-1.385374019077578178e-01
-1.838644836280121583e-02
1.001082411310523917e-01
1.853754850052355962e-01
2.254414089447087377e-01
2.032388353307653106e-01
1.077440746989863085e-01
-3.693657683646051071e-02
-1.664836659412301245e-01
-1.992273882498105664e-01
-8.304273189070209005e-02
1.363245777730034414e-01
2.949764338627794413e-01
2.445874013338998065e-01
7.263073040572833039e-02
9.003421436057329474e-02
4.002898767905334054e-01
5.572755203025459014e-01
7.273922358108053654e-02
-7.436909108608263930e-01
-1.060235740089459311e+00
-6.439516559559694819e-01
-5.085435455962084017e-02
2.330936182560820746e-01
2.350892344066743411e-01
1.556564274778178825e-01
5.708146888790315010e-02
-7.702397970145055672e-02
-2.169565581520264408e-01
-2.995990145057496612e-01
-2.950966027897519717e-01
-2.202515992419472046e-01
-1.097197202291489149e-01
-9.003650906144050614e-04
6.796339206137194666e-02
7.201144780756216224e-02
1.298787114728284023e-02
-8.219994460409489612e-02
-1.667271043413557918e-01
-1.945422047869836690e-01
-1.531420786997074734e-01
-5.847257602111441410e-02
7.012083855495725160e-02
1.962353022475757658e-01
2.609298212772022119e-01
2.303299816772277631e-01
1.279749530883906583e-01
8.525459296119863861e-03
-8.375192038361017888e-02
-1.313572665861383881e-01
-1.329679211859428056e-01
-8.563658299203558144e-02
1.606213753388202950e-02
1.576318751184780098e-01
2.812890050559173072e-01
3.030161522060651480e-01
1.865244209532622988e-01
1.998511896488135153e-03
-1.314078679283925966e-01
-1.685264370962051561e-01
-1.599425065381153144e-01
-1.575734112627767136e-01
-1.518587384472714907e-01
-1.034208555179530892e-01
2.242300668614218701e-03
1.385258528183316018e-01
2.402031259573003952e-01
2.070076610172351117e-01
-1.546638211680552780e-02
-2.784635725181143218e-01
-2.723497024580788795e-01
6.284350711623090668e-02
2.880983499637461698e-01
2.986651358563135669e-03
-4.828702346493531361e-01
-5.315819448095735478e-01
-9.743699010795581206e-02
2.779159886664301360e-01
2.428645819456526356e-01
-4.594217845004579942e-02
-2.726269999807976463e-01
-3.039932181098641828e-01
-1.952524392743516246e-01
-4.740845440862852256e-02
7.241360200770582956e-02
1.331696285776309274e-01
1.295718611112181284e-01
8.073102598081265124e-02
1.716219234051725301e-02
-4.540135455182033042e-02
-1.086955196058248668e-01
-1.561229034536021909e-01
-1.285343282399809273e-01
2.582776909605669080e-02
2.591629458591934165e-01
4.255974082588986351e-01
4.187934399568882249e-01
2.748678335809152662e-01
1.055431755928451232e-01
-2.346682492254184571e-02
-1.096641031393040394e-01
-1.513884998493139344e-01
-1.180886816839037123e-01
1.229338100595660926e-02
1.989354118743770772e-01
3.370082653494437253e-01
3.301483449256983893e-01
1.658885211547047045e-01
-7.605906427380078327e-02
-2.720901504815163019e-01
-3.383833554521029630e-01
-2.973744393506093653e-01
-2.275491933305806569e-01
-1.496427395317243003e-01
-2.163697525003039496e-02
1.618722492205443564e-01
3.204048179670388463e-01
3.476597106817198579e-01
2.160083889842945581e-01
3.004125512145464430e-02
-5.141044214861530126e-02
7.853613083009478371e-03
5.451445575351099304e-02
-4.958767193166262882e-02
-1.332105854935463907e-01
1.973457984498042939e-01
9.343673072243949829e-01
1.336498596020358143e+00
7.696823355746141848e-01
-2.879631716797332874e-01
-7.960585776866783148e-01
-4.998100962712825890e-01
-1.697967922699786247e-02
1.563276657566881056e-01
9.527598635685971540e-02
6.311982884391505177e-02
1.286322105805084715e-01
1.841406869859039397e-01
1.375830365758426155e-01
4.364564879037051079e-03
-1.414395755129739807e-01
-2.397291792231008856e-01
-2.556652426850061777e-01
-1.661536884590847363e-01
1.356707565325156878e-02
1.995112890364419689e-01
2.890237372823931672e-01
2.497439259421412594e-01
1.255136582813393686e-01
-2.880895662423319653e-02
-1.784965682121576191e-01
-2.910966536127080895e-01
-3.231955421485622204e-01
-2.431380840606618410e-01
-7.420212094930259128e-02
1.026422679494020940e-01
2.098044772970073801e-01
2.278444871456165866e-01
1.845743546514927169e-01
1.124836659651963361e-01
2.956528320275687502e-02
-5.316809900331661426e-02
-1.184342008544816693e-01
-1.369641604534259094e-01
-8.086324632273524105e-02
4.686098594911258797e-02
1.947653284282626074e-01
2.850320334513770093e-01
2.684111485567537980e-01
1.600751647499101538e-01
1.556279606703315187e-02
-1.146027009312873407e-01
-1.952240084169909184e-01
-1.988294715717994210e-01
-1.153453692214389537e-01
3.101137066090107683e-02
1.696536532138079312e-01
1.965185549289117650e-01
6.828960995897823127e-02
-6.867591866939433409e-02
3.164144974237545482e-02
3.196802451896894604e-01
3.149436672538275528e-01
-2.617235504219792563e-01
-9.103028765266808486e-01
-9.237785732344578893e-01
-3.304299128708347300e-01
2.423697083676391029e-01
3.986655655132080311e-01
2.414810595484045419e-01
1.741101191302023288e-02
-1.583768263971107038e-01
-2.699664182909642940e-01
-3.052383435089278119e-01
-2.588182546235431314e-01
-1.660805845262260383e-01
-7.919015281853197807e-02
-2.275026042340638419e-02
3.315685010775169458e-03
-3.373377705083687936e-03
-4.997850860348869440e-02
-1.314534477954837077e-01
-2.211887063316811119e-01
-2.792737680185222171e-01
-2.711676053662447350e-01
-1.840752576678872932e-01
-3.686626468642468374e-02
1.173610099681829111e-01
2.069694717051472899e-01
1.821078850484553757e-01
5.791269429716721512e-02
-7.839505004654315212e-02
-1.249639192819908262e-01
-6.209641349719198511e-02
2.718571523707397075e-02
7.243585845764517750e-02
1.021803734864595581e-01
1.641023914397303218e-01
2.324273240263821927e-01
2.483651083842931540e-01
1.908884333899928676e-01
8.007885224153077353e-02
-4.430935298853190540e-02
-1.389413024817263143e-01
-1.750267842976173660e-01
-1.383842325199924617e-01
-1.560056015177231116e-02
1.822527556751367406e-01
3.704827243398486902e-01
4.257245367521522161e-01
3.162035454266201584e-01
1.348798168075560633e-01
-4.323879353204752862e-02
-2.241392666376672005e-01
-3.317194999564719304e-01
-1.700936699317418255e-01
2.160948042141037362e-01
3.474229132591384328e-01
-9.962932837710886114e-02
-6.911788035010719700e-01
-7.569439141022357154e-01
-3.128166914835005530e-01
6.537084371599657939e-02
6.525969626756060460e-02
-1.245721691347320692e-01
-2.289872165050557129e-01
-1.861427762001245101e-01
-8.158503556868687556e-02
6.451777746926330367e-03
5.324022934956145620e-02
5.762885330911353410e-02
1.686099427560666317e-02
-6.997822634414972709e-02
-1.805720023121671347e-01
-2.575047588747493288e-01
-2.407025521476414687e-01
-1.248437111771652230e-01
3.327380727955324413e-02
1.673367318432359974e-01
2.384948239594656405e-01
2.312035302408434190e-01
1.524590628940880321e-01
3.819131309667646301e-02
-6.711162510535766124e-02
-1.407204871949445379e-01
-1.783075994705621004e-01
-1.688065512493922560e-01
-9.175543635660012021e-02
5.446522811715080736e-02
2.261037233072248631e-01
3.460197941590338333e-01
3.492941657384454612e-01
2.226501923326518195e-01
1.719349917018460003e-02
-1.669678284209147323e-01
-2.293385488894733037e-01
-1.375724886020106008e-01
4.199739342433653211e-02
2.025166883286151076e-01
2.827483471327189579e-01
2.775334798877929221e-01
2.001311207892733091e-01
7.880940924326931829e-02
-3.677507158012829208e-02
-1.095548653775690329e-01
-1.513683054660520111e-01
-2.038443067713377188e-01
-2.789913644985810293e-01
-3.005586702931569709e-01
-9.228124937592364907e-02
4.310016393919675060e-01
9.169041131436687087e-01
7.308485685714527502e-01
-1.799374561831255659e-01
-9.822420042834886234e-01
-9.609059111563118538e-01
-3.591844113354903945e-01
1.445410524274018116e-01
2.879484314039357784e-01
2.487019621796663915e-01
2.133054796204882919e-01
1.991419734848669798e-01
1.469146677700278458e-01
2.392199496941111933e-02
-1.373273720550080845e-01
-2.532774276347503628e-01
-2.594229415437613873e-01
-1.705169743616317124e-01
-5.217141333454940189e-02
4.809898529591404015e-02
1.135637785795829968e-01
1.259610217177957181e-01
7.381434787320162449e-02
8.056279290447977692e-03
2.794734849376259711e-02
1.462125969752530452e-01
2.333622502033971813e-01
1.961178801620034606e-01
1.249153771343682606e-01
1.552189327360052329e-01
2.800442246646250299e-01
3.835213118812846878e-01
3.844785711376734194e-01
2.975795773123623422e-01
1.862635224841219794e-01
9.482611250152495064e-02
3.774000229146391716e-02
1.892441425259633325e-02
2.666338220545777515e-02
3.436248726050344232e-02
3.313519780689348077e-02
4.120050647355513740e-02
6.423108705833768806e-02
6.921708032834635038e-02
1.795395665519120693e-02
-7.901763113802623417e-02
-1.559789678778947530e-01
-1.450030688568344495e-01
-2.966793820558345784e-02
1.503348136742033159e-01
3.188070555066976342e-01
3.694428296473460382e-01
2.144892605048148160e-01
-6.101197500376964039e-02
-1.293324535309637036e-01
2.292128156685370732e-01
6.288759357008293360e-01
3.876197539464896202e-01
-4.404462898827302686e-01
-9.565117168818666471e-01
-6.251721647640673396e-01
7.895635957155733298e-02
4.440526202772970832e-01
3.269670871326731398e-01
2.973436115708588678e-02
-1.868554100126944284e-01
-2.813198017107181870e-01
-3.121909876409657558e-01
-3.030457464704155446e-01
-2.316879951079957034e-01
-1.008615174557285221e-01
2.498972882489382957e-02
7.012421730997456248e-02
1.731246725843882048e-02
-8.565428879410437457e-02
-1.741214914259805457e-01
-2.142844969139544031e-01
-2.162691554329238264e-01
-2.020972187369549644e-01
-1.604010180981104428e-01
-5.736167567202633127e-02
9.435319032226431590e-02
2.110335919831064222e-01
2.118515741768041694e-01
1.002537941563662605e-01
-4.836017756285893032e-02
-1.606097306137878322e-01
-2.027009720787145142e-01
-1.641680513711820666e-01
-4.508581593978323865e-02
1.283660838922418279e-01
2.902703026495624949e-01
3.620183645924827665e-01
3.131531497342136539e-01
1.837786830860302090e-01
3.636001966069639380e-02
-8.740868917215482981e-02
-1.608844289724054299e-01
-1.663604333764162058e-01
-1.023290507284046330e-01
1.627644977653454339e-02
1.492402699436278513e-01
2.308432579407758145e-01
2.218149555093652525e-01
1.590014376118456529e-01
1.041114065238242931e-01
3.902214917190964527e-02
-1.103571878247989607e-01
-2.840777137641978811e-01
-2.241049572375373722e-01
1.798893250613699535e-01
5.194685979318278690e-01
2.601754335172415389e-01
-4.259136735377463401e-01
-7.809565386174112112e-01
-5.029652927915810867e-01
-6.244782038025264992e-02
5.590052916416930751e-02
-1.106289180934830613e-01
-2.579208963250912978e-01
-2.314364698054540148e-01
-9.868739565395374946e-02
1.095394918267761711e-02
3.247913610252586153e-02
-2.121583691063758798e-02
-1.061648220133307174e-01
-1.948106964658220530e-01
-2.816973014880893023e-01
-3.484125995618854166e-01
-3.467497848077269462e-01
-2.410869788793245094e-01
-6.321626508269355404e-02
9.789471222237210168e-02
1.714787393789743708e-01
1.570268431843323820e-01
8.697105291861693954e-02
-3.560542339331367739e-02
-2.107698742182743668e-01
-3.688504290542810038e-01
-4.018042931522778360e-01
-2.782537059101630739e-01
-6.863819783761382354e-02
1.345391432704522161e-01
2.659794913342368172e-01
2.874173411646886445e-01
2.053315368042651357e-01
8.422705185186102339e-02
1.872316537509792489e-03
-2.198209248859678278e-02
-3.186046760435248121e-02
-5.392511325531010313e-02
-4.760027778519920760e-02
2.312041192957069863e-02
1.199475485107412143e-01
1.688020599720765347e-01
1.306380627710543307e-01
2.376230272999977494e-02
-9.482380688519839729e-02
-1.661450892019003256e-01
-1.593736059139879424e-01
-8.425190143759291039e-02
5.071136403989985955e-03
5.204706699005595683e-02
1.084574279369200783e-01
3.315663245951228078e-01
6.765490928983250996e-01
6.913392241189477705e-01
4.665604821610876141e-02
-7.935550543020363223e-01
-1.016829528508891300e+00
-5.076472991152618519e-01
1.204443977874736504e-01
3.820469999696066710e-01
3.203542288131727700e-01
1.929032082525412306e-01
1.267629856626222851e-01
8.412802640811425925e-02
-6.434011116771370248e-03
-1.452587890275943705e-01
-2.567193012725300649e-01
-2.640659689025273704e-01
-1.602682486396333483e-01
-3.693823299688987760e-03
1.340520251885666814e-01
2.033635524422031104e-01
1.940163849187920286e-01
1.435997971891514180e-01
1.021480483636615089e-01
6.939831381670012733e-02
6.746542410509109682e-03
-7.292049019117101405e-02
-9.547764445631801156e-02
-2.264106436852489357e-02
1.130583642036096237e-01
2.601797367313524179e-01
3.637723958942673530e-01
3.634043177899721755e-01
2.511758315270165021e-01
1.085467942903631661e-01
3.388429185433766005e-02
4.829888601988752139e-02
9.795924529848858142e-02
1.348633860870061818e-01
1.693602459003081817e-01
2.303468758833348007e-01
2.923009431534999147e-01
2.823634454274130401e-01
1.685976621182757595e-01
9.441855871184363230e-03
-1.003109964292537154e-01
-1.152031127087693591e-01
-6.080115546505786284e-02
1.658439237890224280e-02
1.055418239116394097e-01
2.202996601472711757e-01
3.234845964206643498e-01
2.930945765567212202e-01
6.218759116748349969e-02
-1.719085974268537709e-01
-4.475256837565085716e-02
4.476349323026720950e-01
6.996426884115848344e-01
2.314374356907768215e-01
-5.010719522668574122e-01
-6.552968445794077335e-01
-1.568740139703362624e-01
3.369686979281141803e-01
3.873704273542769028e-01
1.324157625614742484e-01
-1.219287401007849714e-01
-2.503072255392902457e-01
-2.766139254658341318e-01
-2.373144377458579757e-01
-1.506307382407594819e-01
-4.667372203065484060e-02
2.976103885213442907e-02
4.672093572441336079e-02
2.376086030830973535e-03
-8.665661685548863014e-02
-1.989700200790251450e-01
-3.000644881631670535e-01
-3.406496963518717003e-01
-2.872950598128558575e-01
-1.527168054668764652e-01
1.160425021522365832e-02
1.481300448794075630e-01
2.183425894317116700e-01
2.067790227017657634e-01
1.162719963221773845e-01
-2.854127113533803939e-02
-1.781508278275178436e-01
-2.722382438158002516e-01
-2.624430705965395405e-01
-1.336178827057995788e-01
7.620621725552070846e-02
2.708340843092925665e-01
3.325529729227678644e-01
2.097122538567539884e-01
-1.267726786086022933e-02
-1.785237768011716242e-01
-2.217643767350815087e-01
-2.025446798688128880e-01
-1.737724650754817746e-01
-9.839482541790213477e-02
7.005785151400516220e-02
2.817809734857769643e-01
4.090969189753854707e-01
3.728139058965821984e-01
2.201031199209141365e-01
5.055584600291526676e-02
-1.003767280410917534e-01
-2.634777033276116120e-01
-4.246687660008097165e-01
-4.283073045922639044e-01
-1.042385527846342724e-01
3.675326663952573902e-01
4.346651584692591275e-01
-1.286974757487464038e-01
-7.615599131754551276e-01
-8.120599501823294597e-01
-3.785354952690398456e-01
-2.431184280195339970e-02
6.337694948853949892e-04
-1.146481949520568033e-01
-1.387420045461725815e-01
-4.027380228739810969e-02
7.515038761895444230e-02
1.113323432484026321e-01
4.936364766839883983e-02
-7.332952163046060901e-02
-2.047915807703786784e-01
-2.951317640264425890e-01
-3.037775803842104883e-01
-2.189357541626819614e-01
-7.228232154470012882e-02
8.208821050007571174e-02
2.124338051360460944e-01
3.107141863457491548e-01
3.415017613127753204e-01
2.505619715717521956e-01
6.039703352505110256e-02
-1.140595970964096567e-01
-1.841023409158181467e-01
-1.563902338915390267e-01
-7.396949723795492870e-02
3.862277107335829879e-02
1.595701208491985268e-01
2.511208689096997571e-01
2.783380460629082953e-01
2.328343576550818139e-01
1.308774816240729777e-01
9.205701901429594325e-04
-1.123831891051363663e-01
-1.506678866227776914e-01
-8.558329435846868949e-02
4.426350122632129874e-02
1.654490505174658066e-01
2.293852518332353818e-01
2.275188948610117057e-01
1.663818945435446839e-01
5.317777948089078000e-02
-8.506104780307856272e-02
-1.856510954182488127e-01
-1.842612020090035607e-01
-7.854884418900602572e-02
4.285480868904618934e-02
5.703810885523569185e-02
-4.812093704622121687e-02
-8.552314683010366070e-02
1.261090479137684517e-01
3.878971611318418611e-01
2.133375361446494256e-01
-4.629571574025448943e-01
-1.003766007723647880e+00
-8.512139791257001820e-01
-2.258793549759124941e-01
2.777227023859892840e-01
4.087467980597109252e-01
3.081035169348929070e-01
1.524263144073788601e-01
-4.112289822343264539e-03
-1.535767366466257722e-01
-2.655328965785732076e-01
-3.070706741431994402e-01
-2.749981830098562341e-01
-1.963365215278140563e-01
-1.148002065211043005e-01
-6.024022112674116969e-02
-2.374788186004572407e-02
9.244460342151556570e-03
1.875860104465556372e-02
-1.949774276415284016e-02
-8.960645273170043945e-02
-1.473575424987380311e-01
-1.554082022202430691e-01
-9.918683174731095231e-02
1.005330386298088421e-02
1.360773926472455264e-01
2.347443080453887054e-01
2.840758307011455597e-01
2.865359109391464876e-01
2.373611539090595690e-01
1.295396795146430968e-01
1.171676121557998357e-02
-1.680040630044620648e-02
8.205075487194304906e-02
2.238943146860815359e-01
2.980850393345748084e-01
2.863524917970101669e-01
2.450155685689853757e-01
2.016846356012382546e-01
1.258631523378427319e-01
2.834631408720945760e-03
-1.156449989086777153e-01
-1.614754473097388954e-01
-1.203223382300997735e-01
-2.525417346695292206e-02
9.506986614783305423e-02
2.274114248064743882e-01
3.370679607832670066e-01
3.440561093526208758e-01
1.691203724864987212e-01
-1.299324155517497248e-01
-2.614061762869636096e-01
5.201887921482087340e-02
5.605760322595310097e-01
5.703995987274987911e-01
-9.192988738171098406e-02
-6.687113568201784597e-01
-4.993941899360482828e-01
9.812492160697475208e-02
4.122887177791085822e-01
2.558101396851776843e-01
-5.045646461536638927e-02
-2.087191235612567974e-01
-1.802232937285519199e-01
-6.873825573516079146e-02
3.827892394750181948e-02
1.139355049323119429e-01
1.524674963563797392e-01
1.350875157104215740e-01
4.736386748538008729e-02
-8.595191302779876807e-02
-2.049647715192153830e-01
-2.564196743194230854e-01
-2.277605218858661795e-01
-1.447351555945378399e-01
-3.971973027746193707e-02
7.056079089091937817e-02
1.693303066812734126e-01
2.225098294251289799e-01
2.015629368721752468e-01
1.115027007846780688e-01
-1.702476749402237477e-02
-1.446695676823774868e-01
-2.196878636744779290e-01
-1.794511643003843804e-01
5.297023127480711413e-03
2.677613444045989777e-01
4.605086957669239367e-01
4.797896114877399087e-01
3.525516784426901418e-01
1.717805126340964383e-01
-3.302096692543842610e-04
-1.326038067673623866e-01
-1.924392889417698149e-01
-1.591835411000057654e-01
-4.825977398261036000e-02
9.556519447773861864e-02
2.234571193811170364e-01
2.979253280366233048e-01
2.919732559166849928e-01
1.993289487701914720e-01
5.952121271334990388e-02
-5.657165174895455173e-02
-1.155401371860334120e-01
-1.515683218042123692e-01
-1.701805985061269344e-01
-3.452858683095871156e-02
3.778391753064289649e-01
7.966981257932590488e-01
6.583732179356789338e-01
-1.139752094755252659e-01
-8.284902017137729668e-01
-8.864872343183644032e-01
-4.779121483037718221e-01
-1.334825225277649352e-01
-4.243377017078682478e-02
-5.063940045804295187e-02
-1.339025590719784484e-02
5.697839369658914965e-02
7.804377478924269529e-02
8.068499464720659334e-03
-1.243606621624568920e-01
-2.559971539913361571e-01
-3.367747514978172152e-01
-3.473681435828603892e-01
-2.856342692341176659e-01
-1.590671384385654863e-01
1.630490575966666786e-03
1.397945380089233858e-01
2.000891863183544839e-01
1.635917092906093440e-01
6.330520760231603261e-02
-3.526673431361077027e-02
-8.798146756900526722e-02
-1.219151334790763708e-01
-2.041039908405110070e-01
-3.205254706125206243e-01
-3.398753549046337752e-01
-1.842328141547696085e-01
3.232416495280603097e-02
1.375122722705063305e-01
9.813028999236882155e-02
4.152458171508721652e-03
-6.840785159548484762e-02
-1.091435244989695658e-01
-1.247237999731567043e-01
-9.956832517864194765e-02
-2.080084199878185630e-02
8.499416912055055007e-02
1.627728244192456486e-01
1.696917330923689571e-01
1.001823273113589124e-01
-1.559528146169763749e-02
-1.302369704658803695e-01
-2.010281506278742691e-01
-2.018818955580898022e-01
-1.265150274472806036e-01
5.039819961157703844e-03
1.354254087640674453e-01
1.858768345582863246e-01
1.411406969756620888e-01
1.218465429583938109e-01
2.248544560147215932e-01
2.310009231561143683e-01
-2.141278979190602005e-01
-9.425155299896740280e-01
-1.244743514966195841e+00
-7.753590531055604140e-01
2.150107168569143079e-03
4.620996175738989464e-01
4.617639667531828196e-01
2.346929972948788579e-01
2.739843190554334951e-03
-1.616132009907481903e-01
-2.601156513867416420e-01
-2.963751961236143484e-01
-2.616392011135394990e-01
-1.461034797793904216e-01
2.938871327655866519e-02
1.913893073319039295e-01
2.567374590690483238e-01
2.023622146108397246e-01
7.173472947605483152e-02
-7.255966530772292589e-02
-1.811601025906484363e-01
-2.223992835937438628e-01
-1.819032367448751297e-01
-6.793093911515833694e-02
8.203442581259494382e-02
2.105778549058953120e-01
2.715705451814285354e-01
2.558248869620234900e-01
1.833018936467576965e-01
7.975403655118318280e-02
-2.197677485951320120e-02
-6.757724763155383008e-02
-8.130239358132507199e-03
1.419729070200068666e-01
2.986161658970910016e-01
3.788002152405420819e-01
3.666716427057071792e-01
2.972625132762076738e-01
1.972351839359257619e-01
7.444594187936429130e-02
-4.705754979503007362e-02
-1.251062563697276364e-01
-1.371572863679834109e-01
-9.064844936372268291e-02
1.114983640336873749e-03
1.200377326546987755e-01
2.251447408643995063e-01
2.756535360052317918e-01
2.692006145324211119e-01
2.047161224951183633e-01
3.364697927031568697e-02
-2.186519341164784580e-01
-2.792322623289547057e-01
1.422520365286398525e-01
7.796788503558128580e-01
8.781294645875287186e-01
2.136528779048341153e-01
-4.529298083240409500e-01
-4.081681392612775960e-01
9.384196874029612778e-02
3.703123757509874658e-01
2.234776004624817736e-01
-4.559186620281675817e-02
-1.616774293155657516e-01
-1.123651044080299921e-01
-6.497133290485478108e-03
8.390827467372485859e-02
1.327737821830256015e-01
1.242657246794166837e-01
5.128910404257665256e-02
-7.128378586371880710e-02
-1.971508023314172409e-01
-2.608003670443154176e-01
-2.226952827997289719e-01
-1.044984204125502247e-01
3.303868835755507938e-02
1.405514855536135199e-01
1.966897623797365935e-01
1.927130369260052212e-01
1.278962627310688549e-01
1.895544397835610684e-02
-9.742217496360826290e-02
-1.758987690507996249e-01
-1.876078750553875629e-01
-1.386341408224227023e-01
-5.003960317982700245e-02
7.651083078904083457e-02
2.345209287109357166e-01
3.388985520552600939e-01
2.441128882163330072e-01
-8.152428850435436414e-02
-4.400307025634734859e-01
-5.716067679111864752e-01
-4.226371952202367943e-01
-1.594935816250147853e-01
4.689529666266865904e-02
1.597837457086106194e-01
2.232086796341762047e-01
2.578195191777631901e-01
2.389451425861433553e-01
1.439433954956655659e-01
5.955558397868418452e-04
-1.081190783449510057e-01
-1.098503623492788628e-01
-3.358934439388681914e-02
5.048435258725550087e-03
-3.045680949248846803e-02
3.098091821337112250e-02
3.672323558828138323e-01
7.375494524779123706e-01
5.607949340786582137e-01
-2.697844836714956007e-01
-1.027046182862176193e+00
-1.028282293909534406e+00
-4.589566838044378261e-01
4.755375064740184621e-02
2.120879689709264659e-01
1.843375620564692841e-01
1.511275842037211325e-01
1.382000636148960349e-01
8.605245004127726194e-02
-3.231747233491390203e-02
-1.803762585592733336e-01
-2.972532986062279003e-01
-3.399654545434336872e-01
-2.928648511359991380e-01
-1.653735108176997148e-01
-2.491171676588087996e-04
1.314548380154684504e-01
1.704754085698639843e-01
1.115721265686182295e-01
-2.502990428219775687e-04
-1.138957667681105984e-01
-1.976381255886480448e-01
-2.243643158647112834e-01
-1.700316139095847667e-01
-4.642025652592493556e-02
8.663541843411613763e-02
1.615822819447039205e-01
1.582437347428806984e-01
1.115614603008446698e-01
5.967188327925748020e-02
4.725643775763484558e-03
-5.992278759615118217e-02
-1.135573495101134256e-01
-1.205579035931893805e-01
-6.014234073309165235e-02
5.456479466200968298e-02
1.686419198572670641e-01
2.167713813814222124e-01
1.802409826909300017e-01
9.222072312071515066e-02
-1.173224869840332196e-02
-1.148559367558726896e-01
-1.944987949903396185e-01
-2.142340390653059701e-01
-1.504726421699798811e-01
-1.414610708837080351e-02
1.452956649264511846e-01
2.435568669603741521e-01
1.976023230385586527e-01
2.029297243763700243e-02
-1.132892175909926968e-01
-1.977609317247167042e-02
1.665311145799100723e-01
3.197485335299581066e-02
-4.930500901814802162e-01
-8.479734466098396428e-01
-5.651850401849844996e-01
6.671052529870352688e-02
4.366600755975324488e-01
3.535364257623945794e-01
6.613175455572173345e-02
-1.641226251773423850e-01
-2.704337118082826841e-01
-2.957553180212750821e-01
-2.733759658048814933e-01
-2.006163312545570232e-01
-7.434684885701423052e-02
7.032149633919775045e-02
1.624730560006161229e-01
1.463344111773473288e-01
2.946678050647012076e-02
-1.160470958995914736e-01
-1.969411457728899584e-01
-1.687701123380265233e-01
-7.155886997096183588e-02
2.893829870226861251e-02
1.149264605432319536e-01
1.957256480932797471e-01
2.516289942559546966e-01
2.459831548026441272e-01
1.754030865444340115e-01
7.943080626260805299e-02
6.378559333650392696e-03
-1.691520413761696262e-02
1.245020250155142935e-02
8.533105290831431711e-02
1.888864845381986735e-01
2.978714462296693788e-01
3.589277918395155642e-01
3.183936683648112553e-01
1.857264217369636872e-01
3.619393795349933052e-02
-6.253049234585573990e-02
-1.002023090954402978e-01
-9.893316314081783414e-02
-6.478168775593279305e-02
1.645814685108549363e-02
1.389031991347782213e-01
2.538369728115146828e-01
3.022876447524599497e-01
2.657142687555269500e-01
1.713114093367358037e-01
3.948183509697040378e-02
-1.456176084265555226e-01
-3.403395442940643223e-01
-3.237695106571725767e-01
1.081205919702846463e-01
6.774750517051808529e-01
6.971870427685393778e-01
-1.695684619813419419e-02
-7.219828775934697962e-01
-7.058535975609533386e-01
-1.904210622318386892e-01
1.512280756933226389e-01
9.520436073210179762e-02
-7.773395775976568722e-02
-9.150904044047190877e-02
4.917394237838460663e-02
1.814925581434516932e-01
2.037007262572447519e-01
1.344020402106482215e-01
2.855174544048561663e-02
-8.377995160140414010e-02
-1.815048250230378857e-01
-2.359232756787242036e-01
-2.255291408719735935e-01
-1.475163650285470640e-01
-2.043084485123771929e-02
1.104364510588973641e-01
1.845813890482997655e-01
1.657533854996155187e-01
7.274505965372571326e-02
-3.795185340609003033e-02
-1.193541174311081032e-01
-1.558178200094199883e-01
-1.454203303311475404e-01
-8.526209998907827159e-02
1.328472654432806196e-02
1.139792723756936910e-01
1.826691347041208280e-01
2.115366316528266566e-01
1.984536167224967285e-01
1.265231346898222919e-01
-1.382200005021495468e-03
-1.199582938330789744e-01
-1.442389978356461988e-01
-6.793266329240718604e-02
3.327366411942889873e-02
1.087148384940723467e-01
1.767712864719913901e-01
2.466338611873471753e-01
2.648097868441977032e-01
1.736135638952807370e-01
-8.462522461806960827e-03
-1.835303833331723422e-01
-2.403173823082742910e-01
-1.379945404173914258e-01
4.009817201403036158e-02
1.344851164916530117e-01
8.700925323373953635e-02
8.006898173057461210e-02
3.432630377050363557e-01
6.978815378594701579e-01
5.619253280054928856e-01
-2.443937629365940112e-01
-1.022832403229401388e+00
-1.020593752018640998e+00
-3.785995746273035367e-01
2.024191850392894065e-01
3.572111524997105270e-01
2.332334915143220999e-01
7.853981139041857351e-02
-2.637399758456567683e-02
-1.210018713906114429e-01
-2.328589563538281948e-01
-3.280742574684958890e-01
-3.521835306045541514e-01
-2.876931925619453101e-01
-1.646686958115895216e-01
-3.070925656235884427e-02
7.595239783529990352e-02
1.333761466254736461e-01
1.308989008743169646e-01
6.471161687789418748e-02
-5.217288760703905209e-02
-1.717968784190747888e-01
-2.199148385631396196e-01
-1.484274704383380938e-01
1.494795095560004852e-02
1.834560093964332228e-01
2.815926343345986904e-01
2.895975265297194290e-01
2.257503953227735227e-01
1.128147047219593690e-01
-2.089927831600516678e-02
-1.242305688114735546e-01
-1.434013873648096182e-01
-7.387263138503809279e-02
3.044527088473208964e-02
1.156062195381200308e-01
1.733752120919821171e-01
2.125174827694601143e-01
2.128677930851493316e-01
1.406418329999278571e-01
4.344513614173008825e-03
-1.287543139263997993e-01
-1.868940900047860454e-01
-1.574084856357952644e-01
-7.754694545829274310e-02
2.589882814973285680e-02
1.519232794715312251e-01
2.788482554173843941e-01
3.318127912187640582e-01
2.265131353431389383e-01
-1.654394802888336721e-02
-1.989653125856762905e-01
-1.026801621708638979e-01
1.670765369886539342e-01
1.768943802205475146e-01
-2.518303821672209786e-01
-6.923535558464486428e-01
-6.592177718277065779e-01
-2.321561606454757842e-01
1.361013143633246769e-01
1.763257647081533652e-01
-2.390901779471368144e-02
-2.318836003359216469e-01
-3.046261124955879085e-01
-2.489378954227553231e-01
-1.428530333236685546e-01
-4.610292956718697183e-02
1.984270002950641598e-02
3.977521663349488368e-02
-3.771920237043039498e-03
-9.686840850782137136e-02
-1.873024111286128168e-01
-2.345422577875993231e-01
-2.450822602432866926e-01
-2.291200047771399517e-01
-1.307110816991743085e-01
1.284402569868268174e-01
4.788509785865569524e-01
6.733373889763462072e-01
5.541791207563084853e-01
2.575837868470109426e-01
2.287361079437819772e-02
-9.370281142980838029e-02
-1.913109324780723763e-01
-2.943456457176473196e-01
-2.880674965148157241e-01
-9.993796274715173455e-02
1.670923706125265751e-01
3.443909672758521667e-01
3.560533596524355082e-01
2.322772779166620838e-01
4.871553710061041209e-02
-1.182935911074270707e-01
-2.201980709707575534e-01
-2.406098500778998950e-01
-1.814730291044113208e-01
-6.412727169063930921e-02
6.643893553660623619e-02
1.700453575929166961e-01
2.375925734852670224e-01
2.592755102861566407e-01
1.994025013956735870e-01
5.508955085171671207e-02
-1.092914053184472212e-01
-2.340267274293751087e-01
-2.840651860634756942e-01
-1.669015425319108625e-01
1.767590244306029290e-01
4.908629649336777589e-01
3.261817859192231439e-01
-3.009789448373299536e-01
-7.641290638751393471e-01
-6.418685560868774287e-01
-2.297504347604517883e-01
2.415796560647963387e-03
8.564751943109835675e-03
1.840884682580570114e-02
1.285274482450960987e-01
2.374840673427316418e-01
2.415654650262132330e-01
1.496022480135456578e-01
3.085046086650723718e-02
-6.875677713278932623e-02
-1.426582041457875871e-01
-1.907349896060803740e-01
-1.944069201974800154e-01
-1.268766060377278238e-01
1.252847876176407457e-02
1.757529544308806535e-01
2.866434082996265342e-01
2.917764299307233911e-01
1.940401855046737789e-01
4.487575315196984382e-02
-8.939469821348056122e-02
-1.600003355280943673e-01
-1.489098546068938766e-01
-6.787149827170041450e-02
4.450900128306066461e-02
1.400886782875246372e-01
1.963817726233485772e-01
2.273724794753599898e-01
2.460201199540921202e-01
2.288529598431393586e-01
1.428214129993763959e-01
1.008242929863182452e-02
-8.569728852100585992e-02
-8.614462313498674750e-02
-2.582023791170321228e-02
2.864910079692944977e-02
7.171509734479412923e-02
1.282941018685110623e-01
1.719039682663011936e-01
1.466888192163160742e-01
4.365372288527989003e-02
-8.692174024175376712e-02
-1.713052826473881185e-01
-1.449541239143240512e-01
3.758162267864222778e-03
1.788107232218597298e-01
2.137336340720465688e-01
8.027972059268816130e-02
4.383129167243825230e-02
3.563793097008990385e-01
7.007319113971676172e-01
3.972872016269922701e-01
-5.452514551075680060e-01
-1.194879328956666154e+00
-9.066386226629217227e-01
-1.149136159528129086e-01
4.029306458886172115e-01
4.312129703591036645e-01
2.370224786377880810e-01
5.732121409388743483e-02
-7.526399204395556319e-02
-1.902054815623314410e-01
-2.689127369280311930e-01
-2.758115043045023529e-01
-2.086483051667257504e-01
-9.175321350026005573e-02
3.912645481246438545e-02
1.343399262009342676e-01
1.506398134238804143e-01
8.793375459851493492e-02
-1.229108456575386636e-02
-1.019539334790860868e-01
-1.500254887784071567e-01
-1.466187999112218976e-01
-9.525944799882055114e-02
-2.552059214674056928e-03
1.157860988161125704e-01
2.211828758143197793e-01
2.623986546766998162e-01
2.074586865738788366e-01
6.862257921320313869e-02
-9.349859981633300288e-02
-1.957198239912866233e-01
-1.861742346161711636e-01
-8.084333437315210924e-02
5.703958878904757251e-02
1.684470657525987958e-01
2.323405145259378746e-01
2.591255232561024968e-01
2.509858756152401060e-01
1.797394088685632108e-01
3.082028235440355257e-02
-1.360366825256663637e-01
-2.133310454705337200e-01
-1.492314463113083023e-01
3.799841269492450907e-03
1.531150095235146169e-01
2.511764154589624098e-01
3.059389042601816655e-01
3.245210456125565135e-01
2.648954240868766075e-01
7.115916219616601202e-02
-1.950806849838487289e-01
-2.787555210290989516e-01
3.024328168712086748e-02
4.745114553907024968e-01
4.584653910714875380e-01
-1.261510848644346316e-01
-6.197126801868996226e-01
-4.861799058306085497e-01
-4.404975990937878838e-03
2.409762121943843927e-01
9.949838656085607802e-02
-1.622228774498750692e-01
-2.903915366415953936e-01
-2.472439270753589158e-01
-1.242852851533138431e-01
-8.717537675235285249e-03
6.339927849475102128e-02
8.502759919353099216e-02
4.184879253118096304e-02
-8.806379456557807128e-02
-2.831029491587545022e-01
-4.434745651327109961e-01
-4.560512162865061891e-01
-3.062335288438784997e-01
-8.842122530636127575e-02
9.540390444514949830e-02
2.047670069208470389e-01
2.388608376769562058e-01
2.015183371104009580e-01
1.044327013699072881e-01
-1.584474691199595081e-02
-1.041827587322903814e-01
-1.228115844070302165e-01
-7.596973512521579264e-02
1.276246574651924287e-02
1.286242958310803430e-01
2.517757901310369584e-01
3.396278676631149795e-01
3.461041550562276581e-01
2.542268063144768053e-01
9.511411228112162664e-02
-6.163900681122518738e-02
-1.541743220135286252e-01
-1.659826209980359568e-01
-1.063460020004009104e-01
1.860891536748564626e-02
1.772845712507051530e-01
2.782273784085880219e-01
2.283442691432312210e-01
4.488080884832441886e-02
-1.392648424971019150e-01
-2.102189465190858475e-01
-1.707808771834462558e-01
-9.847880680451984170e-02
-6.254136546754755777e-02
-6.169176791081890793e-02
6.960336135837380533e-03
2.184369869962706767e-01
3.677800824068018226e-01
8.097825201240403670e-02
-5.935080245338020255e-01
-1.035395726522198911e+00
-8.162173170990695281e-01
-2.437344920766923440e-01
1.324414290718141374e-01
1.789535136198976695e-01
1.220083667793803450e-01
1.329912593290882017e-01
1.780538614987140222e-01
1.561477029251121806e-01
4.067306949994728416e-02
-1.124950385801629926e-01
-2.329944302138719503e-01
-2.848354012446018824e-01
-2.607359424870267506e-01
-1.569850308630591218e-01
1.264401236029365390e-02
1.799689266775318097e-01
2.481534555035214695e-01
1.810546683337131424e-01
4.233698119739369436e-02
-7.126918440077265049e-02
-1.178682877551337216e-01
-1.195847348062806237e-01
-1.028548416950588462e-01
-5.862208146952604254e-02
3.066271965102414232e-02
1.439342910317474022e-01
2.214660904617855586e-01
2.134961438955852442e-01
1.236649045660245111e-01
8.012068173603996424e-03
-6.693152315202119396e-02
-7.649838121531461754e-02
-4.883335320506446836e-02
-1.402576815763439608e-02
3.211187176278752775e-02
8.875506401152273572e-02
1.191700282155771090e-01
9.965177763547304612e-02
5.661982897389818137e-02
2.043856754735340689e-02
-1.677139637888611437e-02
-6.622153419243924366e-02
-9.644160314452446259e-02
-5.961765140075672015e-02
4.749201392450423664e-02
1.775725736678046007e-01
2.630954605053393291e-01
2.339760917569528309e-01
8.545248262150942353e-02
-3.007499862368398502e-02
5.462669511123664084e-02
1.739889962999464079e-01
-7.565611283887921368e-02
-6.574463533667379567e-01
-9.428657998243681337e-01
-5.564927850957424038e-01
1.034822373675723245e-01
4.477371634521137289e-01
3.573296157796474470e-01
9.297554729525323025e-02
-1.136630618399762233e-01
-2.119526578923315308e-01
-2.379929718515522707e-01
-2.175717957868772423e-01
-1.596999343415195782e-01
-8.006116984268485393e-02
-6.421136975978264383e-04
5.863770475337157229e-02
7.977284343424995150e-02
5.054306279525970502e-02
-2.236841302257488312e-02
-1.053679676671807480e-01
-1.543852871279872141e-01
-1.439056684699495103e-01
-7.100161224809088678e-02
6.024118401160515057e-02
2.318721228422334635e-01
3.847001342822650716e-01
4.315159989871648616e-01
3.326195509095161706e-01
1.432310309995345199e-01
-3.739894135442808909e-02
-1.410994738443110408e-01
-1.428482818705748558e-01
-4.024795670323189078e-02
1.374752517564824250e-01
3.146947526561975628e-01
4.078963366516123457e-01
3.879364136601391455e-01
2.857723222550563325e-01
1.465760365060960191e-01
7.273093753048633439e-04
-1.265249817610900607e-01
-1.966700161584742368e-01
-1.679117981527840919e-01
-3.984057532556405101e-02
1.197617942498535870e-01
2.197292744608085879e-01
2.276210706450239318e-01
1.903366227517658549e-01
1.549065015795664801e-01
7.878190306812810073e-02
-1.268197099594242372e-01
-3.830887945659357530e-01
-3.313222794576850538e-01
2.600654321173586081e-01
8.990754131550199313e-01
7.332319250497491003e-01
-2.216892673171159678e-01
-9.300934811119545564e-01
-7.350262826169621233e-01
-1.225034195414120286e-01
1.592124389125102180e-01
1.010585937916192237e-02
-2.028478303232793822e-01
-2.248870376272421034e-01
-9.285624887755705714e-02
4.016069868234305174e-02
8.443597302545084726e-02
4.581361686736405703e-02
-3.523126187177559598e-02
-1.319760567150873032e-01
-2.259218622876381088e-01
-2.885476795574945519e-01
-2.918919233909068600e-01
-2.307067426832587753e-01
-1.242976570636350198e-01
-7.759754769333280025e-03
6.933232942368057483e-02
6.879314595635563356e-02
2.833263860435368542e-02
5.206790757669488984e-02
1.571722755865706533e-01
2.028375956395770674e-01
9.045889456475049439e-02
-6.399712638488483374e-02
-8.225471402622767936e-02
5.733878282807205323e-02
2.394424147628499699e-01
3.549733925718011607e-01
3.659867585816979907e-01
2.808522718203504964e-01
1.221909790045499905e-01
-6.534123970596739106e-02
-2.046693366918964918e-01
-2.209616026196283278e-01
-9.748902310910817492e-02
9.831809560660437208e-02
2.559111026858621463e-01
3.135553340094222596e-01
2.918226378310145863e-01
2.245280507618578059e-01
1.140587056003278393e-01
-1.981365379466898391e-02
-1.057514039856657928e-01
-7.855188626920889261e-02
3.489530122532123746e-02
1.162651660658214348e-01
1.025013936745789722e-01
1.366629298628931899e-01
4.048972459187605843e-01
7.150343518780377661e-01
5.444085836476191265e-01
-2.051043992826153128e-01
-8.835209181922460964e-01
-8.898392702435520274e-01
-3.836632336945261512e-01
9.010817867266358860e-02
2.719647976416063595e-01
2.535103837014917594e-01
1.799949637973083105e-01
9.444927950140173667e-02
-2.067432257655069452e-02
-1.592206673536875616e-01
-2.664333257936060129e-01
-2.864773960484650606e-01
-2.182912865880587971e-01
-1.113990693471911680e-01
-1.212346864706568758e-02
6.566368309543746395e-02
1.123968163269182391e-01
1.009354119489204865e-01
1.762445732020318651e-02
-1.074849467303604922e-01
-2.146614969251508798e-01
-2.475126696361136802e-01
-1.842964997782736147e-01
-5.443214648203022199e-02
8.142502246548813383e-02
1.717281376759512701e-01
1.975439862770240751e-01
1.705857932324369719e-01
1.131408060570993496e-01
3.961907707524893463e-02
-3.503992088571776520e-02
-7.864945629801553539e-02
-5.878728100511461385e-02
1.946439117165067734e-02
1.123203446097416625e-01
1.798185064567493774e-01
2.108760449377856672e-01
2.048065379057681656e-01
1.558639392586943784e-01
6.846683739477504860e-02
-2.617650384299813338e-02
-8.680402501323176978e-02
-1.003743896760203730e-01
-8.116184124302207314e-02
-2.407872867100850287e-02
9.476090948454353458e-02
2.453442317567786635e-01
3.156605515152881569e-01
2.013230769089445205e-01
-6.030285335928835255e-02
-2.549439944967726301e-01
-1.890902940861692860e-01
-9.918320860235755460e-03
-1.289102525291323520e-01
-6.025970179235208279e-01
-8.962871132956818920e-01
-5.945963167798898885e-01
1.311387240792731557e-02
3.641412386928562506e-01
2.851556606103688440e-01
3.898677385477805624e-04
-2.351656919202023688e-01
-3.246588874897469723e-01
-2.962339356929995504e-01
-2.162801225616362844e-01
-1.266087708815632762e-01
-3.991441963020522093e-02
2.343223994590024756e-02
2.978253413946377326e-02
-3.446577356348181492e-02
-1.443413249252820663e-01
-2.484802316678149658e-01
-2.971753070321375145e-01
-2.699723088103526125e-01
-1.811874185916227953e-01
-6.156577684030765246e-02
5.987150277772246981e-02
1.582238883213869518e-01
2.059357358598501442e-01
1.761065125997303971e-01
6.680183470968867332e-02
-7.880231156413464166e-02
-1.887881086678595832e-01
-2.016743870742187250e-01
-9.891899078244623111e-02
7.948891370305441462e-02
2.519571122639357452e-01
3.430107259918241391e-01
3.179960746870301169e-01
1.869760357380363391e-01
2.254154327270156688e-03
-1.564756985017395352e-01
-2.262071952033606059e-01
-1.983644797777687208e-01
-1.096814084145115997e-01
-2.179938418918327299e-03
1.015388161819763824e-01
1.853250170626553894e-01
2.185437340059621369e-01
1.754207818866425628e-01
7.903415701663371595e-02
-8.663650677023234520e-03
-6.871291436042444023e-02
-1.643723198945115371e-01
-3.164606340671758389e-01
-3.383437963713787355e-01
2.054903305868882590e-03
5.132019828629955649e-01
5.922405627442014486e-01
3.010286692732448699e-02
-5.778555823487349086e-01
-6.169031145275710726e-01
-2.238091787520146425e-01
7.417115532359168373e-02
7.946919330990107055e-02
-1.356927161663889353e-02
-5.178611593240610780e-03
1.004575217468837156e-01
1.860790416005159709e-01
1.717199828249147409e-01
5.975180942854253080e-02
-9.453084363139677149e-02
-2.186725919622688197e-01
-2.603667296261406583e-01
-2.189892510126420222e-01
-1.311332038484809837e-01
-1.838316972847883410e-02
1.248093376395024295e-01
2.776480718009853854e-01
3.680711734396550083e-01
3.377597460594745638e-01
2.046900204743043183e-01
3.865252623682909755e-02
-9.300724827026374264e-02
-1.446439121826499086e-01
-9.718533463901923852e-02
2.855196964277316451e-02
1.734878113689670709e-01
2.785264863445035544e-01
3.253125435907485152e-01
3.284148395665791309e-01
2.984554745890606320e-01
2.334234063315099861e-01
1.410003081464726582e-01
5.435607207915628403e-02
1.879442774743929345e-02
5.645262458895337204e-02
1.447836632179922700e-01
2.390095194985672189e-01
3.113756739243373484e-01
3.397089103824120770e-01
2.529419446825161288e-01
-2.709607747785370419e-02
-4.111940663370222682e-01
-6.157320812878929184e-01
-4.519637311880771446e-01
-5.898506760907239188e-02
2.489854395623495309e-01
2.800554802198701454e-01
1.235095303581672244e-01
1.176657912978633508e-01
4.886816546187944255e-01
8.644187214277776476e-01
5.419458645034120892e-01
-4.563711921492503709e-01
-1.165084724593278498e+00
-9.118635367336709319e-01
-1.340536392733969184e-01
3.751341176005092426e-01
4.148699575992482735e-01
2.854838046432817134e-01
2.042332774719325950e-01
1.204419991867381745e-01
-4.107150301101384487e-02
-2.007897917833551260e-01
-2.377791504078984874e-01
-1.604019904243890737e-01
-8.408569467430951350e-02
-7.269759865950164990e-02
-6.955551692169163747e-02
-1.256694088558929327e-02
5.301986730101199141e-02
4.448556741112899560e-02
-4.111608389970659860e-02
-1.383283425793347399e-01
-1.902064956781526761e-01
-1.868000170020241713e-01
-1.521418047841105459e-01
-9.935788422363954486e-02
-1.773934780435459588e-02
7.745537993322740289e-02
1.208809038958042897e-01
5.879050188833487289e-02
-8.027927041487717408e-02
-1.964753613145299727e-01
-2.037116843118559062e-01
-1.013422004211829985e-01
4.107490403949635299e-02
1.547823207217416119e-01
2.127788347533008384e-01
2.184589446216055608e-01
1.799619437061991956e-01
1.027731013619434808e-01
4.471242422473559880e-04
-1.003397455243310171e-01
-1.658081453884941436e-01
-1.599456825811783056e-01
-6.172738384238481146e-02
1.041218658666887148e-01
2.715900603385176248e-01
3.822315665575420351e-01
4.104597040986966983e-01
3.357619117587190560e-01
1.314880550535960091e-01
-1.504420534213219973e-01
-2.815276506192407324e-01
-2.633498282512720945e-02
4.306662020734652319e-01
5.020967922349230950e-01
-2.163851946279693461e-02
-5.557119900608874508e-01
-5.084172344629092066e-01
-7.078703705928146572e-02
1.823520057320094090e-01
6.431153256269138418e-02
-1.807581078933813423e-01
-3.026565136536986111e-01
-2.581242328727511026e-01
-1.307212271710325446e-01
-5.471408716542240994e-03
7.285535520231792295e-02
8.423165098814743013e-02
2.359476692432754472e-02
-8.738790731578710558e-02
-2.008830250337204915e-01
-2.754515542886407098e-01
-3.024356677164332652e-01
-2.805742377185440617e-01
-1.817871788673378342e-01
7.189977479737996030e-03
2.147150223431908977e-01
3.211407728535268791e-01
2.776646427216614699e-01
1.439447059962842279e-01
7.023458361232345903e-03
-9.557765138588956988e-02
-1.623202865696776187e-01
-1.779718976269968334e-01
-1.165626867633733771e-01
1.390377193906448122e-02
1.573650422567945684e-01
2.526697250355521840e-01
2.804815024703497528e-01
2.461106662647899457e-01
1.408072407020178052e-01
-2.505679460464802638e-02
-1.753973691199057772e-01
-2.228959122674913640e-01
-1.583634379139677306e-01
-4.355485289959608319e-02
6.393783266466049331e-02
1.420882121563553924e-01
1.764998150742195793e-01
1.424086405333522820e-01
3.286732501491362868e-02
-1.060988028885515855e-01
-1.938134438902176793e-01
-1.908470041387210214e-01
-1.485856732431256044e-01
-1.357888486615670687e-01
-9.751536944988054012e-02
1.036176197042326524e-01
3.774616917182399001e-01
3.166112654135798676e-01
-2.535271860543353850e-01
-8.363214672353015411e-01
-8.402067056484883167e-01
-3.632568183931890737e-01
4.835507694135800227e-02
1.456286820736853171e-01
9.437969627626734137e-02
7.719285636113393245e-02
8.659446096478930210e-02
4.087884627922804687e-02
-7.378436575126501307e-02
-2.011005113132473821e-01
-2.880993040216845436e-01
-3.198903173549468848e-01
-2.945207942788706790e-01
-2.064023737796090163e-01
-7.252675498230008733e-02
5.386659936018678430e-02
1.187612936936314895e-01
1.043327182675126419e-01
2.761524129633948638e-02
-7.761375055010247270e-02
-1.741245710651442291e-01
-2.325310836692448535e-01
-2.370244145144952130e-01
-1.801543378230841819e-01
-6.171304227199160553e-02
9.371031358482444229e-02
2.257822801863872131e-01
2.720072732533409532e-01
2.206349055386988556e-01
1.175612217038936452e-01
2.465232052640093860e-02
-1.958252697231711165e-02
-1.192505394549844486e-02
3.024666696520615997e-02
9.570263291863191635e-02
1.813097031610942100e-01
2.615266302480148131e-01
2.827032053188319183e-01
2.150590432137645391e-01
9.439367748336568997e-02
-1.481172838727361912e-02
-8.412213543286242712e-02
-1.209290308065425756e-01
-1.161091468701509893e-01
-3.264352020984852276e-02
1.355155055588570800e-01
3.060420392680073265e-01
3.392940531806230564e-01
1.793807946816564913e-01
-5.853288580302436206e-03
6.759131695689699071e-02
3.828397279374748385e-01
4.446367590146763638e-01
-9.998673522952337966e-02
-7.876132113127054524e-01
-8.410084929349908034e-01
-2.200370573071743774e-01
4.029304028088531719e-01
5.468911497919787257e-01
3.101829031944968729e-01
1.034523802011180771e-02
-1.757573663228748639e-01
-2.338583027938755110e-01
-2.036240951913118880e-01
-1.236606040624163294e-01
-2.111359260709562077e-02
9.081753371289841281e-02
1.957811107425802000e-01
2.495388255832226843e-01
2.027512979612346722e-01
6.371928500516414740e-02
-8.995082311599326974e-02
-1.750106241367177518e-01
-1.604422409685314910e-01
-6.911003573563399838e-02
5.429589754405524105e-02
1.731347403508627092e-01
2.628580445709155500e-01
2.963672378725362710e-01
2.451266438796574076e-01
1.101996817670286982e-01
-4.745936311704328225e-02
-1.323569689042613240e-01
-9.709236649313113254e-02
2.029921583197802706e-02
1.613675714238138603e-01
2.986112906444520210e-01
3.965736914708573035e-01
3.954255984530405388e-01
2.767778864727503674e-01
1.005147899185073052e-01
-4.966343739748337038e-02
-1.324414055369705079e-01
-1.514527958926502604e-01
-1.191707221459604865e-01
-4.184458969673882089e-02
7.094640895248865986e-02
1.938222241622408470e-01
2.702358776529684148e-01
2.336435748335508877e-01
9.266589271668015937e-02
-5.795526915276834334e-02
-1.820346048723731902e-01
-3.327390324115372944e-01
-4.060591267911761171e-01
-7.522520283408722086e-02
6.907352074481022397e-01
1.211127017361409264e+00
7.898107705483050633e-01
-2.172035196833510540e-01
-7.664714327402168959e-01
-5.117164263450981743e-01
-5.742885828773205970e-02
5.287670563683399133e-02
-9.938213186578603864e-02
-1.919431462899919283e-01
-1.097711476188454327e-01
4.671987042286378927e-02
1.516430899087638229e-01
1.539290906506410872e-01
6.545079464995738616e-02
-7.613458536193525028e-02
-2.195381803832077428e-01
-3.068013277637741676e-01
-3.092280011393084282e-01
-2.502633439841116525e-01
-1.659831481146246401e-01
-6.350129153397085502e-02
5.527711293050731334e-02
1.560490443856891174e-01
1.895803045203999504e-01
1.366392619319214130e-01
2.383528000572558703e-02
-9.288737094555017670e-02
-1.565448299680500810e-01
-1.373255081308203118e-01
-4.405099138491419541e-02
8.618403080369226033e-02
2.016615997552598238e-01
2.500330409719874192e-01
2.058421892635368955e-01
9.216956340775152301e-02
-3.887819790963361472e-02
-1.476248921855932150e-01
-2.155759114183603553e-01
-2.233573366894438528e-01
-1.514660274309714838e-01
-1.368445565247226187e-02
1.308677784239274389e-01
2.177634568412726845e-01
2.222804196344284611e-01
1.571052960587989711e-01
4.455112571979311098e-02
-9.025810201209011341e-02
-2.038531805592359858e-01
-2.297303445541217792e-01
-1.273746839798434172e-01
2.911219549021038661e-02
6.988416097869806776e-02
-4.534276806698403495e-02
-7.448119837679523236e-02
1.796139794975029624e-01
3.943811556959587183e-01
3.432901826763671421e-02
-7.594411949686645791e-01
-1.179220211240787464e+00
-8.198016696161420924e-01
-1.384536569879886159e-01
2.668678526848207166e-01
2.993031069315612025e-01
1.892558880802210908e-01
8.462386337563264360e-02
-2.820242811712983175e-02
-1.787985413212961616e-01
-3.308943947029922006e-01
-4.160535521761123956e-01
-3.914456696401904523e-01
-2.700769881565598385e-01
-1.130236130030364688e-01
1.347049381054290715e-02
7.414450869574859548e-02
6.073364260465737019e-02
-1.882966281260610095e-02
-1.327945996550578267e-01
-2.321006569985157031e-01
-2.793175180554227643e-01
-2.614981561280034783e-01
-1.814294906716923117e-01
-5.750699406743638858e-02
7.090485617783653938e-02
1.573539330839003048e-01
1.746673543490087632e-01
1.278319203666840598e-01
4.342786357859745872e-02
-4.800299569969538466e-02
-1.158362560739865099e-01
-1.278929847698858369e-01
-6.445109419499318870e-02
5.949360136752893102e-02
1.924180323245331947e-01
2.750415567479957968e-01
2.747435503479113139e-01
1.964847150292451106e-01
6.930718106091504627e-02
-7.031532359298035828e-02
-1.834773438973223147e-01
-2.321482027270476978e-01
-1.943938924184244743e-01
-8.005805351347339283e-02
7.232971389671831453e-02
2.143600025666634878e-01
3.002355936940481196e-01
2.802833888463835965e-01
1.121885402011190414e-01
-1.514297718920084301e-01
-2.843534358492350034e-01
-7.448807847706276353e-02
2.818407725778841466e-01
2.599215859954579488e-01
-2.380416881624102532e-01
-6.008513025277057995e-01
-3.515456929880680370e-01
1.879322764321414707e-01
4.235840512734552754e-01
2.394076639748494995e-01
-5.629388508624254966e-02
-2.049082846553592074e-01
-1.866861898302884792e-01
-9.140307825879402659e-02
2.231342811841988821e-02
1.387378599775962451e-01
2.337567052861472816e-01
2.595255720189161286e-01
1.826430783687891524e-01
2.684409285700815884e-02
-1.258497400634099872e-01
-1.896170846232749507e-01
-1.463985692584164888e-01
-5.022287532114921849e-02
4.818058641973024803e-02
1.478325664282928165e-01
2.535607254397768684e-01
3.244209797104111725e-01
3.003659724866400427e-01
1.755200010216384499e-01
2.232253506626579245e-02
-6.818346550346258972e-02
-6.043302085798982204e-02
1.793815768212046746e-02
1.275112556547086939e-01
2.529075869607608218e-01
3.837145424381239178e-01
4.796021994729432469e-01
4.705896495264232926e-01
3.105875015332428823e-01
5.425241031286499871e-02
-1.485816118593747126e-01
-1.873434489974562522e-01
-9.170336709785556484e-02
4.107996348717166818e-02
1.623797635273925011e-01
2.706145928400818801e-01
3.470132422736703637e-01
3.410699262042982682e-01
2.213678359421272779e-01
4.303703912992065672e-02
-6.990900528411123083e-02
-6.952750144553551670e-02
-6.666106911133951041e-02
-1.504522708099332584e-01
-1.388291394004164681e-01
2.732989340051162341e-01
9.429306719225168942e-01
1.136652966901785966e+00
4.187666724005469354e-01
-5.849908929807999813e-01
-9.183745602559665322e-01
-4.972515890172347630e-01
-2.202831633703161707e-03
1.038580195748325941e-01
-4.586246906545227153e-02
-1.185130824313996994e-01
-4.692842918246616785e-03
1.465495993297410982e-01
1.583287721563337580e-01
8.499955105291310403e-03
-1.911932175572209902e-01
-3.205702001570737703e-01
-3.326260664748063034e-01
-2.534797155842294369e-01
-1.344735702947467415e-01
-6.967257360948345135e-03
1.143613732274456202e-01
1.925279452983755801e-01
1.643060005759400810e-01
6.537576984883709114e-04
-2.311373443812230477e-01
-3.915472130281472674e-01
-3.814979640494783331e-01
-2.230312548215070412e-01
-1.663161116878312737e-02
1.496691663030006170e-01
2.380021677432276050e-01
2.530646107955571988e-01
2.159623045102625483e-01
1.269171582936875209e-01
-2.978979192089570294e-02
-2.157399660305751588e-01
-3.219238586893909404e-01
-2.813794798215210058e-01
-1.449070641172703067e-01
9.834819661911162886e-04
1.173963150480490103e-01
1.871235863578441239e-01
1.852450312826239565e-01
1.077599907623372488e-01
-9.436184014234249434e-03
-1.179734518115825859e-01
-1.874451994688947076e-01
-2.022788519240474314e-01
-1.444913500712852183e-01
-3.355590530283437262e-03
1.790925157004416568e-01
2.849083243260561171e-01
2.077083154762688899e-01
2.427179274680246052e-02
7.825094228675090469e-04
2.327515845872027700e-01
3.418196959620444231e-01
-7.391468248849880629e-02
-7.123712697185853315e-01
-8.507065402680319410e-01
-3.389475279708744626e-01
2.640045164524688071e-01
4.713875176863464023e-01
3.002461668431869457e-01
1.055568689372531066e-02
-2.211439213323667663e-01
-3.531499115809345057e-01
-3.968181420343016574e-01
-3.609231510590757974e-01
-2.471772537402812664e-01
-7.815986215588272001e-02
8.230634829895697169e-02
1.572079537330284826e-01
1.123277526001060372e-01
-1.637782970468466479e-02
-1.463185604344133806e-01
-2.099046336100157395e-01
-2.101622789464074881e-01
-1.963789932253670045e-01
-1.740184452752945587e-01
-9.221385600647216685e-02
5.708292828237281763e-02
1.913619267497632115e-01
2.195730725352306179e-01
1.334213736701854169e-01
1.244538882757835474e-03
-1.049860313500332043e-01
-1.568026005509458864e-01
-1.484044328263919021e-01
-6.468458100328873528e-02
9.248990073696591874e-02
2.591734181662785907e-01
3.394823414651313431e-01
2.953594989097779733e-01
1.737134569048232602e-01
3.472662554705348292e-02
-1.023059747630845756e-01
-2.214242824986348834e-01
-2.698309271386646335e-01
-2.033646583423726339e-01
-5.347580165297254745e-02
9.058103466584380148e-02
1.619430297886821912e-01
1.573464579142136166e-01
1.122819443184854826e-01
4.906793407083167441e-02
-5.969197321186237720e-02
-2.457892225297041433e-01
-4.124672490126917723e-01
-3.237908714916846176e-01
7.665100317893347448e-02
3.782543241188113803e-01
1.208203668996455094e-01
-4.704273833418068373e-01
-6.992118847868910025e-01
-3.738305139977198266e-01
1.777854039720000445e-02
7.792581956026452261e-02
-8.710241698625879880e-02
-1.993222311570297944e-01
-1.693039339981837199e-01
-6.956224465276239499e-02
3.755400984453351187e-02
1.310359441253196033e-01
1.714873620027499712e-01
1.178087285474355012e-01
-8.232074664142798731e-03
-1.331398132027269698e-01
-1.988214575347780066e-01
-1.896706590929313208e-01
-1.160059680453131431e-01
2.408701115932630754e-04
1.280301954270816334e-01
2.243552680258993071e-01
2.419314659319211080e-01
1.635248321544313932e-01
2.809904704455268298e-02
-9.479519664967789305e-02
-1.520340631061944392e-01
-1.259428148803784231e-01
-3.122157833729606591e-02
9.305953937586053382e-02
2.021780575697996185e-01
2.718668200907206067e-01
3.061469113779519136e-01
3.096061525534157255e-01
2.602873818754973256e-01
1.393043372665281332e-01
-1.638996730003610888e-02
-1.284194908879699726e-01
-1.457053279232360110e-01
-7.401632143101984085e-02
4.956356269936941505e-02
1.772727644839205419e-01
2.495365599685890057e-01
2.198765814626400528e-01
1.102695436774067811e-01
9.176986404369612271e-03
-1.644267472599039021e-02
2.158051826461340750e-02
6.976667312181451808e-02
7.303625837120614195e-02
-2.333330972098845643e-03
-6.625895368090178872e-02
1.426682456367891483e-01
7.185243078267165018e-01
1.144771197751507597e+00
7.012191202828532699e-01
-4.452346865555513178e-01
-1.210307016835270089e+00
-9.577432028690133770e-01
-1.999102729227083541e-01
2.805246127311130655e-01
3.254609562071951179e-01
2.224575751110220989e-01
1.545216575327982567e-01
8.700739587556846621e-02
-2.738614677924674362e-02
-1.475792050706781211e-01
-2.134522440225426754e-01
-2.082737157088874747e-01
-1.459121128326797134e-01
-4.631489115446661697e-02
6.478923537588887616e-02
1.510704665343003128e-01
1.773540636727670428e-01
1.331722030202449614e-01
3.998264215769031793e-02
-6.397915650802402099e-02
-1.380428683182695904e-01
-1.487033436505379447e-01
-8.504616677913620637e-02
3.264798146951623098e-02
1.655093752399824647e-01
2.712552847527330835e-01
3.077410246578760056e-01
2.486650427646278083e-01
1.147253926791902690e-01
-2.502216070210599996e-02
-1.003111187332658971e-01
-8.920431933086034326e-02
-2.003025364879816930e-02
6.891422001788401197e-02
1.598177049800566518e-01
2.377135032385286062e-01
2.622770759038086652e-01
1.955275557584759683e-01
5.651753856824849598e-02
-8.263729137386359447e-02
-1.571260441898428561e-01
-1.588334027725395725e-01
-1.344521338560510093e-01
-1.263685302540502042e-01
-1.096326168607395513e-01
-1.965979758575863573e-02
1.403835691190412627e-01
2.493855223895049267e-01
1.625616767270157970e-01
-9.851563066260746182e-02
-2.481531865505837431e-01
4.172766504936498491e-03
4.708387069879102493e-01
5.580225371433051862e-01
8.898635048672062786e-02
-3.576658835300352002e-01
-2.617354006984917714e-01
1.628753089803375576e-01
3.913971208716793271e-01
2.523370462736587161e-01
-5.010733492902148811e-02
-2.825480130126951650e-01
-3.639107017544184752e-01
-3.117049982037735645e-01
-1.548768724700818888e-01
5.384630654971819808e-02
2.001009946046337640e-01
1.877267375795469428e-01
5.371065432219852831e-02
-8.259674036761584237e-02
-1.626724881919226207e-01
-2.104725817390144249e-01
-2.480827425173451339e-01
-2.492792242668366576e-01
-1.726020855571516466e-01
-2.140431550441183189e-02
1.387790971366745507e-01
2.274244695089044366e-01
2.083844840725177783e-01
1.031870198859849708e-01
-3.573723828339309128e-02
-1.521584711770446463e-01
-1.988495082147794524e-01
-1.478087765832838962e-01
-1.448041854864958074e-02
1.167133598978385006e-01
1.364560636474453914e-01
3.762751092380133000e-02
-5.094784315342661130e-02
-3.569699081662724288e-02
1.123235589801142159e-02
-1.983039167727997792e-02
-1.100888664568837605e-01
-1.564497996375412425e-01
-1.044658403124051060e-01
1.724867042998760869e-02
1.429093140436866194e-01
2.156736445111188116e-01
2.119946151026578240e-01
1.423314817031594015e-01
3.562748292330734229e-02
-7.469803753495371512e-02
-1.656906661980770412e-01
-2.377412800565465445e-01
-2.769520662750195039e-01
-1.868587090942418205e-01
1.154500865884025007e-01
4.255266414446519652e-01
3.162140570339979084e-01
-2.584651235316496320e-01
-7.373984301199437708e-01
-6.636482066353605047e-01
-2.585855079891131725e-01
-2.362449495461813043e-04
-5.851420350182726104e-03
-6.668911835082899642e-02
-2.138102712230034036e-02
9.586133168860505593e-02
1.696162700704849369e-01
1.414585278686653624e-01
3.444095969646270017e-02
-9.968518051858638040e-02
-2.180930318960144498e-01
-2.863182781888672923e-01
-2.802627328868999568e-01
-2.002672539021579656e-01
-7.171213402786354163e-02
6.128590981656637654e-02
1.421704979557522064e-01
1.309593476081409025e-01
3.808745695973003720e-02
-8.390387773317654896e-02
-1.801474145494283141e-01
-2.199890412610462087e-01
-1.990925536869619372e-01
-1.263691653390698610e-01
-7.920311063237666163e-03
1.446887506946638036e-01
2.833824527915955738e-01
3.309167409699964590e-01
2.501347475153434252e-01
9.153961404171521987e-02
-5.415112815754874465e-02
-1.382746889178610161e-01
-1.649024403164157104e-01
-1.414688472762301308e-01
-6.526209843800309662e-02
4.532442004893453419e-02
1.473512196391122409e-01
2.037137835395778640e-01
1.993825488714990879e-01
1.396833978821257760e-01
4.735285783729059617e-02
-4.080095135684021213e-02
-7.948886576754125854e-02
-3.300950211201344325e-02
9.082332334571074917e-02
2.191010351324378658e-01
2.461083722690611819e-01
1.364649363181336672e-01
1.548444469949120106e-02
5.083123456459032186e-02
1.426598754983460227e-01
-6.898093627195460431e-02
-6.353911502508214904e-01
-1.019723704344609905e+00
-7.616099643025294741e-01
-1.118383817497290433e-01
3.477377813786997618e-01
4.005790195068117399e-01
2.373067857722662710e-01
6.612279427458740699e-02
-6.962246304569982835e-02
-1.877662932181462518e-01
-2.660268765269957481e-01
-2.684910061223352851e-01
-1.945816881043280766e-01
-7.427338951314389759e-02
5.174053960646678163e-02
1.387894842730304223e-01
1.518838911484461096e-01
8.745591136980924996e-02
-2.431153002272785912e-02
-1.398271693397900584e-01
-2.154514731749256340e-01
-2.098364354118619213e-01
-1.059668792908602664e-01
5.826321914686622555e-02
2.090670843718199501e-01
2.963897873572253761e-01
3.110411212374950551e-01
2.517768919011371676e-01
1.210132215468631839e-01
-3.995949327211840291e-02
-1.484650330467577606e-01
-1.353278869053365918e-01
-1.281547185943043149e-03
