1.320029307981657740e-01
2.282393789456825528e-01
2.458448827170664763e-01
2.043813769245105272e-01
1.212383608395783408e-01
3.803116626764457657e-03
-1.252763842991371224e-01
-2.144891035184252615e-01
-2.000833841363421628e-01
-5.356390071355345006e-02
1.470256223271413643e-01
2.123191399254712453e-01
3.913654231883036821e-02
-1.419115943244673717e-01
4.942908148991396328e-02
5.465531321436698509e-01
7.482879217631414059e-01
3.043867808270918629e-01
-3.630447188072072340e-01
-6.121328088715644045e-01
-3.328552659958201598e-01
9.495475198544675588e-02
3.390028920622386588e-01
3.715605096931789419e-01
3.094553385038043003e-01
2.188927649201985459e-01
1.084355657652375099e-01
1.753573685214359235e-03
-5.060890059771218363e-02
-1.742006394044302159e-02
8.463634835158334591e-02
2.100797479812584467e-01
3.100637079465288215e-01
3.400174831748191129e-01
2.751916507611041895e-01
1.321049207263358949e-01
-3.767232445418960268e-02
-1.781690010018071868e-01
-2.473713549487061014e-01
-2.198505438723313832e-01
-1.080264217606054511e-01
1.358432472353114998e-02
4.438135862409416099e-02
-5.849224672659879276e-02
-2.361145155317768973e-01
-3.719184469281057726e-01
-3.924951337349167346e-01
-3.269995954494815948e-01
-2.518862244207793477e-01
-1.958201826136657664e-01
-1.283808959741187528e-01
-2.020385616629605252e-02
1.154593527924900331e-01
2.277763859102806265e-01
2.597800785778513477e-01
1.868861788448532846e-01
3.699407209043942268e-02
-1.239199709316444048e-01
-2.273713008416857473e-01
-2.395158449520441157e-01
-1.788169920297649762e-01
-9.352750645934038154e-02
-1.634471826236926981e-02
5.194870120844695405e-02
1.021601167491440199e-01
6.435008871621344939e-02
-1.590466770464588342e-01
-5.333685887395703817e-01
-7.623387632013608473e-01
-5.047186666068895766e-01
1.324773805006272953e-01
5.626157111749421347e-01
4.133463277135320246e-01
-2.814581126002911604e-02
-2.695891999207817302e-01
-2.038093165950782826e-01
-6.229485418495028098e-02
-2.933575990829969879e-02
-8.460140780582092734e-02
-1.231596261110027152e-01
-9.185842124033301304e-02
-2.014284991854294743e-03
1.199993903640469983e-01
2.500370710848766609e-01
3.517196057847474244e-01
3.795537810025552683e-01
3.075823466764270320e-01
1.546875161010828337e-01
-1.362869886888123244e-02
-1.140440788018468460e-01
-9.938697501543608537e-02
2.651795290496380617e-03
1.166819346582887301e-01
1.905738104191758708e-01
2.250083536258798700e-01
2.390921317463518547e-01
2.292237982375677219e-01
1.584176534400428271e-01
-9.559807247720224568e-03
-2.408096653945525356e-01
-4.172294562936134654e-01
-4.268566102414828034e-01
-2.569926631257268834e-01
-1.544866083290213910e-04
2.084909415889210915e-01
2.745745266992556388e-01
1.967753025950862988e-01
4.996107245522998092e-02
-8.038469857680255459e-02
-1.502752856807650361e-01
-1.550496873893145167e-01
-1.033118249872382738e-01
-1.558266908274803970e-02
7.223336264686099073e-02
1.321061893749035931e-01
1.562184570315783838e-01
1.341581691216952588e-01
4.859659423902721459e-02
-8.839317189928143359e-02
-2.193686662768311590e-01
-2.756055251175545950e-01
-2.176470541088853516e-01
-5.835846228472935104e-02
1.146440929475126130e-01
1.539691622975411511e-01
-8.406184538170762000e-03
-1.907104821781747395e-01
-9.878731230644749450e-02
2.324366742321591073e-01
3.708185857458536905e-01
5.481403557435424179e-02
-4.377205959121737711e-01
-6.603066007185207642e-01
-4.869872440958961102e-01
-1.237337484055146541e-01
1.705037373442546134e-01
2.777955913353380435e-01
2.263871728549711193e-01
1.002939124793357922e-01
-2.587073062993256248e-02
-9.816683226403806473e-02
-8.636987402527930568e-02
4.115991419339914623e-03
1.335524458650247381e-01
2.460968918554758411e-01
2.916321544553484579e-01
2.463958786290521563e-01
1.259415079270706783e-01
-2.301098362804589875e-02
-1.529753364148702388e-01
-2.384447885927819255e-01
-2.656798916346503336e-01
-2.212111313989175432e-01
-1.125188118272049259e-01
1.060689145095641654e-02
7.421324239139155676e-02
3.155491048155288636e-02
-9.134821245034763226e-02
-2.078765967096550260e-01
-2.477709971156517865e-01
-2.139043531816322008e-01
-1.470163993210387154e-01
-6.307353752542996239e-02
4.091221476386806138e-02
1.475062900782357356e-01
2.245349706029163839e-01
2.518857117513340627e-01
2.203326433355368708e-01
1.268215762588510431e-01
-1.064027697468002825e-02
-1.468204596837224263e-01
-2.266972093151763956e-01
-2.118953953986437988e-01
-1.053768239176159499e-01
4.394311873777267258e-02
1.706620989509713415e-01
2.302067325882545534e-01
2.126187040988612720e-01
1.339050749344258828e-01
1.345940601317850357e-02
-1.489118380784152373e-01
-3.471852711333361929e-01
-4.774138203151631621e-01
-3.434358696434287039e-01
8.119443666790493452e-02
4.618731606272900025e-01
4.351996930328529967e-01
7.200918338797490659e-02
-2.515225995596603870e-01
-3.335541654346381168e-01
-2.676794364989935060e-01
-1.985686286508383802e-01
-1.500350964470659743e-01
-7.010425983304233166e-02
6.343253998126387183e-02
2.094694160997237486e-01
3.005951060639573957e-01
2.957436561262756780e-01
2.056857412362311510e-01
7.999370028492799878e-02
-2.314237015993030749e-02
-6.438028006018511884e-02
-4.307291416155940855e-02
9.696465796575128374e-03
6.961167808142949831e-02
1.389482682385666246e-01
2.186845556589337713e-01
2.803416459742777977e-01
2.792020055402414380e-01
1.890673483803843313e-01
2.331231187316806092e-02
-1.690538398231952733e-01
-3.240952429827334003e-01
-3.850531565783438248e-01
-3.193102083053331874e-01
-1.396442421417417590e-01
8.047957386958362602e-02
2.380687311569072706e-01
2.705939262765001407e-01
1.935091542847101609e-01
7.306973562493926377e-02
-2.786360089458618516e-02
-7.972267620846926195e-02
-7.194019566453914438e-02
4.210506329241312309e-03
1.317630605398237009e-01
2.494387751912367501e-01
2.956396119836977032e-01
2.601068253804398323e-01
1.695975663062963823e-01
4.806123592962623786e-02
-8.075826649119210998e-02
-1.703194894294189632e-01
-1.646880932365828720e-01
-5.624099649420890440e-02
6.457598843114815967e-02
6.039879383365624049e-02
-7.729092090721395580e-02
-1.335662522551104847e-01
8.095791108450142715e-02
3.749370542958573305e-01
3.341368188424508334e-01
-1.073025393034376940e-01
-5.467471990592587261e-01
-6.151535675060105790e-01
-3.402581352198175701e-01
7.630382673204927357e-03
2.196484280166634828e-01
2.576219422667021530e-01
1.861430756956311272e-01
7.638481326066295929e-02
-2.930040920766036755e-02
-1.017271221248624569e-01
-1.149555297191804382e-01
-6.046223306559103672e-02
4.152659173438312534e-02
1.529067601662561782e-01
2.400450244907404995e-01
2.825230264601112928e-01
2.662369818845511937e-01
1.879868991496023711e-01
7.164460621703139243e-02
-3.728358077273878635e-02
-9.655641627999672627e-02
-8.430653643451781198e-02
-1.271208117780745980e-02
6.404332900839190823e-02
8.059172088185390104e-02
1.747339735769296021e-02
-8.196554224123024646e-02
-1.547685780873653272e-01
-1.729169619928935531e-01
-1.604971514908275776e-01
-1.539388584260585613e-01
-1.423032939226550053e-01
-7.545519387613736084e-02
5.883473846311000621e-02
2.064557215405584956e-01
3.047747077967301044e-01
3.265964499721522585e-01
2.620942196723798912e-01
1.070379820483090827e-01
-1.007019286853862994e-01
-2.617888937604016530e-01
-2.839170426921314716e-01
-1.735418914256992851e-01
-2.202572691267238800e-02
9.705547686758261849e-02
1.795187295254608295e-01
2.385945799167115411e-01
2.323657598165478344e-01
7.642650777907789017e-02
-2.275429839714323277e-01
-4.715279066506724570e-01
-3.737655093224214187e-01
4.930086355997731484e-02
3.886216658959724679e-01
3.129224489211918647e-01
-2.586251622572136727e-02
-2.508395276770418181e-01
-2.377583419877747350e-01
-1.494517073318820111e-01
-1.423757492373572409e-01
-2.069531553707128213e-01
-2.446055508326869521e-01
-1.905731629052509479e-01
-5.567243314100067675e-02
9.828761983580276695e-02
2.042106177042223858e-01
2.292662241457173733e-01
1.860581257151012469e-01
1.095603501184636008e-01
2.664282183466959442e-02
-5.137779636694100177e-02
-1.118677602942562549e-01
-1.273000877359577454e-01
-7.733297309369700778e-02
1.622589360767636921e-02
1.043832413149364396e-01
1.575875021162564393e-01
1.678361862123195491e-01
1.164147672593645183e-01
-2.587329260135105141e-02
-2.562143463685079836e-01
-4.972151604284168469e-01
-6.138457020878804737e-01
-5.148410775375171777e-01
-2.462171376730026284e-01
4.314252717457464636e-02
2.243914239157663304e-01
2.595940786898024433e-01
1.810986067278503309e-01
4.499445068576568563e-02
-9.490924147363180574e-02
-1.961130499579967212e-01
-2.348431884316594387e-01
-2.113739606109784064e-01
-1.398687190214971121e-01
-3.003375514172874905e-02
1.075558224077130531e-01
2.288317958457162238e-01
2.538311562073753413e-01
1.385330011560934604e-01
-5.295990273592560832e-02
-1.902384997538325295e-01
-2.087200573718031305e-01
-1.810552478845218749e-01
-2.148642279090307028e-01
-2.531551085408147439e-01
-7.168783668751731175e-02
3.739548307121542958e-01
7.062299672527071470e-01
5.157596448090784325e-01
-7.903021244199120998e-02
-5.640931784657045034e-01
-6.338532569061847699e-01
-4.066930348642028292e-01
-1.407604869513076062e-01
3.695751682569817231e-02
1.390850817642928505e-01
2.069472890490544892e-01
2.450164659533201061e-01
2.234037768159339021e-01
1.198923090094542732e-01
-3.015391996249782228e-02
-1.371514980660567262e-01
-1.315703777971774235e-01
-2.395665851782602385e-02
1.192141248811401100e-01
2.384972345497126667e-01
3.071398335406422819e-01
3.135582833124851421e-01
2.437330806052268872e-01
9.521114257317268847e-02
-8.900634860620787459e-02
-2.213371467063666442e-01
-2.353728152639087412e-01
-1.529053807696271750e-01
-6.526161150917847431e-02
-4.457130494568965762e-02
-7.970672369085425590e-02
-9.663551084577819139e-02
-4.572708837532957898e-02
2.943995265715905821e-02
3.462832449765088083e-02
-5.530114196297469115e-02
-1.537409662024196988e-01
-1.516634493377948811e-01
-2.330019257533047505e-02
1.574568689347793093e-01
2.859205881700037088e-01
3.099009557479844856e-01
2.453729559211731970e-01
1.259623335684930678e-01
-2.212498402397052033e-02
-1.562530918783356926e-01
-2.215628167994183884e-01
-1.987000039925118089e-01
-1.097341403402316007e-01
3.489650105406683078e-02
2.354068317504448282e-01
4.137931239281655849e-01
3.933675787247513655e-01
7.712260400774319236e-02
-3.159191309823019544e-01
-3.524123026311903328e-01
7.519250100756764976e-02
4.859911752279778563e-01
3.962989218002900271e-01
-3.971368333685266344e-02
-3.000395168632133402e-01
-1.764217561260041645e-01
1.034388463235896560e-01
2.568948397181878840e-01
2.178309598502758959e-01
9.305385207715710649e-02
8.851569140331276217e-04
-1.170776718686611893e-02
4.930599961893770977e-02
1.616809431373817940e-01
2.955910561364186173e-01
4.158291492567003922e-01
4.878216542551772061e-01
4.783802663435364755e-01
3.689490253221427984e-01
1.888124336133983061e-01
2.116969847178222855e-02
-5.290162784703515003e-02
-1.871468827625876949e-02
7.792418915020718484e-02
1.888274073512611617e-01
2.849177409783065773e-01
3.214825295443787256e-01
2.301711683016462451e-01
-1.223679751635646865e-02
-3.169860814342554955e-01
-5.235601701089007687e-01
-5.286168513430709037e-01
-3.688908910581139011e-01
-1.649187718519321555e-01
1.615426473074207947e-03
1.248152342082884947e-01
2.028867618401457018e-01
1.934112903560598895e-01
7.415059337634552494e-02
-9.429604971069902031e-02
-2.162126205503921705e-01
-2.552123369553062071e-01
-2.405430364869425020e-01
-1.962660429620275426e-01
-1.168196966896531130e-01
-1.160052271322274849e-02
7.024048475186581153e-02
7.557710220153987524e-02
2.534229642451422612e-03
-8.884612107016484628e-02
-1.485091561297551266e-01
-2.314088918798213046e-01
-4.503691534626961257e-01
-7.272077898027897724e-01
-6.902782379499735610e-01
-1.197899526495414674e-01
5.633330631744766226e-01
6.900075780833697658e-01
1.893912980651141220e-01
-3.887332074976032059e-01
-6.061822912100078842e-01
-4.996227230121361718e-01
-3.004850114286166662e-01
-1.302474764149241238e-01
5.112667907906267954e-04
9.656204543721821909e-02
1.660006418480381718e-01
2.244678703034349576e-01
2.601552473455003844e-01
2.307845753290564961e-01
1.206839231547697511e-01
-2.125136346308257110e-02
-1.134869199282696056e-01
-1.014539640117187863e-01
9.815362944606409804e-03
1.663789421975921945e-01
3.055720192045352501e-01
3.828993864706647376e-01
3.667119337148664893e-01
2.463268769660992286e-01
6.481008451886216548e-02
-9.385490561697129586e-02
-1.778201156436887420e-01
-2.074977841421365710e-01
-2.287822669727275215e-01
-2.479593351765731479e-01
-2.305285993850513249e-01
-1.517338155775879160e-01
-3.703718445419613287e-02
4.306177536483916241e-02
2.852963848507651667e-02
-6.684232938821166314e-02
-1.594006351825413281e-01
-1.716466927247913832e-01
-9.483649070314469076e-02
2.233823954712077162e-02
1.257277499714501146e-01
1.832079336863602081e-01
1.785551274687826317e-01
1.085645469495179760e-01
-7.184443886830513964e-03
-1.280852078696870511e-01
-2.094976540220451766e-01
-2.192177040962536017e-01
-1.493389915761111908e-01
-1.609768822093142135e-02
1.541237706204738600e-01
3.159901467946875098e-01
3.641138086763820447e-01
1.661809231500116502e-01
-2.392018576242504468e-01
-5.085290007453222572e-01
-3.128780451789681116e-01
1.554712207106143107e-01
3.399070692847319108e-01
5.897067719861898150e-02
-2.930739590799996686e-01
-3.285003516210842078e-01
-9.263831304999733951e-02
1.307871495661099837e-01
1.758826720175379887e-01
7.870983354645391672e-02
-4.983812929326195129e-02
-1.306265080520800925e-01
-1.294595970582078648e-01
-4.277475569899491514e-02
9.907570746514965387e-02
2.366239736494106793e-01
3.136757102912896000e-01
3.073595138285880601e-01
2.312334967589226298e-01
1.199767397427618232e-01
1.091906984287421140e-02
-6.704530361823621276e-02
-9.614425220734525157e-02
-7.059555945880809091e-02
2.753718577263449332e-03
1.038400325437695976e-01
1.973616311289094205e-01
2.341608508677087142e-01
1.667169188887228926e-01
-1.368636293621054018e-02
-2.422881001337321427e-01
-4.036349506582059821e-01
-4.129436848845299268e-01
-2.765552701233104926e-01
-7.429012725319551758e-02
1.100360160170006929e-01
2.356964466816030557e-01
2.872248884049713458e-01
2.454391001172928910e-01
1.124483328815026606e-01
-5.463247574840203458e-02
-1.750298275632469203e-01
-2.070860303734081975e-01
-1.619921227242889228e-01
-7.055786819864678927e-02
3.996946185735027190e-02
1.422549745340813687e-01
2.002885517789548264e-01
1.789072276188007071e-01
7.557510143124053503e-02
-5.853070561608340189e-02
-1.480308857242412790e-01
-1.670990628467678429e-01
-1.842071712997745137e-01
-2.738329909158799258e-01
-3.387453467934627982e-01
-1.426576111173424588e-01
3.229591241465412654e-01
6.528118866442882418e-01
4.732743696652934595e-01
-5.815988857272386126e-02
-4.667418349981131698e-01
-5.230570399377881818e-01
-3.573668391166627267e-01
-1.625435567005058812e-01
-2.710868617311620182e-03
1.403674198450735322e-01
2.734357799438612013e-01
3.568032735660293664e-01
3.312357070642865664e-01
1.871169420547044437e-01
-5.481134502528101082e-04
-1.270393999045491551e-01
-1.400548333144033819e-01
-6.355006678060257097e-02
4.143120570882627418e-02
1.315250969277811932e-01
1.975301433056810552e-01
2.288805141591832848e-01
1.910575879941818211e-01
7.104969110124592646e-02
-7.552508569643975878e-02
-1.629866143703315173e-01
-1.556579785267351856e-01
-9.447948020164391447e-02
-5.560515832797672392e-02
-8.034038285324740514e-02
-1.327432506139919477e-01
-1.365018052858019693e-01
-6.356300808666630331e-02
2.487467602334122660e-02
3.835204797930109877e-02
-4.189505771964802117e-02
-1.338697223244326440e-01
-1.348465220556666899e-01
-2.264446874987047220e-02
1.309962114021651081e-01
2.393622383221059302e-01
2.728516609828993134e-01
2.453918829197456464e-01
1.635242841518959045e-01
3.499736405619042340e-02
-9.124908308918337763e-02
-1.552886147153939855e-01
-1.510120310111243147e-01
-1.075507964902139568e-01
-2.091742784324286675e-02
1.295406292240173507e-01
2.843947520515703875e-01
2.837092181266183122e-01
2.731615440226126471e-02
-3.165100884588249452e-01
-3.899226811411647953e-01
-8.467003795838207170e-02
2.317319179515308358e-01
1.639910710233832281e-01
-1.846418663362090762e-01
-3.911263974215873906e-01
-2.647326250731470987e-01
9.707361353427861050e-03
1.694736857187189027e-01
1.349378142032040262e-01
4.071162489844400850e-03
-9.385668664639298941e-02
-9.942136204959228785e-02
-2.543814484080554605e-02
8.478121602518369493e-02
1.882353192950119714e-01
2.569629693831380068e-01
2.849606635142751809e-01
2.751607197711744557e-01
2.166274250939235479e-01
9.643241892747167476e-02
-5.747224985845580947e-02
-1.696569295613461759e-01
-1.744798351622363075e-01
-7.586780014776628445e-02
5.914445324407492655e-02
1.611354875420647204e-01
1.999510140378060186e-01
1.654365144180444669e-01
3.804307777768720783e-02
-1.786883978606878531e-01
-4.051379665331225621e-01
-5.167088699340567359e-01
-4.470738886205818385e-01
-2.436068959066747253e-01
-1.704160998022521967e-02
1.486109234021446845e-01
2.311234909664234560e-01
2.370766263029172871e-01
1.702047314460098382e-01
4.463562702955169159e-02
-9.668481059122860377e-02
-1.982312785217396900e-01
-2.233164252100411917e-01
-1.715996695977629327e-01
-7.144060189469898792e-02
4.335698787013453348e-02
1.379224746936595081e-01
1.665226497945063999e-01
1.005369896690170572e-01
-2.327326201925764698e-02
-1.235276493319812791e-01
-1.683858867150560823e-01
-2.196845906341733656e-01
-3.253448924226136629e-01
-3.630527243846938257e-01
-1.264584175419040390e-01
3.265074694585987647e-01
5.938528601695232112e-01
3.836095073895337548e-01
-1.260484274030521934e-01
-5.287208569643169209e-01
-6.127485880546894581e-01
-4.467183487604621250e-01
-2.016177469364607011e-01
7.831982874319083632e-03
1.523809566990783071e-01
2.386880479716299019e-01
2.749923649078724330e-01
2.695687425501232526e-01
2.256754018398026973e-01
1.422402130974595447e-01
3.657694157961321330e-02
-4.601589281090413125e-02
-6.072870417879864396e-02
1.957286964315511045e-03
1.136936045246350196e-01
2.304832171465490409e-01
3.092663598898864885e-01
3.160721262628875539e-01
2.390806663160881251e-01
1.022826363718922632e-01
-3.682071854289292734e-02
-1.216640972014352284e-01
-1.447055910516477084e-01
-1.418427351305934225e-01
-1.254973175123689222e-01
-5.930445969056831468e-02
7.519408357407442178e-02
2.169842415973102512e-01
2.683826076178206232e-01
1.969397657202782703e-01
6.488889163197544829e-02
-4.140705906109673484e-02
-7.494216201389185261e-02
-2.911490032913434389e-02
7.615241241250152171e-02
2.017758670450272296e-01
3.047625797480882359e-01
3.472480156309518118e-01
2.981564692782939785e-01
1.598372085179693702e-01
-5.525295331669698162e-03
-1.173479992279140016e-01
-1.439427288491437751e-01
-9.205030885824813658e-02
4.345125230574777703e-02
2.499893612812973120e-01
4.113304961308466567e-01
3.355868158227742204e-01
-5.360594421253427749e-03
-2.804650428013500396e-01
-1.135533984827134524e-01
3.253887492141152582e-01
4.386923929279474832e-01
3.295678842848071693e-02
-4.257142286890006622e-01
-4.808190295760417787e-01
-1.851056744605851789e-01
1.284426814132735295e-01
2.532041043687040527e-01
2.009131684837134613e-01
6.811007585896247662e-02
-6.807695847582476145e-02
-1.593436418964571666e-01
-1.747930813858810939e-01
-1.077861601426684246e-01
1.653954475230333399e-02
1.476594756175378387e-01
2.317371068052331007e-01
2.382388938107641019e-01
1.690113757230846114e-01
4.926064926820034745e-02
-7.942452260701168831e-02
-1.666355786906623115e-01
-1.786964250788585507e-01
-1.244175373671424362e-01
-4.341739214537795877e-02
3.252883190474063768e-02
8.858564823458947579e-02
9.409087728902237879e-02
-4.660075446504574267e-03
-2.201810886459203143e-01
-4.591900087905773642e-01
-5.692506926125454614e-01
-4.788970027531895823e-01
-2.697952101010775983e-01
-8.558797367218723418e-02
6.523674143330123951e-03
3.873194550552753329e-02
5.802664383014120852e-02
5.778280525145790963e-02
-2.059753337976817644e-03
-1.234229238278611585e-01
-2.467377011967914757e-01
-3.069342197046827092e-01
-2.860646890415469712e-01
-2.068451156624450393e-01
-1.067607123049907764e-01
-2.858328824817862532e-02
-8.394563014335573378e-03
-4.660131161973019714e-02
-9.787040769398035189e-02
-1.221307011993318092e-01
-1.624998704188851395e-01
-3.206543806393760132e-01
-5.556837173285675835e-01
-5.637880582126030271e-01
-1.182706026798755194e-01
4.709639672192006965e-01
6.208088563091747059e-01
2.233391077115650381e-01
-2.701272782311298082e-01
-4.797561892553439677e-01
-4.400400826186396386e-01
-3.563508922051841776e-01
-3.121116695343700287e-01
-2.543543980579661135e-01
-1.294864651979761583e-01
3.647241852243498367e-02
1.725153072072112825e-01
2.324091656800110206e-01
2.099848186646852688e-01
1.141987954871669514e-01
-3.150286720057678125e-02
-1.664278218383328511e-01
-2.086150418886179025e-01
-1.268610573141877029e-01
1.554528088815251147e-02
1.198051961855011172e-01
1.442001496002173755e-01
1.130464191123161793e-01
5.512948627175615068e-02
-2.806473562223454898e-02
-1.349632973261967461e-01
-2.393483573130043562e-01
-3.141366323434252039e-01
-3.556549523850505157e-01
-3.556435791616223696e-01
-2.806008482006404625e-01
-1.208084403546073465e-01
6.084234502152549573e-02
1.649110256560419041e-01
1.409746040050602334e-01
2.861831064194913371e-02
-8.087932774858183627e-02
-1.113573423768908915e-01
-4.146124127470171561e-02
8.764178844733055973e-02
2.007185246034953463e-01
2.535092364274540433e-01
2.639301209911517621e-01
2.579908227832939382e-01
2.188930105638549894e-01
1.248243829261383164e-01
1.912814020188864997e-03
-9.154301484438240322e-02
-1.057618772135049401e-01
-1.694269084582582241e-02
1.482452961721445195e-01
2.797038440014798510e-01
2.347375110362440731e-01
2.539035413749438780e-02
-7.609467670718556009e-02
1.603432644507984950e-01
5.001499401221458641e-01
4.638501085564620263e-01
6.776431495219503720e-03
-4.051351437502220820e-01
-4.098844827572720173e-01
-9.775022732385188484e-02
2.368330239420085304e-01
4.151354795902313932e-01
4.200428390100354736e-01
3.077614408095127874e-01
1.568533689326325475e-01
3.965399624050319066e-02
-9.224248366767736837e-03
8.461062306608372469e-03
8.120675550577932666e-02
1.954141920216347639e-01
3.229084656719220514e-01
4.192617101242651079e-01
4.451306271603044373e-01
3.905779959047013805e-01
2.796735563967697180e-01
1.603732562481335888e-01
8.808090707843306555e-02
9.926883686653324712e-02
1.889087953218835103e-01
3.098779692301717459e-01
3.913002263034016659e-01
3.715336102024471843e-01
2.384606522141820562e-01
4.789162501180686815e-02
-1.053241025051368102e-01
-1.512650698211019384e-01
-9.138642199221190532e-02
2.219808352250728090e-02
1.451161686229360814e-01
2.595589129217630298e-01
3.536295066180069613e-01
4.133679715179731096e-01
4.249533633214289674e-01
3.722680719289206963e-01
2.510306255380866380e-01
9.239166207162849420e-02
-4.107495628851622060e-02
-8.973587344911999886e-02
-3.485493654267495661e-02
8.833042864178017317e-02
2.159835626367479500e-01
2.956195918701613468e-01
3.081707610383148110e-01
2.646141084972566393e-01
1.718492575536213762e-01
-1.859198260770670089e-03
-2.598807992311908954e-01
-4.342096276609082039e-01
-2.614946053399249126e-01
2.385789133632876813e-01
6.327517844021895987e-01
5.565819662971797088e-01
1.600804000955970419e-01
-1.427813370007561811e-01
-1.812634031433766058e-01
-9.695268168370603512e-02
-5.872649432279081205e-02
-7.722910702954147166e-02
-6.338632497692771317e-02
2.999519617448357864e-02
1.598605645571374301e-01
2.547634307021695577e-01
2.804746413509872638e-01
2.399968786963392609e-01
1.412162124489530768e-01
-8.409175047930986940e-03
-1.774767294271707985e-01
-3.064053701893633685e-01
-3.454101751677020049e-01
-2.927699208973505995e-01
-1.910218684647224940e-01
-9.254302302231950939e-02
-3.355718420222527504e-02
-3.196086349128854365e-02
-9.344474120098525405e-02
-2.109406984988417000e-01
-3.621802135639607401e-01
-5.136365199757202404e-01
-6.231526430417458906e-01
-6.414696718569290468e-01
-5.352137938331106293e-01
-3.269574687555331649e-01
-1.046771333739193732e-01
2.842459152908746733e-02
2.465409888847593448e-02
-8.645183639130703257e-02
-2.342107407334069469e-01
-3.486017872382048965e-01
-3.830204624050246864e-01
-3.285978576770616222e-01
-2.164059178604969547e-01
-9.739978011604734365e-02
-1.069317673940102173e-02
3.239537763979809248e-02
3.311085694959028242e-02
-1.582137879922020790e-02
-1.197950177962518736e-01
-2.483194062009541625e-01
-3.306465279726808482e-01
-3.215062573207555507e-01
-2.790060461930705116e-01
-3.124231221531973413e-01
-3.975664274338409632e-01
-3.345637715530653256e-01
-3.823831405683542767e-02
2.125984480620485284e-01
6.322014626973260221e-02
-4.256301110891544948e-01
-8.311242357187831331e-01
-8.644661948019197739e-01
-6.029705366347942741e-01
-2.903001983805867381e-01
-8.608707029403812883e-02
-9.001722916659453400e-03
-1.387765349969239531e-02
-6.965782196142092375e-02
-1.691712485450947434e-01
-2.908427889654337517e-01
-3.855615544539128803e-01
-4.113294238844732997e-01
-3.633842810986445682e-01
-2.678254296588130079e-01
-1.597898096090094866e-01
-6.494717516780071365e-02
7.476396108379322614e-03
4.824134232985141657e-02
3.458159525011096636e-02
-3.583369720496929617e-02
-1.061339357013280360e-01
-9.985974840027866950e-02
-3.906828062611965302e-03
1.139807535323687365e-01
1.692528090466713930e-01
1.315129179995742636e-01
4.211187612256731688e-02
-2.710066428928206012e-02
-3.629030125632533993e-02
-6.373152302108737316e-03
1.613595745950060709e-02
1.978126802835282125e-02
4.100558035684503944e-02
1.170928303499069456e-01
2.401652684820447248e-01
3.647053798687075465e-01
4.478000503087667394e-01
4.630160889008245184e-01
3.927009305879103351e-01
2.470624287752578585e-01
8.697842886715254074e-02
-9.765191674198342442e-03
-1.500499654936351956e-02
3.554420057352193629e-02
9.998332359396475133e-02
1.797157708948355359e-01
2.803143736730896451e-01
3.261044662602627930e-01
1.916371329316973460e-01
-9.358875713001048313e-02
-2.452572419560260231e-01
-3.448544330328849605e-02
3.272707503082538105e-01
4.002583049319572983e-01
1.082458071486592233e-01
-1.896025697986130631e-01
-1.986185639750000509e-01
1.031103607706840980e-02
1.886286391294146048e-01
2.052290310232031956e-01
1.145931478173126128e-01
3.130570405299869935e-02
1.521766670353678734e-02
6.225087248210661034e-02
1.426504465918975173e-01
2.262785235977578802e-01
2.910564574080875544e-01
3.186119831055330698e-01
2.922436671254153850e-01
2.144196956835455470e-01
1.158397391533796811e-01
3.298795015533359520e-02
-1.085968597483976880e-02
-2.637860429374142696e-03
5.838180586372067327e-02
1.546999774977077802e-01
2.583618382791365020e-01
3.310666865209675458e-01
3.183786974144574011e-01
1.842255973487376963e-01
-3.355811926310816456e-02
-2.268617505398879686e-01
-2.899755990326001731e-01
-1.924215603740865310e-01
6.320773675115208545e-03
2.094279748459584034e-01
3.531718750811832508e-01
4.236915057747754343e-01
4.233594133225583311e-01
3.534351619798355437e-01
2.284812399716635578e-01
8.675384112259133806e-02
-1.763645640963752356e-02
-3.895697097094834305e-02
2.998701613488451156e-02
1.552917725518409564e-01
2.903807236741390851e-01
3.906130358069172526e-01
4.102445236744330925e-01
3.286637278049109878e-01
1.938841674699865736e-01
9.348087961406467694e-02
3.150051745796300651e-02
-1.177436315458062488e-01
-3.938102563443043325e-01
-5.070550863724090362e-01
-1.180402738493291914e-01
5.454746146273101726e-01
7.866831384004723260e-01
3.300830922268064294e-01
-3.409158002619614436e-01
-6.605456847424322486e-01
-5.673667319225675909e-01
-3.318274641030141692e-01
-1.438172723061275360e-01
-1.077984897074624193e-02
1.027380909772338813e-01
1.869355915409794122e-01
2.204973047818840071e-01
2.048322825217271936e-01
1.460128916309770264e-01
4.794511846655927223e-02
-6.207358930664274438e-02
-1.332774566804983962e-01
-1.326419519168943462e-01
-6.613234286281528818e-02
4.816267158783797686e-02
1.932472352731806897e-01
3.155552926615812770e-01
3.223568000078990137e-01
1.775614669255306255e-01
-3.106046529268240153e-02
-1.828301084018124911e-01
-2.597384453597101350e-01
-3.352552759896170187e-01
-4.369040299951774120e-01
-4.813374015354657809e-01
-3.769792843945655170e-01
-1.541577205340781132e-01
4.261033507357102346e-02
8.504823258906560324e-02
-2.603944280600637567e-02
-1.803505898545576247e-01
-2.747622581205028114e-01
-2.802172475462256229e-01
-2.128476999490552524e-01
-9.824448052113797514e-02
2.676668053552200971e-02
1.142223819549578329e-01
1.263926636838110518e-01
5.717920750088162363e-02
-6.524472526253928539e-02
-1.955463183048039288e-01
-2.920519768957312023e-01
-3.231667414559390439e-01
-2.645968665288066513e-01
-1.148734056237142448e-01
5.898974683569339211e-02
1.038326728055911641e-01
-9.183414421665817007e-02
-3.706956916902799382e-01
-3.678014309924875214e-01
-9.034742465498835778e-03
2.665462415377342076e-01
8.051625868282923093e-02
-3.471564131345959980e-01
-5.310554293021618744e-01
-3.301748724713278738e-01
1.485191095743960965e-02
2.455325573531745298e-01
2.892259646915260607e-01
2.033726759151502361e-01
7.329960090542941842e-02
-3.392027831059875320e-02
-8.955442353067578909e-02
-9.550005935638988808e-02
-4.475703425644176475e-02
7.961780113653146862e-02
2.475370772147139631e-01
3.693274864798842261e-01
3.743646417364612788e-01
2.784546180566693230e-01
1.523466930380472095e-01
4.730743506455770131e-02
-2.415774862377866733e-02
-5.657652185461447408e-02
-3.752444493497013311e-02
3.190587284570908788e-02
1.182912071261749409e-01
1.636496432864158468e-01
1.184240112788182975e-01
-1.783533011078729247e-02
-1.822643410337981829e-01
-2.853821244790675227e-01
-2.753722110710182802e-01
-1.749453399325496816e-01
-5.507657700359839398e-02
3.306048065054352503e-02
9.661030090574140861e-02
1.654392062545277375e-01
2.299894832924548882e-01
2.361198832442004680e-01
1.467813754260988701e-01
-5.824682954527007211e-03
-1.423339402608208848e-01
-2.026089018671284880e-01
-1.790657454811115101e-01
-1.004300432854906000e-01
-6.667437424909898082e-03
6.848711770923372744e-02
1.157684749078646824e-01
1.506596736491190580e-01
1.689108314226976382e-01
9.554987765681940970e-02
-1.632132836123616204e-01
-5.281377142812117009e-01
-6.558997162526952751e-01
-2.766009846690055674e-01
3.430959828243440590e-01
6.072077683014981409e-01
3.257738776052909180e-01
-1.138096211843015876e-01
-3.205126031119634455e-01
-2.918580827118016363e-01
-2.219239156873383800e-01
-1.975975007957022078e-01
-1.655765716499143503e-01
-6.799318883196441010e-02
7.812019213938999063e-02
2.092659123039837810e-01
2.779362121623255577e-01
2.804859860996101184e-01
2.367125431435925520e-01
1.594166603467060683e-01
5.563264987475212420e-02
-4.792427139077196085e-02
-9.946365879654348041e-02
-6.064571309856058023e-02
4.607275094156696588e-02
1.440491567306779741e-01
1.692844551325997648e-01
1.259703178061596374e-01
6.616297728621292618e-02
1.478374334597242282e-02
-6.737696916001860437e-02
-2.203359735726765634e-01
-3.919039550046433673e-01
-4.551442546036524872e-01
-3.408646430399517868e-01
-1.200335439959324679e-01
7.327531530250049052e-02
1.782207282417301308e-01
2.253981348645677230e-01
2.303367638300981013e-01
1.505559145179193592e-01
-1.630891016837767576e-02
-1.749763844755997944e-01
-2.234188801932023571e-01
-1.437331178225937089e-01
1.277021737517240393e-02
1.733572721388097482e-01
2.668324695164288052e-01
2.450392408619090079e-01
1.124612432692632669e-01
-6.857278591683721447e-02
-2.128752577779121635e-01
-2.604527362688877634e-01
-2.149518898784977261e-01
-1.600371390186886011e-01
-1.992112576569446958e-01
-2.965318889187017470e-01
-2.209353162878578414e-01
1.555057201849035786e-01
5.263996563757147307e-01
4.355182243625927985e-01
-9.871828885918092211e-02
-5.835007027402334678e-01
-6.553017225677625346e-01
-3.898308602718531524e-01
-6.224426321312902938e-02
1.571639547607113219e-01
2.572823965666566348e-01
2.813714113485819568e-01
2.459019175482549113e-01
1.526595887431101695e-01
3.321579709222291510e-02
-5.559605656876054347e-02
-7.337101664054573869e-02
-1.780864534600608284e-02
8.456921131064928931e-02
1.991102063255009713e-01
2.968879300800553178e-01
3.503253532980075691e-01
3.272218432937003540e-01
2.128240768636658620e-01
4.353747190986292925e-02
-1.015866956718934760e-01
-1.593869241693460781e-01
-1.356288963926752245e-01
-9.957991384475706198e-02
-1.137213485894343901e-01
-1.575248330724325352e-01
-1.461541625539351519e-01
-4.924152787682681970e-02
4.840913722733397595e-02
4.555676717160121042e-02
-5.192138050771892555e-02
-1.453076111875017673e-01
-1.526855157879805636e-01
-7.092772038937177059e-02
5.230684517048347221e-02
1.707599324266374230e-01
2.585510581499734784e-01
2.959578119408888819e-01
2.567911724253529315e-01
1.338838033751636736e-01
-2.338240444720570549e-02
-1.325712199308947126e-01
-1.487151656237428732e-01
-8.759065015247488595e-02
1.657432290369284869e-02
1.429686530605047412e-01
2.533181210055380772e-01
2.515386097022919154e-01
5.819779370672240049e-02
-2.163897553089679793e-01
-2.904758040355189808e-01
-6.243990595868421228e-02
1.787231818619325341e-01
1.161566343070032647e-01
-1.620741419050532595e-01
-3.208212512520898230e-01
-2.184633794813092278e-01
-8.483130640374314524e-04
1.281637944659713702e-01
9.627474031595764647e-02
-2.696882779931781063e-02
-1.268819503728579601e-01
-1.362511757283624558e-01
-5.978555893469246485e-02
5.735186977705941658e-02
1.708041695379126645e-01
2.589450996896993651e-01
3.152947393018942224e-01
3.260510716135329723e-01
2.714390423873946911e-01
1.564952281974424098e-01
2.642612607963189947e-02
-5.659816322963733687e-02
-5.171886166711787275e-02
3.482719138363268158e-02
1.565397012658865938e-01
2.609535943400296265e-01
3.056462329171278913e-01
2.482350583587732695e-01
7.016919349464049993e-02
-1.707337596060805873e-01
-3.540573276332251162e-01
-3.899508652389543362e-01
-2.848380966721033025e-01
-1.110943351331200590e-01
6.472591595482050930e-02
2.064096171982100214e-01
2.863234674014709102e-01
2.812684321995598258e-01
1.955382707949921695e-01
6.712000123839553800e-02
-5.762795697411824541e-02
-1.488106438659171360e-01
-1.918675201873823455e-01
-1.774165570408911541e-01
-1.058656684357792421e-01
8.426555201088703484e-04
9.902396467272389646e-02
1.425144089493982080e-01
1.146174658045713696e-01
3.477420361388672970e-02
-9.082820148457527998e-02
-2.956724256807692908e-01
-5.390555577152655875e-01
-5.920442643661846249e-01
-2.510223437108526356e-01
2.813937823987412989e-01
5.119901462200350251e-01
2.527218491425688440e-01
-1.799160246407459640e-01
-4.139895819610059369e-01
-3.995050125639937333e-01
-3.004129827565933386e-01
-2.286765310010032692e-01
-1.678185735618868690e-01
-6.241686154586582880e-02
9.602119051887922363e-02
2.588607155962445172e-01
3.577746693783604992e-01
3.498366263709561386e-01
2.437621296961039463e-01
9.012879795524991744e-02
-5.181392338383636331e-02
-1.373481664030822835e-01
-1.428855581115296425e-01
-7.322307315534933025e-02
3.501997979030008201e-02
1.338328933063264448e-01
1.952675576367940424e-01
2.149318504078142900e-01
1.889661572495761055e-01
1.066210949040887201e-01
-3.343800686015360041e-02
-2.085362799047990323e-01
-3.646318541990455353e-01
-4.234095234597692325e-01
-3.280723100936082104e-01
-1.048458290253736491e-01
1.343532464455834408e-01
2.708110907384512767e-01
2.617906331974420020e-01
1.478277259185262205e-01
2.550694490060883418e-03
-1.114044162453145942e-01
-1.597799261623268907e-01
-1.387176131806866219e-01
-6.721682195983563757e-02
2.733789743051983495e-02
1.204299754287558033e-01
1.871988646135347434e-01
1.945760032816840346e-01
1.157568278796369948e-01
-3.383723825880233238e-02
-1.788847051587163228e-01
-2.229661143466114548e-01
-1.414087107194771098e-01
-4.283319750508547685e-02
-6.810969018901424921e-02
-1.670876528279324480e-01
-8.063826389679906725e-02
2.852869475511873310e-01
5.804949854394427788e-01
3.918216767636564790e-01
-1.837885051428752581e-01
-6.464015768402969764e-01
-6.783505204211299766e-01
-3.805418651574181688e-01
-3.263664594980059813e-02
1.791420139317010107e-01
2.368578254213856427e-01
2.219357258231713370e-01
1.993333300765842697e-01
1.648854042500620398e-01
1.016040832442680064e-01
3.900335630912071111e-02
2.663031812120699587e-02
7.672456124648463494e-02
1.534397810955712149e-01
2.140650527581778872e-01
2.506555397758733483e-01
2.722285140485569688e-01
2.545060587020385179e-01
1.572086973732259307e-01
1.505802254164058385e-03
-1.202969327793530774e-01
-1.343741764415371520e-01
-6.187533675012807377e-02
3.731912764724180237e-03
-6.187496489448994150e-03
-6.362282605359267929e-02
-8.548797724017885569e-02
-4.386036853853934880e-02
-1.418999050071621110e-03
-2.749892347264267303e-02
-1.066830080053992047e-01
-1.550640368654171430e-01
-1.169313741425438424e-01
-1.578911647673472002e-02
8.817605944912428051e-02
1.575909144549860474e-01
1.854577254783344453e-01
1.683707060260307420e-01
9.535612485766652158e-02
-3.253103254369370950e-02
-1.791789546619910189e-01
-2.845100071445256229e-01
-3.074525806433494046e-01
-2.460015423698717618e-01
-1.139835584074440911e-01
5.976226772931710063e-02
1.826394246397359533e-01
1.119039857330082210e-01
-1.710883013441447109e-01
-4.066697497615699985e-01
-2.804842498119591854e-01
1.121651356650828074e-01
2.958590546477295469e-01
4.109172916711219259e-02
-3.406428320900407036e-01
-4.447132321835444713e-01
-2.373145665856482844e-01
2.449296858506867791e-02
1.318722231556761493e-01
7.674826859044689420e-02
-3.599888125412847861e-02
-1.163651856106925064e-01
-1.266216102212890660e-01
-6.233639236965838465e-02
5.583956854161923472e-02
1.843179424350371021e-01
2.795138668264973147e-01
3.207407213495325760e-01
3.016395481859789340e-01
2.152750630350119543e-01
7.608940557046298125e-02
-5.099136876185294404e-02
-8.602171428953131471e-02
-1.695414510387509635e-02
8.691992805213447082e-02
1.632611316175471838e-01
2.096077541179245662e-01
2.254587292878387217e-01
1.648909371877507746e-01
-8.119315010330715662e-03
-2.409373076435492589e-01
-4.041214556905608490e-01
-3.992159118900016623e-01
-2.482466474575548421e-01
-6.235549559446446066e-02
6.789017555758032618e-02
1.337748471741517786e-01
1.706590738583802225e-01
1.880223274347133378e-01
1.568431315971979545e-01
6.187108620461486547e-02
-5.876505653486922831e-02
-1.428855852462738441e-01
-1.581955697290765295e-01
-1.113998458818053344e-01
-2.489812267339716612e-02
7.240001854833326422e-02
1.460759540357181863e-01
1.709313089760496895e-01
1.465962933404328927e-01
8.269816427236140188e-02
-4.709017043260545210e-02
-2.864475736433195752e-01
-5.402237252053441185e-01
-5.159335680005944225e-01
-5.854844799832535640e-02
4.955154646505934291e-01
6.257289638668370735e-01
2.693487103300091778e-01
-1.645005171611308714e-01
-3.508658519036778056e-01
-3.189922464197612051e-01
-2.349809294216131661e-01
-1.664191828017534958e-01
-8.612786219785226183e-02
1.791587734541063778e-02
1.065353955792336244e-01
1.539061043059042622e-01
1.908994587681961952e-01
2.378688368117850560e-01
2.465994222104416211e-01
1.735874852542924340e-01
5.831866173012503762e-02
-2.362489789801115042e-02
-3.425754137817556971e-02
2.289289581340308438e-02
1.182388501920837998e-01
2.047197267705138379e-01
2.479649722819368129e-01
2.449271174590278988e-01
1.983746765223613207e-01
9.682281710912818418e-02
-6.352939007063804211e-02
-2.479310336605151099e-01
-3.815308886695915613e-01
-3.872794038083952617e-01
-2.441429414073601478e-01
-1.669876054003076316e-02
1.799560294709111052e-01
2.564147063126306914e-01
2.023881594866940303e-01
7.868360419948022821e-02
-3.721128421398770675e-02
-1.031533733452816154e-01
-1.158419141844237582e-01
-7.948708642103727295e-02
1.214663034442394624e-03
1.020582546032314381e-01
1.828501768073204359e-01
2.116855918172533824e-01
1.729559262042016654e-01
6.379425700210474004e-02
-9.353256251446517844e-02
-2.350753479625182496e-01
-2.821578332425481728e-01
-2.240002746234507902e-01
-1.647355574879278417e-01
-2.072947195399090226e-01
-2.582578238492824196e-01
-1.022470353110430663e-01
2.156525052174448898e-01
3.132173067754751572e-01
-2.774893390588917610e-02
-5.307963430357778289e-01
-7.754841549391785493e-01
-6.501551287946356616e-01
-3.386056047334318753e-01
-4.943590141065934418e-02
1.326111141152394868e-01
2.180575428758566581e-01
2.294447744423707414e-01
1.703546474489097684e-01
6.423826567997158177e-02
-2.408838718640115770e-02
-4.387025986399337163e-02
-9.309959639825357222e-03
3.780540034518014431e-02
9.159757476869855031e-02
1.741053515713979205e-01
2.756206485956788632e-01
3.323239377433028774e-01
2.751769160474839548e-01
1.037337880870441986e-01
-9.270286748353488704e-02
-1.997953672379310097e-01
-1.718956904123874196e-01
-6.841206456438063410e-02
1.290591124315034616e-03
-1.704014476069595427e-02
-7.228520675241099924e-02
-7.754781428519309794e-02
-1.873531337484033582e-02
3.110870094260780386e-02
4.143380817766422614e-03
-7.732877121655139241e-02
-1.233896357541594130e-01
-7.597339953724831230e-02
3.770537355533713081e-02
1.496370159382522935e-01
2.182350823092683578e-01
2.410544330943337199e-01
2.246593080525142727e-01
1.698976535162732282e-01
8.877887943156456685e-02
9.947859419431962988e-03
-4.456974729785245781e-02
-7.078448314945789965e-02
-6.033352998811780665e-02
1.709830507966481061e-02
1.729428533897014453e-01
3.134965038415651328e-01
2.405794676886141570e-01
-1.219104267239829453e-01
-4.735481018171013856e-01
-3.755378684355227814e-01
1.144590661336772619e-01
4.100669314543191613e-01
1.894391549877123548e-01
-1.999929260224542205e-01
-2.931937839435971305e-01
-6.330203442773296718e-02
1.999631798751847767e-01
2.757655742604497306e-01
1.658772525483543925e-01
9.436359237478798845e-03
-6.016840313087304382e-02
-1.077051990204764415e-03
1.391560129976519289e-01
2.853916772612850039e-01
3.942359087092462411e-01
4.630044489256897045e-01
4.969115134893838936e-01
4.816679834322364906e-01
3.961619287829182268e-01
2.522264990985142452e-01
1.085321818940715721e-01
2.970676010595542718e-02
3.623364345988118462e-02
1.054560733319712118e-01
2.017662124347622266e-01
2.753776666514529681e-01
2.534813536928430810e-01
8.857496580853603529e-02
-1.746566857741622125e-01
-4.116822972859320862e-01
-5.081969298496498144e-01
-4.356928842788654332e-01
-2.540453902651927387e-01
-5.979375730152927670e-02
7.286654176027695939e-02
1.260892984385330040e-01
1.239640797976409720e-01
8.122602017225996618e-02
-1.190395288694199617e-02
-1.437508757049937858e-01
-2.607698825449267788e-01
-3.136662565584243390e-01
-2.928769160470883759e-01
-2.159633763881558810e-01
-1.130699730358190047e-01
-2.176006725809704473e-02
3.032711062836972171e-02
4.401473033912174648e-02
3.925148192961811638e-02
2.265184171671135588e-03
-1.560581000262208917e-01
-4.944353592801833397e-01
-8.168926969096882429e-01
-7.282220369965599627e-01
-1.543062917742085427e-01
3.876986778943920520e-01
3.810645708619797567e-01
-4.401837379765180525e-02
-3.815295560730596613e-01
-4.099982633783541552e-01
-2.893619271764779621e-01
-2.032975676180729108e-01
-1.587081830948402494e-01
-8.192352802316878180e-02
4.474935467597095096e-02
1.748136240661614105e-01
2.618348799289392237e-01
2.909856217940151035e-01
2.650676556366139969e-01
1.919746927844246664e-01
8.901839255721834265e-02
-1.515655719476006677e-02
-8.318614550778882788e-02
-7.875936463033253454e-02
3.440719555917099749e-03
1.191090253489065637e-01
2.069305385862510172e-01
2.361247682500791090e-01
2.084008702116915690e-01
1.279635411091859798e-01
-4.762867646773211866e-03
-1.726073612358743903e-01
-3.331719603680278197e-01
-4.293249175450890021e-01
-4.066726579187346924e-01
-2.478252401450893594e-01
-7.748154708373949928e-03
2.059595693877888933e-01
3.042308214595343951e-01
2.640390555421259777e-01
1.242443677996428186e-01
-3.955372615668699410e-02
-1.465853801711223814e-01
-1.492411812892421030e-01
-6.326999782589029508e-02
4.441451470954736053e-02
1.187305552134112763e-01
1.596033666170422471e-01
1.835389847117974704e-01
1.672905980934762393e-01
7.086882530477897624e-02
-8.443399622979531893e-02
-1.968015551879263303e-01
-1.734373071907115704e-01
-4.697950015607126051e-02
1.829498013653210742e-02
-1.004368980027332409e-01
-2.659657018648775018e-01
-1.672152455883200994e-01
2.223795254169745883e-01
4.638302497934887469e-01
1.959852897815706485e-01
-3.507510643443864096e-01
-6.633900660822851236e-01
-5.532916749602984074e-01
-2.260601452158665925e-01
6.263472784871385035e-02
2.190413147810625905e-01
2.661302960014415020e-01
2.421811352559142816e-01
1.726478285118501210e-01
8.487119691941305555e-02
1.064843328274526699e-02
-1.773296384490976804e-02
2.759483296520113746e-02
1.422337913436142187e-01
2.698544306673464344e-01
3.454460609962757833e-01
3.535950011202377286e-01
3.147719597024679072e-01
2.355104707788810148e-01
1.130633321784752371e-01
-2.494510068432399114e-02
-1.213695734028206602e-01
-1.356259994036413952e-01
-8.518146015455274611e-02
-3.505577023362965033e-02
-3.405953724030676838e-02
-6.718716212894934592e-02
-8.379985131652835373e-02
-6.435276332294251334e-02
-4.206619832374246248e-02
-5.554971724660842658e-02
-9.517804084344355653e-02
-1.110410924274954358e-01
-6.672630162299897361e-02
2.803054383777673145e-02
1.327751221256813774e-01
2.091687344243118585e-01
2.340743789414118925e-01
1.955502438244847707e-01
9.844844307650722770e-02
-2.522873113919565230e-02
-1.294777464379347764e-01
-1.823522331018420650e-01
-1.748742563091194580e-01
-1.090974300406666042e-01
1.064719874701737512e-02
1.633152316898077994e-01
2.670006868084650598e-01
1.745492203753589711e-01
-1.708645083869286263e-01
-5.368676309755705534e-01
-5.510565204929281924e-01
-1.846023768437087820e-01
1.361750086827929751e-01
7.572889354451160793e-02
-2.020820657967379030e-01
-3.347542948493706927e-01
-2.228109756212454384e-01
-4.013239668545114103e-02
3.993116628955090813e-02
-5.462005680405010791e-03
-9.987247422842075728e-02
-1.663576463727743926e-01
-1.626292552615318243e-01
-7.478488833799747104e-02
7.124595387595862583e-02
2.074142287307107202e-01
2.761552745436338663e-01
2.748706321929552110e-01
2.263745594425470853e-01
1.411242994008177210e-01
3.447245634595050290e-02
-5.763754956648046990e-02
-1.027958978517363314e-01
-8.623433461786264576e-02
-3.738562082043834361e-03
1.254486933140088745e-01
2.376798009927730826e-01
2.463196770215393405e-01
1.106525443621709376e-01
-1.100211170623044132e-01
-2.917146795451451280e-01
-3.473730315507315147e-01
-2.788085616239236453e-01
-1.386669346285529791e-01
2.040516442295905661e-02
1.583568478523040002e-01
2.434579626833746901e-01
2.529702030268227153e-01
1.833456719353847297e-01
6.369805376567221067e-02
-5.385896235469837118e-02
-1.288548681791619466e-01
-1.467105649537929768e-01
-1.011844161305505280e-01
6.090058531794919489e-03
1.405497578685079851e-01
2.412257522722922320e-01
2.672642105378588706e-01
2.232353747024598267e-01
1.430281621761506916e-01
5.249481022723755802e-02
-7.463481831202775640e-02
-2.834995427345740060e-01
-4.779682609781119584e-01
-3.867082618320790144e-01
9.335660571053205903e-02
5.933202306982195973e-01
6.238578018746048226e-01
1.874213491878523596e-01
-2.662485463954509246e-01
-4.234164066090437828e-01
-3.589182238948387949e-01
-2.627675725644931237e-01
-1.755369939131798396e-01
-4.637712804341598272e-02
1.099032230333410604e-01
2.245188796729674363e-01
2.763491168160998046e-01
2.898594836772928618e-01
2.658949517063378121e-01
1.852930269616804015e-01
6.298816557239694802e-02
-4.503515717293368747e-02
-8.149957326261068891e-02
-2.843740594982573783e-02
7.943903803765220428e-02
1.880579648312066254e-01
2.685008051933145401e-01
3.107857036355486935e-01
2.927268069206396817e-01
1.920449292173206091e-01
2.563035893109131408e-02
-1.481758040520621822e-01
-2.689162491108185171e-01
-3.055845725363643406e-01
-2.534453751634019869e-01
-1.208633257257889226e-01
6.104713744980581891e-02
2.229035302641857452e-01
2.835106827896558546e-01
2.132571842412457619e-01
6.487042892355611434e-02
-6.882532334497716564e-02
-1.236362284118438654e-01
-9.471053349094285534e-02
-2.155679117864398725e-02
4.959231865915627452e-02
1.009383905700051293e-01
1.434610173207482853e-01
1.770300104549957787e-01
1.621636017187760292e-01
6.164333338527435563e-02
-8.086746470323323555e-02
-1.474703903772074109e-01
-7.949761041738781508e-02
1.827791044622011432e-02
-2.272723164544034405e-02
-1.985967692056955780e-01
-2.547857296733524457e-01
1.763102222749172304e-02
4.049553982915625738e-01
4.388619878856540035e-01
3.924431565824310075e-03
-5.069041212576127498e-01
-6.871497215084964028e-01
-5.015655682731123832e-01
-1.702860233314870131e-01
1.025915499943633180e-01
2.390893122474972154e-01
2.545732957130999452e-01
1.922883992477929516e-01
8.714437140840708418e-02
-2.702760052751598113e-02
-1.043923884959422621e-01
-1.055833948335058309e-01
-2.820441284025822920e-02
8.812074880265566290e-02
1.898104305649589707e-01
2.450203529079896525e-01
2.479393595277497309e-01
1.952258530452409269e-01
8.393230804135674850e-02
-6.256196009007483627e-02
-1.881058452671989789e-01
-2.364414250289248176e-01
-1.974496019930751245e-01
-1.250390146305018491e-01
-9.109574464365241542e-02
-1.066523288670163522e-01
-1.113948500384003421e-01
-6.023148159198968982e-02
8.100541678187418715e-03
1.661731984198475467e-02
-5.200144432241049497e-02
-1.271712853683475142e-01
-1.222545998304577913e-01
-2.706957657588763069e-02
8.322327469054661975e-02
1.368567955183713492e-01
1.380911978028715736e-01
1.255220829444542163e-01
9.211708223740035228e-02
3.435111775606083939e-03
-1.212281293077395045e-01
-2.077148846379011371e-01
-2.088528639234115414e-01
-1.403279717229302115e-01
-3.109263237399169377e-02
1.070388619045412326e-01
2.221049638219961542e-01
1.799451348798486450e-01
-1.086068917174059789e-01
-4.737399678382662183e-01
-5.594595378777516004e-01
-2.740649629215515248e-01
1.129704362402685069e-02
-5.862631647326130985e-02
-3.510982536335404691e-01
-4.806478948552866948e-01
-3.123218699606016280e-01
-3.508497473991601528e-02
1.203155964909117109e-01
8.941201524947355039e-02
-3.751298227742873304e-02
-1.374266450503871251e-01
-1.501444798428214489e-01
-8.684026979826529880e-02
1.458768625647860126e-02
1.239697590817392392e-01
2.200351293403989827e-01
2.770081230689420693e-01
2.674037068638268067e-01
1.852470614822874229e-01
5.979124829318094303e-02
-6.038278687653152177e-02
-1.358770604166007201e-01
-1.473616219135640004e-01
-8.712678342804863751e-02
3.966879464469116184e-02
1.939508701303789828e-01
2.936502486127469669e-01
2.523261095913064134e-01
5.412803811071856958e-02
-2.068660862957252822e-01
-3.842472848302053712e-01
-3.928898097211004359e-01
-2.671634695257068537e-01
-1.087598707855976510e-01
1.265955647335140211e-02
9.955510965133318457e-02
1.791440024261924946e-01
2.397729186185778572e-01
2.310095267917528783e-01
1.239941486114315011e-01
-4.621881251406272095e-02
-2.025642799296174523e-01
-2.768439826638752765e-01
-2.418588231231584562e-01
-1.159033332692795959e-01
4.568260285590065861e-02
1.683798985107838042e-01
2.014726760295373897e-01
1.585311170400965364e-01
7.964812808368033903e-02
-5.920681357102242776e-02
-3.150469456440603278e-01
-5.785920091031589996e-01
-5.401050821907721344e-01
-8.123147452738961605e-02
4.153449730570398790e-01
4.691758934377136536e-01
1.099201018281936448e-01
-2.329486926677902248e-01
-3.155980114057351238e-01
-2.635921365120033055e-01
-2.552305929703409526e-01
-2.688151273201321856e-01
-1.848711540152284949e-01
6.857597212426493061e-03
2.013373218217231475e-01
3.200231330560501797e-01
3.746298669643904344e-01
4.006954901088820575e-01
3.872577158458740954e-01
3.029846627906073175e-01
1.684422374103631270e-01
5.768271606263294937e-02
2.717724007807961056e-02
7.548378169593239484e-02
1.672218907494614215e-01
2.656798434073779913e-01
3.433489003712297816e-01
3.783343813640844822e-01
3.460993633762162180e-01
2.242481984434361308e-01
2.223605624257175839e-02
-1.941947490760408679e-01
-3.280355995549994463e-01
-3.117056560288192779e-01
-1.461300959338585614e-01
1.000990575790249859e-01
3.183899350626610558e-01
4.143653799238762314e-01
3.616817961853169283e-01
2.069758733760650171e-01
3.135674598320826317e-02
-9.057915230707708210e-02
-1.169847716357220735e-01
-4.707181070237248521e-02
8.652733447068886030e-02
2.317308954203243787e-01
3.380774945140238574e-01
3.769296931012141028e-01
3.377882641048164936e-01
2.182239787474741788e-01
4.795084293300814343e-02
-8.246076419745777819e-02
-7.825091116858731710e-02
2.047626634794730283e-02
1.452244473005314881e-02
-1.920152711312924643e-01
-3.162453333359153684e-01
2.466506458444375771e-02
6.521132988759591465e-01
8.621801171971696931e-01
3.386484862987160227e-01
-4.148968920635758284e-01
-7.533846666010740600e-01
-5.844439736585231859e-01
-2.375687932186248685e-01
1.538248163291784654e-02
1.343067006853559398e-01
1.844501088406060862e-01
2.051120575806391066e-01
1.902425232889083384e-01
1.273354710927230016e-01
3.195950216987027137e-02
-4.959538952116119420e-02
-6.970993015306015117e-02
-1.468133844418122169e-02
8.883453719235316626e-02
2.015300771565450844e-01
2.934283465948717695e-01
3.301272199572967136e-01
2.669632807708017808e-01
1.021163102449054172e-01
-7.757129040726473690e-02
-1.643878777701992810e-01
-1.530614543013919249e-01
-1.456005804137763537e-01
-2.131153322409161943e-01
-2.947073101212961954e-01
-2.729139956621342011e-01
-1.299222933671439484e-01
1.780201837328932238e-02
4.394184350357378116e-02
-6.107325432518104918e-02
-1.968371452687615597e-01
-2.627948960208123519e-01
-2.381503139213969888e-01
-1.620240210888841403e-01
-7.564035869644322729e-02
-3.631943021203549223e-03
3.688535754863885713e-02
3.608519489920369860e-02
-8.267007596490783677e-03
-9.611076106225439897e-02
-2.143708681408735828e-01
-3.198956061751078161e-01
-3.543898535190000976e-01
-2.843550780311177029e-01
-1.223241311398929193e-01
6.880685878261307009e-02
1.617223607518392670e-01
1.425162515504080699e-02
-3.301440811793651120e-01
-5.265999701265579036e-01
-2.788502466246534639e-01
1.759493824500936165e-01
2.899840825808189249e-01
-5.748769234230569763e-02
-4.312642809559571466e-01
-4.525687568551161055e-01
-1.913555555256607477e-01
5.865661670283485452e-02
1.265407502969884690e-01
3.302925242007807155e-02
-1.161769084470486019e-01
-2.138505472083896408e-01
-1.956140466626953289e-01
-7.535828849526896023e-02
7.029267864370446206e-02
1.783497694848989457e-01
2.477540284363384526e-01
2.974286931106724929e-01
3.034345617151843477e-01
2.169056447854723901e-01
4.299027235168029898e-02
-1.339323693068077414e-01
-2.194472758709891114e-01
-1.846673577044650183e-01
-6.716911563376234962e-02
7.471809150582803261e-02
1.877226339866654992e-01
2.210108725729113266e-01
1.352069895151913892e-01
-6.062841643825594290e-02
-2.886794257772026806e-01
-4.436370598670645871e-01
-4.588587804421824790e-01
-3.261849588782516074e-01
-8.079638480166889680e-02
1.915932959737232377e-01
3.665796892426094189e-01
3.737753303069598076e-01
2.624506816949624954e-01
1.271637193648942898e-01
7.960017277297306432e-03
-1.004696349931132882e-01
-1.904173188620399970e-01
-2.292971883062151217e-01
-1.890144856600385059e-01
-7.547856765787201716e-02
6.496068682546156381e-02
1.675503992989763324e-01
1.862536658535477452e-01
1.230698388644860530e-01
2.616223409630943561e-02
-5.906737212242034463e-02
-1.550828387902297711e-01
-3.272934908021206124e-01
-5.139417711633831320e-01
-4.455468418522469110e-01
3.341897189921617245e-02
5.833635133161300113e-01
6.632321794412510130e-01
2.172925986204701509e-01
-2.909045661307839703e-01
-4.875410864782073750e-01
-4.026139123123008146e-01
-2.345944172936084704e-01
-7.951771123446663148e-02
7.227035920604128749e-02
2.232923061255346620e-01
3.395957226702033815e-01
3.942046289326591735e-01
3.814857554642072657e-01
2.997317163699407816e-01
1.625554544747301600e-01
2.548566216319222630e-02
-3.704010400442725448e-02
3.784435682812628543e-03
1.055228451512320725e-01
2.037970887878652604e-01
2.727476212191264904e-01
3.174157710042910252e-01
3.236165430439297275e-01
2.584590457095900518e-01
1.229880814434963776e-01
-3.282442987601370821e-02
-1.571884003325464962e-01
-2.346716726346310400e-01
-2.655436665922230599e-01
-2.264628106555233444e-01
-8.831087578122442938e-02
1.141888244493288740e-01
2.677025512414707431e-01
2.710545263477052158e-01
1.287535537260793284e-01
-6.013493420781514109e-02
-1.865645573496458876e-01
-1.954936379229554322e-01
-9.654229868242117374e-02
5.557368210234246014e-02
1.953710926750391597e-01
2.817855574270738406e-01
3.054038331517123783e-01
2.688113073815441290e-01
1.736190051495760667e-01
3.034924731301345477e-02
-1.199861557157570341e-01
-2.023667851809600460e-01
-1.484612294175911285e-01
3.576540518329937579e-02
2.298325854893677467e-01
2.508338306763480130e-01
3.610935966007718795e-02
-1.924682404221922383e-01
-1.184966768176173441e-01
2.051693193548357885e-01
3.360160719588506373e-01
4.259416818815946887e-02
-3.723108134311997608e-01
-4.979904940595004104e-01
-2.853906892451651411e-01
2.519833830118668044e-02
2.244033011135901368e-01
2.629079578377545023e-01
1.845808308603666403e-01
5.197757374091209470e-02
-7.520068525752672539e-02
-1.472026297239619752e-01
-1.388106469027578227e-01
-6.240639550137329350e-02
4.423063519536393762e-02
1.529939065454710145e-01
2.536371677224225074e-01
3.208274612102795520e-01
3.066617617306804378e-01
1.907651659245234166e-01
1.824334773866454276e-02
-1.282983779225494447e-01
-1.830996140799301675e-01
-1.303908629674181419e-01
-1.545240443687304066e-02
7.221721377081388726e-02
5.757423784449385018e-02
-5.733794893278710419e-02
-1.947966485066488507e-01
-2.722009881208731774e-01
-2.681042783721407363e-01
-2.167115750890652170e-01
-1.509536429598618279e-01
-7.545914876420414807e-02
5.039986663891729557e-03
7.138784018388187602e-02
1.177521546288366888e-01
1.499170441775387885e-01
1.460973842772766151e-01
6.991176311922545072e-02
-6.871870654883556473e-02
-2.074431805675579499e-01
-2.848831593889932789e-01
-2.713508922025805736e-01
-1.691084899267033259e-01
-1.823473785470304878e-02
1.182662017700886609e-01
2.023350134846514381e-01
2.259842816420381262e-01
1.519602452904747214e-01
-7.974251299160593776e-02
-4.001028147301805005e-01
-5.277263482000733585e-01
-2.395845476650645678e-01
2.544853793565779454e-01
4.711281297777527022e-01
2.435677526964931672e-01
-1.176223597421443834e-01
-2.752216655072109441e-01
-2.158046269627660052e-01
-1.243392526168476397e-01
-1.120597060203436246e-01
-1.462848639716303467e-01
-1.533181381199490434e-01
-1.021813166188711430e-01
-7.181181337683692663e-03
9.517074197875535768e-02
1.672336921703654333e-01
1.888469931924837142e-01
1.582156982538004963e-01
8.125601277886114471e-02
-2.490891038694214438e-02
-1.202292877851467712e-01
-1.522342762612136913e-01
-9.697204734676639903e-02
8.544637298679625195e-03
9.397401205351937903e-02
1.226638887455705762e-01
1.097826058297366320e-01
6.670267493452496088e-02
-3.943482716935862997e-02
-2.356279474036307719e-01
-4.614469760839489676e-01
-5.800199953370208661e-01
-4.934430313864374695e-01
-2.367549691098664311e-01
4.992149498785252576e-02
2.337170015139596324e-01
2.701230725698979263e-01
1.945868141848739741e-01
7.102241117209430465e-02
-4.541386222414543761e-02
-1.242648757786679048e-01
-1.563539109255227266e-01
-1.372600170005644216e-01
-6.583410114566079496e-02
3.902200123263743076e-02
1.354749655564103650e-01
1.713927511810701132e-01
1.017197328533699652e-01
-6.351218925767385115e-02
-2.216062810111477377e-01
-2.560991069879530735e-01
-1.773798759799002367e-01
-1.344560437386027318e-01
-2.419887237266669933e-01
-3.810495948972588698e-01
-2.567441913952255850e-01
2.020229010337452891e-01
5.980688784645193934e-01
4.834840516748495354e-01
-5.883034881665587246e-02
-5.290388108185319904e-01
-6.101583808888400018e-01
-4.041805115690812467e-01
-1.551869212039098112e-01
3.319050223878573097e-02
1.874906487616294914e-01
3.199986119818220009e-01
3.865041886693982298e-01
3.526147041990911335e-01
2.390577471905165896e-01
9.807148846606261738e-02
-2.266675915769252384e-02
-8.405397351863157229e-02
-5.644245122997255254e-02
5.158079233379602585e-02
1.815371948150410752e-01
2.720805902752164718e-01
3.021690612940906573e-01
2.717064778586730234e-01
1.811759682718441788e-01
5.491801724616200003e-02
-5.850706035510193359e-02
-1.302617696555621596e-01
-1.678583546881210475e-01
-1.871579155659117422e-01
-1.887152715558323979e-01
-1.528527550161230264e-01
-5.669468657164448977e-02
7.491606529346236942e-02
1.520175974048600109e-01
1.046400451568873097e-01
-2.647888507250059989e-02
-1.262789761457217830e-01
-1.227731667774132340e-01
-3.864438197012795562e-02
7.040789819414655648e-02
1.883387299575387530e-01
3.118957424859000738e-01
3.831172710460841180e-01
3.264546115878329546e-01
1.553060929172674076e-01
-2.485341669954858196e-02
-1.243107759587898098e-01
-1.310193396639078856e-01
-6.689349406005420939e-02
6.617367599550905144e-02
2.526102245120522838e-01
3.769866494489528819e-01
2.642803299622623059e-01
-6.540770971720655247e-02
-2.553420576851800350e-01
-6.806199365267051604e-03
4.068062874146035623e-01
4.245608558706516766e-01
-1.111583053284630196e-02
-3.960364126935613238e-01
-3.626268691709469971e-01
-3.559933279286535412e-02
2.649851114357087978e-01
3.687384350194254923e-01
3.005942064687182058e-01
1.668777558017581208e-01
5.779588434385511675e-02
1.712420776560021063e-02
5.592941034494625097e-02
1.603561757435215396e-01
2.866447005896704536e-01
3.776580229626695928e-01
3.986786374996660332e-01
3.538764941122242713e-01
2.699152581977929954e-01
1.685979638596121766e-01
5.978246949000307064e-02
-3.693994039267809587e-02
-8.055895972033204344e-02
-4.356497477607504387e-02
4.274469300546630823e-02
9.910896753945623583e-02
6.263753313586990779e-02
-6.443345544626029320e-02
-2.193871592803193216e-01
-3.172791149300174807e-01
-3.093326277972379135e-01
-2.322535429596757073e-01
-1.692035957665700974e-01
-1.404950941977254897e-01
-8.559945828630596831e-02
2.613705259613484377e-02
1.331327507341021621e-01
1.559829057213681369e-01
8.169777453778934162e-02
-4.482135198885361937e-02
-1.720612869519693167e-01
-2.637066948272121514e-01
-2.944746811576616219e-01
-2.536594604937393305e-01
-1.569499310938736736e-01
-4.293163178171470473e-02
5.121152326040721153e-02
1.128536612542605511e-01
1.414953619467826940e-01
9.204263595278119880e-02
-1.341190557440122832e-01
-5.183814863990486854e-01
-7.400730970814231036e-01
-4.399328434222504747e-01
2.058084007251133885e-01
5.507341113188169990e-01
2.965006899093134418e-01
-1.670618071053877052e-01
-3.680382590325710912e-01
-2.877816605578499831e-01
-1.826324067208240920e-01
-1.860181628703930223e-01
-2.249009110607317341e-01
-1.869543707628371632e-01
-5.465822184088578450e-02
1.005066541499786137e-01
2.003901002783113894e-01
2.260736961942904077e-01
2.127407062330373133e-01
1.901286459502021797e-01
1.460778228557651215e-01
5.922566253160719413e-02
-4.777193755715285206e-02
-1.094138239226900566e-01
-7.506802278074770074e-02
4.257287258982229289e-02
1.807126687710278456e-01
2.800960113131203966e-01
3.106018944048526409e-01
2.524582404167571847e-01
9.312648578102838970e-02
-1.375189327589705912e-01
-3.571627399549975879e-01
-4.760156854628201928e-01
-4.426890093346231847e-01
-2.641194551120232825e-01
-1.590781698515767242e-02
1.843774065239855986e-01
2.541086238809490139e-01
1.961247107413645607e-01
7.071749263632193250e-02
-5.709130057420793575e-02
-1.399912377954905529e-01
-1.564379396689320190e-01
-1.182895912686710432e-01
-5.440127096859178474e-02
1.808095640685021890e-02
9.061427772380364898e-02
1.405799565923810945e-01
1.350163515315777885e-01
5.676850866961689196e-02
-7.649056423713845865e-02
-2.045991153618702818e-01
-2.437301470001761727e-01
-1.642530441468553482e-01
-7.250804354763089321e-02
-1.316167544441665949e-01
-3.021740358695044759e-01
-2.725712484110865419e-01
1.190894098130858558e-01
5.072468363802881131e-01
3.988284360601819234e-01
-1.508026686789840920e-01
-6.247637022354749492e-01
-6.831379640162785760e-01
-4.167408671588388458e-01
-8.972607766158412212e-02
1.329723255562575701e-01
2.337249011977247937e-01
2.543905936141263036e-01
2.173808859350506995e-01
1.298093974539549500e-01
2.561262617144975315e-02
-4.118635010028910692e-02
-4.138557410080108412e-02
1.755194698496551770e-02
1.137669441856660885e-01
2.204779798416172387e-01
3.034709121731818948e-01
3.322007937289903068e-01
2.940490987577451532e-01
1.964702725039815523e-01
6.864861385358664303e-02
-4.007361466489655494e-02
-8.611772411888390932e-02
-6.791311211605971510e-02
-2.939298162051483601e-02
-1.488996670247765344e-02
-1.758885622677484536e-02
6.432701064783761559e-03
6.315887479087427259e-02
9.492647076649037008e-02
5.346403553754491139e-02
-3.241541679052371838e-02
-8.813456657352192192e-02
-7.050001834480505714e-02
7.642539663047542495e-03
1.111891025066873012e-01
2.133057059900551888e-01
2.913023363031577162e-01
3.143504708293511363e-01
2.566804781109325306e-01
1.264362078087468699e-01
-2.732626258898742527e-02
-1.411095980934499172e-01
-1.728302860352260717e-01
-1.227869962282965299e-01
-2.514490876426287227e-02
8.750529680940653809e-02
1.891961757262039800e-01
2.039872869592204707e-01
1.987349024369099160e-02
-3.167941466376409387e-01
-4.912899586511071393e-01
-2.527083216345941130e-01
1.651432174039645095e-01
2.838940215654309762e-01
2.455399909143709397e-02
-2.412672268090374217e-01
-2.358519982997947795e-01
-5.219637138886175365e-02
7.793251489378964780e-02
5.898511776221834757e-02
-4.531065426036026689e-02
-1.331383558817572643e-01
-1.498267721371783767e-01
-9.209594871196009891e-02
2.464761989592263378e-02
1.801318921102114390e-01
3.236688039276150453e-01
3.745577657537765837e-01
2.966301454348808098e-01
1.425373435305866965e-01
-6.494617924160520084e-03
-1.005937467452036049e-01
-1.195693396946142101e-01
-7.075538184558043120e-02
9.830637394646861774e-03
8.893537211950655608e-02
1.584814200872676493e-01
2.029205324410244815e-01
1.655400373978463957e-01
-6.655585672883953738e-03
-2.743681569259655562e-01
-4.977016299684093870e-01
-5.453532930747904128e-01
-4.059177005618012091e-01
-1.815737429492461363e-01
1.405478923953678780e-02
1.353603716073088215e-01
1.932041608800856847e-01
1.974220102556489831e-01
1.380978927736087880e-01
2.042740754209648388e-02
-1.107211606231879031e-01
-1.974503720704101628e-01
-2.094795992760222492e-01
-1.546375914569309562e-01
-6.263879547714930329e-02
3.676055446022297862e-02
1.224989891815483761e-01
1.734923084182889153e-01
1.680412303031367516e-01
1.016623933472805413e-01
-1.574555831308725382e-02
-1.909907594202960301e-01
-4.178008233706341223e-01
-5.585922233667097725e-01
-3.687946977924468905e-01
1.705277617934496948e-01
6.444529625051119703e-01
6.045340937459622310e-01
1.061817577131414503e-01
-3.944860252686406832e-01
-5.760270253069882385e-01
-4.839906459013276763e-01
-3.235862970887048440e-01
-2.027183959696921556e-01
-9.630043611371363887e-02
3.301828399344715337e-02
1.581313394917628623e-01
2.238571671209896585e-01
2.056476548616596733e-01
1.176131514555450175e-01
-5.513025271313646419e-03
-1.171699190237111693e-01
-1.699131140865570433e-01
-1.416395506312703167e-01
-5.311376309699084031e-02
5.295083683989336432e-02
1.495453189614059653e-01
2.242446817343181353e-01
2.477943981887918423e-01
1.848108930418937146e-01
4.790390395205250396e-02
-1.000680208264925625e-01
-2.183190651518725212e-01
-3.162380598917908237e-01
-3.843249955427038289e-01
-3.592854154007840695e-01
-2.065592489430123913e-01
3.514324037305678605e-03
1.497895251363574876e-01
1.750644105185738542e-01
1.157259424579150930e-01
3.478130323132874735e-02
-3.109697868706406965e-02
-6.188114981264548897e-02
-3.817927324342763190e-02
4.264911805951291518e-02
1.505526046270226903e-01
2.463086089352195529e-01
3.177239973142476637e-01
3.648373041112412674e-01
3.568339363399181119e-01
2.525851067327808397e-01
7.034883363469848772e-02
-9.629533017763100555e-02
-1.323679389666564121e-01
9.621727548678023212e-03
2.102495546181602504e-01
2.186836292688215111e-01
-4.501813854959939298e-02
-2.481956874527336265e-01
-9.601800390416605907e-03
4.632007429077339977e-01
5.403992674948708830e-01
5.602277369737719559e-02
-4.589391806066608348e-01
-5.065268654698027451e-01
-1.552728423027585070e-01
2.162791938239854161e-01
3.819163872491563305e-01
3.713828554144759098e-01
2.968812627464406106e-01
2.163318357163944161e-01
1.384646237559529758e-01
7.658390401309504714e-02
6.340685671185952721e-02
1.218977112999147239e-01
2.299522543816534814e-01
3.256592465772094602e-01
3.587848044913022338e-01
3.252440557470986371e-01
2.432422775050890329e-01
1.245712685806080605e-01
-8.114790823729726987e-03
-1.033538888052501770e-01
-1.152101727870507020e-01
-5.525750810772163402e-02
5.162352109495119828e-03
-3.659665169908659504e-03
-8.531039913655263929e-02
-1.835014271780901485e-01
-2.466387547422620730e-01
-2.695054570819470641e-01
-2.779846472616680497e-01
-2.896998823928758626e-01
-2.884502250780025534e-01
-2.370695690739161587e-01
-1.235080422727457411e-01
1.536052280513034232e-02
1.265615830629752137e-01
1.797735424111603919e-01
1.633283049790315578e-01
7.313142020696121459e-02
-6.902995126782560109e-02
-2.045189382356773222e-01
-2.679940945648803252e-01
-2.310816792393923236e-01
-1.195943996592788439e-01
8.927543042371128765e-03
1.129593426027920428e-01
1.897406541285907300e-01
2.215489874769275835e-01
1.069014813726910235e-01
-2.425492153220959457e-01
-6.496315872780072942e-01
-6.930761633885330619e-01
-2.327304588299305144e-01
2.676057791544024789e-01
2.932891345048466714e-01
-4.773885875360798364e-02
-2.688359034597870290e-01
-1.908253861499797366e-01
-3.889178657675229633e-02
-2.520246581406353562e-02
-1.187873519958875523e-01
-1.781396218167701218e-01
-1.353311186429373425e-01
-2.579902413329725544e-02
8.695371329500967139e-02
1.753005874477543413e-01
2.438319320415629488e-01
2.827375877019337458e-01
2.511270155930273029e-01
1.267834264304706360e-01
-3.510737303282610022e-02
-1.270128829558833383e-01
-9.462211947308017679e-02
8.205387887988666723e-03
9.508854083388473821e-02
1.428454460573683749e-01
1.813923321667964550e-01
2.210914050632860062e-01
2.225916557934802253e-01
1.328800232416025018e-01
-5.908985659308975402e-02
-2.967685148143357488e-01
-4.732830195636212878e-01
-4.862167995866473191e-01
-3.143203889151467978e-01
-5.291989334161942976e-02
1.551567267983304799e-01
2.360861009489007567e-01
2.153784258097360682e-01
1.438450703737534087e-01
3.943514257695433789e-02
-8.679047947645118777e-02
-1.899929300839315605e-01
-2.114484631926293323e-01
-1.337722249714290157e-01
2.729513899400754645e-04
1.270239441758945764e-01
2.063536808986961013e-01
2.200198293675733885e-01
1.532286881374163856e-01
1.073078765901655865e-02
-1.533060150500287766e-01
-2.462666979061726158e-01
-2.082268281490539941e-01
-1.036797331272700934e-01
-1.049199765826145381e-01
-2.701962406460755028e-01
-3.514990871607733824e-01
-6.020900683416333110e-02
4.177705374156297502e-01
5.251511711631334789e-01
7.334859603168841780e-02
-4.979472187516947868e-01
-6.965999849890340823e-01
-4.784515589519813816e-01
-1.203227701339708300e-01
1.434555057672857459e-01
2.648782654835278305e-01
2.903872073115868480e-01
2.501734983609232299e-01
1.567422436071223835e-01
4.743901499780373010e-02
-2.735545739321983139e-02
-4.467172346138338634e-02
-1.133986509491901121e-02
5.821164963988326169e-02
1.480274266969230645e-01
2.364219159285432803e-01
2.993747685391360824e-01
3.135600669995244894e-01
2.564204926078618163e-01
1.246677489226374475e-01
-3.639985919183882229e-02
-1.443006791582764070e-01
-1.420424628032349035e-01
-5.032476600897447389e-02
4.570633977884212829e-02
6.711083482270079059e-02
7.424672716730086955e-03
-6.982113185960875379e-02
-9.887690093704434857e-02
-7.295281347797559490e-02
-3.821454875628728376e-02
-3.112033158881540376e-02
-3.101607282888871678e-02
1.317909176497102097e-02
1.136957936845598566e-01
2.213070578718472625e-01
2.744933747877747465e-01
2.496909154055406144e-01
1.602312258330914896e-01
3.529348753188130128e-02
-8.590403789648992650e-02
-1.589103086162046152e-01
-1.558649703701197320e-01
-8.893755655917166825e-02
-7.757434542620227080e-04
8.220320130640673684e-02
1.748893453290984168e-01
2.811350471384163607e-01
3.171491141375100131e-01
1.436452484451324896e-01
-2.506143931372271094e-01
-5.981983450308631101e-01
-5.396433249905953078e-01
-8.076736341366270999e-02
3.173334505282834339e-01
2.864390722054678262e-01
-1.951261044896746011e-02
-2.178922799143728772e-01
-1.892075384794489334e-01
-1.005034939854020926e-01
-1.014956445151354719e-01
-1.617046450759910825e-01
-1.683975204197020181e-01
-7.799853116164692790e-02
6.131763273799559211e-02
1.887962523855472863e-01
2.818533607944057051e-01
3.331575944804872624e-01
3.220274238958416579e-01
2.328869025277167104e-01
8.607210058094634519e-02
-6.438020090320334399e-02
-1.579071802958532666e-01
-1.578537400531576651e-01
-7.547073897177239421e-02
3.655043577831657703e-02
1.292302575841426659e-01
1.866786233409518103e-01
2.017059984089838720e-01
1.495231028365610337e-01
7.927280038439819126e-03
-2.019767582519932658e-01
-4.002105512311042723e-01
-4.831373720605329214e-01
-3.951310254151178536e-01
-1.747742396829538025e-01
6.997914873643150402e-02
2.346474319828719957e-01
2.767044416283414021e-01
2.172419439304075772e-01
1.024270261805953208e-01
-2.541713918946036932e-02
-1.290277569592579998e-01
-1.717095595237700112e-01
-1.294655163093472450e-01
-1.475053383399267497e-02
1.230122109052233514e-01
2.333293552357139089e-01
2.886054478987086780e-01
2.693169172196400729e-01
1.629667174375342142e-01
2.462057078325117360e-03
-1.230227129916451750e-01
-1.385493890959877405e-01
-7.675946203158647008e-02
-6.688516218478064712e-02
-1.686957444415715934e-01
-2.220426751571384916e-01
-6.679165993531827918e-03
3.764955055667299488e-01
5.001966170115308419e-01
1.328709572175741649e-01
-4.460654041054492591e-01
-7.747849186944079092e-01
-6.736159103925422054e-01
-3.176624491151048835e-01
1.686378827122150120e-02
2.013039732468838161e-01
2.765910391316572792e-01
3.028853393083850154e-01
2.700962213729474204e-01
1.578110906561023818e-01
7.858997578795958588e-03
-1.000255184742841474e-01
-1.161035636219455713e-01
-4.593097799813170012e-02
7.206911406179571100e-02
1.948057567791511846e-01
2.828594470540719552e-01
3.012708916787099067e-01
2.349285349239745302e-01
1.076622003698816665e-01
-2.346611139863512968e-02
-1.031800988927770862e-01
-1.165013297497512756e-01
-9.507541535112720710e-02
-8.236574710758179374e-02
-8.997368179785478204e-02
-8.888422218830173416e-02
-5.032399943747715987e-02
7.540894176463686788e-03
3.219335229635428980e-02
-1.245063431656165051e-03
-6.022917034805000402e-02
-8.965249072835622390e-02
-5.711383339075324500e-02
3.546787618528889074e-02
1.565749979326065411e-01
2.545149048609113840e-01
2.870871897517232596e-01
2.458662281294183849e-01
1.441538302284212647e-01
7.551006324366758143e-03
-1.154569144044211015e-01
-1.728993380748731212e-01
-1.517765308831122151e-01
-7.698910751805750075e-02
2.978365633147286168e-02
1.607544140629490470e-01
2.774162363020803435e-01
2.740470355453604734e-01
4.909702018935462042e-02
-3.116199062808190368e-01
-4.833023646614841295e-01
-2.371543164271004422e-01
1.843080185635538604e-01
3.109034501382922366e-01
5.590329545229401342e-02
-2.257535231663217457e-01
-2.492502807522597452e-01
-8.246661770761012922e-02
5.354348635519996791e-02
5.198133581125773811e-02
-3.647233900941333068e-02
-1.127453236037939677e-01
-1.229671968538763038e-01
-6.954918988690511616e-02
2.474292192324385395e-02
1.384448837972837854e-01
2.425045190416535157e-01
2.910669042772969228e-01
2.419323917561134463e-01
1.004184354982378402e-01
-6.451342607382959393e-02
-1.694557435263176481e-01
-1.838448894243077669e-01
-1.340057555553288704e-01
-4.939854384493755357e-02
6.124443544325891553e-02
1.724056475709232483e-01
2.147641067822698424e-01
1.197303120937285997e-01
-1.019071273390757260e-01
-3.407701102738052712e-01
-4.659768109326567487e-01
-4.240561168689857552e-01
-2.643800969128221601e-01
-8.221950264565260069e-02
5.723931208117503944e-02
1.462244943410799247e-01
1.977706047488936303e-01
2.024774925917742219e-01
1.366993442662963743e-01
2.192493194510057586e-03
-1.552601852358425627e-01
-2.609609963171705127e-01
-2.552405020154655535e-01
-1.469970482982236870e-01
-9.988917378771602559e-03
9.339371827037189211e-02
1.514065674368763048e-01
1.560810598033637309e-01
8.485882822475748766e-02
-3.962189733025758137e-02
-1.399181263351636506e-01
-1.867648120470754014e-01
-2.623082134544726385e-01
-4.303264926740677510e-01
-5.423169426421053929e-01
-3.373862051269140294e-01
