-7.359623619060405575e-02
-6.242399952810292335e-02
-5.827602005791622519e-02
-6.882753738849349545e-02
-7.305847080330254983e-02
-4.734740235965392841e-02
2.540875014991720270e-03
3.120522826225489987e-02
-1.797490900515746892e-02
-1.395657517680657933e-01
-2.017073546306545340e-01
-2.125201336246947473e-02
3.828271948369034172e-01
6.606515521683731240e-01
4.843761689990722097e-01
2.203744862792644810e-02
-2.374727352383904921e-01
-1.171679661453318422e-01
1.091972267324102241e-01
1.677887165984470186e-01
7.138053032375814289e-02
-3.361698470202593991e-02
-8.097495924127098843e-02
-9.753000973086482783e-02
-1.166044755235981223e-01
-1.403098222111081594e-01
-1.609812697135263315e-01
-1.853645014854366779e-01
-2.219535094184614810e-01
-2.498379866352119227e-01
-2.293693581871819320e-01
-1.606872342971015222e-01
-1.099052045811243633e-01
-1.422490735937454176e-01
-2.276698949153711793e-01
-2.587132255594633556e-01
-1.882392260230975056e-01
-9.797464995062600546e-02
-8.821366587914554469e-02
-1.531985165348497546e-01
-2.149036766642631047e-01
-2.305442360123793888e-01
-2.162163523723961700e-01
-1.981922859558274963e-01
-1.822994375510209597e-01
-1.575737018043366355e-01
-1.140070425813553417e-01
-6.434160711143131761e-02
-3.980985747536788105e-02
-5.491777623248212531e-02
-9.446473203782859707e-02
-1.372993114858674923e-01
-1.685106866158506134e-01
-1.689728150605224744e-01
-1.195755319160761165e-01
-2.708981375162887104e-02
6.611291848058757636e-02
1.141436744781330614e-01
1.107405522716976287e-01
8.334022451511804985e-02
4.211117284934411120e-02
-2.131046937010992043e-02
-5.151618726285606131e-02
8.607625365839557952e-02
4.201834359560782661e-01
7.015818243308615809e-01
6.163318509975919124e-01
2.129344563103813814e-01
-1.112121273537539368e-01
-1.006388163197330377e-01
1.076907546375579783e-01
2.448013415510741642e-01
2.161649356537160838e-01
1.155281445928025841e-01
6.092791237710111496e-02
7.671758483560491004e-02
9.939973258407090728e-02
4.926611576954104815e-02
-9.772322660507767877e-02
-2.722297938000278750e-01
-3.530642285637122235e-01
-2.806880151552618718e-01
-1.204337383026702069e-01
1.425436867974095440e-02
7.654601331790589214e-02
9.043134110577250029e-02
8.225103527320171137e-02
6.396009971280093576e-02
5.306116009517505838e-02
5.607019157916229291e-02
5.088433288256010573e-02
1.765463161479187762e-02
-2.785579818232325824e-02
-4.944040398699493105e-02
-2.845062678638258374e-02
2.397105344008811784e-02
8.204198018469768816e-02
1.207510818373010580e-01
1.250686550355186721e-01
9.731860224554518546e-02
5.638602477971121907e-02
2.539532414108319758e-02
1.661451780980729986e-02
2.699532561768017147e-02
4.803044791038785927e-02
7.683689835998716577e-02
1.158073607470331279e-01
1.617662925295076104e-01
1.958213443180538138e-01
1.924935471000447373e-01
1.475688613143900929e-01
8.713058984529434281e-02
3.737764891645840859e-02
-5.660122077029617130e-03
-5.455762320668870041e-02
-6.432787559587839488e-02
7.527552260798954509e-02
3.861825567451949714e-01
6.399647840709140612e-01
5.351501020674677145e-01
1.086522397584876454e-01
-2.507656104890066406e-01
-2.738768788937032128e-01
-7.300477147472482498e-02
9.359155592125419088e-02
1.181483147987818505e-01
7.384264471499170368e-02
6.503813446392144038e-02
1.000451426063581895e-01
9.941317925134844635e-02
4.190543890900326300e-03
-1.479693735548827938e-01
-2.615465921230322177e-01
-2.758779954078053320e-01
-2.020921045845626152e-01
-9.324662829163822553e-02
-4.578002381228525597e-03
2.962986387967595989e-02
4.783425070297407655e-03
-5.397953532590402809e-02
-1.035241728640210745e-01
-1.147320579892034398e-01
-1.013961323745263543e-01
-1.065919315134025991e-01
-1.544147222078949555e-01
-2.186338640915989340e-01
-2.413361508263878463e-01
-1.868960938603148603e-01
-8.521174908458135910e-02
-9.403114542635187395e-03
3.726733079928587922e-03
-1.790962756282677912e-02
-4.353886145990300965e-02
-7.500483650284740789e-02
-1.065637755164186989e-01
-1.071800514188215175e-01
-6.345038575170269812e-02
-4.176395832265732307e-03
3.673173476485833838e-02
5.709297880928976276e-02
6.541278431864216980e-02
4.962194531568089179e-02
-3.027857173962426179e-03
-7.054001515724993288e-02
-1.092389195313891587e-01
-1.059192325808440416e-01
-9.951901774761064134e-02
-1.222770116451371014e-01
-1.084362639547640506e-01
7.801140915380078145e-02
4.319065277620891541e-01
6.707252927988192059e-01
4.993556419970346383e-01
2.351643172990090791e-02
-3.234958403673003358e-01
-2.914501199585118885e-01
-3.751717497411116015e-02
1.543585442366849636e-01
1.768045504684241098e-01
1.013268392249285915e-01
2.168664843129599132e-02
-3.636738370304304357e-02
-9.876675945764906706e-02
-1.910345854727460990e-01
-3.016263197252834760e-01
-3.762897782514258438e-01
-3.465804119992322851e-01
-1.901614855507224866e-01
2.000545055439463885e-02
1.559304455991042115e-01
1.450593658287886722e-01
2.559391751690077293e-02
-9.985760843608550152e-02
-1.488870905738078343e-01
-1.159326146326063872e-01
-6.286166769841686208e-02
-5.329932632960147215e-02
-9.221690828426881703e-02
-1.278608001463617805e-01
-1.166091375658167423e-01
-7.528510110099660702e-02
-5.195855821214383219e-02
-6.387933168707775333e-02
-8.921238617919939606e-02
-1.020474103053169157e-01
-9.543669836556011032e-02
-8.184540681429712528e-02
-7.564994228125222764e-02
-6.255252042768985610e-02
-5.896507858848655872e-04
1.184696927166173364e-01
2.269449537157534613e-01
2.382092575549916158e-01
1.309251536737728039e-01
-3.734813499619744903e-02
-1.695187963712193047e-01
-1.870465142622118049e-01
-9.070171939280727291e-02
3.165233619645149710e-02
7.610205872664431437e-02
2.555562319778260927e-02
5.089688214501311009e-03
1.846256276107919314e-01
5.309834109292539406e-01
7.162613232291842325e-01
4.658126183535389875e-01
-3.501065527506072583e-02
-3.207336082260147658e-01
-2.012215836079457032e-01
9.283468871582634119e-02
2.658438993776827131e-01
2.469506908386012722e-01
1.396329074062911957e-01
3.844019680970604813e-02
-4.652326423072793843e-02
-1.368377166495590713e-01
-2.221395028525881832e-01
-2.636362918277333489e-01
-2.356686187512301855e-01
-1.430484129030453744e-01
-1.538201932236725467e-02
9.182702987461180411e-02
1.146706270810639305e-01
3.302072072883097120e-02
-9.858286486654900538e-02
-1.864551700029114800e-01
-1.752120491413235448e-01
-9.314375304311964254e-02
-1.382945650143693229e-02
1.631322340524441264e-02
3.379552287393237757e-03
-1.750502226062187333e-02
-1.964297545731133465e-02
-1.223243368744554582e-02
-2.487812190538342752e-02
-5.881875373315339356e-02
-7.697904614223853581e-02
-5.109027530418043528e-02
4.182493194082399258e-03
5.225498270379411170e-02
7.422805714344384020e-02
7.908435753117551426e-02
8.146953872480970638e-02
8.097281531062798521e-02
6.795959297990812609e-02
4.182495034350741658e-02
1.321990084077381833e-02
-9.635996685512071558e-03
-2.164737099804906612e-02
-4.833456723746020443e-03
5.738694028869303215e-02
1.306604841333956768e-01
1.380439645434888007e-01
7.132390428963088225e-02
7.116510025791657201e-02
2.989858631425263980e-01
6.758224818171989501e-01
8.612440677205551731e-01
6.334004046894702311e-01
1.972351763678317216e-01
-5.403075456782568259e-02
7.805320680499484159e-03
1.884801497732122855e-01
2.704724682440436401e-01
2.117109219743173731e-01
8.703918702129688489e-02
-3.528308080439912509e-02
-1.268936392168845961e-01
-1.755991905693203570e-01
-1.781426814121899183e-01
-1.445552903334576256e-01
-8.430555532935414542e-02
-6.472702347690255376e-04
7.739296380224587601e-02
8.669445015285337508e-02
-1.775277015705049692e-03
-1.342242116563658882e-01
-2.299661324607575608e-01
-2.486307613129889182e-01
-1.918343329564713151e-01
-9.408979338692988192e-02
-1.290844989018517103e-02
1.204535358733399217e-02
-1.695029656246985206e-02
-7.800284501297063966e-02
-1.472990974009001641e-01
-1.903051513253985749e-01
-1.723403881459193987e-01
-1.011692997511003111e-01
-2.815825038828939642e-02
1.481927157153391586e-02
3.760943401567213434e-02
4.639657578532962318e-02
3.156009172158978637e-02
-7.135351165094163881e-03
-6.141564948353573500e-02
-1.234635643850834075e-01
-1.792616389763525275e-01
-2.092762717500435132e-01
-2.046159961363020474e-01
-1.747420288548229561e-01
-1.310401880818699849e-01
-7.758667954687625823e-02
-3.742260740500955030e-02
-6.222029717567889584e-02
-1.634040430718137760e-01
-2.279796258861092884e-01
-8.266102576725743722e-02
2.617004124098396556e-01
4.917768964396759812e-01
3.169772242279790264e-01
-1.111412934905979116e-01
-3.590600894795691334e-01
-2.563179072144118886e-01
-1.875299787124488221e-02
1.033734372103419646e-01
6.271980155562560666e-02
-5.218031430931049236e-02
-1.501463374154430874e-01
-1.921102488665512309e-01
-1.914443236392107672e-01
-1.854657658084185312e-01
-1.900650877614065148e-01
-1.851100089658077597e-01
-1.487456507007230977e-01
-8.850156726446213595e-02
-3.544211545456420198e-02
-2.467376055728935647e-02
-7.440592928066992739e-02
-1.542732641009241512e-01
-1.832453556248298809e-01
-1.058899892928073377e-01
2.938849073908434209e-02
1.147495463148159589e-01
1.051523979887165894e-01
5.390111332953465006e-02
2.870149551991594064e-02
3.679682175046709164e-02
4.201106673916994022e-02
2.057699162602884269e-02
-1.245935623728871774e-02
-1.471803098469185410e-02
4.309615312760056716e-02
1.386394384434518623e-01
2.106037814473641911e-01
2.141187102903590045e-01
1.552646619055033927e-01
7.195606517277890191e-02
-2.440361467924820685e-03
-4.566461718914377466e-02
-4.245527153308328167e-02
-2.636467948664776486e-03
3.828593511924659187e-02
6.516552845854997611e-02
1.005390056286077916e-01
1.414715974215351446e-01
1.196270443989797816e-01
-1.291295353294920345e-02
-1.635747565916725044e-01
-1.224525568419888161e-01
2.203031188527685147e-01
6.480009495300865785e-01
7.427843046419244644e-01
3.779380171130766186e-01
-7.815320680798180930e-02
-2.195550551360742064e-01
-5.914614907932851801e-02
1.224947983614734226e-01
1.599655514072350349e-01
8.688590687112257571e-02
-6.994326870533719258e-03
-6.928078854493860406e-02
-8.700934621598520324e-02
-7.442668027425171362e-02
-6.228227408658328773e-02
-7.123334520554229499e-02
-8.558168446713164401e-02
-6.736168068820584665e-02
-1.180577101239556163e-02
2.715209860255454050e-02
-7.362168713859894471e-03
-1.031837721760937160e-01
-1.840090150708278693e-01
-1.827087595182155522e-01
-1.019612960884543756e-01
-7.358817908532523655e-03
3.299279996580705560e-02
7.523695623054536298e-04
-7.079700711917077949e-02
-1.307683482361349236e-01
-1.480688117571086759e-01
-1.283851431889904970e-01
-9.668757416682888239e-02
-6.887125613904236665e-02
-4.998488014539999302e-02
-4.523565687736735841e-02
-5.145613773241089484e-02
-5.129894684498814694e-02
-3.921489141574915210e-02
-3.607471277651024683e-02
-5.522486657131692178e-02
-7.632818576417828293e-02
-7.376867456920273292e-02
-4.567995667077853761e-02
7.177041782627149175e-03
9.763080492935505283e-02
2.064718743223822317e-01
2.574013294933312213e-01
1.941162552946484321e-01
4.905911543126401791e-02
-9.337425756863027004e-02
-1.339493135461103379e-01
3.351348025555421495e-02
3.969409716423819567e-01
6.875103567315703490e-01
5.897370631599947455e-01
1.633791594231923106e-01
-1.826940322363445612e-01
-1.939786340977947277e-01
-7.621607686711419360e-03
1.247064784702058837e-01
1.225157368780773054e-01
5.772829102645797572e-02
7.465420832798476403e-03
-1.348886356473624586e-02
-3.239732473289304998e-02
-7.650719550411383407e-02
-1.427557684948423389e-01
-1.950526243588293629e-01
-1.939104329086832335e-01
-1.353412501836924187e-01
-6.157379520664471584e-02
-2.611253281877050705e-02
-4.426688656256990567e-02
-8.235191630496516146e-02
-9.562871581893502004e-02
-7.473285867372538027e-02
-5.152806706739598147e-02
-5.917340049516098266e-02
-1.001201584444399995e-01
-1.515463369011333938e-01
-1.811845305635561010e-01
-1.644510743858793034e-01
-1.071731082004885038e-01
-4.594054450702784315e-02
-1.473923585012285216e-02
-1.832689506379763661e-02
-4.222918441193447558e-02
-7.564919609344621099e-02
-1.132810916933083417e-01
-1.396899670748240896e-01
-1.301289696058020862e-01
-8.048864025399209143e-02
-2.297801203342472731e-02
8.573467997718756117e-03
1.458399856304782791e-02
1.167189747147358812e-02
3.049983946295722372e-03
-1.127371293431248672e-02
-1.984937483061485416e-02
-1.837966082140025936e-02
-2.847635974933891700e-02
-7.401986319524443692e-02
-1.218729728474534924e-01
-5.163448398829090236e-02
2.399754202015670634e-01
6.278756984806023178e-01
7.603570688319868376e-01
4.506573567553769921e-01
-3.206047702271526412e-02
-2.666915449534120741e-01
-1.610496568954002949e-01
4.904705071259201493e-02
1.472081862458472501e-01
1.188351307688967212e-01
6.104592722257720649e-02
3.349566665733210574e-02
1.468420620803864186e-02
-3.781178830819614811e-02
-1.288496754753515050e-01
-2.255821733442702481e-01
-2.702470291961600046e-01
-2.001975470149724989e-01
-2.393243669506031970e-02
1.375225178026496242e-01
1.666836532179423180e-01
7.902656592191230345e-02
-2.446687857084729745e-02
-7.916445104368879937e-02
-8.868008981396685586e-02
-8.709825876679498646e-02
-1.015878155533330718e-01
-1.333148473551326041e-01
-1.577129227919346344e-01
-1.435318039348668917e-01
-8.435657375446836692e-02
-1.558928790879605085e-02
1.677286288777752460e-02
7.825615929182051789e-03
-8.703808825501656993e-03
-1.398864023600032355e-02
-2.320442530680590434e-02
-4.773705347256761156e-02
-6.742986371271716961e-02
-4.950835547050925350e-02
1.378735396174346484e-02
8.625814250236327196e-02
1.121145133047651149e-01
7.097801397911501775e-02
2.477512190807841172e-03
-3.500689033064127015e-02
-2.392922967470883372e-02
3.915288322140710216e-03
8.241991850067733813e-03
-2.763434632823366308e-02
-8.575581823481712163e-02
-9.038766418367907840e-02
7.800210334487410468e-02
4.303105598477020566e-01
7.115038692093809125e-01
5.927464429451666517e-01
1.165104002130096378e-01
-2.819676387049662725e-01
-2.952977121394120275e-01
-4.291628209970580615e-02
1.868993594921008750e-01
2.535812863559397945e-01
1.956084359119264759e-01
1.088484189570194383e-01
4.588022476052650706e-02
-5.146633041857853405e-03
-7.631816356791812361e-02
-1.723704279935866224e-01
-2.560248681544742277e-01
-2.663409143252895572e-01
-1.730752533718389885e-01
-2.327092646947419644e-02
9.344355628675336811e-02
1.221173202365625904e-01
6.508826630377652356e-02
-3.259605890491644453e-02
-9.129736678402866623e-02
-4.468846377867507352e-02
8.019420590891554457e-02
1.719566648874785164e-01
1.587187621636257095e-01
8.874815672096662833e-02
5.930797400313991136e-02
9.890538916842579742e-02
1.521449504372469064e-01
1.598334691602256163e-01
1.165115142036171891e-01
5.206669130705996601e-02
-6.518565978388689112e-03
-4.405183137611855260e-02
-5.140721928355242165e-02
-2.781043808933775230e-02
1.163717449384946839e-02
3.896662029068490712e-02
3.276803865686632455e-02
-4.466704751941220387e-03
-5.144497942922021672e-02
-8.759581746448882877e-02
-1.005954468814882624e-01
-7.755924715335878183e-02
-1.384431421594847431e-02
5.044829077860871896e-02
3.878328474319111402e-02
-5.477580036627068688e-02
-7.770460695238383397e-02
1.491002856067549509e-01
5.338915919039386448e-01
6.797069249521587864e-01
3.415043635644584019e-01
-1.922878387122209654e-01
-4.254606631095187996e-01
-2.486326806220838515e-01
3.705878240760272085e-02
1.588562318648799321e-01
1.040816159557046705e-01
-4.809470631490612991e-03
-8.401446253889147120e-02
-1.275473855307335536e-01
-1.617729417512445977e-01
-2.060130267872945231e-01
-2.598014355446056634e-01
-3.003055997835085700e-01
-2.927101327318592516e-01
-2.168738479266830721e-01
-9.191237410774792671e-02
1.598057914387785577e-02
2.438700587553798566e-02
-8.311835040611502412e-02
-2.135003628638812156e-01
-2.579274341820436134e-01
-2.120609570582601966e-01
-1.506547417504440212e-01
-1.185194342313985877e-01
-1.022591489300571643e-01
-8.253884264117704317e-02
-6.723208509235822916e-02
-7.429445833383760411e-02
-1.074165052518390034e-01
-1.567036204024856716e-01
-2.043660326942411953e-01
-2.237238158422099332e-01
-1.979353792359422048e-01
-1.432350642419631948e-01
-9.052758582374643981e-02
-5.172638138366369986e-02
-2.434916847184899827e-02
-1.369034495910451642e-02
-2.945612003620177999e-02
-6.771922905484756283e-02
-1.084353233603517486e-01
-1.274143467845784972e-01
-1.055059031957707172e-01
-3.735238565615889295e-02
4.937741907972093003e-02
9.338615266596723974e-02
6.992230184557582384e-02
8.212445225180532715e-02
3.000653435107575873e-01
7.061372260620072394e-01
9.595757350171986166e-01
7.222953535469647246e-01
1.422313057829919791e-01
-2.520978452519971325e-01
-1.880571103698496227e-01
1.019732439760181325e-01
2.761092224653621252e-01
2.485782824452908157e-01
1.419771634255879988e-01
7.209942469086493000e-02
4.578647705669421086e-02
7.115414619137039841e-03
-7.472838277056476075e-02
-1.722447549509959208e-01
-2.303213461660233996e-01
-2.114984170568664501e-01
-1.192997250198289116e-01
-4.660727510810910856e-04
7.412903653399278980e-02
5.188088206706982508e-02
-6.320312689922709393e-02
-2.031591417907478436e-01
-2.692145702398064389e-01
-2.035367255187206514e-01
-4.776758777167521008e-02
8.462800431773141729e-02
1.102509830808834079e-01
4.626781462975065179e-02
-2.655132130042206495e-02
-5.477908459250591111e-02
-4.768183640246972249e-02
-3.902280898133931447e-02
-4.510586702640746043e-02
-5.984555784578910603e-02
-6.595464782050892982e-02
-3.942654622850483292e-02
3.908377783351569407e-02
1.511069170629132929e-01
2.287790806993874049e-01
2.111841413154984526e-01
1.080565349923534313e-01
-1.500614063657908746e-02
-9.937616366827782544e-02
-1.216526303680987020e-01
-7.773592985417072943e-02
2.511734936874745333e-02
1.485172856870461688e-01
2.190406682177089004e-01
1.751797343270183882e-01
3.795741885297431589e-02
-5.737947153030320546e-02
5.778126602170216564e-02
3.770536707738570414e-01
6.089209642119487453e-01
4.615614414382611108e-01
5.309748507432101444e-02
-2.023770411267081237e-01
-1.173848064393162721e-01
1.148812113274309543e-01
2.482943952527897069e-01
2.274975074255281005e-01
1.306322338805105399e-01
4.205435496187056449e-02
2.395860003994611589e-03
4.890753024785667730e-04
-1.721509056754314329e-02
-9.948105611689296579e-02
-2.293493959519140313e-01
-3.130438142455144179e-01
-2.582284094975204058e-01
-9.111484658650598201e-02
4.133453974530214986e-02
2.754021352449254056e-02
-9.217511642702166941e-02
-1.911441296336131024e-01
-1.909274431827838181e-01
-1.130690020615569141e-01
-3.230717931139345800e-02
1.683867962224902537e-05
-8.834212071732305133e-03
-2.658150413180922905e-02
-5.509128147537214332e-02
-1.321946696192757287e-01
-2.601203277033735661e-01
-3.610617933216399567e-01
-3.476629961427015192e-01
-2.296109426311022383e-01
-1.041444250458115062e-01
-4.444127067086049016e-02
-4.164972850996620513e-02
-5.133436194002716224e-02
-5.279584491537241825e-02
-5.413044491049880808e-02
-6.375127655733625609e-02
-7.444731981710166202e-02
-7.611498895954850463e-02
-7.132348662149602669e-02
-6.350671605278190857e-02
-3.877792224880048655e-02
1.310386233921118776e-02
5.476881192805265613e-02
1.368100906436453025e-02
-1.149235478265786953e-01
-1.823995968065371398e-01
9.176779215093525816e-03
4.318493196957183811e-01
7.280724635972211090e-01
5.672081895878734459e-01
9.060047937659007622e-02
-2.336385552266341536e-01
-1.806911691684548460e-01
5.476067060198500785e-02
1.993248674180687074e-01
1.768544930057699693e-01
6.881532851770946757e-02
-2.304807957468965607e-02
-4.766457510370800815e-02
-2.315290203886167034e-02
-1.381941276035104915e-02
-6.161145560479922706e-02
-1.356706202207854928e-01
-1.637286636355769487e-01
-1.131317074983357041e-01
-3.059422491963617596e-02
4.670911841479555987e-03
-3.521313357110456704e-02
-8.873414494072713599e-02
-6.052751199323592318e-02
5.681539899386715137e-02
1.503326655965413206e-01
1.323619437696845480e-01
4.916277740731091195e-02
-1.756810137418944595e-02
-5.855507955361936856e-02
-9.344373145217731158e-02
-1.106721656738224591e-01
-9.261783944542212321e-02
-5.041127270658628950e-02
-1.169060509967608831e-02
4.059840284668199059e-03
-4.880804792875407562e-03
-2.041685714030812629e-02
-1.968933670217488940e-02
-6.905110583974667995e-03
-1.255736977442408440e-02
-4.430282561237148392e-02
-6.257461439919657920e-02
-3.026073161697591038e-02
3.337820499882279690e-02
7.823207270964784021e-02
8.826041297806956620e-02
8.760792288262818361e-02
8.584498379772063925e-02
4.946473872415234341e-02
-5.063209680062478318e-02
-1.562886861491635804e-01
-1.094687832186469895e-01
1.918911239882263586e-01
5.779893614590523310e-01
6.855677789415119960e-01
3.860470585133430332e-01
-1.218217145138907748e-02
-1.409367105845284185e-01
9.342278569088757756e-03
1.794747312184656607e-01
1.920624435974505329e-01
8.531711994911905794e-02
-1.364745017125391577e-02
-3.985753560798791645e-02
-2.392143423414246767e-02
-3.470420454014002537e-02
-1.047567719759183447e-01
-1.966737425610671774e-01
-2.385960098411929464e-01
-1.907637297298785950e-01
-8.046641816349174581e-02
2.022473089005474498e-02
5.744023917157935200e-02
3.521371345846231043e-02
-9.781764445841814939e-03
-5.074895589410725882e-02
-7.948953085035025123e-02
-9.145985899492464766e-02
-8.119636732681047298e-02
-5.844983679905065010e-02
-4.940377712154080114e-02
-6.502617591226358962e-02
-8.277935992452446767e-02
-7.252074988887664830e-02
-3.235961340822291615e-02
8.575610240668878059e-03
2.018447979902866785e-02
-5.122376436395899985e-04
-3.228918946977721305e-02
-5.738936783210318859e-02
-7.707602668153228087e-02
-9.276271025805152282e-02
-8.375217463256016959e-02
-2.718455432478314449e-02
6.113970523908460186e-02
1.332691890393270240e-01
1.570473878602272888e-01
1.334565759617693803e-01
7.905389338301979651e-02
1.889872887551777986e-02
-2.333385440651681436e-02
-5.497599119866807688e-02
-9.931389432772776138e-02
-1.076997464925470299e-01
5.666229981476098021e-02
4.238123763934785182e-01
7.259614566480807607e-01
6.220176484771600123e-01
1.714410045520477488e-01
-1.824297722550950740e-01
-1.714003360489800010e-01
3.759970016192373116e-02
1.710735568278950181e-01
1.628972316329233838e-01
9.805903010570472811e-02
3.810535130921676589e-02
-1.585413161022247719e-02
-6.581092953916971300e-02
-1.013799109008088756e-01
-1.295017901349060085e-01
-1.690419128123715198e-01
-2.108169329251665947e-01
-2.123376792917063549e-01
-1.454064662427834442e-01
-4.025806240237977951e-02
3.110922260062562103e-02
2.176183532587374486e-02
-4.447518467440885609e-02
-1.037313676399771317e-01
-1.245574194742127827e-01
-1.290588280848316283e-01
-1.423710088672359708e-01
-1.512175467849216082e-01
-1.249797926588182839e-01
-6.028598061163900623e-02
8.827411509400138676e-03
4.374888007557600766e-02
3.533320151917061086e-02
-2.566087758739274416e-03
-5.594374962624951153e-02
-1.057414104019259588e-01
-1.272116699958073527e-01
-1.202520217779169953e-01
-1.101272404037604569e-01
-1.039919739902712692e-01
-8.173474693829982374e-02
-4.183165527317637272e-02
-2.510452901552154975e-02
-6.777510411441395322e-02
-1.469528592579873727e-01
-2.019608499003044955e-01
-1.977828932546787100e-01
-1.466020438127925429e-01
-9.294067109012750516e-02
-9.060261345140734057e-02
-1.394372758519595301e-01
-1.191591050218044900e-01
1.145551251876755633e-01
4.700771668638422662e-01
5.856758457515760519e-01
2.611879309007579253e-01
-2.067650240753525215e-01
-3.750190865383425942e-01
-1.888131746776021136e-01
6.671071439059991781e-02
1.771386763062358372e-01
1.543281820751516153e-01
9.479742345943267812e-02
4.309480898887919909e-02
-1.336253569242415798e-02
-8.972284146479747591e-02
-1.750072482800251461e-01
-2.424131736443337626e-01
-2.646745006881799367e-01
-2.170938507875984913e-01
-9.344047090109486309e-02
6.055938816768648147e-02
1.537654925251848437e-01
1.240990098105842626e-01
7.883021417004761056e-03
-8.793736960797671198e-02
-9.675225788929547877e-02
-5.514777423275557533e-02
-3.318216875599552806e-02
-3.442149777725709431e-02
-9.291991826910792757e-03
5.655960112475463819e-02
1.209131050764982035e-01
1.455117179278543893e-01
1.337879649832690865e-01
1.045225092415870000e-01
6.363108213866512652e-02
1.780668000568449982e-02
-1.034615926873653016e-02
-4.496187667401126131e-03
2.385120193751880113e-02
5.368552953843520187e-02
7.775007075562877235e-02
9.337269541421019947e-02
9.075012943371432717e-02
6.589385588148624628e-02
3.129447314766432148e-02
8.537169474877067191e-03
1.659364384283231256e-02
5.451062456905913373e-02
8.586176275029899774e-02
5.948378047751846920e-02
-2.353487699781538559e-02
-4.683910354981937751e-02
1.612856122587739971e-01
5.824534942899920464e-01
8.565823816046956862e-01
6.224911765108095407e-01
3.589655524123262775e-02
-3.536863773730627436e-01
-2.685534952685132426e-01
5.524028810817804835e-02
2.673913051025383347e-01
2.566172127245180956e-01
1.112416819342067070e-01
-4.816557185168354738e-02
-1.443847500736666067e-01
-1.664779824954655263e-01
-1.650422293032191012e-01
-1.856999227933628094e-01
-2.105192771235874782e-01
-1.879739511795847640e-01
-9.946804293405810127e-02
1.344563386928545115e-02
7.364539157369312528e-02
2.773841591967193126e-02
-1.062879422196885970e-01
-2.491425814014697759e-01
-3.192243275475092901e-01
-2.896533954379241216e-01
-1.957979668052304278e-01
-9.648810706554289407e-02
-3.371396503957793667e-02
-1.425749985742909634e-02
-1.707525333239594961e-02
-2.482914636372409237e-02
-4.341802895324591710e-02
-7.815080382424972882e-02
-1.055460789121543119e-01
-9.648737568778782692e-02
-5.991470585311069880e-02
-3.039984489253353545e-02
-1.656926460548490201e-02
3.685424181728926690e-03
3.852735158939315369e-02
6.359002037824917908e-02
5.411072315220673973e-02
1.515678333229380885e-02
-2.981387529424982252e-02
-6.281202736168209344e-02
-7.111619895380219547e-02
-4.328915898661024608e-02
1.233608283554023938e-02
5.258547999039586002e-02
2.920169098489294388e-02
-3.775944365702605526e-02
-1.746459407918276099e-02
2.216236584715524094e-01
5.813071534759892689e-01
7.171632538783671018e-01
4.258454940355917984e-01
-4.068762804372375030e-02
-2.535258147957484276e-01
-1.106019679243804843e-01
1.255329962838089564e-01
2.025600506070572848e-01
1.178526563267287414e-01
1.603133847132361817e-02
-1.754428449289076666e-02
-1.570506322489190199e-02
-4.283157750107681461e-02
-1.107845750594901452e-01
-1.774295683533541057e-01
-1.956595488863315246e-01
-1.492373649788283074e-01
-5.619061158120193522e-02
3.570795122492281815e-02
6.509592517183597493e-02
5.054078245582631530e-03
-1.011412010503971587e-01
-1.725148265373265821e-01
-1.612560114618429019e-01
-8.904844597286264152e-02
-1.947518988199972712e-02
4.354289927614578802e-03
-2.690873191175022737e-03
4.315683259870323890e-03
3.609374459452355244e-02
4.924233184272648611e-02
5.104907627188776283e-03
-6.667600335295914560e-02
-9.317800654851803033e-02
-4.363128945283110960e-02
3.666315287422467623e-02
8.067837263738505960e-02
6.913353680169338766e-02
3.464869212873804283e-02
1.059165282863647715e-02
-8.106158554746423954e-04
-1.481533233481300595e-02
-3.961009153563581353e-02
-6.467359164919839198e-02
-6.618577328733392384e-02
-2.735081507117061508e-02
4.395581018233631065e-02
1.132115745722082345e-01
1.292685837054353692e-01
5.705531022404872199e-02
-5.658579740838747679e-02
-5.486899858097888522e-02
1.937276552270446595e-01
5.628871911848941645e-01
6.929350443611937971e-01
4.064722064097947007e-01
-1.151909598482128011e-02
-1.433008545158128144e-01
5.528715602590850153e-02
2.479055125305867913e-01
1.334308734832006516e-01
-2.340813003852133811e-01
-5.227579132723922939e-01
-5.051172036072480998e-01
-2.927718465346017540e-01
-1.381879553638188929e-01
-1.293164783854910960e-01
-1.665855320174956522e-01
-1.406137183243330868e-01
-4.580495671664014390e-02
5.063951002942052720e-02
8.982603662849647508e-02
6.062389584409050292e-02
-9.415625126457728353e-03
-8.213385564696251695e-02
-1.246914110152749777e-01
-1.127903964036575807e-01
-4.826617338117199923e-02
2.719711793181829942e-02
6.112277350247045937e-02
3.561612954062420150e-02
-2.386676767322273157e-02
-7.579792130103552017e-02
-9.254172545242120296e-02
-7.381471971883529770e-02
-3.784865955083713263e-02
-2.784460436492693439e-03
1.614031542934801777e-02
3.707784215219302008e-03
-3.500569220551406902e-02
-6.226588044846192993e-02
-4.923172536731099808e-02
-1.943364474604926395e-02
-1.479259979891598374e-02
-3.104706604002193879e-02
-1.981878459161509273e-02
5.589443096363666541e-02
1.753671698457125450e-01
2.606093803911997409e-01
2.497485822154612289e-01
1.615397622711667036e-01
4.645716934237820173e-02
-6.999178234330999393e-02
-1.294290656701329034e-01
-7.138571841917850345e-03
3.235057639685818831e-01
6.107528211799549966e-01
5.287612037247643171e-01
1.297925929103801723e-01
-1.706472664826122476e-01
-1.295549511245749907e-01
8.212820678626583937e-02
1.947859438191268111e-01
1.396771104491869586e-01
1.834749138768161300e-02
-5.616203208357807564e-02
-5.333128838076938577e-02
-2.444075143444615628e-02
-3.344688588359208403e-02
-9.158497137279741906e-02
-1.603815547623498317e-01
-1.964396136024018080e-01
-1.812191425554219026e-01
-1.308299745071316300e-01
-9.193024415422276774e-02
-1.072151281643447529e-01
-1.638980657413296738e-01
-1.905476632416383820e-01
-1.329121484119204777e-01
-2.501354432967188568e-02
4.469607444799142404e-02
2.853121144866177863e-02
-5.037009155919646569e-02
-1.466947421527992623e-01
-2.262359422689096955e-01
-2.586128092461530414e-01
-2.265218955612269547e-01
-1.498090614812285781e-01
-7.315408283640673082e-02
-2.551359640050763003e-02
-3.697625635533169017e-03
1.024579802039510615e-03
-2.168656552998097370e-02
-7.788078808368027739e-02
-1.399339420791786692e-01
-1.690454046479049899e-01
-1.557211455937797251e-01
-1.235540623642210484e-01
-1.020976876741575140e-01
-9.966566896149807453e-02
-9.532251571439377680e-02
-5.901078179043595801e-02
2.800337174452685769e-03
1.945217177223340296e-02
-8.291770324531078096e-02
-2.542309472489231448e-01
-2.820606373808286493e-01
2.408159473285285956e-02
5.331379886590931205e-01
7.900171445478527676e-01
5.140220119852766389e-01
4.586886203072904067e-04
-2.293539071870145107e-01
-6.046902764542760184e-02
1.896496913837404374e-01
2.488473304760375482e-01
1.489763245189911767e-01
6.127545161311578892e-02
6.047498895642393346e-02
9.245429515117843666e-02
8.492449060022230767e-02
2.862865126594726570e-02
-3.420443941831435852e-02
-6.845577535771150968e-02
-6.824028626808480158e-02
-2.944020011488046595e-02
4.557457267007083979e-02
1.084383483585055763e-01
9.484191953877303682e-02
1.446477798541035212e-02
-4.279803418346795479e-02
-1.723923541638608739e-02
4.377774360591153713e-02
5.065113071773502673e-02
-1.523098075337694229e-02
-8.866520017736854997e-02
-1.059478173918070587e-01
-6.685191505092957787e-02
-1.198331072508247545e-02
2.804175308998608715e-02
4.582382771854917602e-02
4.382925901727235257e-02
2.993756839949237095e-02
1.375385205983428380e-02
-5.186830468038848910e-03
-3.230635510287886702e-02
-5.764838837810502825e-02
-5.834100195798858773e-02
-2.523172534124746777e-02
2.660603027521515548e-02
7.553598802415334434e-02
1.076922666997829903e-01
1.121556582616871495e-01
8.367806896249288529e-02
4.140284936372626290e-02
1.777164507323661380e-02
1.089072941909027641e-02
-1.316983203561904528e-02
-3.133896468204018515e-02
8.008379845098702321e-02
3.908068657655574540e-01
6.996370436731971232e-01
6.559936190877841966e-01
2.131784127419548425e-01
-2.450738482887803993e-01
-3.590189579346740323e-01
-1.647025489895744821e-01
6.629685919241343206e-02
1.564623862384237341e-01
1.193552581358717363e-01
5.224280459257887171e-02
1.419156020999082224e-02
-7.576885218786633125e-03
-5.522927552782825461e-02
-1.432906006147042777e-01
-2.343260058926427969e-01
-2.635880317464979750e-01
-1.985371496595520757e-01
-8.981889078210252009e-02
-4.507552075748255671e-02
-1.107877475093858727e-01
-2.070826277628533274e-01
-2.348690746070812296e-01
-1.960719863589936718e-01
-1.532214370863020092e-01
-1.382996269649836019e-01
-1.460336519777156172e-01
-1.616381944316272745e-01
-1.667333712079643038e-01
-1.485228659359782155e-01
-1.138189430592050078e-01
-7.736979854051891092e-02
-4.143973536439570643e-02
-4.945769509878586434e-03
1.685461221082647232e-02
2.577949664901492757e-03
-4.771129275612533832e-02
-1.065654292685426496e-01
-1.385389488507647315e-01
-1.201308961231476458e-01
-5.156867111036235463e-02
3.583468050993374177e-02
9.418780500931028810e-02
9.951528044150284580e-02
7.120334092234525958e-02
4.225861388837338223e-02
2.357806848278495848e-02
7.282991145668102524e-03
-1.189787035795763885e-02
-3.788660578770072090e-02
-7.064191044175735512e-02
-5.866050641519478942e-02
1.088089798115968176e-01
4.489816369656326467e-01
7.208311334681496430e-01
6.039447096464434228e-01
1.279797633209580621e-01
-2.897598643675847185e-01
-3.300935525086500788e-01
-8.665750277105488397e-02
1.438220247091562265e-01
1.919854264202767447e-01
1.050674854532796798e-01
2.233066741198206501e-02
1.229768178700799651e-02
2.321766556032372336e-02
-2.993962680389548880e-02
-1.574765692744786449e-01
-2.831204886646155328e-01
-3.241280284918899302e-01
-2.571944891240137143e-01
-1.089331703925429246e-01
7.588393123203091006e-02
2.335486358205628721e-01
2.798001651970146719e-01
1.703868244846904467e-01
-2.073597945144734292e-02
-1.524315062167063139e-01
-1.662531001161096367e-01
-1.184367103959678980e-01
-7.389592152214437271e-02
-4.097551048009806518e-02
-1.616223364644711960e-03
4.384472612603344810e-02
6.933283430705725059e-02
4.816319473740767604e-02
-1.875967113511303741e-02
-1.003456011985055379e-01
-1.561681781077943199e-01
-1.582495581506612736e-01
-1.052518579528795850e-01
-2.558893639481706755e-02
3.909486947610932295e-02
6.199965808522754640e-02
4.584918474044864106e-02
1.256973711318006004e-02
-1.935950744800753881e-02
-4.893095581862069721e-02
-8.093467223005389177e-02
-1.002205427538075400e-01
-7.760626254202901420e-02
-1.425038320822143850e-02
3.905253053609637759e-02
3.727394258454139186e-02
3.073334770397763080e-02
1.559307804841624234e-01
4.415058402166809892e-01
6.438649017142659137e-01
4.710872521402524327e-01
8.173091080358234339e-03
-3.233713445188821090e-01
-2.758225458788209350e-01
-5.950265700669921110e-03
2.033170662281320040e-01
2.329284961330562731e-01
1.402169621401703759e-01
3.297909169899953391e-02
-3.142223756013425712e-02
-6.749577380827805062e-02
-1.112728692753837262e-01
-1.631188481245675059e-01
-1.886994714623163316e-01
-1.599648224311916167e-01
-7.835033778218913891e-02
2.374955615380279147e-02
8.689346491823363161e-02
5.579450986414251357e-02
-6.275629130815772727e-02
-1.850319967674259880e-01
-2.226100096211610646e-01
-1.666705536066649118e-01
-7.868763449407066568e-02
-6.900601698811395165e-03
5.204077820691075523e-02
1.055700001446705782e-01
1.282908276377713597e-01
9.987418363313688152e-02
4.085840473360469183e-02
-1.641891136150240571e-02
-6.047433917429202721e-02
-8.497006106583698815e-02
-7.087112587720251211e-02
-1.052600065405115415e-02
6.572348892594756520e-02
1.135571171391788481e-01
1.205422799194812156e-01
1.072032123841663576e-01
8.755360199312885172e-02
5.217107826209249621e-02
-2.378617910227360469e-03
-4.583674085612507443e-02
-4.110440489243832873e-02
3.413674785456997408e-03
3.922638895361714451e-02
3.816377332542995188e-02
1.073023913810864510e-02
-1.633649314771853586e-02
2.589478029262300487e-02
2.261174584767027262e-01
5.084584287172746464e-01
5.890596522577936645e-01
3.234189869480087465e-01
-3.374100660334757723e-02
-1.283026785425890326e-01
6.301882297717073533e-02
2.741299298407510188e-01
3.078453217707236567e-01
2.100833427284224397e-01
1.312571397331624423e-01
1.197539779525689935e-01
9.607983961850233290e-02
-6.832220541889079575e-03
-1.535772410724665638e-01
-2.564689378675154008e-01
-2.510683447560487780e-01
-1.290880842988325616e-01
4.900091859436445096e-02
1.790460898236669596e-01
1.837148055990006634e-01
6.781246718919553551e-02
-8.940906712846688476e-02
-1.912544545695454845e-01
-1.904888209121494147e-01
-1.199653586943831562e-01
-5.377296632797963494e-02
-3.444004196481422614e-02
-4.767487609148565730e-02
-6.225685657246252114e-02
-7.037395839946436471e-02
-8.418500561232725166e-02
-1.138481890795195600e-01
-1.583329578808916061e-01
-2.021042235044072100e-01
-2.136817412022787022e-01
-1.670985744705098253e-01
-7.294570894021623619e-02
2.587319124132596987e-02
8.161975804472665352e-02
5.709512772679708331e-02
-5.174781030777684393e-02
-1.896732488581835685e-01
-2.723992960074307357e-01
-2.618312060977239231e-01
-1.929320120912666470e-01
-1.244724794928106504e-01
-8.282757316231857680e-02
-6.097388594849210280e-02
-6.292247294762866316e-02
-1.137534808722435453e-01
-1.786925012233129273e-01
-1.087380812554068349e-01
1.914421149814536094e-01
5.107470175281837443e-01
4.732577092133206653e-01
5.332902772638743738e-02
-3.201090557293535532e-01
-3.116117655551760568e-01
-4.873016491962028213e-02
1.455951779753029973e-01
1.285649874305045126e-01
-2.222099106699024218e-02
-1.700068370512434757e-01
-2.438678716063432117e-01
-2.553909622778325339e-01
-2.457466285279286955e-01
-2.374838713258225764e-01
-2.291514197425154886e-01
-2.101588393809098454e-01
-1.698991476996497552e-01
-1.108367427086915380e-01
-6.625118659384708619e-02
-8.337251656191861648e-02
-1.626075962373014216e-01
-2.322936705130138058e-01
-2.185758423969414443e-01
-1.222668122771455729e-01
-5.132667380278368302e-04
9.090288449675432148e-02
1.170066986414536186e-01
7.489876944151595273e-02
5.893268735037756473e-03
-3.903618589395289884e-02
-5.030502430481280374e-02
-4.798602020658555845e-02
-3.370654547508213777e-02
4.536578938086231402e-03
4.887294116086825929e-02
5.728615663716105089e-02
2.181737940471446813e-02
-1.294292501347508312e-02
-1.529528317545384049e-02
-2.195428019091178601e-02
-7.176721737381951127e-02
-8.536364151285605328e-02
9.384798050503380396e-02
4.570007473738250670e-01
7.285360696024739680e-01
6.662421792152638522e-01
3.670718781981439083e-01
1.036946919911830578e-01
-2.182656942911604531e-02
-8.048240166959329256e-02
-6.338613906933016073e-02
1.627323162182882921e-01
5.743995783524891152e-01
8.295457893185534948e-01
6.243344405067652314e-01
1.395294030286118869e-01
-1.584387531583306419e-01
-9.889739841261993569e-02
9.209255662397883291e-02
1.758501266580516365e-01
1.277041818533744266e-01
4.033020514899640641e-02
-1.439850959118330401e-02
-2.413533952097827312e-02
-2.228032836238970707e-02
-5.106561125513321697e-02
-1.118908155198092835e-01
-1.549190623779128917e-01
-1.342018397321935730e-01
-6.988593489999914143e-02
-3.891039449880553946e-02
-9.362518466578900744e-02
-1.966791785039892770e-01
-2.497970943812594657e-01
-1.934295384942317786e-01
-7.047442832045280880e-02
2.341990456670424436e-02
3.834461738958652027e-02
-6.162072844679190517e-03
-6.896974091771089499e-02
-1.206517769991429234e-01
-1.454640891918289047e-01
-1.387833102948253516e-01
-1.019188364811948883e-01
-3.979746453878119788e-02
2.608852294958838997e-02
5.548344534473736295e-02
2.584728712300632045e-02
-3.780292733705638980e-02
-9.114772421591092744e-02
-1.141691159488197743e-01
-1.115129615835509097e-01
-8.920370246136020975e-02
-4.887748146395091281e-02
4.530414080867991092e-04
3.913371512875529756e-02
5.296283385675754074e-02
4.583524156306689051e-02
3.123425239160204994e-02
1.487059600819939931e-02
-1.727990105048978625e-02
-8.403306108160864263e-02
-1.454935712189425190e-01
-6.650798301224387921e-02
2.457935225819529168e-01
6.181410958755173546e-01
6.922264752051645598e-01
3.620353920440088080e-01
-4.723445399863521882e-02
-1.828772820902713758e-01
-5.925971428706233723e-02
7.301572281277449172e-02
7.112692027292803754e-02
-9.377095635385534339e-03
-6.176206723617084365e-02
-5.411924265156623642e-02
-2.673543944450011006e-02
-3.160234173076795910e-02
-8.826923169374138733e-02
-1.693205102940969486e-01
-2.163132081726999445e-01
-1.846910900378074816e-01
-9.216691960952033691e-02
-1.952089441654555543e-02
-3.629203438307357366e-02
-1.175174203881552137e-01
-1.620014924279666035e-01
-1.089638604747427963e-01
-1.082513177226845230e-02
2.957406525231694172e-02
-3.004533684320604553e-02
-1.410796542683837584e-01
-2.195421716123022449e-01
-2.148321350353109005e-01
-1.418358519643570237e-01
-5.723560742123708078e-02
-5.000768860908997790e-04
3.289910718728005640e-02
5.507859600734852507e-02
5.058694358748342529e-02
2.221629233402563908e-03
-6.781046419630251676e-02
-1.111942220203265830e-01
-1.027845140109978350e-01
-6.433150983000486545e-02
-4.108363648874680668e-02
-5.206280390576064482e-02
-6.448755024260199864e-02
-3.219449317685316170e-02
4.099073432192005401e-02
9.813677060126024809e-02
9.507584319205406032e-02
4.209681976243750956e-02
-2.941989334104871262e-02
-8.933615644832761105e-02
-6.162890664403264385e-02
1.579682968930865017e-01
5.158884984905623972e-01
7.060770827235797187e-01
4.773771425492747689e-01
7.516222988174559028e-03
-2.745840206896912328e-01
-2.041387209530272639e-01
1.308580573881090031e-02
1.399230560816311086e-01
1.399872533849319534e-01
1.008880362966804028e-01
7.477418278480839342e-02
3.612687522107621563e-02
-4.757371464352198182e-02
-1.514969563459959145e-01
-2.150738145794430511e-01
-2.066240300433581922e-01
-1.415286147106511738e-01
-5.001193894370654924e-02
3.946540350139458864e-02
8.927754677612127765e-02
6.778788287443422711e-02
-2.860535572315253336e-04
-3.224039210205159600e-02
1.527151309405539586e-02
7.678445657826017678e-02
6.639727262119105022e-02
-8.152434463758427563e-03
-8.179639048964575110e-02
-1.220689086568016307e-01
-1.226262170847845362e-01
-6.460688290446511828e-02
4.942626701960836644e-02
1.504712964608015402e-01
1.578534810337848537e-01
7.613243682416331870e-02
-1.756047647831885175e-02
-7.245612479042576326e-02
-9.493320329367785360e-02
-9.864564959953384116e-02
-8.030361114989682803e-02
-3.984546418860653028e-02
9.978458243455640142e-03
5.177506431860186970e-02
6.816563013511299507e-02
5.347830644452292170e-02
2.662466635931420508e-02
6.596107715882317327e-03
-2.286847516257121612e-02
-8.804610024360237652e-02
-1.654475450323246444e-01
-1.695710283479005820e-01
1.286619060891594848e-03
3.603962408903800818e-01
7.059448609727785318e-01
7.081171256836364947e-01
2.887283509116402858e-01
-2.007243079872109703e-01
-3.586414186739750876e-01
-1.606039978540694246e-01
1.205084147733109234e-01
2.608543074859855926e-01
2.395092816245206757e-01
1.549182418992567922e-01
8.387183988228213982e-02
2.031926918673147495e-02
-7.414256703810184757e-02
-1.939164887065806531e-01
-2.831754072685091494e-01
-2.871263294179433045e-01
-1.935879090350088871e-01
-4.382328397951307242e-02
8.599424747651546186e-02
1.368344180852024694e-01
1.077808789531027184e-01
3.441302067436306789e-02
-5.717773924466194174e-02
-1.528919903996741048e-01
-2.186638482740065059e-01
-2.048686000954866027e-01
-1.087690074100301219e-01
-4.257840129449446537e-03
3.184531878677417105e-02
5.787668206179609129e-03
-1.579616756970143518e-02
6.464616232076043564e-03
5.315044721836262309e-02
8.036260134269822275e-02
5.679680407632337058e-02
-1.535528886828891292e-02
-9.722976375494143952e-02
-1.384871852585909668e-01
-1.141356699426407245e-01
-4.493713721292558194e-02
1.401929049040874509e-02
1.839302368307222865e-02
-2.521857278616888853e-02
-7.754660517413583531e-02
-1.169165161445507167e-01
-1.367465282366059909e-01
-1.078991263689780822e-01
-1.147630188510561852e-02
8.701690023638172788e-02
7.989082115119026939e-02
-1.638922071409983083e-02
-4.783197898783387442e-03
2.537099394303871103e-01
5.527032577360165844e-01
5.069369110504458042e-01
7.829939342603325914e-02
-3.258451235045467520e-01
-3.718520361561392651e-01
-1.488614782660949709e-01
6.000250065659684662e-02
1.156611536036260685e-01
7.042115138110417727e-02
1.935490680227123367e-02
-1.536028552308586065e-02
-7.005473544514907724e-02
-1.590951408289196511e-01
-2.497906869790771645e-01
-3.080910598351174756e-01
-3.175486658615237490e-01
-2.524175352324501964e-01
-1.045297805485886217e-01
4.909607653660972432e-02
8.656014750588650331e-02
-2.103767477371052200e-02
-1.692000215676318364e-01
-2.385392158103029903e-01
-2.103614620922651668e-01
-1.465768969165225089e-01
-9.626598089438348493e-02
-6.002519828921126788e-02
-2.934725770010311943e-02
-1.782093059277117808e-02
-3.989469691845799054e-02
-8.393584854542140983e-02
-1.252137323782829270e-01
-1.489833774464850435e-01
-1.501218508469148727e-01
-1.267912172349808519e-01
-7.885391924889713355e-02
-1.035716126550721879e-02
5.745645853296931643e-02
8.964180690178674693e-02
7.644510898528199261e-02
5.218216923142787039e-02
5.122686230457015183e-02
6.171927502067203752e-02
4.818351067584572545e-02
8.684258747842385495e-03
-1.257211925377350187e-02
2.778876997799430149e-02
1.127452008879918088e-01
1.625337320001717656e-01
1.312802384217831020e-01
1.167118169644839748e-01
2.880718266509350034e-01
6.147474850443327421e-01
7.672795971214725341e-01
4.905653392752442610e-01
1.017977618311391441e-03
-2.450612186408926696e-01
-1.044847712690510078e-01
1.724844700824008925e-01
3.148918518362815999e-01
2.757052547286145128e-01
1.600465097044779239e-01
5.778549556459967873e-02
-1.897590629123743766e-02
-8.833880391339593574e-02
-1.499584899245366698e-01
-1.848592882299399109e-01
-1.708810951546884949e-01
-9.897086859660592095e-02
4.211614731116652272e-03
7.754014017699996375e-02
6.819917725772228767e-02
-2.459963627648334775e-02
-1.359156274369417439e-01
-1.675673927755943760e-01
-8.059619230505296605e-02
4.501684280557595452e-02
9.688769989564996465e-02
5.993542945719545351e-02
4.054594988923986877e-03
-2.661407321214314531e-02
-4.826667354914016689e-02
-7.916803682382179963e-02
-1.073806601486566453e-01
-1.237460596232614757e-01
-1.399018964537829812e-01
-1.502226211755993968e-01
-1.147835516019478780e-01
-1.825521370025098150e-02
8.058816831748892573e-02
1.017101915108383353e-01
3.480766721356252924e-02
-5.456251579687612652e-02
-1.015856203893788640e-01
-1.001730628888147373e-01
-8.491769498489690204e-02
-7.488331714164683794e-02
-4.970862231444284074e-02
1.634001452309279470e-02
9.929918421919375904e-02
1.203176795170030761e-01
2.771089339392258932e-02
-9.999890630537251746e-02
-7.348334999677164081e-02
1.967779019172702371e-01
5.016100766667989097e-01
5.046944463243375756e-01
1.817159879405704503e-01
-1.145636066997478275e-01
-1.061717870883766568e-01
1.113235166918197516e-01
2.759919017877661140e-01
2.688480253733167014e-01
1.574475828472355343e-01
5.040414555965799792e-02
-1.793354326756839076e-02
-7.946242200841426018e-02
-1.575949937141550572e-01
-2.288768274909964429e-01
-2.483621111651805047e-01
-1.920075565543252483e-01
-8.298558561019413193e-02
1.310698330421976310e-02
3.235109580830997783e-02
-4.104621463952997512e-02
-1.643302852339875164e-01
-2.572065644632774428e-01
-2.540048613333636962e-01
-1.615213324044462717e-01
-5.025029387453583407e-02
1.600394218240782859e-02
2.251112005055286996e-02
-1.095809172599979120e-02
-5.846875533335394587e-02
-1.002976124529640772e-01
-1.198276495317326940e-01
-1.030833812723099402e-01
-5.464307747989152059e-02
-5.368153036379913479e-03
1.487375185226077687e-02
6.060027430498192598e-03
-1.370184661670284521e-02
-3.400715200688270157e-02
-5.234665555653267299e-02
-6.449228080019492326e-02
-6.759797489654006952e-02
-6.266973311628555587e-02
-4.913232848410580694e-02
-2.393556436504937560e-02
1.571265676854932680e-02
6.939845989663949444e-02
1.221111439073943039e-01
1.354902446619669631e-01
7.000621356731447087e-02
-5.416194112867463162e-02
-1.056880321198296196e-01
7.865992165372268086e-02
4.589750479265595207e-01
7.042684219559386394e-01
5.345333179656623912e-01
1.089922356907240680e-01
-1.515120873873026242e-01
-7.566718956426947418e-02
1.374225382434578480e-01
2.335954844500882366e-01
1.558928436468357548e-01
1.685460772221429940e-02
-6.500315703674577894e-02
-7.742275248178590030e-02
-8.769166181445262054e-02
-1.323136094668453944e-01
-1.692711980239543501e-01
-1.484653831185889505e-01
-8.805053943928314863e-02
-5.014433094014823789e-02
-5.806779459213898265e-02
-6.778173429785272486e-02
-3.642275574831978224e-02
1.252702656755307238e-02
3.347073062833739315e-02
2.412822511359200700e-02
3.619054877218200877e-03
-2.394975230882946671e-02
-5.772265461395272718e-02
-8.783574539868797826e-02
-1.056755960090536850e-01
-1.148124375577470740e-01
-1.238106601448416833e-01
-1.265862205674242180e-01
-1.030042774592799942e-01
-4.529203953805596011e-02
2.569868047238685685e-02
7.342725887592191358e-02
7.254186018574684813e-02
2.549930247297387681e-02
-4.201889784523780980e-02
-9.494079659257489978e-02
-1.031972222911426429e-01
-6.269105457835712214e-02
-6.713598214522987356e-03
2.227988770870676857e-02
2.017889750040879893e-02
2.365549854296144366e-02
5.524083608623391040e-02
8.167579851762685195e-02
4.255539023334584114e-02
-7.192094192193293489e-02
-1.606226770411342264e-01
-5.706929085347769992e-02
2.781891989102317497e-01
5.990636852851709548e-01
5.656693410114540521e-01
1.760374343441740985e-01
-1.834486559719429311e-01
-2.130185923299263151e-01
-1.861387576343659367e-02
1.160881682797100106e-01
8.439151305303237149e-02
-2.737527835953146998e-03
-2.046242551950660724e-02
2.533022300749163125e-02
4.410730117133167955e-02
-1.721238630674572223e-02
-1.254269478382981362e-01
-2.055379346173546729e-01
-2.088595003844387066e-01
-1.465928241574290247e-01
-7.413617621996998475e-02
-4.538434516018899356e-02
-7.632280811389008379e-02
-1.362970922556355213e-01
-1.660716044559143734e-01
-1.307857186068514255e-01
-6.322203705481022062e-02
-2.642119821096546028e-02
-4.427835926087739932e-02
-9.702929159959648719e-02
-1.568298841946877964e-01
-1.963915350663833215e-01
-1.905543600688688610e-01
-1.392277314943912159e-01
-7.101713368749074107e-02
-1.184924385974628347e-02
2.878377084386079393e-02
4.226974503195680272e-02
2.074209696067514513e-02
-2.720191554152191077e-02
-7.732763996260165473e-02
-1.036992787942416366e-01
-9.143197599664805442e-02
-4.807969134426440250e-02
-2.826566401167228751e-03
1.731955039197059093e-02
1.390587546542219020e-02
1.085026430428008039e-02
1.852368525233822130e-02
1.640236431683306587e-02
-2.445843985660272127e-02
-1.097253129765622393e-01
-1.870425820523245741e-01
-1.201529326630868671e-01
2.118782715577551545e-01
6.794031103906504887e-01
8.805094546787738397e-01
5.689557867881972486e-01
1.720194682866039992e-02
-2.842694759130391935e-01
-1.909333792968708199e-01
4.611349287647747291e-02
1.690383604028185827e-01
1.472151078759642018e-01
8.197233641641894775e-02
3.507714307173763479e-02
-5.357883983866084006e-03
-5.405874279789239789e-02
-9.281848790919289272e-02
-9.916320135102095479e-02
-7.533268912080963442e-02
-4.438189160594072785e-02
-2.365537632314757693e-02
-8.073146782546430228e-03
1.279738569214815096e-02
2.845677105991582800e-02
1.843678860091177429e-02
-6.210235413892718423e-03
-3.269276698709622057e-03
3.970858542674952918e-02
7.612109253895150973e-02
5.555436001979510707e-02
-1.278363949148444111e-02
-7.213694686050227400e-02
-8.304814364573852303e-02
-5.471751219028063440e-02
-1.377183429802084601e-02
2.680094980047891678e-02
5.417579999601222773e-02
4.601356942133858624e-02
3.540963121555960012e-04
-5.067314324647637092e-02
-7.704265264440236793e-02
-7.676223475833542087e-02
-5.716945396387455858e-02
-2.561194216466403453e-02
-7.604763541536474145e-03
-2.866993489102173664e-02
-6.113763054774381395e-02
-3.689421977443665956e-02
6.010019277119774822e-02
1.544323705732824903e-01
1.577980338962751972e-01
5.523419627088124728e-02
-8.475931125441174552e-02
-1.344073314373602501e-01
3.540387083509002886e-02
4.049358905071483994e-01
6.921366317964846582e-01
5.742051961902646662e-01
1.123508748971483312e-01
-2.654475698380336368e-01
-2.835811529830516986e-01
-7.475430946321393044e-02
1.037349150565254480e-01
1.593565975862598627e-01
1.397932829986300030e-01
9.596435992301777240e-02
3.934385211509693753e-02
-3.004622380457118783e-02
-1.095948789285608460e-01
-1.934945370023046229e-01
-2.633344830687527338e-01
-2.903352704565747566e-01
-2.516832184437572950e-01
-1.473932937912101893e-01
-2.509232649205390964e-02
2.343066681697466430e-02
-5.613629356046134777e-02
-2.000027315449803833e-01
-2.813281130031633492e-01
-2.537573310068627630e-01
-1.846720522852576818e-01
-1.394969013125197110e-01
-1.103350143534241878e-01
-7.905080236922837345e-02
-6.446496594976340588e-02
-7.542466542302174448e-02
-8.385493350390091361e-02
-6.825939692472414444e-02
-4.491679775475865277e-02
-4.366160148501972010e-02
-7.007564606810970376e-02
-9.698690524255375311e-02
-9.052688351404362954e-02
-4.634396088733611779e-02
6.670869396088196374e-03
4.460317478667188973e-02
7.318168184081827454e-02
1.033354603385403525e-01
1.208767348072235792e-01
1.005192425073001827e-01
5.230156158457374693e-02
3.285127623557818066e-02
8.037510661254149147e-02
1.471053915144592550e-01
1.424741724487639805e-01
7.136998615484294040e-02
9.889002032419842714e-02
3.793433025245355750e-01
7.647301842172987696e-01
8.378560812422592985e-01
4.165464244438008556e-01
-1.348666844868606496e-01
-3.295523529808765395e-01
-1.240040934391289928e-01
1.513471519453555847e-01
2.474943852890056084e-01
1.860213353169167250e-01
1.000358203120918915e-01
5.247423757290406443e-02
2.006527566103101512e-02
-3.294071362706647160e-02
-1.129768093615981239e-01
-1.946872073854023499e-01
-2.298105874670393900e-01
-1.773822626429905069e-01
-4.720276172736635745e-02
8.836227156320849985e-02
1.394838601188463367e-01
7.193518780123893397e-02
-5.799160151741611369e-02
-1.531258422882656733e-01
-1.678554918573716970e-01
-1.369079325055437835e-01
-1.096933267651848121e-01
-8.860146643776939390e-02
-5.208702311472511448e-02
-7.639199306878962509e-03
1.126701709100627093e-02
-1.205969351939444045e-02
-5.852860016839091933e-02
-9.430980659074313099e-02
-1.064725754411673386e-01
-1.111552643563428894e-01
-1.197698500871947902e-01
-1.149210268958389958e-01
-7.903159158542578944e-02
-3.030816546868560918e-02
-4.463747460133248024e-03
-1.048159535816446837e-02
-2.932494614784502546e-02
-4.814984129556711817e-02
-7.138615245560410438e-02
-9.840189863606012277e-02
-1.086135141182606595e-01
-8.111577817200202323e-02
-2.596289630247648750e-02
1.193569073373644540e-02
-8.129748495112981005e-03
-5.106440780772891763e-02
1.534225329878732141e-02
2.706720620469319494e-01
5.374224580973782084e-01
4.963252694590644110e-01
1.108123862860591335e-01
-2.600603413360856320e-01
-2.943711326804212547e-01
-5.444018591795829476e-02
1.840305470338066962e-01
2.560988598411336192e-01
1.811707899891538132e-01
5.127282753386402936e-02
-6.255462640053552348e-02
-1.392070647856638865e-01
-1.970596531805899054e-01
-2.507499773346821281e-01
-2.788002177141166160e-01
-2.498836971820904695e-01
-1.651043132535035818e-01
-5.832547755061578271e-02
2.274668112375610382e-02
2.861118412632277300e-02
-6.104341871576545592e-02
-1.972252882471997593e-01
-2.817201311270656205e-01
-2.558683850015009975e-01
-1.593284491408814285e-01
-8.431123848353840045e-02
-7.936177928906630596e-02
-1.114449620454174561e-01
-1.208300110700788188e-01
-9.696259539420144791e-02
-8.094484148660535672e-02
-9.988148202068335146e-02
-1.314939031749451370e-01
-1.369747701831374731e-01
-9.851049087960003781e-02
-2.549649146368427807e-02
4.719325139731575525e-02
7.353875133126423769e-02
3.707900572404092265e-02
-2.869419534709772776e-02
-8.052184099089733371e-02
-1.131195609774154620e-01
-1.426767259366169549e-01
-1.590129621053466003e-01
-1.333938568658370738e-01
-6.418054950191162678e-02
2.474505789787224269e-02
1.115928215798756284e-01
1.635459201736676194e-01
1.374056517471707872e-01
6.522563604760865663e-02
1.046526895345878394e-01
3.624766841722179000e-01
6.459311906107009227e-01
6.034439017752165624e-01
2.056593864955612028e-01
-1.606666704938859991e-01
-1.827608880197573171e-01
4.093301711461871245e-02
2.214064171745224185e-01
2.170405796056275316e-01
9.170735594588276529e-02
-1.733547490885270492e-02
-2.107226212245944669e-02
6.521784679776092275e-02
1.394854218283036740e-01
1.187739563318409575e-01
3.591930416128610165e-02
-7.789852324942678555e-03
2.568767978666559176e-02
7.248631479170308811e-02
5.613086081715873421e-02
-2.252173558682007970e-02
-9.627905858523821969e-02
-1.079960129158220455e-01
-5.782915627540742565e-02
1.245729017991946061e-02
6.178747507976765224e-02
7.561208183225406887e-02
6.073907739426565727e-02
2.236372175727685194e-02
-4.012978854035014614e-02
-1.080308741265163935e-01
-1.425095116363317427e-01
-1.280423922886705645e-01
-8.613448624437200496e-02
-3.661567683508736015e-02
1.766848877141018875e-02
7.389188971265607531e-02
1.244722313241468786e-01
1.428953522606125071e-01
8.822082736178328555e-02
-1.767200435308496909e-02
-7.042890529846110304e-02
-1.095071963184055669e-02
9.507646338801815922e-02
1.537987578892968665e-01
1.500295987226094585e-01
1.197850384381075883e-01
7.360862865788636578e-02
-1.490248409903975352e-03
-9.584847824525419280e-02
-1.689262819785581626e-01
-1.418689546669851809e-01
8.950197598234696517e-02
4.923767062567842023e-01
7.614198434783578939e-01
5.941424883305906901e-01
1.260599416957017826e-01
-1.875224309564981762e-01
-1.291041072112373289e-01
1.047175002772467722e-01
2.403595633465820391e-01
2.035706301143105079e-01
8.128133575166457403e-02
-2.365270619429815646e-02
-6.516632023897415971e-02
-5.701996534959213186e-02
-4.796666244166253312e-02
-7.736886782647467431e-02
-1.334609607495140238e-01
-1.577976483794761853e-01
-1.057092878436726169e-01
-5.485623201630904916e-03
5.960692622178985489e-02
3.401301406415613293e-02
-5.590223863343752458e-02
-1.256658001864124907e-01
-1.093650339845626956e-01
-2.269200840103373015e-02
5.733983557972358730e-02
7.380675473257801433e-02
2.971591776229092624e-02
-4.186176001682413023e-02
-1.068355985574043071e-01
-1.312618689600721922e-01
-9.879965461767539758e-02
-3.477570131034608825e-02
1.783229384648606780e-02
4.230786512123395349e-02
4.842412792853990205e-02
4.801651908974697430e-02
4.609284539637691774e-02
3.636993398699000374e-02
1.749115274276401809e-03
-6.192013653473320278e-02
-1.267963241697401267e-01
-1.514429250431058027e-01
-1.188907512926706544e-01
-5.774149544413656465e-02
-1.748300635605068779e-02
-1.348471102047527417e-02
-1.796338843392999290e-02
-2.365122858791688515e-02
-7.576287861593042350e-02
-1.727442297702720952e-01
-1.603153292874339997e-01
1.176623415312169074e-01
5.060437120176118908e-01
6.002760040363842586e-01
2.644441841828281681e-01
-1.525182969852236226e-01
-2.692137832203523318e-01
-9.835376860360159346e-02
9.079894605155874876e-02
1.183044183665371285e-01
6.953668186591658446e-03
-1.198881387137469556e-01
-1.769406176638037564e-01
-1.786585340536967770e-01
-1.881856640061183306e-01
-2.309132382287619745e-01
-2.804326978818265648e-01
-3.009344792716793227e-01
-2.713622002895792473e-01
-1.968675328706311067e-01
-1.244462658494941559e-01
-1.145783839757351236e-01
-1.662882092272728596e-01
-2.008995587279953365e-01
-1.568094943568640875e-01
-7.164885985737330654e-02
-3.072455418128652860e-02
-6.319430733478616224e-02
-1.310418713890305342e-01
-1.935963693982716560e-01
-2.350685523174923519e-01
-2.429920509814623986e-01
-2.062925823687643545e-01
-1.377780770378799757e-01
-7.348521347557532279e-02
-4.417074139234861141e-02
-5.163330301568025416e-02
-7.410697965211078542e-02
-9.523983553424246462e-02
-1.177091259915787613e-01
-1.414378943411143397e-01
-1.467363739720848603e-01
-1.148382214244651756e-01
-5.206424131881390305e-02
1.724804032580008750e-02
6.777537111371610690e-02
7.859649324424769490e-02
4.719358522553078472e-02
6.341207961267830706e-03
-7.692744716306921388e-03
-1.097956774422446588e-02
-3.972899216022187513e-02
-3.744232809466602196e-02
1.445275613493470224e-01
5.240327119757840491e-01
8.067641069300345302e-01
6.458858450687748887e-01
1.301061745059011732e-01
-2.575174335974293460e-01
-2.324777632447130038e-01
2.068121426625898346e-02
1.939648674290264108e-01
2.026103700774510574e-01
1.471793699332827332e-01
1.177792468492065703e-01
1.168629522027280487e-01
1.030085126567137910e-01
4.354357597430012772e-02
-6.196181080940802582e-02
-1.748555149301564138e-01
-2.313759895211530970e-01
-1.811997351399063372e-01
-3.199752038836477241e-02
1.341271484725050089e-01
2.059909220547226638e-01
1.396266431558748355e-01
1.063286655231223538e-02
-6.447233112095966667e-02
-5.640371933260513587e-02
-3.351556660263067811e-02
-5.630559455529273588e-02
-1.091891117798310662e-01
-1.356564407592872057e-01
-1.047183104788531050e-01
-3.472317790879803773e-02
2.947377810660206654e-02
5.560252855795712323e-02
4.816490641635499947e-02
3.493965845426683092e-02
2.849842855219071255e-02
1.118035873360461938e-02
-3.520571130801550264e-02
-9.249721633517520025e-02
-1.094533733464146952e-01
-5.009139606554608576e-02
6.074183791696661366e-02
1.516309301194936343e-01
1.686129831247369093e-01
1.176670521191768709e-01
4.719107339766848153e-02
1.505443125631813518e-03
-8.496484248898854980e-03
-5.810424881982186734e-03
-2.375390854713617036e-02
-5.355555175803674434e-02
-3.326028330246973835e-04
2.467251332863114044e-01
6.193467132059721214e-01
8.081670542334370433e-01
5.725052920760391739e-01
9.126336486417449545e-02
-2.119498694336695854e-01
-1.674116359367335272e-01
3.141245978950189116e-02
1.518841290438181224e-01
1.467727669264104751e-01
9.125589115741648827e-02
5.053991035721237118e-02
2.767686213476362733e-02
-2.030308884940794367e-02
-1.257673649936548455e-01
-2.569475049287228696e-01
-3.331691317697302313e-01
-2.938771591333539934e-01
-1.459185721162364335e-01
3.666402604577914670e-02
1.549241978225399108e-01
1.542118740257593101e-01
6.240808980924013316e-02
-4.425091713454712417e-02
-1.126321537238150899e-01
-1.460724553116230506e-01
-1.621601680772855603e-01
-1.405697913265618326e-01
-5.468979013168474845e-02
5.858975413800835558e-02
1.178591121528542729e-01
8.649168725055102203e-02
4.851948271127488541e-03
-6.084288126723312595e-02
-8.117469796743725929e-02
-7.907360345169082982e-02
-9.020350168065184582e-02
-1.167358575341812393e-01
-1.282287271411099161e-01
-1.004616641377725078e-01
-4.348652162838179125e-02
8.057245057009512768e-03
2.816127695782670234e-02
1.835423065060111381e-02
-8.516372542780134558e-03
-5.017282456952239234e-02
-9.924334833430151215e-02
-1.176318394400981959e-01
-7.037965989351503693e-02
1.068738450928746406e-02
4.613891335100319541e-02
2.349013865165814827e-02
6.550103332912460274e-02
3.004363529845664460e-01
6.155980231522854007e-01
6.736622805287467708e-01
3.268555299185942897e-01
-1.270635866780013279e-01
-2.903145472504922719e-01
-1.238482345090890502e-01
1.023156554714723110e-01
1.790651453292760042e-01
1.232097255645054346e-01
4.574999213019666916e-02
-4.371450640002030354e-03
-4.879310851390903508e-02
-1.117568008176813843e-01
-1.871806729867404040e-01
-2.453535886391865484e-01
-2.413066567562199560e-01
-1.372860729235336197e-01
4.154269840486893295e-02
1.884459194648633595e-01
1.990731288987554193e-01
6.788086478801901025e-02
-1.141656651317336513e-01
-2.344517006707051987e-01
-2.401953388453990368e-01
-1.751202488340263819e-01
-1.243513922554554813e-01
-1.191673571637198725e-01
-1.196362403342636493e-01
-8.720680817122260231e-02
-4.331821912107072792e-02
-4.078334063924653891e-02
-8.923884153690912757e-02
-1.346334462817418698e-01
-1.229498217761380019e-01
-6.093513603711538107e-02
4.250290178515522127e-03
4.205877027443755134e-02
5.350511638515334512e-02
4.716710402389381190e-02
2.402744243096729959e-02
-1.297996045085745599e-02
-4.354500049552133961e-02
-3.770728587221279515e-02
6.763294896878602191e-03
4.950678888584444243e-02
5.775165336758367879e-02
5.239142582832801570e-02
6.864261824223105712e-02
8.825666256964796730e-02
5.932381238632515597e-02
4.637061421757309246e-03
6.160286843539787560e-02
3.098250940374200901e-01
5.564806372507116183e-01
4.802272918736077423e-01
7.213482933857162660e-02
-2.862095331110534047e-01
-2.889077833506423776e-01
-3.167403029746643228e-02
1.946761580505299016e-01
2.393879568335929020e-01
1.596645996703471015e-01
6.867943341550557246e-02
-4.004045346547011053e-03
-9.362843074819778011e-02
-1.981042816055940958e-01
-2.628610139299383808e-01
-2.503609540515164822e-01
-1.717848296564221111e-01
-6.431305743215276483e-02
2.884531500209144145e-02
6.756545386523649110e-02
2.698773690205067549e-02
-8.544087577199291350e-02
-2.140219618308498994e-01
-2.762130358235505567e-01
-2.341518222778547764e-01
-1.346512899585270984e-01
-5.449309688533010565e-02
-2.416519558038803320e-02
-2.486676198729519116e-02
-3.677262248720367804e-02
-6.030068652673869350e-02
-9.573065422388273016e-02
-1.263996293802926718e-01
-1.306130058778616487e-01
-1.024221114291476858e-01
-5.648900189162670699e-02
-1.325120320462481842e-02
2.236162143195640287e-02
5.969917060105477818e-02
9.171492615703365214e-02
8.740626078693369827e-02
3.267092545612050591e-02
-4.450032184304126420e-02
-1.013847623824856437e-01
-1.093512250464712537e-01
-4.926842876495548390e-02
8.530665904874246142e-02
2.435049250356497164e-01
3.068707324703313644e-01
1.935682201335365560e-01
-2.562634167525657328e-02
-1.482315991349474615e-01
1.151098401037057434e-02
4.208867602343585590e-01
7.447163247508176154e-01
6.377620213020447348e-01
1.893860379003685090e-01
-1.473265284313768630e-01
-1.105972871864764340e-01
1.276028158066906948e-01
2.725513130384975002e-01
2.314130298230859251e-01
1.065167070601135135e-01
1.860999778268244281e-02
-4.769389839216533686e-03
-1.807284425254546828e-02
-7.625844267105644225e-02
-1.667557995233401591e-01
-2.217566961858897234e-01
-1.879205826757500697e-01
-7.531441075679130848e-02
4.321244948624941573e-02
7.303756172469492991e-02
-3.122853714378086981e-02
-2.130381443102476180e-01
-3.451298108701996159e-01
-3.341925158764849635e-01
-1.993178164774188077e-01
-4.498767893002500462e-02
3.722112600405869109e-02
3.388564708550703686e-02
-1.358353358562675202e-02
-6.939388480249475410e-02
-1.185226827774581299e-01
-1.429574427433007444e-01
-1.257150191080146362e-01
-7.896952725619613145e-02
-3.732104938034196129e-02
-2.211082517549045265e-02
-2.934537598428301614e-02
-4.783839821698246397e-02
-7.491923383390633462e-02
-1.085685600371284337e-01
-1.348681690677090705e-01
-1.414927707884065244e-01
-1.334101588586624199e-01
-1.139779279888624708e-01
-6.798948971473894876e-02
8.366399556443492036e-03
7.673917187573327248e-02
8.611010934164010922e-02
1.860928983804157472e-02
-1.114141268504163784e-01
-2.531481906722223285e-01
-2.746552588186384480e-01
-2.452139712224014195e-02
4.236829928120994238e-01
6.828162278875494762e-01
4.522835520291804134e-01
-4.754874263030994808e-02
-3.210904691082644424e-01
-2.063758113414823070e-01
3.371094407023103590e-02
1.258444558638369404e-01
4.681182615277680592e-02
-7.143969880074985124e-02
-1.249522130630322525e-01
-1.077528351281009100e-01
-7.159787346681296960e-02
-6.067942912595987448e-02
-8.343136697924707912e-02
-1.200744660839763306e-01
-1.337968057970571889e-01
-9.088795745464105236e-02
-5.259626903783498446e-03
4.868031808727266152e-02
1.139010528768650589e-02
-7.624287134012737444e-02
-1.104131107680060009e-01
-5.247491225287635730e-02
3.110959245621697233e-02
6.327545383141600088e-02
3.803444865010904841e-02
-2.414630128584650814e-03
-2.775183704488112454e-02
-3.614273908036430560e-02
-3.097653280119050390e-02
-6.485926703445932945e-03
3.786747492688942451e-02
8.416925516464091039e-02
1.080989019350280383e-01
1.002641095538781973e-01
7.281689971976310072e-02
4.220684855988519890e-02
5.279131353363882700e-03
-4.786945144452085799e-02
-8.670930171578274115e-02
-4.113733340448732373e-02
1.159509382627977869e-01
3.047572828599774408e-01
3.963868160267955965e-01
3.419964561205727227e-01
2.125591132577983322e-01
9.790440464402266896e-02
9.484819788558487841e-03
-7.950374884384998897e-02
-1.122006978128599897e-01
6.222235045445898699e-02
4.698041489997974440e-01
8.074731247471187423e-01
6.913637216063790447e-01
1.799044055521532570e-01
-2.323400526735812099e-01
-2.291263228099258698e-01
9.779438443076479692e-03
1.552377546399360264e-01
1.197700184895850867e-01
3.208859141690188072e-02
-1.355324247858356868e-05
5.583538251940280139e-03
-1.713017215558520351e-02
-9.122440490224041632e-02
-1.908401402907902722e-01
-2.689614683005893681e-01
-2.765100267566996117e-01
-1.951883853281511372e-01
-7.175605022351727591e-02
3.172326434584857302e-03
-2.624415671972928077e-02
-1.216807499548919480e-01
-1.827650465756345821e-01
-1.513760074493022134e-01
-7.400907894934316555e-02
-4.090752406335255997e-02
-7.095694532117076403e-02
-9.329098750504088988e-02
-6.042726217418822182e-02
-2.270134232265737934e-02
-3.686927615622388743e-02
-6.863886659006550317e-02
-5.422045475390705610e-02
1.765321089513924302e-03
4.276158004265239593e-02
3.485867298051901347e-02
-7.879612611403425532e-03
-5.706640414990379884e-02
-1.013802939102661366e-01
-1.366023751442880241e-01
-1.470623325898443579e-01
-1.160282871298365798e-01
-4.659375298521271913e-02
3.456203726904322898e-02
8.855509608260664356e-02
8.600545955536714748e-02
3.245427920007577099e-02
-3.492101459367363825e-02
-9.141663442521270888e-02
-1.462721835391141978e-01
-1.808552351145937820e-01
-8.409161858748412377e-02
2.405199797032413489e-01
6.411864601477285097e-01
7.469211139841998026e-01
4.024040487231434482e-01
-7.289084595683381629e-02
-2.583952376179841082e-01
-1.112206811059273937e-01
9.763400111543225901e-02
1.613429019830503464e-01
9.634461457315497690e-02
2.412602123011468522e-02
1.400179732004506149e-02
3.289744618839825913e-02
5.753396103792733120e-03
-9.176765934450327455e-02
-2.051885770200389814e-01
-2.571702642275440209e-01
-2.191513806139460674e-01
-1.320789805648173720e-01
-6.061079194400909725e-02
-2.901615296023991528e-02
-1.695168211296254820e-02
-6.199387664125892081e-03
2.117055608462646218e-03
1.872385058527745432e-03
-1.867347267384157281e-02
-7.227122924241884128e-02
-1.419860783842076257e-01
-1.783660427424549333e-01
-1.505752150193353511e-01
-7.885579558183837545e-02
-2.400735995761314745e-03
5.684162161369135657e-02
8.928193933614125832e-02
8.754350943277738883e-02
5.247102597292249704e-02
-4.594039980489952532e-03
-6.462224294852880746e-02
-1.047988971135020292e-01
-1.134478774626576369e-01
-9.905348248270497147e-02
-7.159532462467663172e-02
-2.724213282360465893e-02
3.037066492263443621e-02
6.771644097493279002e-02
4.670779269213436863e-02
-2.705463325915567763e-02
-1.001641996090708170e-01
-1.233610963766774010e-01
-1.022295439349177881e-01
-7.999245836032914392e-02
-4.594382917887752243e-02
1.065896584232370325e-01
4.251368167252324581e-01
6.992255140259154844e-01
6.139174491931929101e-01
1.798223319549464849e-01
-2.176532864026579639e-01
-2.821542473245008398e-01
-9.415482447040085523e-02
9.721458245915123864e-02
1.605647454896583226e-01
1.277843400063393697e-01
8.259538091405338456e-02
5.810984997073546238e-02
2.193367170893560300e-02
-6.586123725482181945e-02
-1.959031693160461218e-01
-3.081007461380728119e-01
-3.344767436295530971e-01
-2.472190607638253823e-01
-8.618264217809937233e-02
5.799748235060142587e-02
1.095590529070441521e-01
6.831458065636254740e-02
-9.677242792305636859e-04
-4.586408693642257672e-02
-7.685579394208981452e-02
-1.159774537663247895e-01
-1.294220861969068437e-01
-7.546829690136594437e-02
1.288752881846399155e-02
6.714802378672719840e-02
7.132276484344417244e-02
5.511285541210142469e-02
3.916872730116227608e-02
2.474356133651320691e-02
1.043710668158605651e-02
-6.620029295401562951e-04
-2.591329774497891023e-04
2.155815266286379220e-02
6.122390172629631200e-02
9.359788865597495899e-02
9.734288407156363454e-02
8.251609146923646887e-02
6.997489466202018449e-02
5.524198797544946360e-02
2.058795604194683243e-02
-2.819674698658252571e-02
-5.992154924553658862e-02
-4.771513310573962524e-02
7.011096472165400176e-04
3.531717900199485283e-02
1.491511598618242354e-02
1.115802162131283165e-03
1.527039984062474876e-01
5.088421477158595607e-01
7.924923457973414020e-01
6.485051160073171950e-01
1.330771511048696176e-01
-2.927259493112832622e-01
-3.109734151282706471e-01
-4.045819480746022656e-02
2.143600659899898009e-01
2.867821782105299255e-01
2.097783313403393524e-01
9.226238814127578347e-02
-8.942626105174635021e-03
-1.132406196569032547e-01
-2.442780256378102588e-01
-3.604199008409402771e-01
-3.753471737412751863e-01
-2.472735737992322047e-01
-3.497417798843476672e-02
1.357772744857931313e-01
1.605630665593177631e-01
3.241379455291418243e-02
-1.495217146327960100e-01
-2.604033825718041761e-01
-2.565427754050322307e-01
-1.910689418347561452e-01
-1.298614115424099880e-01
-9.015407645819054072e-02
-6.199093095349866855e-02
-4.833897903793268197e-02
-6.288632540617265787e-02
-1.000116879091015459e-01
-1.304653582457803718e-01
-1.369450294779404886e-01
-1.349018980831083181e-01
-1.451343138605129812e-01
-1.651220517503226570e-01
-1.781755155312469696e-01
-1.760287802736322516e-01
-1.643212604596952231e-01
-1.499194281837304410e-01
-1.311570578837042422e-01
-1.089639609224462014e-01
-9.898946509763671686e-02
-1.170548514283043795e-01
-1.530031809135483090e-01
-1.671726624630811009e-01
-1.241874563630689376e-01
-4.177716201367813464e-02
3.368656436590742979e-03
-4.936991531379755077e-02
-1.342444498292742761e-01
-5.550234293566962129e-02
2.866374003702009676e-01
6.360817279721344697e-01
5.647444015033274978e-01
4.186983772326620390e-02
-4.469165534025590913e-01
-4.917624256426810780e-01
-1.802438657511279407e-01
1.629251257196460689e-01
3.602823486481923076e-01
4.111657731020876283e-01
3.530580216092811807e-01
2.174228006129378943e-01
4.827113411403405330e-02
-1.051218538765733845e-01
-2.026422473033643590e-01
-2.219176238004929580e-01
-1.662880788531801990e-01
-5.971835005873716434e-02
5.539656847254783439e-02
1.171028500634351405e-01
7.562433518670852450e-02
-5.344004855971284940e-02
-1.781965238999862755e-01
-2.018568248014031008e-01
-1.192745507047580089e-01
-1.177706887985570383e-02
6.236600807159474458e-02
1.141665476572892857e-01
1.505674376541749626e-01
1.373292602766268133e-01
6.380510273141938582e-02
-2.137779312229496492e-02
-6.582998667104554558e-02
-6.253581251264443697e-02
-3.077596903228444272e-02
1.609855694490414102e-02
7.058681571253218323e-02
1.219433234865651278e-01
1.528284551623864951e-01
1.419106614553513335e-01
8.921292982669712379e-02
3.400864119069267610e-02
1.380769626308339139e-02
1.678198991905008666e-02
1.076808720469704661e-02
2.076771611804682262e-03
2.762489691888879439e-02
9.482446265715274714e-02
1.549371940635618783e-01
1.448945153844604095e-01
6.370242742273299341e-02
1.901880512845968707e-02
1.567905467615286208e-01
4.533898230498317194e-01
6.165917341404145713e-01
3.889238320016083494e-01
-6.159862501747288138e-02
-3.035886430591315799e-01
-1.766060038758872353e-01
8.183667791971552252e-02
2.000832944411280734e-01
1.448727928583658786e-01
4.027160961549985929e-02
-2.419881592100166234e-02
-5.197341121575975442e-02
-8.089745272582399283e-02
-1.248219838837246742e-01
-1.626324183502275977e-01
-1.635656531753107434e-01
-1.185977284059969994e-01
-5.143190862274899661e-02
-6.067505238188615480e-03
-2.012005657554815502e-02
-9.700371194547346976e-02
-1.930808015208436701e-01
-2.367050601430500945e-01
-1.868263765257270059e-01
-8.086936803825625630e-02
2.240496164546773583e-03
2.430828400616873164e-02
3.590895020279087201e-03
-3.481616413334995275e-02
-8.354412966985567957e-02
-1.330008824404203538e-01
-1.587801028998369890e-01
-1.414023184636294950e-01
-9.207398008950332113e-02
-4.305802115572010536e-02
-8.001687794833445971e-03
2.390643500004758712e-02
4.785012436889824611e-02
3.419331837820714648e-02
-2.697950983050113882e-02
-9.996028521146428647e-02
-1.328734166091201929e-01
-1.055086645896956832e-01
-4.781393754354783254e-02
-6.887865139922314146e-03
3.577167154072056349e-03
8.787043408400866534e-03
2.880239418107744670e-02
4.041475391836237691e-02
-4.697645234181412402e-03
-9.866840116787752024e-02
-1.114583299963175789e-01
1.101356262906879879e-01
4.908670245836928570e-01
6.800450715824530867e-01
4.425058847705121146e-01
4.434578416416160018e-03
-2.148494479455914097e-01
-1.114096760404607867e-01
7.712554637394183898e-02
1.337866234895922768e-01
5.654881243996656009e-02
-4.055875341569319115e-02
-8.180180225027329499e-02
-7.934508736236450810e-02
-8.386895907312985621e-02
-1.165366590854597650e-01
-1.495900202992417882e-01
-1.380590471766664218e-01
-6.850664516173755880e-02
1.551136455411223844e-02
4.927179400805477283e-02
1.126367726689777790e-02
-6.572812976536634988e-02
-1.283818797261725986e-01
-1.292805927544770361e-01
-5.888480198781919500e-02
3.423517830852651489e-02
8.684425851552818321e-02
7.772708088592840403e-02
2.213942807551501357e-02
-5.673921228039227604e-02
-1.233161562301313963e-01
-1.320970654992315307e-01
-7.229878220575108871e-02
1.088317094936993093e-02
6.643581041444242274e-02
8.700220675806615012e-02
9.031501064232809461e-02
7.951458500507485594e-02
4.479290417782318123e-02
-9.874528190492611740e-03
-5.953971061849556989e-02
-7.917365191640766964e-02
