1.007713405187651984e-01
-1.950789338970821685e-01
-4.071047143200142715e-01
-5.018495285988541221e-01
-5.072159753573014518e-01
-4.721820242444381144e-01
-4.182874785742858870e-01
-3.322546754141987302e-01
-2.006197937826791067e-01
-5.032451142422700308e-02
5.402913933922303541e-02
6.780615930598606067e-02
9.089332469211928306e-03
-6.886775455907014065e-02
-1.250943591934713384e-01
-1.449075618341330030e-01
-1.365026200135033008e-01
-1.162667901121435532e-01
-8.318970118029353489e-02
-2.365419795684679805e-02
5.004917728458728454e-02
8.874875847785021477e-02
4.607405062696005166e-02
-7.544267751052832760e-02
-2.169574333519863896e-01
-3.036591123762589772e-01
-3.008780751909651552e-01
-2.305499052430622087e-01
-1.350595580324112643e-01
-4.471145035331760414e-02
1.117010212600171547e-02
-9.324019960347703501e-03
-1.278912886091082279e-01
-3.010853469326258414e-01
-4.356467790886473512e-01
-4.635389235207493797e-01
-3.943503142620674029e-01
-2.862125538284474024e-01
-1.794342613917748741e-01
-7.917124447936495224e-02
9.049841426502750960e-03
6.033197216400786045e-02
5.145180866067766701e-02
-1.768227511090303752e-02
-1.241194117313772632e-01
-2.316401810705039921e-01
-3.036477546801037430e-01
-3.173068451918615307e-01
-2.680637405012191166e-01
-1.651642353522831952e-01
-3.654169227930994385e-02
6.396816352700089581e-02
8.004017439485383578e-02
-4.683288380607379675e-03
-1.494641246902575493e-01
-2.665361098127986272e-01
-2.607696195843147713e-01
-1.368641482815576571e-01
-8.528527966729587684e-02
-3.082063443845017292e-01
-6.587931812383709396e-01
-6.796611400616054954e-01
-2.088257799210014587e-01
3.108823283171061047e-01
3.722841652906281884e-01
-3.822250216184111538e-03
-4.107211740823840107e-01
-5.496362034749966430e-01
-4.212891906086106975e-01
-1.845386583546149428e-01
1.749959297589427989e-02
1.188747815509269418e-01
1.266696713261767360e-01
9.701639558972044441e-02
8.767468373172393470e-02
1.168917286141703538e-01
1.635557081882718089e-01
1.930342268371431080e-01
1.861106348380571207e-01
1.579782902858328508e-01
1.438074685689348375e-01
1.561789629951871317e-01
1.651989586797844023e-01
1.284773173114304723e-01
3.437115232406751097e-02
-8.834055750480084013e-02
-1.945185482759563267e-01
-2.500205267035963685e-01
-2.433714646012836713e-01
-1.786268667690284195e-01
-6.318544973310409596e-02
8.214788538440279120e-02
2.036111417177605964e-01
2.363748216288623638e-01
1.616741234719393794e-01
3.014582412495617203e-02
-7.846975146623086372e-02
-1.158962730270202413e-01
-8.994105959487766477e-02
-3.946873748997638265e-02
8.645796699317429349e-03
6.132149070791440004e-02
1.452583415069041428e-01
2.558076703745827407e-01
2.923242137177313738e-01
1.004604503224879597e-01
-2.925408635833806059e-01
-5.416383190924792812e-01
-3.358858910114433938e-01
1.399220358785182583e-01
4.002757084313304792e-01
2.652859836761893852e-01
-2.350314105506545737e-02
-1.961916285942110483e-01
-1.999863049894747835e-01
-1.195158774078187991e-01
-3.892373823498926355e-02
9.113784551841773440e-03
3.610254664425559257e-02
7.392081370667843987e-02
1.467277146793509734e-01
2.455584000888173524e-01
3.265472155353913997e-01
3.463250993323611082e-01
3.053479869310948835e-01
2.432642566155266417e-01
1.864909705586862698e-01
1.271292679298237638e-01
6.127289701636838559e-02
1.261366217094895409e-02
1.022849079744551741e-02
6.507434936721340213e-02
1.575544237105470091e-01
2.375510958704805942e-01
2.577054732736893672e-01
2.097612664234567159e-01
1.224578451488486930e-01
3.990829485995480569e-02
5.023292095382731609e-04
1.704556458584530892e-02
7.482690152911740389e-02
1.489210502748236076e-01
2.193012194381356306e-01
2.732817999437860967e-01
2.953015182085309553e-01
2.603240503815046902e-01
1.586724612704734638e-01
2.883357218780342734e-02
-6.843145840758131648e-02
-1.134966830734178700e-01
-1.286238976458493333e-01
-1.200049267841873935e-01
-6.500416260652135125e-02
3.601725873572962644e-02
1.300986553446810690e-01
1.532487968428287439e-01
9.176373313931776576e-02
-6.594082123993654128e-03
-7.783378845663310730e-02
-9.092667013148400534e-02
-5.255006929221250206e-02
1.947797571873382400e-02
1.083936964935786340e-01
1.891575590606455748e-01
2.241356105023485645e-01
1.800926315985071913e-01
5.787199085326971693e-02
-9.480770130919477512e-02
-2.108287327613084239e-01
-2.532598045798176711e-01
-2.323996869796051967e-01
-1.616979074751406509e-01
-8.852597548324993293e-03
2.569163117009695130e-01
5.116932009335360965e-01
4.333098741396231302e-01
-1.512767764477283561e-01
-8.177107820693630957e-01
-8.496554224083936457e-01
-1.892931375659011040e-01
4.104315462823029392e-01
3.860322912287867392e-01
-1.393874727090907428e-02
-2.507368095503557659e-01
-1.599187317298276789e-01
4.689887921903986706e-02
1.385697147297993148e-01
7.355980915057390435e-02
-4.134245152351535141e-02
-9.447854778308643897e-02
-5.854711569424014828e-02
2.408681217165635144e-02
1.052615354388756891e-01
1.696230706670593391e-01
2.202157120809039581e-01
2.452805376832688511e-01
2.201877005788439035e-01
1.425595645831369551e-01
4.774000264757590622e-02
-1.960519626663391468e-02
-4.216173634510497065e-02
-2.834094170159248693e-02
1.738474933153365959e-02
9.603197683310393806e-02
1.813438589582141991e-01
2.157939719833976699e-01
1.619060921482075033e-01
4.802121982882041201e-02
-5.589343591618826240e-02
-1.072788067159170106e-01
-1.180230765412446647e-01
-1.158038694868285534e-01
-1.084830552534087056e-01
-9.160398406907079016e-02
-6.330878993346991668e-02
-2.544305365784751971e-02
1.193246855249247527e-02
2.498968242429953912e-02
-9.680510642105840530e-03
-8.357430452159504697e-02
-1.452574684249454406e-01
-1.407518080133091098e-01
-6.540971303481471488e-02
3.875886956544574019e-02
1.269112896943970781e-01
1.746876327730034484e-01
1.689466548897722298e-01
1.024255762767759675e-01
-8.741770629132814691e-03
-1.162445289210743554e-01
-1.700745157259719864e-01
-1.575833538937068401e-01
-1.033626092437170546e-01
-3.839596529238094996e-02
1.764575687913215798e-02
5.627549002821378293e-02
9.082840692290128359e-02
1.460280844454157068e-01
1.664755550982403576e-01
-3.522368914518800992e-02
-5.475605585190667091e-01
-1.031600325425024778e+00
-9.450236016337029143e-01
-2.616773158138021582e-01
3.949689135235843751e-01
5.064270748961560153e-01
1.765672428875289246e-01
-1.972306992323997754e-01
-4.012153957012166150e-01
-4.532873217427843548e-01
-4.271701685186277131e-01
-3.598949358563741652e-01
-2.601198289548097287e-01
-1.321696946157784325e-01
1.379482207271493649e-02
1.556800275084640195e-01
2.545472846409174705e-01
2.690768275836948331e-01
1.925107677694786190e-01
7.031168635252983690e-02
-3.019945369631888213e-02
-6.696022814122475075e-02
-4.190592861648718970e-02
1.949816255810938107e-02
9.868071579825113404e-02
1.854000892752506735e-01
2.539138330856046677e-01
2.588085210769610622e-01
1.719171680014405235e-01
2.224240495955617791e-02
-1.120473881294142826e-01
-1.592525588044210461e-01
-1.118180785778273012e-01
-3.397863262731835171e-02
3.276979780407248549e-03
1.050219216358443119e-04
1.437313480389825274e-02
6.669708793789405621e-02
1.016052772888789979e-01
6.013640646232255860e-02
-4.376401448506501979e-02
-1.350377009395453964e-01
-1.473741843836790799e-01
-7.738939874701146471e-02
2.478554122212698468e-02
1.153509509777403130e-01
1.869331710517236345e-01
2.329907493615950009e-01
2.228729837987387663e-01
1.342236346203726227e-01
-1.568650620407851387e-02
-1.731258120251023547e-01
-2.684548236971118218e-01
-2.564100859741292315e-01
-1.507725348115073749e-01
-1.150624092318956043e-02
9.236853377705364632e-02
1.196304405970677054e-01
9.804644746994069238e-02
1.045447933743616081e-01
1.270327586704928235e-01
-2.062665082249431903e-02
-4.591293091050912545e-01
-8.807988595774230989e-01
-7.505005221376391811e-01
-4.833877006958983702e-02
5.685138917913333811e-01
5.698715239488172379e-01
1.314462882256199339e-01
-2.569312638275241256e-01
-3.803102859688348714e-01
-3.356018347994518258e-01
-2.547969935781826956e-01
-1.702154771586021076e-01
-6.284691073252825222e-02
7.186040935433279930e-02
2.098491451480059833e-01
3.100540660678008931e-01
3.350135775275047134e-01
2.762564976627902569e-01
1.609214334422440773e-01
3.107691284868764614e-02
-7.431988296872932276e-02
-1.213159791106315361e-01
-9.018690383811305000e-02
9.511992851921502456e-03
1.434815533649871078e-01
2.645659043726095172e-01
3.172880185508374362e-01
2.600577645651250269e-01
1.027319104066817673e-01
-8.821031385357139265e-02
-2.309057513246389193e-01
-2.741912772670611620e-01
-2.145817697781351452e-01
-9.386645845173768876e-02
1.507987952197299003e-02
5.113571645019440032e-02
1.657983186145941396e-02
-2.751473560763699477e-02
-3.609328583917827127e-02
-3.564941593010497595e-02
-7.452929035573130356e-02
-1.345946954946222185e-01
-1.444727052500988929e-01
-7.210671680942840056e-02
4.942271677182356188e-02
1.717532871453449350e-01
2.531669174180107840e-01
2.556624011906453720e-01
1.724836180230230331e-01
4.339864774339978470e-02
-7.924341827315140030e-02
-1.556143438937077905e-01
-1.527325889415532822e-01
-5.953323796574735288e-02
8.452491631352693213e-02
2.051926213863421722e-01
2.420455159138180656e-01
1.833044931809867939e-01
8.433735279195798962e-02
4.499234979130950496e-02
8.620122528553081365e-02
2.786715111828613062e-02
-3.400365497847107621e-01
-8.275481223909483264e-01
-8.431036445585352590e-01
-1.453898627376299379e-01
6.739590059216780116e-01
8.699017067140655257e-01
4.277315571549860085e-01
-1.027428594031911807e-01
-3.496119371656623009e-01
-3.543733654320924686e-01
-2.823110908051785217e-01
-1.906196244686070296e-01
-5.187355639445317967e-02
1.393572423160758245e-01
3.275381781220439437e-01
4.334080058205082575e-01
4.088711496989821947e-01
2.711858569991543177e-01
1.001538129806471694e-01
-1.511362502342998397e-02
-3.820424222207229742e-02
1.576653632249031337e-02
1.259369775195242347e-01
2.749987847390257256e-01
4.166609837404424699e-01
4.771901212040373097e-01
4.182455490329911596e-01
2.756514832651451585e-01
1.121396122282139474e-01
-3.805942074295945443e-02
-1.556596035674769618e-01
-2.064498833222646323e-01
-1.596622649146600126e-01
-2.579813936625283133e-02
1.355023803687212258e-01
2.427982676214574531e-01
2.407208287156436533e-01
1.391709554231704837e-01
1.220868459065012086e-03
-1.116056820308401198e-01
-1.697058927301788034e-01
-1.636693344603507849e-01
-1.002827238672645144e-01
-1.171434253390860394e-02
7.056594961229745167e-02
1.572435127801262156e-01
2.588851129071002566e-01
2.691109278771559032e-01
-2.793512688325909456e-03
-5.282495383444548720e-01
-8.892226928611217662e-01
-7.030138887627410682e-01
-1.606754189710115910e-01
1.933346684332980792e-01
1.405135021305359277e-01
-7.211108228543124110e-02
-1.631884281722809360e-01
-1.100728553507970692e-01
-5.562348427866490447e-02
-9.304512153858471302e-02
-1.766862524911659571e-01
-2.005324518717690740e-01
-1.197044477474109025e-01
2.585885281374597153e-02
1.783327311020972972e-01
3.079825306828095077e-01
3.951677318245827020e-01
4.057840818501443070e-01
3.122656815158921795e-01
1.397724270592971552e-01
-2.822536666187151419e-02
-1.117935075087035657e-01
-9.576079803971508653e-02
-1.301551186445493342e-02
1.074108594880553713e-01
2.381740293203391534e-01
3.246915457556420193e-01
3.096596203334889275e-01
1.876461060872861575e-01
1.311414008687580152e-02
-1.436109191741541113e-01
-2.399308980035644578e-01
-2.663132035870334202e-01
-2.232888159993371979e-01
-1.132502815473578062e-01
3.817111372624391180e-02
1.724698868925403084e-01
2.289363699421908260e-01
1.839783299309789844e-01
5.994783790337000762e-02
-9.226835320037117538e-02
-2.131913382005287128e-01
-2.595655781418663155e-01
-2.346740569031168788e-01
-1.801921327893369340e-01
-1.213893564938556408e-01
-4.506842803522118079e-02
5.024025629349858357e-02
1.104110451086601774e-01
6.954240992666743670e-02
-6.456658341108104104e-02
-2.044139260358892318e-01
-2.669624477817161834e-01
-2.299019918611052982e-01
-1.084651723264526135e-01
6.950902031339505072e-02
2.456524011938124030e-01
3.359288523566237861e-01
2.937814342818639846e-01
1.520202544566561786e-01
-1.453027793772903101e-02
-1.458804937023549242e-01
-2.099616714519785265e-01
-1.959073639481329898e-01
-1.180467817357766513e-01
-3.833159310134828454e-03
1.410830388478852282e-01
3.214888254081844643e-01
4.550542927947703320e-01
3.253528457249958983e-01
-1.976652840055546090e-01
-8.196595842620152395e-01
-9.642612301169590783e-01
-4.666664189886755021e-01
1.480190397875153496e-01
3.173540176948866365e-01
7.377167593809189072e-02
-1.779176025640357706e-01
-2.122937838243025566e-01
-1.128837474673103219e-01
-4.602443699335503208e-02
-8.410120662627207366e-02
-1.948274231862826555e-01
-2.875869254824950372e-01
-2.632786515822428952e-01
-8.390576725919771106e-02
1.817506244912204805e-01
4.004330085658260874e-01
4.732533648876972587e-01
3.970509535741663099e-01
2.407452368700298551e-01
7.469052281346034994e-02
-6.779586632359112242e-02
-1.669411506211567753e-01
-1.867027540313222767e-01
-9.918876525503224351e-02
6.118061864859460075e-02
1.994379310001296035e-01
2.360513704234236398e-01
1.642726259505350450e-01
3.008180463914060868e-02
-1.128527412396058555e-01
-2.238087191703474199e-01
-2.801039221694173187e-01
-2.765176521816310462e-01
-2.195150665938470635e-01
-1.258437292796001361e-01
-2.393041352139892164e-02
5.669380865659188334e-02
9.766649836660910855e-02
8.643605299427778443e-02
1.614370304477893980e-02
-9.177699455915108717e-02
-1.824548467253463702e-01
-2.023381076304558157e-01
-1.355329328443322379e-01
-8.302986093646276544e-03
1.339047975666415036e-01
2.500131830866978433e-01
3.045112265772530469e-01
2.631320249610280548e-01
1.129727002263138935e-01
-1.075234197019728777e-01
-3.094261439224958443e-01
-3.987204019886785855e-01
-3.338328332457717873e-01
-1.481431080170832748e-01
6.872603174488128852e-02
2.118318725267939462e-01
2.230342666585411193e-01
1.450433409611420477e-01
7.921265791395995515e-02
2.871052615319408946e-02
-1.650308172750620528e-01
-5.656240267662382415e-01
-8.521325362741059006e-01
-6.021302302630734404e-01
7.666875323515282004e-02
5.736227062890941752e-01
5.127038344235748113e-01
1.067291717368052256e-01
-2.432685335728454468e-01
-3.744969508717855278e-01
-3.570394477024960711e-01
-2.907040338188078277e-01
-2.007844346567728144e-01
-7.088099246817905486e-02
9.369398973857102908e-02
2.513035970445104961e-01
3.495858179759259166e-01
3.554377035461309675e-01
2.763724412551484821e-01
1.599786840464309523e-01
6.119771235556520361e-02
1.104358420653178859e-02
1.990673609489998150e-02
8.508686620079936036e-02
1.809802745645452682e-01
2.694190548681577035e-01
3.292366863332839566e-01
3.530920653064787418e-01
3.194354098323623492e-01
1.983265754097368050e-01
2.183999143735987358e-04
-1.935793318230261129e-01
-2.776788466674555700e-01
-2.119567983629045693e-01
-5.740148039516417694e-02
7.268865956773447323e-02
9.825491899961520670e-02
3.136614165096673207e-02
-4.527674277330682312e-02
-7.323162275883703110e-02
-8.008010485086078378e-02
-1.198385386523482254e-01
-1.725683250715025485e-01
-1.524140485556657876e-01
-1.472190132031211615e-02
1.811487110699882275e-01
3.240953965457288311e-01
3.510503958874239827e-01
2.855394253710191177e-01
1.850030139900820103e-01
7.992302065100855002e-02
-1.689923208344924765e-02
-7.490010859548189293e-02
-5.585127351253064976e-02
5.228916117964937937e-02
2.162952109521375788e-01
3.563670356653149129e-01
3.868142759692466681e-01
2.956202225599865452e-01
1.791612226601211888e-01
1.569135519940213774e-01
1.959144947077632315e-01
4.917315696281296389e-02
-4.354007119626631117e-01
-8.915931800034311294e-01
-6.989191696591281477e-01
1.259456526485400185e-01
7.781431423169903328e-01
6.613561689078547579e-01
4.468064964124222882e-02
-4.610655893247031512e-01
-6.093445561385930631e-01
-5.314014762986769558e-01
-3.894429706538258817e-01
-2.209089966933717453e-01
-1.080960445525896638e-02
2.194547134032014957e-01
4.028116398794051034e-01
4.682583473240178873e-01
3.937682270445733712e-01
2.306837386422829761e-01
6.450502319487917691e-02
-4.877646312989545457e-02
-9.321767393049566752e-02
-6.103420505757300996e-02
5.067297329895294189e-02
2.095842525931058409e-01
3.440831538682846413e-01
3.879308016954827742e-01
3.253873442848809194e-01
1.921942063671879253e-01
4.149316616606155139e-02
-8.707334168161062760e-02
-1.668372196256702189e-01
-1.753839835637178990e-01
-1.171663594759554811e-01
-4.068508345696812689e-02
4.365647129641752472e-03
1.802914665386402826e-02
2.876389813750526714e-02
3.507020122114820615e-02
8.925418501862089279e-04
-8.837891794341110052e-02
-1.853617387083155155e-01
-2.127426919487596102e-01
-1.361863046137125610e-01
4.373364577659053648e-03
1.343232930560520066e-01
2.009770416083839217e-01
1.890579156840057617e-01
1.029516482370015640e-01
-4.039367393794632971e-02
-2.000193708046372199e-01
-3.156452869133446471e-01
-3.403863617793111418e-01
-2.643701515810480407e-01
-1.123547651270444536e-01
6.036074586768657574e-02
1.779474172756158878e-01
1.871881858576806557e-01
1.133609504797070400e-01
5.530555620057043403e-02
6.625499532689584081e-02
1.891028376651854997e-02
-2.845634890126116923e-01
-7.346716304031167821e-01
-8.295021160975341035e-01
-2.756461920447846325e-01
4.918183925049470218e-01
7.770606301800241367e-01
4.467773323090585280e-01
-6.279851655445324587e-02
-3.575422976777697937e-01
-3.915732427836172147e-01
-3.055952562603727052e-01
-2.066864197966276906e-01
-1.073188244771161176e-01
1.774112015117017965e-02
1.604247556712077305e-01
2.716971381907855587e-01
3.112341737898134952e-01
2.830841501077009381e-01
2.189394299830042523e-01
1.434353945831037258e-01
7.011174402746715717e-02
2.144750360094374586e-02
2.656061951445420899e-02
9.093950690493543543e-02
1.809663104842021697e-01
2.404562389307987047e-01
2.206986979788866932e-01
1.126613040525443477e-01
-3.848398245745140306e-02
-1.658054939562096097e-01
-2.332513854601075132e-01
-2.434098516902070686e-01
-2.009522662367049517e-01
-9.981929132588833464e-02
4.051726987318651080e-02
1.528917225324900597e-01
1.679033526594010950e-01
7.979623118128420511e-02
-5.014603467208975096e-02
-1.568335683292780280e-01
-2.205888312519083405e-01
-2.454820355725894077e-01
-2.147992023098444225e-01
-9.487585436158105234e-02
1.067598527904650152e-01
2.685775402402391099e-01
1.863725978878713607e-01
-1.844348699738688757e-01
-5.355684455682673262e-01
-4.986357862328513746e-01
-1.509184347038329821e-01
6.407390477293328779e-02
-7.318233118273007043e-02
-3.417459727933782054e-01
-4.353394152217889834e-01
-2.926707772121999729e-01
-7.460959714802090081e-02
4.064013716322877751e-02
2.647466823683743836e-03
-1.144590635642228071e-01
-2.046642258643053824e-01
-2.071251210211723648e-01
-1.232453307637605411e-01
4.533947749667168597e-03
1.279623079046295353e-01
2.236714595686282170e-01
2.885743562224216130e-01
3.075684323809571574e-01
2.504540650460613249e-01
1.108703379286363616e-01
-6.775793580345958189e-02
-2.126048719661489950e-01
-2.641062456284071214e-01
-2.061055086323378693e-01
-7.000663540048956968e-02
8.229209857405339612e-02
1.868131047621047480e-01
2.045647672338254952e-01
1.331035788783607454e-01
2.226638815958584955e-03
-1.376678158692155318e-01
-2.338855753391305414e-01
-2.522007721811331260e-01
-1.861758196407923005e-01
-5.421761181878267943e-02
1.031429942253924009e-01
2.298595478141650661e-01
2.791515588273472126e-01
2.420505781449190097e-01
1.433198559831709296e-01
6.612022879471032843e-03
-1.544338658249454488e-01
-3.004227308523782503e-01
-3.574729269771924622e-01
-2.762025081721655728e-01
-8.789737029913571864e-02
1.129466185677293760e-01
2.382193044635813328e-01
2.565425506294239377e-01
1.857353652279625511e-01
5.962120026276336582e-02
-8.248935401711662840e-02
-1.905927619804288764e-01
-2.152121342122492453e-01
-1.338014656614352760e-01
3.225798897855975539e-02
2.242177658414375996e-01
3.672408815765299539e-01
3.973552544434868494e-01
2.995725389519414139e-01
1.288672859186312802e-01
-3.604831039455924646e-02
-1.629641857344881761e-01
-2.500902153817153861e-01
-2.423804094099325512e-01
-5.135014406284141297e-02
2.606981660366344267e-01
3.854687571868028462e-01
7.250094868261876269e-02
-4.245429103103144364e-01
-5.226001366154103822e-01
-9.143524505054329010e-02
3.217549505352783612e-01
2.481331481463639188e-01
-1.299016489715808242e-01
-3.431551183864524623e-01
-2.204319173688533418e-01
5.211827462717967541e-02
2.326974044943383169e-01
2.385363629883448522e-01
1.361882795916972144e-01
2.237448123505860614e-02
-6.108909382628426032e-02
-1.160883897529542963e-01
-1.265290363369912241e-01
-4.894645155148297927e-02
1.181445908217590157e-01
2.883817208563461132e-01
3.517559104436303596e-01
2.806166985116884116e-01
1.435270352008441719e-01
1.891400010655647224e-02
-6.929087270375774987e-02
-1.249178236250024637e-01
-1.308969085039293490e-01
-6.071585620513172965e-02
7.661494229180990101e-02
2.275243832198072802e-01
3.231928771933531563e-01
3.130974672541184112e-01
1.929539577622455537e-01
1.805465438648341456e-02
-1.272347216889316013e-01
-1.997932256022036668e-01
-2.265309550428674379e-01
-2.407657724802200472e-01
-2.201546758989892383e-01
-1.244886809700007924e-01
2.880173158529605870e-02
1.602499865172971050e-01
1.937251276969073899e-01
1.156519726657668085e-01
-2.435863709926215648e-02
-1.554855477250381701e-01
-2.151030193253066491e-01
-1.602674761209655074e-01
2.711573649138928482e-03
1.990439937022773498e-01
3.301530757106216907e-01
3.469058735419794370e-01
2.727310735035066158e-01
1.600879191226038112e-01
4.119783489548221184e-02
-6.468619533164425561e-02
-1.215078307969642418e-01
-1.011119043836687381e-01
-2.728363107060472262e-02
5.388572072640101379e-02
1.417027036282559882e-01
2.673818278082613631e-01
3.836855713366409404e-01
2.910981071737703818e-01
-2.002498307160129609e-01
-8.958156141605359002e-01
-1.175010669059100898e+00
-6.693734549596517258e-01
1.661115799019202144e-01
5.707740215074151857e-01
3.744963115478251447e-01
-4.125191079178344711e-03
-2.072818710748264848e-01
-2.331208996652446852e-01
-2.275116330402241205e-01
-2.363413362764524572e-01
-1.876148933188911405e-01
-3.688030961008640501e-02
1.482666678306455987e-01
2.734177187663414110e-01
3.209168334012206247e-01
3.265642753803454368e-01
3.082751447885636042e-01
2.537536949894008687e-01
1.564191971460729691e-01
4.530205271678934553e-02
-3.264231509564759909e-02
-5.639714700191367225e-02
-3.287737831919226861e-02
3.642579711145918497e-02
1.509271859704849617e-01
2.726200586201548703e-01
3.348483100860935591e-01
3.005226695206187904e-01
1.857734219596467451e-01
3.604993783604954621e-02
-9.133678774526175770e-02
-1.483620131814891163e-01
-1.359570299969801166e-01
-9.312804372562187571e-02
-2.682486159569971371e-02
9.496537479698710649e-02
2.482838982574911146e-01
3.150194952607603405e-01
2.063025970161955769e-01
-1.252730369076773473e-02
-1.808495053302118516e-01
-1.990844352350995827e-01
-8.495930539297086304e-02
8.637033715241948517e-02
2.463869422184285229e-01
3.507946137462257252e-01
3.737869984673068413e-01
3.086876454790341562e-01
1.756434976402528603e-01
1.199119424151426187e-02
-1.469108064081328102e-01
-2.640594791254150531e-01
-2.954647027796484804e-01
-2.214767954812408846e-01
-8.289007257978539545e-02
4.341351170918790470e-02
1.240339303653075209e-01
2.004177058480282325e-01
2.845317788700474360e-01
2.225082058338714863e-01
-1.941814149409352153e-01
-8.358015403243926889e-01
-1.130838722802015139e+00
-6.897715391322599698e-01
1.035055243957417603e-01
5.176521086372837255e-01
3.392769309723240867e-01
-5.132426205955832599e-02
-2.769191772027851939e-01
-2.989319043446648783e-01
-2.613702426394446388e-01
-2.479425536602349878e-01
-2.293888772883298233e-01
-1.550706946756404414e-01
-2.529075579697106710e-02
1.222739905279594252e-01
2.497178647544501529e-01
3.244665400297840341e-01
3.169593044478310473e-01
2.170987110456722435e-01
5.133995765141458056e-02
-1.208131381481216682e-01
-2.327678531710104526e-01
-2.465125974871969494e-01
-1.692314575553076350e-01
-3.822665612029993443e-02
9.585951263140352063e-02
1.702107261274697914e-01
1.305664620752617355e-01
-1.628533090545367448e-02
-1.848481298423135799e-01
-2.808633627096239205e-01
-2.871520287442055341e-01
-2.499003394711710180e-01
-1.965401020766602558e-01
-1.173752566845466527e-01
-1.274911698038532111e-02
9.351928921798323413e-02
1.735996979401593920e-01
1.959332868777403092e-01
1.336583171391105274e-01
3.238483458459447822e-03
-1.256272776295361271e-01
-1.802707132955551073e-01
-1.364653646388289121e-01
-1.972154549593771802e-02
1.214285116353398808e-01
2.342339541233968148e-01
2.729937317435792710e-01
2.161611690350595805e-01
8.467610706883474392e-02
-6.200868765638920671e-02
-1.634032989937317659e-01
-1.939042974637995298e-01
-1.543166373074421616e-01
-4.755672086965075096e-02
1.041376900187076932e-01
2.356558559611883485e-01
2.854106825033589367e-01
2.600744806083708505e-01
1.846648088220906314e-01
-1.164837397093188356e-02
-4.113507139224220621e-01
-8.233390597759194796e-01
-8.104496402004797151e-01
-2.362118092936227598e-01
4.337750391641824188e-01
6.405438486436548784e-01
3.366370094503624566e-01
-1.086185527928503758e-01
-3.845588967866117591e-01
-4.476233915979779820e-01
-4.010625273249721623e-01
-3.266144567757632844e-01
-2.312711359625822527e-01
-9.245040082261714309e-02
8.158587874932578254e-02
2.346379489606542079e-01
2.956160053560117906e-01
2.376143966491781612e-01
1.131046670473754706e-01
1.219938108974664634e-02
-2.031582780955042480e-02
-5.773271794050616884e-03
2.119183314934412060e-02
5.632025278199496304e-02
1.170348816687468291e-01
2.030155967685644824e-01
2.717462877738666127e-01
2.638661698509065512e-01
1.564653530491925959e-01
-1.310931666171576138e-02
-1.729153662789232881e-01
-2.631997040861366322e-01
-2.629733015493576631e-01
-1.817119289279942040e-01
-4.751417313744957238e-02
8.958583335745912146e-02
1.713899198573356764e-01
1.676014115190309628e-01
8.922928379371870833e-02
-2.909014780558862728e-02
-1.475379310036935288e-01
-2.341292589233445187e-01
-2.719920457531510016e-01
-2.471220444945367578e-01
-1.321327161576652254e-01
7.903139284218219096e-02
2.761898846087991188e-01
2.374986257003213752e-01
-1.055916755118654904e-01
-4.431528618630062311e-01
-4.055467421831970287e-01
-9.978174152733376712e-02
2.150988524385125111e-02
-1.933265089747505105e-01
-4.412498728639956402e-01
-4.248369999753025539e-01
-1.701016668932180398e-01
1.011288812074629812e-01
2.243438954770804183e-01
1.883181533949476738e-01
7.459565181548429014e-02
-3.065903331592919473e-02
-7.670462048114919107e-02
-4.760775216761389816e-02
5.388376102270650558e-02
2.107636488400796149e-01
3.741563811620015056e-01
4.687280572104638998e-01
4.475889464165721532e-01
3.331546238697087325e-01
1.896227740508930892e-01
6.716088654306190397e-02
-1.544015307353429137e-02
-4.294495600514651457e-02
9.807889927125820750e-03
1.409535658699705429e-01
2.924835125845517969e-01
3.836444889739378250e-01
3.685706534548859881e-01
2.636796131358832840e-01
1.282685465563885019e-01
1.348961049528574208e-02
-6.519207736791446384e-02
-1.034841858426862327e-01
-8.455358914286713323e-02
1.723908717840644256e-03
1.356757390985429135e-01
2.759988091942732202e-01
3.704383948018933892e-01
3.624075668629898606e-01
2.281256933654620123e-01
1.168090406033588276e-02
-2.046525885425104496e-01
-3.559640703176496501e-01
-4.037623533377072138e-01
-3.214791667635962802e-01
-1.165400932182656946e-01
1.298718108495350576e-01
2.868428314343784979e-01
2.734888272038149548e-01
1.251620411834167834e-01
-5.085834332149002934e-02
-1.636807741807648764e-01
-1.818766410906824671e-01
-1.237532810099776504e-01
-2.608723105710933701e-02
7.876980752289083898e-02
1.682491630518781756e-01
2.354839810352112872e-01
2.882416171962662865e-01
3.145421423968373098e-01
2.650179356766940164e-01
1.145398398897180675e-01
-7.868542302899114715e-02
-2.105744970445137532e-01
-1.883555962449204868e-01
4.157352288356065684e-02
3.899834242540355933e-01
5.265993799567589839e-01
1.436668024331509141e-01
-5.200942688193922470e-01
-7.642432549582215406e-01
-3.311811923411832059e-01
1.838616467434114887e-01
1.591354907304567134e-01
-2.696911081597759274e-01
-5.459944196209407519e-01
-4.068714820131134058e-01
-2.765077394989817750e-02
2.831346944768290963e-01
3.540023535320272474e-01
2.113358849630341540e-01
-9.784997870282231835e-03
-1.828774927536581663e-01
-2.485348332630996360e-01
-2.047032936865973707e-01
-7.462734671026342859e-02
9.950057066390832761e-02
2.494673378775820738e-01
3.052218557811931521e-01
2.434652942632319628e-01
1.065304922607802351e-01
-3.743021616432215537e-02
-1.478287507295769632e-01
-2.134737041089996845e-01
-2.218823272596908980e-01
-1.610188381634558852e-01
-4.407340005432588970e-02
9.006366610008684215e-02
1.900335251919984536e-01
2.043124101036085938e-01
1.154001327510247865e-01
-3.049592110512153870e-02
-1.569738648718714824e-01
-2.250744913067811992e-01
-2.507208794984125411e-01
-2.578473093301796859e-01
-2.311451985167146672e-01
-1.318264975247334658e-01
3.044698041104940134e-02
1.638561486596608607e-01
1.692986472710820700e-01
4.318203542061506417e-02
-1.228186991003337447e-01
-2.310852412833340475e-01
-2.380577298563857913e-01
-1.494852064853489371e-01
-5.358434534028077428e-03
1.331868461456871267e-01
2.167994920725078989e-01
2.308358034523921853e-01
1.797855176227694529e-01
6.961525735073222088e-02
-8.201962890501007797e-02
-2.325805660476494008e-01
-3.260020747584731482e-01
-3.244128484642672672e-01
-2.354856464420690965e-01
-1.007262683522635038e-01
5.747423714756339647e-02
2.445704906135731937e-01
3.878843454256342138e-01
2.695205564504651319e-01
-2.474277668894326321e-01
-8.675041870416694278e-01
-1.004302846571904384e+00
-4.686121701879506496e-01
2.438741241353047928e-01
5.543319369829666776e-01
4.117662151346470623e-01
1.452678235166905973e-01
-7.589382131941664611e-03
-5.204423156649327920e-02
-8.265690769554946693e-02
-1.353062084197896031e-01
-1.734252603760126632e-01
-1.456321925896632841e-01
-2.994435615763692271e-02
1.521008261796384375e-01
3.364736729111578728e-01
4.390772796630328934e-01
4.063761722652785013e-01
2.604499946481335648e-01
8.296771860055635051e-02
-5.565587488717322479e-02
-1.348803824905950854e-01
-1.514031268053124546e-01
-9.124978900706748330e-02
3.983021151083232514e-02
1.889836724512377608e-01
2.866178481758089314e-01
2.905514985388287230e-01
1.989186773079825998e-01
4.828820755316151625e-02
-1.001060527189632232e-01
-2.000538783446857150e-01
-2.460186016853692370e-01
-2.475962570490707060e-01
-1.989461787781612589e-01
-9.220939895329688385e-02
4.961155497614559706e-02
1.640434674217433331e-01
1.813122707214329110e-01
8.184997574275294785e-02
-7.550698602760018419e-02
-1.987060056282838327e-01
-2.380437174855747906e-01
-2.012918097596635980e-01
-1.053232939015960185e-01
4.285030999148135844e-02
2.061560571348241278e-01
3.011316881832609149e-01
2.591471245436550164e-01
1.049279165157148697e-01
-5.299450567935104495e-02
-1.286479344213630194e-01
-1.262230191399392742e-01
-8.304639987169394610e-02
-1.283781567839627213e-03
1.238144632410710932e-01
2.560103183117999892e-01
3.467463874747543362e-01
3.944109679128674495e-01
4.147332731305093945e-01
3.191113018811982394e-01
-5.361997064065638502e-02
-6.061908850474329036e-01
-8.415391766349151759e-01
-4.132348244436465090e-01
3.062172345969110809e-01
6.338394146056862688e-01
4.109024629994565969e-01
3.171452704795652000e-02
-1.671409977148248238e-01
-1.888159947169998631e-01
-1.805202710094533092e-01
-2.142895463952327328e-01
-2.520326076209015165e-01
-2.189801535593360604e-01
-8.304118553140657499e-02
1.151310964786843027e-01
2.911374667768856228e-01
3.704872269343688629e-01
3.252164508095760076e-01
1.837001879660896952e-01
1.500100470833689095e-02
-1.136064414286993285e-01
-1.726210187395407492e-01
-1.593395216036730122e-01
-7.227005706554538722e-02
7.378454962783337345e-02
2.218018726945854280e-01
2.973118153473173764e-01
2.640710933958774764e-01
1.448317998064434786e-01
-8.085519847889030901e-03
-1.527912434747865089e-01
-2.626769041586831110e-01
-3.000709144100307535e-01
-2.281363320617977031e-01
-7.447389102731094557e-02
6.363197734997567967e-02
1.117773945881235242e-01
7.809246573086299492e-02
6.293451062428814108e-03
-8.038281994536800035e-02
-1.670639244120723510e-01
-2.197487706666109153e-01
-2.032537090310983507e-01
-1.161222034428956024e-01
1.073645171344492395e-02
1.420141326783287694e-01
2.471415434933514621e-01
2.903277922180085291e-01
2.397146938791147319e-01
9.539734123853212122e-02
-1.009292526115844746e-01
-2.818530452226554184e-01
-3.765348909550101375e-01
-3.344875144329732541e-01
-1.554724818678604736e-01
8.323125149527527133e-02
2.457007787955796108e-01
2.405859725828342066e-01
1.289928569073167386e-01
6.734677689077180063e-02
7.023198660923833658e-02
-1.099228062552234098e-01
-6.586568701438694218e-01
-1.219463072463675246e+00
-1.114462616672762696e+00
-2.582770992161860235e-01
5.856201046866215121e-01
7.264352294114908570e-01
2.860695892020189701e-01
-1.746827285465500090e-01
-3.507000986106096896e-01
-3.233699802031143600e-01
-2.615334535912383074e-01
-1.981455462534957856e-01
-6.867263818978913692e-02
1.440158516643913478e-01
3.572841545506313943e-01
4.620939460447385239e-01
4.205828701942450065e-01
2.859254643672786145e-01
1.426051094504305339e-01
4.756221560286465200e-02
1.938830250709392203e-02
4.724028061032484183e-02
9.701553468344568942e-02
1.379051855662627446e-01
1.775795531093444790e-01
2.393837012471168035e-01
2.898643184747756174e-01
2.362393251993459009e-01
3.697160451536750381e-02
-2.176303200854217690e-01
-3.814844848887762319e-01
-3.921950807626870539e-01
-2.977286545878778945e-01
-1.634241534107286897e-01
-1.211137837369277367e-02
1.311459708447827999e-01
2.009689256387174883e-01
1.464203752408516912e-01
-4.301147428404497597e-03
-1.631054493139732220e-01
-2.540257294588591508e-01
-2.515770132640190448e-01
-1.584406707621495158e-01
1.856717068910948218e-02
2.439558149472935145e-01
4.083991217467620172e-01
3.377603168473140016e-01
-4.790136858934009728e-02
-5.150064413037156452e-01
-6.404851724172425653e-01
-3.199079020834519338e-01
5.895138513847571204e-02
1.106377798383205852e-01
-1.085666495098891737e-01
-2.735759499246421811e-01
-1.982091203189733641e-01
2.757428819673462053e-02
1.948685061927504236e-01
1.899612222892248514e-01
6.552317186040930441e-02
-5.206852471591456866e-02
-8.292810807720023270e-02
-2.602223135796914721e-02
8.305498266239300098e-02
2.137575855532060087e-01
3.438495145254552021e-01
4.423579462927546002e-01
4.692875203921502703e-01
4.024846190571095828e-01
2.592774118699072150e-01
8.601753085592500625e-02
-6.426518656843881183e-02
-1.429420058266516746e-01
-1.175813944187299176e-01
6.462536215952687652e-03
1.731823721065545996e-01
2.958425163084910658e-01
3.108025772224308203e-01
2.210349067174507687e-01
8.232750291137942711e-02
-4.488146384443297832e-02
-1.248051658094277566e-01
-1.465836664409508605e-01
-1.104766738806159665e-01
-1.905522237646539024e-02
1.103162786761187342e-01
2.317895086570541385e-01
2.888133289575845475e-01
2.498645133377845329e-01
1.279038344632893731e-01
-2.390504553318721637e-02
-1.406339668790122788e-01
-1.907132536082483676e-01
-1.895700118634260911e-01
-1.541449868491122088e-01
-6.833754511558566558e-02
7.222169422838571606e-02
2.055301211185044941e-01
2.442120784394870292e-01
1.663442244838269357e-01
2.815433180652090334e-02
-1.030862869645416124e-01
-1.893503316999121666e-01
-2.067727711065262264e-01
-1.416197483571242921e-01
-1.289678622924097032e-02
1.324366072719393994e-01
2.531064462094121947e-01
3.201628586044422686e-01
2.984537241681953224e-01
1.619122429590334478e-01
-5.521167799726230119e-02
-2.520682770100017289e-01
-3.381459517718122809e-01
-2.948201851431571097e-01
-1.348846678213697359e-01
1.321843384122628751e-01
4.024575925840451207e-01
4.085389226205996538e-01
-3.563522731092993306e-02
-6.571295418199699645e-01
-8.711808999683937627e-01
-4.908391990687649975e-01
6.182860353716179702e-03
1.159886017364412381e-01
-1.099577211407749000e-01
-2.935261535058117932e-01
-2.396229948135457921e-01
-4.915796335441699472e-02
9.487218881515756264e-02
1.077282674287264597e-01
2.023475349481160951e-02
-8.875962568198893232e-02
-1.503379558255892590e-01
-1.284574600199419325e-01
-2.228496046053639323e-02
1.376606828954209660e-01
2.940510362898944852e-01
3.827802684246993659e-01
3.723470012151413044e-01
2.783071172452887265e-01
1.362806218266690017e-01
-1.547607195539628042e-02
-1.321823541986017481e-01
-1.759420257932715059e-01
-1.359375550175550285e-01
-2.595144420278219788e-02
1.209248175989526275e-01
2.466483172353859665e-01
2.833671492450328122e-01
1.993072470738888047e-01
2.846131566363445387e-02
-1.530215673463683757e-01
-2.796438021243649041e-01
-3.287925347399840437e-01
-3.108151221405182074e-01
-2.416932294877218168e-01
-1.368249848053953999e-01
-2.319944571729727623e-02
5.932624479356016223e-02
7.509071124492432137e-02
1.899968264907056156e-02
-7.206457862324160135e-02
-1.465193389028438820e-01
-1.722828128681600512e-01
-1.360446287111896357e-01
-3.565656715275242195e-02
1.027511869324171795e-01
2.199580845681064212e-01
2.594599086202207250e-01
2.045921202707767228e-01
8.294678380703053577e-02
-5.024976292523337940e-02
-1.389345500370038067e-01
-1.554966071032227726e-01
-1.074922601359071250e-01
-1.648826653228263259e-02
9.663906857552069518e-02
2.029141766050937823e-01
2.722240369092600032e-01
3.075712303613353238e-01
3.137475761146684139e-01
1.821171364952365868e-01
-2.526224432519743601e-01
-8.495459596662507940e-01
-1.044185192854915734e+00
-4.846479686527439545e-01
3.688471236250361329e-01
7.377310221610762220e-01
4.502129624341927316e-01
-3.713457790126067914e-02
-3.183683083177198947e-01
-3.633415584066175263e-01
-3.145509765995939677e-01
-2.569466556929489442e-01
-1.927689047487804175e-01
-1.029566538019181798e-01
2.086996676146451318e-02
1.664659262165978648e-01
2.880015217289598195e-01
3.218201557039526706e-01
2.431855090612497772e-01
9.652927959054646845e-02
-4.687318044960972485e-02
-1.436354163671734463e-01
-1.768859023179865653e-01
-1.305660815175748724e-01
-1.709073950709157422e-03
1.683059149186305892e-01
3.056672374442012674e-01
3.552842529990282716e-01
3.050713454883281495e-01
1.718012666096507823e-01
1.046874290928503232e-03
-1.320595172272582829e-01
-1.709022318879726832e-01
-1.258056413811177998e-01
-5.259156031481194982e-02
7.477063636339811512e-03
5.065067154536644772e-02
7.880023032977818975e-02
7.023972603238269607e-02
5.737182156536303410e-03
-9.043265771658889896e-02
-1.690862820579078774e-01
-2.071860742716877535e-01
-2.047479703573133747e-01
-1.484117706936608772e-01
-2.708549892448659790e-02
1.233822824809594210e-01
2.301750216139329674e-01
2.387769629006872840e-01
1.451368901888058505e-01
-1.169341394838846124e-02
-1.670962774575567578e-01
-2.509159054390097121e-01
-2.218473469052015257e-01
-9.087152201123692430e-02
9.332705636540027105e-02
2.629748383429445502e-01
3.411543008389087417e-01
2.925236731734586204e-01
1.879433584858208606e-01
1.489576654385874055e-01
1.495172015891854389e-01
-5.281985055259233452e-02
-5.687975322516035659e-01
-9.794862780266928581e-01
-7.003496545213130364e-01
1.513298218018907515e-01
7.638554868217343197e-01
6.414118579534159315e-01
1.029574452226040132e-01
-2.937807330893630331e-01
-3.699047382962707409e-01
-2.868790204775418795e-01
-2.027861205114669940e-01
-1.243750869472118326e-01
-4.632668152507979711e-03
1.497397604724343967e-01
2.854538718478702997e-01
3.545209104993751748e-01
3.428810875591581930e-01
2.696290218881752243e-01
1.623002981904852760e-01
4.053514878099430396e-02
-6.802549150454988147e-02
-1.198313595959374922e-01
-8.740952995788625612e-02
1.285455281941117953e-02
1.348363608864962260e-01
2.264329613214239867e-01
2.393833632298432157e-01
1.467441602026358649e-01
-3.186179908868040644e-02
-2.271074858178703804e-01
-3.520801933697951247e-01
-3.518388099657202561e-01
-2.319333899619284711e-01
-4.582644911076813599e-02
1.332228023225385527e-01
2.331004150040276723e-01
2.091904603859544021e-01
7.499931152137093160e-02
-9.819806276588302629e-02
-2.290407199564530316e-01
-2.809521113318305119e-01
-2.621634943695517195e-01
-1.733979512721683103e-01
2.388092255377862599e-03
2.120977328159994735e-01
2.736433988368077719e-01
4.035643335670231757e-02
-3.268321184915392585e-01
-4.412525330817952396e-01
-1.809971467978875315e-01
1.183453870929041807e-01
1.163898134811994778e-01
-1.234141823363122115e-01
-3.076709929697978851e-01
-2.773697073298323490e-01
-9.524777969848265136e-02
8.656972113608298047e-02
1.600227813265323040e-01
1.134724365964802223e-01
1.040495408280988840e-02
-7.357044105582116744e-02
-1.001406214801935507e-01
-5.983219327650485253e-02
5.323522288794252377e-02
2.206969756745992828e-01
3.768095409734280588e-01
4.455647746601666404e-01
3.926132435173582680e-01
2.371294700003672151e-01
4.470199426945330179e-02
-9.448847330529205890e-02
-1.252761116184438750e-01
-7.091938686484353105e-02
9.154308369610335283e-03
8.678419529357910001e-02
1.600260831029627351e-01
2.116964348448680810e-01
2.135425139596463517e-01
1.559959717342408458e-01
5.326211518677758522e-02
-6.406009956751905488e-02
-1.529876582930956574e-01
-1.735631615856747245e-01
-1.102325331364103489e-01
2.034126801667642676e-02
1.711384486231382340e-01
2.754641492730549035e-01
2.790418597244622712e-01
1.742257943103969475e-01
-1.973452750174773535e-03
-1.975684299252601084e-01
-3.596702846384755015e-01
-4.284690207492355407e-01
-3.539373983585258343e-01
-1.485374448914879020e-01
9.010526352053103982e-02
2.490385296900422540e-01
2.946082965980656443e-01
2.633120177501230841e-01
1.790068062624813605e-01
4.472663406191267066e-02
-1.007171436965721978e-01
-1.908755312313128172e-01
-1.885908850969896244e-01
-9.556221907238372781e-02
6.298117134706092413e-02
2.297051053301261969e-01
3.272895648259455115e-01
3.110486507815855006e-01
1.939572221883845704e-01
2.082026288103102155e-02
-1.581128063065637412e-01
-2.884834807308125915e-01
-3.007394660872844683e-01
-1.359718553477387015e-01
1.413334217976672247e-01
2.709552446201606291e-01
2.168410270297896000e-02
-4.219198347613616340e-01
-5.517993127873629389e-01
-2.055245774530276570e-01
1.616252178600310896e-01
1.022458965775803752e-01
-2.580580125637752520e-01
-4.914735603383712514e-01
-4.021223684468143711e-01
-1.127833029877548521e-01
1.703384478955931591e-01
3.189439258339779593e-01
2.973346959067146855e-01
1.478497691728443697e-01
-2.473720090985298201e-02
-1.170213075650776424e-01
-1.028667082167931679e-01
-2.835110373344360696e-02
6.192339601432914065e-02
1.624714575292603436e-01
2.702118086033593602e-01
3.413093965399510710e-01
3.115668494543443190e-01
1.637011305273868567e-01
-3.793969841982355873e-02
-1.901519658526029111e-01
-2.292491205040369240e-01
-1.618691462271163728e-01
-2.692202101045218163e-02
1.334110183469471023e-01
2.536878826835235468e-01
2.634816804445770932e-01
1.703662733567708198e-01
6.828665318365838288e-02
1.693080516752418913e-02
-3.543675642994974229e-02
-1.604417005398546536e-01
-3.251798242735517985e-01
-4.076862854148818882e-01
-3.174745093280809116e-01
-8.637586311712330822e-02
1.457009264848057040e-01
2.396995623133233444e-01
1.610703524452483104e-01
-1.784615849430518791e-02
-1.909861740084902171e-01
-2.813909379564075719e-01
-2.616406061314392462e-01
-1.493299084255455544e-01
1.081136361330987256e-02
1.727027940438879139e-01
2.971125300312972839e-01
3.393238067315624273e-01
2.643641700465494404e-01
9.498107143243444961e-02
-8.279762487440039953e-02
-1.847088547806651493e-01
-1.863157545433973550e-01
-1.141655748120984637e-01
-6.357016589931327802e-03
1.137694925579738753e-01
2.507421990353034813e-01
4.057049333848091188e-01
4.740343817017249606e-01
2.301981263890713891e-01
-3.817193865456064428e-01
-9.339644436924973148e-01
-8.503949944213791134e-01
-1.738279752399199962e-01
4.189772181300822629e-01
4.726858285789246605e-01
1.857924948503127949e-01
-4.737427969406068917e-02
-1.084062600627291456e-01
-1.059202428302437743e-01
-1.320347038882453139e-01
-1.786284973924391617e-01
-2.037562470772506795e-01
-1.893186728769728489e-01
-1.231212345161895039e-01
1.763485505593934827e-02
2.136797020152205184e-01
3.661283623089466865e-01
3.711793968226498319e-01
2.240415851688246363e-01
1.681738851216305064e-02
-1.494802226321974292e-01
-2.272641837623228800e-01
-2.158319934599131351e-01
-1.281960156979329857e-01
1.686373656877828212e-02
1.765495110479244345e-01
2.827597729877540655e-01
2.794637029779732385e-01
1.643395423997993654e-01
-5.693439693224101178e-03
-1.487458875091976218e-01
-2.172536645465683869e-01
-2.346833607092129736e-01
-2.459060220697810162e-01
-2.359006088436008119e-01
-1.516190103246889687e-01
-4.434576626577129560e-04
1.286970121635328534e-01
1.477500686253732654e-01
4.840795194583460970e-02
-9.528191233008524719e-02
-1.893272937222353069e-01
-1.897322004231212778e-01
-1.183418579943307791e-01
-1.835006542092189330e-02
9.014610514804402563e-02
2.030548545396652638e-01
2.902391755544290186e-01
2.895135732877746060e-01
1.715772091466915006e-01
-7.669966143247181761e-03
-1.538837975943800340e-01
-2.143376365048135224e-01
-1.886114176245116403e-01
-9.611107765531404223e-02
3.080630599709923562e-02
1.502212324510812380e-01
2.493977443036096420e-01
3.444571514189157524e-01
3.674550691306534556e-01
1.140271788498404687e-01
-4.878705132044371950e-01
-1.041047303284481140e+00
-9.601786650044541460e-01
-2.390915201034293225e-01
4.496431326745469748e-01
5.771770275057932498e-01
2.863149038402797997e-01
6.635958116132212314e-03
-7.760190808464459411e-02
-6.046893635413792129e-02
-6.045908045310873641e-02
-8.144488842278324592e-02
-6.292186719130160588e-02
3.179176398090585720e-02
1.942755753865640089e-01
3.879592704102786671e-01
5.544782478432903616e-01
6.225385696528694668e-01
5.440980710487252070e-01
3.382317664066754048e-01
9.275750041733146767e-02
-9.263233041811269608e-02
-1.660652950937990535e-01
-1.312575910561176451e-01
-2.064688401883230107e-02
1.223047424273237260e-01
2.414737778941373758e-01
2.751923754241623055e-01
1.920031513968352144e-01
1.988443987015841435e-02
-1.707764534902996845e-01
-3.087684665760083713e-01
-3.489135525538794025e-01
-2.814725054842758256e-01
-1.359406776502761760e-01
2.523190211291000476e-02
1.352594770613606001e-01
1.613442971412044624e-01
1.162038173540570346e-01
3.064169362760887222e-02
-8.098971705683093159e-02
-2.196332983534085015e-01
-3.550795739117643679e-01
-3.938256883838344158e-01
-2.639356012365479121e-01
-7.330943058695200965e-02
-5.678394339841760785e-02
-2.397268924333074702e-01
-3.188914710576814526e-01
-8.456204876840450746e-02
2.160078097674574260e-01
1.918067997985078710e-01
-1.668124723433672407e-01
-5.100263043493897808e-01
-5.600267425490265127e-01
-3.392038516546143634e-01
-3.870416989891675708e-02
1.863857586723580984e-01
2.772219890629336048e-01
2.335673436153129501e-01
9.550420937622663975e-02
-5.860266410227049638e-02
-1.480652885152309028e-01
-1.360126080444164776e-01
-3.739853145383938843e-02
1.059527912101305147e-01
2.497079133719086186e-01
3.574079894150897774e-01
4.035526663692227678e-01
3.736810873549730738e-01
2.636211212857407227e-01
8.748687170864946627e-02
-1.094878188623044646e-01
-2.585449805439776205e-01
-2.997837668360249785e-01
-2.139766369044806271e-01
-3.786212289435698930e-02
1.466653100202492122e-01
2.574328313519376743e-01
2.571314074187969201e-01
1.558150333969233747e-01
-6.343983660422488485e-03
-1.654724048357838484e-01
-2.563226136732827953e-01
-2.514585036573696031e-01
-1.671943686582019473e-01
-3.481474950402625723e-02
1.111739570717868442e-01
2.183217694849114432e-01
2.214352831277820732e-01
8.724333481412174796e-02
-1.425357914581082408e-01
-3.582356442793235285e-01
-4.491470463319378048e-01
-3.824961396983500572e-01
-2.155325708834936460e-01
-2.956540411683536776e-02
1.294705010918761889e-01
2.418398816568465004e-01
2.796473236539401830e-01
2.191614297565067093e-01
8.209348303518021472e-02
-6.863948160381976027e-02
-1.728360545427244099e-01
-1.899285021963926234e-01
-9.795485349590254964e-02
7.968120752560994835e-02
2.609226973223213175e-01
3.606450557851202388e-01
3.569052739158016796e-01
2.784985183452703406e-01
1.490027974486986539e-01
-6.726894768936489757e-03
-1.063310744969948318e-01
-4.662612164096359424e-02
1.194472892869183761e-01
1.087981467231830673e-01
-2.588507557150795946e-01
-6.329483781531218822e-01
-4.397820506226506887e-01
2.490765048935521531e-01
6.813438875495169134e-01
4.222492064671125589e-01
-1.574946629194735048e-01
-4.908829591412003923e-01
-4.261169359158074599e-01
-1.581406481528712937e-01
1.053959291877240856e-01
2.862886347885763572e-01
3.828467654347217364e-01
3.982532575898451999e-01
3.320529588048491965e-01
2.016165273873598007e-01
5.251349183238607221e-02
-5.249798037422382518e-02
-6.405747524445462582e-02
2.437596467504801745e-02
1.753292656771583691e-01
3.287509743789485128e-01
4.223201007107436067e-01
4.105061102828265196e-01
2.887840211450803940e-01
1.040713902947955349e-01
-6.800776761065817355e-02
-1.655625014773667858e-01
-1.711588803477085696e-01
-1.103905938104681045e-01
-2.270178322559730094e-02
6.336970827099253079e-02
1.258974674848260256e-01
1.380768071025197108e-01
7.857281277584200752e-02
-5.260179057685936133e-02
-2.337363236553800794e-01
-4.190552219848354687e-01
-5.334842255628187146e-01
-5.046248416212595345e-01
-3.279538982633928845e-01
-9.005852735163624723e-02
9.326845371312220134e-02
1.606745012588139121e-01
1.208886744303513672e-01
1.298907166604622992e-02
-1.141761395418624397e-01
-2.044001690359010803e-01
-2.181539967248974921e-01
-1.532244293194599261e-01
-3.493366892068595908e-02
9.909136238464244517e-02
2.095243911607967968e-01
2.665928899354008674e-01
2.511712542236909096e-01
1.578391558572704856e-01
1.319620218539343734e-02
-1.263929395639269149e-01
-2.121935796025488097e-01
-2.200106430204085417e-01
-1.226043041931115518e-01
1.055001406851949763e-01
3.852623051646091867e-01
4.607894274338363849e-01
1.151468422525362134e-01
-4.419025472190064030e-01
-6.568054155862251831e-01
-3.153290422841276697e-01
1.421677641712940088e-01
2.179065893964253209e-01
-4.322527602367495780e-02
-2.565148755710736639e-01
-2.178243661333081616e-01
-3.389649087413428019e-02
9.791538839645279324e-02
8.817816663565333779e-02
-2.011133056243601808e-02
-1.327465764421539851e-01
-1.827039813168383486e-01
-1.534927310626155172e-01
-6.072212018411963369e-02
7.137834246976804131e-02
2.136834243363994468e-01
3.205783029474072454e-01
3.398678233167677920e-01
2.564829729366775446e-01
1.131717867764016616e-01
-2.846772454807547023e-02
-1.324221602708248458e-01
-1.872065205879089034e-01
-1.815377986310066083e-01
-9.956871287186433439e-02
5.037522514681300190e-02
2.096351687826654153e-01
2.987288195639083432e-01
2.790636696986765752e-01
1.709203171404705124e-01
1.921941752907964374e-02
-1.393929505405810954e-01
-2.743881484446525354e-01
-3.422597195742313470e-01
-2.987324824138677393e-01
-1.466835522263095215e-01
4.124230866084684088e-02
1.660344708578824768e-01
1.730756465329155447e-01
8.084550725245555347e-02
-4.863251239822950767e-02
-1.563467401638452825e-01
-2.130963269923133729e-01
-2.152527066932608812e-01
-1.617943503400537664e-01
-5.071582537438864419e-02
9.435181333671280313e-02
2.124208433286048359e-01
2.360542780915988181e-01
1.382048673881996481e-01
-4.088298323720972183e-02
-2.107870581526428144e-01
-2.935156746812201956e-01
-2.813673158163549903e-01
-2.201049872609252001e-01
-1.267572811734085370e-01
4.161610213377157919e-02
2.790381807876820552e-01
3.944090672448338775e-01
1.291625840336060593e-01
-4.363098066385911467e-01
-7.602687814208244355e-01
-4.557839615170009573e-01
1.232524104911265350e-01
3.306584509146045514e-01
7.415510089274271466e-02
-2.094226100225264897e-01
-2.150822080668067238e-01
-3.346889153044224630e-02
1.115684824602063974e-01
1.181619694990050373e-01
1.949554736489832879e-02
-1.039615050096148879e-01
-1.771345934745581496e-01
-1.496213924910903270e-01
-8.781186483077017477e-03
2.138173918309204669e-01
4.417063151156030432e-01
5.717569292092774536e-01
5.305862094821450770e-01
3.375807438648123493e-01
1.028722100486334223e-01
-6.032714692348292024e-02
-1.228401146077189310e-01
-1.261491179710890753e-01
-9.994326889053914420e-02
-3.232610721692175115e-02
7.675042949731984698e-02
1.756012360636334535e-01
2.012744398648031174e-01
1.394337811183006814e-01
2.182840705550190274e-02
-1.142953099227214248e-01
-2.334805408617586231e-01
-2.868530326053975177e-01
-2.311087640818451361e-01
-6.709665100489259348e-02
1.503063542689906662e-01
3.276655974955014483e-01
3.693189985786072271e-01
2.457468718019776843e-01
3.658924328563031847e-02
-1.205586295553248005e-01
-1.385231396503728840e-01
-6.966111875610621340e-02
-9.739343731948005289e-02
-3.335334469686961900e-01
-5.748557733615626830e-01
-4.564203416780969746e-01
3.634288126905828309e-02
4.456193675612050153e-01
3.762729640915368212e-01
-7.178138290217557504e-02
-5.052353183463536013e-01
-6.559948855967526749e-01
-5.202723376155349300e-01
-2.445360491329805208e-01
2.588902158368251716e-02
2.223066642659186909e-01
3.344124567784873547e-01
3.574173861971083332e-01
2.843024746566218397e-01
1.405889264331404154e-01
-7.761440388496444742e-03
-9.337754779043036524e-02
-8.216732626148029461e-02
2.656200319682976846e-02
2.068555911677089076e-01
4.007576432803196531e-01
5.261993464257670450e-01
5.167028522101442256e-01
3.634624232407627775e-01
1.222197586819610826e-01
-1.112441091376106389e-01
-2.434813263007897244e-01
-2.368568489925517162e-01
-1.293033396133189683e-01
1.002216551232058828e-02
1.325061107148066408e-01
2.140726468029398311e-01
2.388911001757118568e-01
2.020734910260692518e-01
1.147625530442617503e-01
-8.198672810030468647e-03
-1.467284981458063797e-01
-2.490354101722958013e-01
-2.410984161292627492e-01
-9.474982055855704632e-02
1.244282233528205828e-01
2.866578819392913702e-01
2.742756699645003682e-01
6.726619381272652687e-02
-2.075583708551549111e-01
-3.572248809366605493e-01
-3.092426714785891928e-01
-1.691643273864676944e-01
-5.101032234500883777e-02
5.647802227544004849e-02
1.996853161593491466e-01
3.413848054616184791e-01
4.027643888725461752e-01
3.563764114888476886e-01
2.282671119768751034e-01
5.641172136543556870e-02
-1.146312102465176785e-01
-2.275146611196826318e-01
-2.346682107301093223e-01
-1.313966474284153363e-01
3.726559343194824070e-02
2.008259104911839510e-01
2.884419171559018946e-01
2.497601897847688268e-01
1.056461184469699305e-01
-1.533431234987943370e-02
1.203634737822971597e-02
9.051042083550088491e-02
-8.273843283346578314e-02
-5.738596830445049646e-01
-8.955921811083711326e-01
-5.300402391548010295e-01
2.674066502864907990e-01
6.971107226120164535e-01
4.276682454328206706e-01
-1.264643750411398315e-01
-4.639507830906555164e-01
-4.780022264950497535e-01
-3.225860918866069738e-01
-1.341646998887010556e-01
4.588377168445940263e-02
2.120638639082801091e-01
3.408083875897138237e-01
3.874848963839388483e-01
3.218913545290728595e-01
1.658575491182651129e-01
-9.960482485849374290e-03
-1.316398083999654189e-01
-1.655668347554413999e-01
-1.270772172875870021e-01
-5.579545230026924235e-02
2.160645020053923379e-02
1.021600635900702103e-01
1.719363711462913724e-01
1.818556642012259250e-01
9.220180354017512570e-02
-6.734874472776090915e-02
-2.151991516050341391e-01
-2.911417513071435925e-01
-2.871702908743319904e-01
-2.172815827305802361e-01
-9.179095389036484587e-02
6.710969077311351727e-02
1.936079413431982532e-01
1.870608332236648741e-01
-1.135005528213064996e-03
-2.799342391628357740e-01
-4.698376799429558881e-01
-4.630338191358099320e-01
-3.029872513775531684e-01
-1.085375336486224668e-01
4.383178183010689316e-02
1.522234538137400561e-01
2.320202772487204301e-01
2.657191827624745817e-01
2.235444544806425848e-01
1.108225684222022833e-01
-2.467026758882253160e-02
-1.266931083152937065e-01
-1.680920536587215408e-01
-1.544219971909185085e-01
-8.810448230296231975e-02
4.344075966568337194e-02
2.135785244094665081e-01
3.242231778216134175e-01
2.809716545481235617e-01
9.335188721464129924e-02
-1.308636613657491454e-01
-2.758907703972751646e-01
-2.710686394563888713e-01
-1.059476876710145066e-01
1.016430073484544117e-01
9.964989325332941628e-02
-2.211726694965543416e-01
-5.383339849150704515e-01
-4.053411887430168892e-01
9.357894833252622391e-02
3.862294629279452995e-01
1.691534310967081067e-01
-2.713374397684311656e-01
-5.118794388560250486e-01
-4.263925762443235290e-01
-1.568378083872339623e-01
1.055540367201861923e-01
2.468255897565805601e-01
2.476994692066463166e-01
1.529144253851246193e-01
2.612120267415192834e-02
-8.058270990766630559e-02
-1.289464388791096705e-01
-9.659896759009861666e-02
7.154110317648230619e-03
1.408583952667618600e-01
2.536140640141476554e-01
3.061518380996567923e-01
2.818077555645572274e-01
1.909692506212233021e-01
6.340553763043194069e-02
-6.835270142853022701e-02
-1.758360817809859478e-01
-2.298003324848465478e-01
-2.068237011836938366e-01
-1.086586301889010397e-01
3.392236933446635128e-02
1.725632935558024661e-01
2.474982935606393486e-01
2.038334474311860045e-01
3.232888419632720667e-02
-2.010437310667511079e-01
-3.801176479476743308e-01
-4.131353699590740169e-01
-2.971887494275209374e-01
-1.092272812332434478e-01
6.545782695746729662e-02
1.845547545711695991e-01
2.352199224213209483e-01
2.072918711632583677e-01
1.075551904746525622e-01
-1.756519806752232515e-02
-1.056934565868873910e-01
-1.245709067916263291e-01
-7.971675109266759818e-02
1.337701439034082347e-02
1.402448443925796429e-01
2.666700069483897151e-01
3.332948899795445952e-01
2.976689299610159600e-01
1.733165332303475692e-01
1.069444106143233736e-02
-1.422022160492715792e-01
-2.378069786281694076e-01
-2.092108486970110093e-01
-8.396691326066567373e-03
2.810812251981513188e-01
3.892512895987491062e-01
8.847975608215589982e-02
-4.063125650192463967e-01
-5.262337068311566668e-01
-9.541789920125395841e-02
3.380955203914236540e-01
2.363774737682070304e-01
-2.349289612489178225e-01
-5.353031071254248374e-01
-4.202868573474049518e-01
-5.966202630454802563e-02
2.612596527190752527e-01
3.813818441328790110e-01
3.115021214268599015e-01
1.580019038281104959e-01
1.374840736857311715e-02
-8.268856062450111177e-02
-1.077082965749630028e-01
-3.405430568592426877e-02
1.342108627238065011e-01
3.418436865798278879e-01
4.988408502430456970e-01
5.210868596507581829e-01
3.933152601497073575e-01
1.885931620027816724e-01
-1.173121096933561064e-03
-1.308233163923947506e-01
-1.877502281588807331e-01
-1.627587057115272018e-01
-6.045301788760832490e-02
8.812197259719037334e-02
2.321181951965570756e-01
3.133244325958284837e-01
2.892765145237530811e-01
1.630736349120255613e-01
-8.243383111647507172e-03
-1.443279369394248057e-01
-1.949006986037991607e-01
-1.643258970127845220e-01
-8.187580389761341115e-02
3.151932800158473158e-02
1.506123080788843993e-01
2.239442991023503082e-01
2.104779341802757719e-01
1.450337927101875979e-01
1.067537904214946598e-01
7.219086531294195697e-02
-1.300248075820162053e-01
-5.697378188493179563e-01
-9.400180071382613356e-01
-7.945788864579540478e-01
-1.499993672798300426e-01
4.382053309446949374e-01
5.139172623253710492e-01
1.626354235016957417e-01
-2.388435630475663207e-01
-4.449488511038645622e-01
-4.461496728061139505e-01
-3.375231825955768428e-01
-1.917496003661786075e-01
-3.154019695780919258e-02
1.328578826106708299e-01
2.739068090573166248e-01
3.522739648503697696e-01
3.385238203493403653e-01
2.346693089359400131e-01
8.229703117796464962e-02
-5.457653211021849804e-02
-1.210132323358876494e-01
-9.655562714884539932e-02
-1.137577946633133719e-04
1.272958987061672820e-01
2.396171141248159553e-01
2.915031969875239160e-01
2.548431365186759057e-01
1.418756851435961086e-01
-4.287950775251512733e-03
-1.422744238339042622e-01
-2.379888558258660691e-01
-2.526891951914052026e-01
-1.633265603764477158e-01
1.840753654290362001e-03
1.712077918799365384e-01
2.751358801490637052e-01
2.769043587724301370e-01
1.785871213454763851e-01
1.554506695052307666e-02
-1.594154227036763127e-01
-2.889015779088772717e-01
-3.145012370447743399e-01
-2.024843447582843070e-01
6.514444448343096467e-03
1.914379929916938949e-01
2.302832257967012963e-01
1.032795988681845523e-01
-8.842905358558605933e-02
-2.208789706680296672e-01
-2.565729583648858059e-01
-2.391762859129738239e-01
-2.073668800051538252e-01
-1.553864188206748320e-01
-6.446653100470403630e-02
6.028582828269921090e-02
1.843257646325551780e-01
2.606884602728097855e-01
2.480373794969295553e-01
1.307726462439093296e-01
-5.187193435457738977e-02
-2.096075549419947337e-01
-2.648995071890398179e-01
-2.083872044031621629e-01
-8.289229768399070108e-02
5.927151789957713773e-02
1.649730711183024501e-01
1.872822880816488733e-01
1.347581864455707767e-01
8.697361216429812247e-02
8.215498778101720800e-02
-3.746039934478183689e-03
-3.201324369283645166e-01
-7.024920697180551121e-01
-6.945306594753222207e-01
-1.429260085135133918e-01
4.734412833163491596e-01
6.023731675024358578e-01
2.558909652107164145e-01
-1.530140494723675193e-01
-3.492129118551500211e-01
-3.593901095500743326e-01
-3.073640554120707913e-01
-2.325979282684968730e-01
-1.032301163860076670e-01
8.520686872143251600e-02
2.775645472279238968e-01
4.012520275896739319e-01
4.073613920939595512e-01
2.937282741661128571e-01
1.179931871420174805e-01
-3.274579291190374275e-02
-1.059544865619438669e-01
-1.011079565115423767e-01
-3.188438422207343775e-02
8.843521112072044721e-02
2.260090392937373072e-01
3.256425645489673393e-01
3.391857168791888588e-01
2.542025499603967620e-01
1.051551676965538640e-01
-4.669105673536534662e-02
-1.537270600125764664e-01
-1.995555849410028115e-01
-1.812739990620618746e-01
-9.279134161029906069e-02
5.775785671617696820e-02
2.096369583953801574e-01
2.601210346251048855e-01
1.551763898033594602e-01
-4.298730026475951205e-02
-2.108287636764619721e-01
-2.762359399167517160e-01
-2.570762989855169822e-01
-1.993097623792097761e-01
-1.125212944852005958e-01
1.410105971166772734e-02
1.571462400242660817e-01
2.532373412127832957e-01
2.497062391124663938e-01
1.484289920047448808e-01
-1.765403803293829482e-03
-1.428446813038653229e-01
-2.314305072807165131e-01
-2.420447122932355422e-01
-1.677786459538588015e-01
-2.630364169106477051e-02
1.342160040745165039e-01
2.444663054379554445e-01
2.478174170796945130e-01
1.377638799258988911e-01
-3.448943650097635594e-02
-1.800727960574884379e-01
-2.065621466775603710e-01
-9.578397962539828003e-02
1.096598854569302145e-02
-8.497973443497718049e-02
-3.264480937814707162e-01
-3.417806866781074038e-01
5.533976478902508100e-02
4.842428670572095917e-01
4.446592870744359716e-01
-3.756320087101952532e-02
-5.166248213234890807e-01
-6.785289652726894660e-01
-5.417260365432751135e-01
-2.714943502286865651e-01
-1.744266519870692894e-03
1.944388170222745571e-01
2.792503411264478652e-01
2.471648471528072044e-01
1.308805655468284479e-01
-1.220232036014100296e-02
-1.226631329242449941e-01
-1.579474719162289598e-01
-1.086122204035522842e-01
-3.470015319282969760e-04
1.277790495384769354e-01
2.453851154112612620e-01
3.278892445985273074e-01
3.437307742395706578e-01
2.639123986001272737e-01
9.537088547595173882e-02
-9.809602710314314911e-02
-2.232838546949933445e-01
-2.203718187719083121e-01
-9.997758136933575235e-02
7.911272520507588168e-02
2.478993159762992726e-01
3.353851528289369388e-01
2.793583968064978218e-01
7.660291241593916722e-02
-1.798770055196714790e-01
-3.485204475881669706e-01
-3.454280724341040609e-01
-2.046914599842365179e-01
-2.992543803630812876e-02
1.070799226251641645e-01
2.026299311403611525e-01
2.651399581216881129e-01
2.675394040763385828e-01
1.795311468889637940e-01
2.274934297799222765e-02
-1.337848133850185472e-01
-2.296150815052087901e-01
-2.475199091420876296e-01
-1.961206665941095384e-01
-8.541609533507860119e-02
6.462875186614033818e-02
2.055810656139143155e-01
2.760371246370453835e-01
2.468143550706517475e-01
1.374033127190798231e-01
-1.471267911409690141e-02
-1.625288320430624267e-01
-2.164809435701128548e-01
-8.597846046707710577e-02
1.505511194347340931e-01
1.839121959213144974e-01
-1.801887815537842885e-01
-5.893122898457761050e-01
-4.559015298901178403e-01
1.695696429806625716e-01
5.523243008867866344e-01
2.619424132516798287e-01
-3.247442038945310694e-01
-6.223971088788881056e-01
-4.788298580302193796e-01
-1.285300651747860734e-01
1.673585147482762603e-01
3.020932162552198430e-01
2.904487389502830030e-01
1.884151282291536000e-01
5.272150061158253909e-02
-6.467091828153906374e-02
-1.160724333873740244e-01
-7.094295953891993634e-02
6.142772471986834848e-02
2.246625173603545578e-01
3.427344256212030982e-01
3.642017498556100463e-01
2.862455877234658108e-01
1.458933579738479480e-01
-6.528163354802208468e-03
-1.297030975118026452e-01
-1.975978424928976629e-01
-1.970783342860268350e-01
-1.291672874012935457e-01
-1.351685359315205406e-02
1.127562661622312917e-01
2.049982020838412300e-01
2.258391827677953545e-01
1.624835736450640777e-01
3.863175446971624932e-02
-9.519137041052470882e-02
-1.907069965082810736e-01
-2.231679727446991002e-01
-1.897308685283886631e-01
-9.916330047971570749e-02
2.525220729795725483e-02
1.325668758005781600e-01
1.653064339471627953e-01
1.234924705786058785e-01
5.704058787543681008e-02
-6.345468495536646381e-02
-3.594454743218545856e-01
-7.796645679780157545e-01
-9.582032911768616490e-01
-6.066762378400569755e-01
3.473889552269707193e-02
4.262222901314040024e-01
3.379105473165746054e-01
-9.228062106169637735e-03
-3.042512105717553594e-01
-4.246028918272248265e-01
-4.116460397908617286e-01
-3.384845585507506027e-01
-2.365962671204259182e-01
-1.003981159936403467e-01
7.003335448911736372e-02
2.392430332053771813e-01
3.486433625868610720e-01
3.558294039997324520e-01
2.687053203860208517e-01
1.437279132543908822e-01
4.090094719873077489e-02
-1.740499169616329528e-02
-3.581617116236929937e-02
-1.039284916881220641e-02
7.306352283159371630e-02
2.036298050361468326e-01
3.267149128260186663e-01
3.801256354130100323e-01
3.438826243032643282e-01
2.361203302154259720e-01
8.108145861012974742e-02
-7.891400299612140457e-02
-1.677816865776484700e-01
-1.293207620242401157e-01
1.481889508378779474e-02
1.882776575359158544e-01
3.164457837770552895e-01
3.519167866450683690e-01
2.843440959776386001e-01
1.440877542893136132e-01
-1.557294592646516623e-02
-1.407649119542902783e-01
-1.907319193228606824e-01
-1.577829589013608480e-01
-7.826544573984635378e-02
-3.976289779104941191e-03
4.127577740802312878e-02
6.821469670332647173e-02
8.625909440162105035e-02
7.348343166625634360e-02
1.135546950133608374e-03
-1.127851742406819069e-01
-2.007895535115145902e-01
-2.034141451211844420e-01
-1.128325145159396192e-01
3.634949752337601758e-02
1.931184181732624738e-01
2.996680888209559690e-01
3.062756078302528717e-01
2.066036425585006664e-01
4.666733420852244019e-02
-1.149819457657056121e-01
-2.351337874695719754e-01
-2.738076401325065246e-01
-2.024747767230051509e-01
-4.881932327723620402e-02
1.029304914509032581e-01
1.914795361943689711e-01
2.386459865753058629e-01
2.758067085156857279e-01
2.017550640196950074e-01
-1.626123080688266220e-01
-7.322987187209903936e-01
-1.014332220919814231e+00
-6.290946080396563334e-01
1.152358445942973653e-01
5.458539189032971528e-01
4.203681055032580383e-01
5.557275804438023548e-02
-1.904385258425019267e-01
-2.493376607515808419e-01
-2.305348471027097723e-01
-2.107322303080763348e-01
-1.814697056789377205e-01
-1.115956888471527630e-01
5.850789912471758211e-03
1.510926908428802395e-01
2.879506256360494509e-01
3.789070133795673923e-01
3.952449241251476675e-01
3.199672691111467571e-01
1.677060449423700139e-01
6.387109129978897626e-04
-1.051878016251724529e-01
-1.092200965360483472e-01
-1.664238927899119522e-02
1.348761245557922872e-01
2.853013410060506461e-01
3.701371690437582629e-01
3.518261837155078342e-01
2.402673677325059542e-01
8.258131558117970394e-02
-6.217518061997275719e-02
-1.416854539944857050e-01
-1.259397978844650490e-01
-2.491543378722822083e-02
1.053486225603119109e-01
1.875733136169654980e-01
1.758936111015236836e-01
9.334533435164260595e-02
7.952171121699070158e-03
-3.894434194969099983e-02
-7.301938655338528761e-02
-1.351774060433272862e-01
-1.986186720215432355e-01
-1.807585613033492189e-01
-4.626873344441320701e-02
1.410833280067720907e-01
2.809980265571608848e-01
3.164640841749655209e-01
2.454825114554887999e-01
1.002626154262057506e-01
-6.185237755267178339e-02
-1.788893404651155095e-01
-2.187834789240305222e-01
-1.801917901214484530e-01
-6.410399300787129884e-02
1.165100445308236560e-01
2.927625465559656748e-01
3.553231347243389626e-01
2.518627998853073535e-01
5.872765871739785148e-02
-6.982255504185967687e-02
-5.588234235438891556e-02
-2.913949163540840645e-02
-2.261088081998318955e-01
-6.159645137933396075e-01
-7.449537938823583838e-01
-2.764046929410074460e-01
4.202304006994707075e-01
6.497307789770594422e-01
2.534628161188375861e-01
-3.146602233653971181e-01
-6.227554798423873272e-01
-6.170908879419350068e-01
-4.532068072207073306e-01
-2.512982507951083133e-01
-4.633771753541100769e-02
1.446122812918553269e-01
2.764943568280098241e-01
2.984478451442361679e-01
2.109977612662866098e-01
8.048489007599216039e-02
-2.550629030936165179e-02
-1.013668448120898097e-01
-1.692971722562902626e-01
-1.973210168153140542e-01
-1.143469245387440381e-01
7.453381550082956164e-02
2.522835973114153640e-01
3.044390154140769744e-01
2.182272052188508338e-01
5.137835552533760730e-02
-1.329663113845986344e-01
-2.753838607776513681e-01
-3.203597281781156436e-01
-2.498202463590715461e-01
-1.040378164817966911e-01
4.587598054053576568e-02
1.373174066357401302e-01
1.319802328044686057e-01
2.600981125655868822e-02
-1.360275195196097020e-01
-2.771406731817529501e-01
-3.387123846941187399e-01
-3.150234737413942776e-01
-2.389799800762098247e-01
-1.410493823556075443e-01
-2.804134051584954157e-02
9.192719331437057551e-02
1.785176597272152554e-01
1.823412079322173085e-01
9.612946129368404868e-02
-3.808619207988026001e-02
-1.657533493696786153e-01
-2.467217683596136801e-01
-2.527883440899408862e-01
-1.653922147976914225e-01
4.023111442843208506e-03
1.993939716767759718e-01
3.416170563631680812e-01
3.630725107713197453e-01
2.346320735736895924e-01
3.807468423164969695e-03
-1.831850337273340512e-01
-1.662328386912170219e-01
2.976318993545173583e-02
1.045019781106198697e-01
-2.030051491353620785e-01
-6.288513407932141419e-01
-5.574662121928760650e-01
1.058773864549227700e-01
6.734125421230465758e-01
5.595382237079836729e-01
-2.268086434955191022e-02
-4.741403253221461167e-01
-5.095877248720254160e-01
-2.565090325787888759e-01
5.194387834232981616e-02
2.796505388295169592e-01
3.886034933051154550e-01
3.922315344625380007e-01
3.297947875546141105e-01
2.410682467122219896e-01
1.539431609545818258e-01
9.369022728953664558e-02
7.494117502943731246e-02
8.513749939716108717e-02
1.083343898542989264e-01
1.539309614552706318e-01
2.285779893108189076e-01
2.957457894323205494e-01
2.934344978125873471e-01
1.852843840560705613e-01
-7.643635185577635910e-03
-2.026215062352332563e-01
-2.936165828229883590e-01
-2.334213969163338454e-01
-7.518861399500242904e-02
8.600124076057640010e-02
1.905375175575771962e-01
2.219082653682425965e-01
1.779979645555579415e-01
6.894835476413219144e-02
-6.911647609600660158e-02
-1.822362552641103584e-01
-2.263732069392584700e-01
-1.924347273600282293e-01
-1.154248507166380777e-01
-4.742053179992882644e-02
5.043129948050272329e-03
9.419323294411716119e-02
2.176006080431348577e-01
2.071429304546151540e-01
-1.300617653383250305e-01
-6.766044144014256023e-01
-9.664240434488061693e-01
-6.842381118271170237e-01
-8.969696930986505168e-02
2.904927363741247048e-01
2.669328971287492913e-01
5.670769194925645573e-02
-9.571321308685915019e-02
-1.385271778069724347e-01
-1.408536129335877796e-01
-1.631604502192659789e-01
-2.005180414387635057e-01
-1.987196642220886433e-01
-1.119264800150209377e-01
5.123803257338993555e-02
2.363997948714374742e-01
3.841330787236121869e-01
4.519187479887765146e-01
4.187772134953283154e-01
2.967162752736366427e-01
1.367518414040636565e-01
5.528346094402419864e-03
-5.638090809517818519e-02
-5.007271907998021160e-02
8.988908498827129223e-03
1.141088827175271714e-01
2.462824249542285571e-01
3.483862426320509798e-01
3.540247591745570022e-01
2.442482146966794276e-01
5.868731916495167900e-02
-1.349013923794870340e-01
-2.625434755090416128e-01
-2.674791934496623114e-01
-1.524723942215511774e-01
1.139353578443380935e-02
1.426614347922234849e-01
2.095321103311042210e-01
2.215348140863302451e-01
1.816436729286708129e-01
8.015143706242561228e-02
-6.155609181782920741e-02
-1.807913598535537958e-01
-2.317258864724638379e-01
-2.204366396854293697e-01
-1.594290666659825273e-01
-3.657134055357323665e-02
1.313852425584484396e-01
2.559808797148861448e-01
2.417155527133091897e-01
8.897637050041951046e-02
-1.014694616058197246e-01
-2.264937007283271964e-01
-2.528268609785540022e-01
-1.970205010027422932e-01
-8.063948440379810345e-02
7.142319324597770636e-02
2.106729658162660168e-01
2.751057960821543524e-01
2.327672696142960851e-01
1.082946744933250549e-01
-4.114868042081676336e-02
-1.665273429684801521e-01
-2.393089349597491977e-01
-2.460579163064302854e-01
-1.855843993913990908e-01
-5.637603325849643854e-02
1.444467207427383437e-01
3.497305694580525870e-01
3.492671941066934349e-01
-4.978741726010704749e-02
-6.621204006468216496e-01
-9.323515789738502368e-01
-5.728719821428523984e-01
1.056457095732893370e-02
2.353853449248229368e-01
4.721674356980994081e-02
-1.743067204521204505e-01
-1.723890568657671374e-01
-2.326914472288491367e-02
7.073826794718653110e-02
1.849327021435899152e-02
-1.117381544911056068e-01
-1.962057111553303090e-01
-1.727496548771292051e-01
-6.746337071288123488e-02
6.480450949326165000e-02
1.943746607587865105e-01
3.033920987997064667e-01
3.539457961154334198e-01
3.058140587186231052e-01
1.627538995335774397e-01
-1.652263938405244478e-02
-1.563012651459147195e-01
-2.071926272836476512e-01
-1.583832911953920730e-01
-3.048046442651741045e-02
1.299451052855454258e-01
2.589018954540990292e-01
2.965991921172246859e-01
2.198364173990847992e-01
6.435498082870680370e-02
-9.467749277748019332e-02
-1.965600665577515171e-01
-2.261049778342016370e-01
-1.974634956797199359e-01
-1.310826116372395267e-01
-4.946807629904495518e-02
2.637301161205612629e-02
8.178425941286243672e-02
1.005153070769568557e-01
6.458197339648868995e-02
-1.935251655035525112e-02
-1.073781082436983808e-01
-1.521250003262012707e-01
-1.350618599980059897e-01
-5.341097001182543852e-02
9.177583170387422495e-02
2.649400569145405893e-01
3.808577055163029357e-01
3.610400354956551650e-01
2.077601969712139784e-01
8.260538849569752651e-03
-1.345761400114106887e-01
-1.731193530738137365e-01
-1.268722331197219000e-01
-4.273527670052784666e-02
4.626346909103102450e-02
1.313327415324818670e-01
2.071002997747587726e-01
2.544551625312310161e-01
2.711678453811894873e-01
2.910314192474445782e-01
2.804770676318207312e-01
5.318059102915347058e-02
-4.766157814509255353e-01
-9.195346798499399732e-01
-6.973679495605280554e-01
1.235025465053234545e-01
7.636242085464879370e-01
6.876266333447633716e-01
1.560113905712939286e-01
-2.846458306324621268e-01
-4.177194958204294428e-01
-3.613664641555103252e-01
-2.687899986891735815e-01
-1.739453702198310581e-01
-3.646243530514245434e-02
1.593152267841011771e-01
3.551689783375772680e-01
4.516045785048671268e-01
3.964115071670614165e-01
2.371566094189190288e-01
7.030335726040164157e-02
-4.446020769630679159e-02
-9.695109623466288684e-02
-8.429165906237327810e-02
-1.402916147028520147e-03
1.319329590714422018e-01
2.654460788009292416e-01
3.424169446931649152e-01
3.238943355087516296e-01
2.073654500427030978e-01
3.603688846235390819e-02
-1.225257942510704495e-01
-2.184805966232198637e-01
-2.340841888754436884e-01
-1.671218638534378020e-01
-3.790098158352262631e-02
8.711717253666051430e-02
1.277733664470021291e-01
6.450772726992669293e-02
-4.411383061169622810e-02
-1.252636961224452006e-01
-1.595446277061695339e-01
-1.766372903174070474e-01
-1.904781676792628442e-01
-1.644625133575233211e-01
-5.657202303121154630e-02
1.172243280604091248e-01
2.789301121920885196e-01
3.432193624072759075e-01
2.776642942477149378e-01
1.204010967086735079e-01
-5.281579185329901560e-02
-1.774419183807992295e-01
-2.257628599634690092e-01
-1.991535203796412079e-01
-1.073340829752491565e-01
3.136023402228441809e-02
1.670805597942191800e-01
2.233074938711874236e-01
1.554488689036241655e-01
9.684594633840026834e-03
-9.348320293309778095e-02
-8.396680218327108591e-02
-8.846602958530834504e-02
-3.376056338074839291e-01
-7.607557905509862994e-01
-8.501227424521939913e-01
-2.859734105596469234e-01
4.797456512162433517e-01
