9.098385413863907534e-02
7.408872725313188357e-02
5.020702336697383666e-02
1.631468001233888077e-01
4.909102233335261301e-01
6.827069598003024931e-01
3.918997846408350805e-02
-1.555831833310080681e+00
-2.910421789734541687e+00
-2.593754994511012768e+00
-8.294719633417335647e-01
6.712869265077766601e-01
8.332576224015355582e-01
1.512787355553213142e-01
-4.343588932066868025e-01
-6.065888135521433355e-01
-5.511664610106040696e-01
-4.502489737348198129e-01
-3.338735311146919238e-01
-1.901951938851523249e-01
-3.217818596371395390e-02
1.220467074775906102e-01
2.566652019017538477e-01
3.460783307677697263e-01
3.696175975630969779e-01
3.296374393819404558e-01
2.499027417762031966e-01
1.756698682026578417e-01
1.529371956643731933e-01
1.767144201763068967e-01
1.895731111102537669e-01
1.611637942125296596e-01
1.354251173821164056e-01
1.506730947076713456e-01
1.387330935463799153e-01
-6.423423330866177491e-03
-2.501462354352042006e-01
-4.079038448009907891e-01
-3.448332749487476034e-01
-1.112042764472958439e-01
1.319744703755725557e-01
2.683395497590059242e-01
3.018344760631050394e-01
3.066941080392079355e-01
3.249865754173217880e-01
3.318459500137713181e-01
2.932109366920039317e-01
2.210345001035582124e-01
1.555995674443524102e-01
1.187556417473132342e-01
1.059099235837173969e-01
1.091671748604634840e-01
1.272363312013703174e-01
1.557294636393317666e-01
1.811520687657351691e-01
1.848392514709777945e-01
1.516445789929488086e-01
8.667300934360946951e-02
2.446058048791143608e-02
9.457563271174133056e-04
6.642053467863794775e-03
-9.367426994352910652e-03
-5.036349566348428952e-02
1.013002116152220133e-02
3.108121173214405952e-01
6.567730417486038474e-01
4.038727156228343884e-01
-8.428677142572480463e-01
-2.282576469083693382e+00
-2.426426206646639550e+00
-9.966202976927867052e-01
5.581666094522336197e-01
9.155177872045348053e-01
2.928206139958097198e-01
-3.339861991931764584e-01
-4.993181991638166450e-01
-3.801680486181922558e-01
-2.591167798058857108e-01
-2.222346722535536723e-01
-2.092533239775601350e-01
-1.473628481161405046e-01
-2.346344492027137990e-02
1.239252395672260226e-01
2.568577800272385803e-01
3.612728356683453934e-01
4.262363985852998249e-01
4.295056451350311999e-01
3.562054119577058864e-01
2.294534292381383844e-01
1.097955505901338502e-01
5.350740984992283927e-02
7.793679986317109121e-02
1.675255684888189989e-01
2.837228459275812353e-01
3.450022904272512791e-01
2.469300250515687190e-01
-1.745928175734811141e-02
-2.846673213884623466e-01
-3.601624410174382174e-01
-2.188751280210599059e-01
-3.391800675371633988e-03
1.467517556992497529e-01
2.072710947259239489e-01
2.375075398008685834e-01
2.892702189817092928e-01
3.529281160125254946e-01
3.761388093262007515e-01
3.264444228340269150e-01
2.289509705179051946e-01
1.403002555185836053e-01
9.804978640208751595e-02
1.022737754407303662e-01
1.344075701103112919e-01
1.846640918232493878e-01
2.561588012330166531e-01
3.367738070870808786e-01
3.814080141894811149e-01
3.465699699013485291e-01
2.441471607985058190e-01
1.437585965080140915e-01
1.061770986038789166e-01
1.137564179516088181e-01
9.779398376036944895e-02
7.260847576258755431e-02
1.955216548969333779e-01
5.309367964014303221e-01
6.885791444274526052e-01
1.604742710266263833e-02
-1.432356504986637580e+00
-2.428307834329841874e+00
-1.856336614938136176e+00
-2.731043326745241639e-01
7.376257065417980430e-01
5.312951911671560667e-01
-1.836486778643240392e-01
-5.882554284328672667e-01
-5.617084299914130163e-01
-3.891634590191291876e-01
-2.718474723935431769e-01
-2.214234785917162385e-01
-1.792278837553277770e-01
-1.084312632335291404e-01
-1.682369197603014038e-02
6.029600000456980524e-02
1.043670612563988576e-01
1.389374163288943642e-01
1.979003410305040511e-01
2.776572518589530136e-01
3.291930032587324639e-01
3.005416131631694077e-01
1.987134299726014131e-01
9.843755261389759703e-02
7.162827931948992366e-02
1.219280549536131686e-01
1.845775737326253163e-01
1.644797436438507343e-01
7.611370946569133086e-03
-2.171912464390945430e-01
-3.490017201965168736e-01
-2.976076427911671929e-01
-1.339056451923121283e-01
1.154571702886341908e-02
8.106716778639500021e-02
9.618443523981975996e-02
9.895091008086841222e-02
1.245347185761920134e-01
1.871781886419908170e-01
2.608594304330245084e-01
2.935139038992713445e-01
2.529423926495413255e-01
1.528117329387001511e-01
4.166760097508045990e-02
-2.635651085994665174e-02
-2.202695446825467598e-02
4.397071588061115394e-02
1.288784491724336567e-01
1.816068281555974773e-01
1.736722730246681445e-01
1.192788388761534119e-01
6.464166106408358869e-02
4.981541330145963092e-02
6.418470765889613960e-02
4.076954993139142447e-02
-5.287581933916890575e-02
-8.798140599599058032e-02
1.423399317287143695e-01
5.247955937156990602e-01
4.099719178589344426e-01
-7.065574143797248574e-01
-2.125268160269800699e+00
-2.334560022560194348e+00
-9.560694454895841687e-01
5.828023631717688113e-01
8.838564461117526250e-01
1.466655046268976470e-01
-5.474829719290361663e-01
-6.326261237884417410e-01
-3.211041031162865100e-01
-3.633751682371382657e-02
3.150903436088990650e-02
-4.312363240624261795e-02
-1.061908209033561312e-01
-8.040939805916161309e-02
8.310095516294201817e-03
9.707363273738114917e-02
1.578245919857778901e-01
2.093241642458802121e-01
2.723127094203274257e-01
3.288943181614498723e-01
3.364706883417591943e-01
2.778535754280155312e-01
1.835028027170534926e-01
1.100218849521828746e-01
1.083745431927755215e-01
1.815122997471084743e-01
2.479051684671695621e-01
1.965719702544777570e-01
2.106620572359514318e-02
-1.451020505103466918e-01
-1.675191648475928829e-01
-5.141405697329436142e-02
8.290085317914884511e-02
1.332552800018993178e-01
1.031984103796118463e-01
7.497975028783196438e-02
1.165198608888856624e-01
2.246056829734049687e-01
3.463928915643103568e-01
4.273294198033212865e-01
4.379388238534440703e-01
3.816671298286176128e-01
2.867669537582756556e-01
1.849600628177559547e-01
1.030407116749060825e-01
7.019995346554501470e-02
1.054393382842747640e-01
1.900725475090798422e-01
2.751234942206883805e-01
3.244931027358268216e-01
3.402834522251740879e-01
3.436811269454161377e-01
3.352309732236746220e-01
2.768412974444769414e-01
1.388013374904428221e-01
5.511910301292707003e-03
9.567974989608925285e-02
5.062605126270413036e-01
8.228820097326304817e-01
2.594205492430313176e-01
-1.311482996838346571e+00
-2.630938047917283917e+00
-2.256869335537787347e+00
-5.220645995992128086e-01
7.833249856646333775e-01
6.790987482962491661e-01
-1.623536837648633102e-01
-7.182618622808170095e-01
-7.174592161846271576e-01
-4.459000742835592668e-01
-1.884953913383682900e-01
-4.792083682963190622e-02
-1.340359382767168650e-02
-3.108369354881265062e-02
-4.455936176922083852e-02
-2.517435591864917999e-02
2.486103846984186877e-02
9.674850912547688919e-02
1.903565652730204449e-01
2.937601699871165151e-01
3.644801114722622803e-01
3.641502572259011639e-01
3.065502305951940398e-01
2.437043308225307070e-01
2.109513673020040336e-01
1.987139346554219199e-01
1.587828335538644664e-01
3.673462605623137311e-02
-1.578011474502379607e-01
-3.096628896279604581e-01
-2.914710305940574897e-01
-1.122317431944137855e-01
8.418988922972156508e-02
1.739086800410057088e-01
1.586463261917278877e-01
1.172399214545852969e-01
1.020333358093747367e-01
1.101395431346146037e-01
1.254271114727095460e-01
1.500770412792689357e-01
2.023642405979361181e-01
2.892402733735954246e-01
3.643518172151688495e-01
3.450963790752258342e-01
2.129908595198122534e-01
5.233090984748493130e-02
-4.628842505495420895e-02
-6.435935064045145149e-02
-2.348059552384890170e-02
5.714749663498242677e-02
1.491584488202694070e-01
2.036028420471138467e-01
1.825044020962837688e-01
8.699613556096760791e-02
-6.159579364383253181e-02
-2.157461306717849969e-01
-2.386726310782980032e-01
1.483525073162064722e-02
3.523516678667797386e-01
1.097459855103894849e-01
-1.118736151753974228e+00
-2.513044409872501994e+00
-2.584831315076578484e+00
-1.090155175407861776e+00
5.157341048967249986e-01
9.330769244341292623e-01
3.655838255445620910e-01
-2.600838205010376214e-01
-4.871244752331522765e-01
-4.224013390924205025e-01
-2.572527853278661625e-01
-6.408037695993190619e-02
1.186088880035625626e-01
2.315559951859480770e-01
2.456711787846709572e-01
1.999928301499300232e-01
1.637710259343227448e-01
1.746664189736135131e-01
2.217992974739892709e-01
2.786526023647623584e-01
3.356477915489890496e-01
3.921010640131068481e-01
4.295134655861904682e-01
4.196896746662206468e-01
3.633726782054593207e-01
2.942197890310771502e-01
2.304283127273822895e-01
1.417857675592218147e-01
-7.744053804729051499e-03
-1.799847808453238773e-01
-2.587830628613675410e-01
-1.596819809726056083e-01
7.095212893655700181e-02
2.881525168856793329e-01
3.710283931629477228e-01
3.136969085254321943e-01
2.118331653855569374e-01
1.645347684806001687e-01
1.898110670870120920e-01
2.392301299901087031e-01
2.772558090757362703e-01
3.100414934222555652e-01
3.378139376116979786e-01
3.295396736566731932e-01
2.653768623179002528e-01
1.715003851193218631e-01
9.779200118245613693e-02
7.601606122102634588e-02
9.960326410206998826e-02
1.356818809522241653e-01
1.614407746335136951e-01
1.905247006271284238e-01
2.520843401936182504e-01
3.318666266932828179e-01
3.480445843416453133e-01
2.390887209068797981e-01
1.071355923678690703e-01
1.875302201401861102e-01
5.044783563631151102e-01
5.485595584770600608e-01
-3.282826598907974680e-01
-1.850656092338616165e+00
-2.614482650767802507e+00
-1.680665001573538930e+00
4.503014960832896207e-02
8.950056587103960570e-01
4.352377022781808158e-01
-4.414072385687448641e-01
-8.956299886623770856e-01
-8.448234577909725651e-01
-5.886833204185615287e-01
-3.348906810753066732e-01
-1.251387226099249239e-01
4.523791477842764586e-02
1.606994890624212635e-01
1.958523686038300959e-01
1.493989484644067944e-01
6.417756166711335863e-02
6.876808218182723503e-03
2.141123672532160502e-02
1.008814598936749601e-01
1.986115934104465963e-01
2.644149002964872319e-01
2.771430927062975003e-01
2.500495796790073166e-01
2.112301260105829137e-01
1.761108427513467523e-01
1.224136929862384426e-01
-4.892521203661175100e-03
-2.226901505558586680e-01
-4.325866430576504884e-01
-4.719748023594769748e-01
-2.764076619327685003e-01
3.927197617670118157e-02
2.741804879502868220e-01
3.072507991495114776e-01
1.891396118159315298e-01
7.376375683064331779e-02
5.514403025170833139e-02
9.952956610342172938e-02
1.297809363654530701e-01
1.233018749028130939e-01
1.191654690917079151e-01
1.573371521628385283e-01
2.190732051809003433e-01
2.352510754659654368e-01
1.664766977514308133e-01
5.397833618738973049e-02
-3.078567940154161575e-02
-6.001134547472341402e-02
-5.149769729685187147e-02
-2.072979666955698796e-02
4.411326736968733397e-02
1.469063389664954089e-01
2.268790801906238885e-01
1.860673479212727188e-01
2.643592043973912176e-02
-6.568836713917593217e-02
1.016153231393945727e-01
3.365013137825180745e-01
2.636851213267534660e-03
-1.198629280318816548e+00
-2.372809074895373627e+00
-2.156120253504682616e+00
-5.593564320931740941e-01
8.625254696749095062e-01
9.728061465362105587e-01
2.012799444171549657e-01
-4.365067131799869049e-01
-5.494450375822292898e-01
-3.878063918933781773e-01
-2.514239477129106004e-01
-1.842463130652801651e-01
-8.544006921582746050e-02
8.639181304262645578e-02
2.599151338917598530e-01
3.368861162812795684e-01
2.903201680954889952e-01
1.873156666798179437e-01
1.191214113494544757e-01
1.109277497664025169e-01
1.257354700582882789e-01
1.467747917931684076e-01
1.995092335950361950e-01
2.866584057063124025e-01
3.600542227394042949e-01
3.772390479764441418e-01
3.369076252207574562e-01
2.349970698986948991e-01
4.812232520427213445e-02
-1.892018383064753284e-01
-3.451745557357486782e-01
-2.965456548744769827e-01
-6.041407128343775218e-02
2.140605518784270134e-01
3.809862382158980543e-01
4.064249027524385327e-01
3.460337694274753240e-01
2.589001391075821390e-01
1.797961366069892875e-01
1.390154433926556465e-01
1.552747968120565258e-01
2.147993792176614569e-01
2.830991630466115905e-01
3.349939163150862931e-01
3.594025647435397097e-01
3.427044450038322365e-01
2.781051890149456862e-01
1.953695831462715082e-01
1.477802953607952607e-01
1.597534575766174358e-01
2.077154713116749207e-01
2.529465627606997669e-01
2.795878838444390557e-01
2.982404715684620067e-01
3.075490327045185546e-01
2.732415803665989573e-01
2.135956537566690017e-01
2.729572997465629647e-01
4.937665835629262978e-01
4.481825765174590193e-01
-4.858851575929341582e-01
-2.060661747204893590e+00
-2.843401836737537547e+00
-1.808315691301537242e+00
1.301965526646489679e-01
1.151358749469625575e+00
6.956838503853095546e-01
-2.996118130259846080e-01
-8.589970093344299062e-01
-8.282089559255374489e-01
-5.399807394252348347e-01
-2.669879348434047728e-01
-8.169925439074010587e-02
3.109993589382638313e-02
9.586017767331103667e-02
1.391707712676849007e-01
1.772741354990538531e-01
2.014506727337263825e-01
1.936010881498401170e-01
1.565017661280160011e-01
1.261416554634742504e-01
1.428139912452603966e-01
2.009756457652534800e-01
2.519727536512392785e-01
2.731968372396059164e-01
2.981247258177425197e-01
3.445716122337977860e-01
3.441783412306804180e-01
1.979701458733829078e-01
-8.878949088657631106e-02
-3.646667717711076229e-01
-4.537986510567394993e-01
-3.071426314033749994e-01
-2.175798337312848107e-02
2.564733636716310383e-01
4.263326141537443492e-01
4.623566843722061726e-01
3.958784712800458294e-01
2.819156670240542395e-01
1.784846955162052440e-01
1.297543761695600928e-01
1.401382573306645118e-01
1.633848366962579735e-01
1.465658464063680777e-01
1.027552339095886419e-01
1.020943870964294842e-01
1.632640694282540550e-01
2.100444236489419914e-01
1.717749383258447837e-01
6.927676679054706188e-02
-2.686833520048521537e-02
-7.141635031876727990e-02
-5.613823470843928853e-02
6.117330002016758972e-03
6.975207651012559074e-02
6.196447184786686713e-02
-2.665370155327149992e-02
-5.201836699113270013e-02
1.533866299575480929e-01
4.032668870863585497e-01
3.513855816523866332e-02
-1.340301189564134354e+00
-2.847910028421035467e+00
-2.915161392894409786e+00
-1.268550732106988432e+00
5.526718334462452642e-01
1.120317147441736161e+00
5.781462451944223702e-01
-1.102056520840668796e-01
-4.135898775933821159e-01
-4.022182881679736144e-01
-2.863602394667634221e-01
-1.598145090922024891e-01
-3.422866883716602082e-02
8.507984683884516064e-02
1.856074526672377711e-01
2.577013436958240922e-01
2.938141896967942923e-01
2.888976586072003472e-01
2.510325208639447858e-01
2.031607793926358263e-01
1.711445643223671598e-01
1.746322240231117651e-01
2.197664105174816085e-01
2.940278059192925619e-01
3.779430867699362095e-01
4.538136586057573973e-01
4.800546674927535507e-01
3.790962081803405659e-01
1.169617188473559832e-01
-1.957832218456386775e-01
-3.613823989220860677e-01
-2.872296334780501947e-01
-6.181959509825772636e-02
1.699121914639148134e-01
3.329109774862971660e-01
4.097999185026774960e-01
3.886743919354724852e-01
2.862336784540154278e-01
1.749119649195546855e-01
1.189365814590187392e-01
1.096287875241928611e-01
1.031764683623399570e-01
8.471031573260184855e-02
7.190493903697291189e-02
9.115997511046659840e-02
1.569008163382649979e-01
2.454057734103256005e-01
2.953975260322619922e-01
2.623856111389584189e-01
1.661982758291529472e-01
6.853897785441509516e-02
2.232737534351808550e-02
5.542322375425978720e-02
1.611343146199163134e-01
2.717046251951965585e-01
3.053186889568421103e-01
3.114536697147917144e-01
4.678253482788896078e-01
7.355725385528446569e-01
5.770868574411133212e-01
-5.442866581167409290e-01
-2.134031550989821113e+00
-2.725074387751431182e+00
-1.601199962074070893e+00
1.294863520947518443e-01
9.075490093475662157e-01
5.004631396896351836e-01
-2.273541101858305713e-01
-6.105516691007556451e-01
-6.323727465416294491e-01
-5.172193592518865568e-01
-3.852460761038348780e-01
-2.513422114022886289e-01
-1.206370228060063554e-01
-9.287396166921976087e-03
8.330459066011758340e-02
1.773620156851399010e-01
2.725654933612211561e-01
3.279070983317912691e-01
3.096534012065677022e-01
2.380327003714776402e-01
1.599815583757150939e-01
1.020310625612876054e-01
7.479372520142912872e-02
9.817459329661226697e-02
1.847449958490410826e-01
2.848613317397512001e-01
2.740705878485264479e-01
6.188026852443488657e-02
-2.644082666931787395e-01
-4.790539937451985808e-01
-4.400495710336374544e-01
-2.137995949109116611e-01
3.213978864604655900e-02
1.941108079887567950e-01
2.788360837922336799e-01
3.394252875756408327e-01
3.941299397186157072e-01
4.057900719176606996e-01
3.402038802974992060e-01
2.261018264118556387e-01
1.313621575230594363e-01
9.362607953922519322e-02
9.990133106572576804e-02
1.218551077424237516e-01
1.489304572183861031e-01
1.885837883376343949e-01
2.415493178027350585e-01
2.794546472699354633e-01
2.575244522309017015e-01
1.639751237396131489e-01
5.087829775633719714e-02
-8.164022835819453525e-03
3.789226060297124637e-03
2.839713913771177434e-02
5.010791026359621633e-03
-2.311125204074240130e-02
1.046137683233795274e-01
4.443712764505176605e-01
6.169415657103918260e-01
-3.189991364053774980e-02
-1.493152719384045479e+00
-2.559466299591008909e+00
-2.045717909159234349e+00
-4.176599858844265434e-01
7.416353690173760338e-01
6.959539526557185773e-01
6.181074085893734082e-02
-3.535070974732876792e-01
-3.725421813099930035e-01
-2.395440202717510347e-01
-1.649317260801222984e-01
-1.673438318735565866e-01
-1.648801645158085583e-01
-1.081808750971376687e-01
-1.810680227567652151e-02
6.882491248951193297e-02
1.448559622278501324e-01
2.141795865198810600e-01
2.643188048159217929e-01
2.743339513392827889e-01
2.421507319805510927e-01
1.900811075849486720e-01
1.458635039297397906e-01
1.292537713269816813e-01
1.532355092871529878e-01
2.148550001542896548e-01
2.678791561449548886e-01
2.239862790657121683e-01
3.168831507500484423e-02
-2.297115046416156603e-01
-3.884937199467233815e-01
-3.428211966686415813e-01
-1.468674679973416830e-01
6.537882074834813761e-02
1.978815031897228627e-01
2.431864200188688097e-01
2.551638934246729384e-01
2.821553453663244726e-01
3.252963041021229018e-01
3.494616924003666192e-01
3.150071883239662918e-01
2.119234775653075498e-01
8.450188117925409859e-02
5.175098279962441622e-03
7.917807970141303026e-03
6.458915376720480994e-02
1.303559629841024581e-01
1.861479709311165687e-01
2.289812556046871839e-01
2.478476411229210419e-01
2.306510405300184474e-01
1.859127803616248409e-01
1.400946126844065942e-01
1.087032099159862680e-01
7.932937612767365643e-02
5.313984428680507827e-02
1.199464478989572674e-01
4.009327605303025788e-01
7.520812962882370556e-01
5.817781346869442816e-01
-5.961276760827463050e-01
-2.181759806415460634e+00
-2.683036539236502094e+00
-1.495981243889212386e+00
1.691024653984920523e-01
8.135268664301869013e-01
3.462808353443314613e-01
-3.233107694734196902e-01
-6.004379919978029001e-01
-5.454582126855562763e-01
-4.032195774816954570e-01
-2.818676366497812613e-01
-1.842501738097271358e-01
-1.035713198865282486e-01
-4.317330182595479487e-02
2.783279604365512111e-03
5.990275442492127428e-02
1.527150134874964982e-01
2.684274901654878920e-01
3.546763328562977935e-01
3.662286141940376272e-01
3.077285751873918285e-01
2.214534316872457109e-01
1.445722706017014692e-01
9.710930147019480874e-02
1.003061406693472740e-01
1.622296619875741586e-01
2.286430819168844553e-01
1.987527504349106133e-01
3.585597635338150235e-02
-1.663078907955436170e-01
-2.690952922065092956e-01
-2.225359537406819688e-01
-8.648830819150123139e-02
5.130460015200645485e-02
1.402448186492088744e-01
1.766763692587833556e-01
1.941772835240204720e-01
2.343603699764733594e-01
2.970785488426960219e-01
3.283482965837897227e-01
2.816424100140614284e-01
1.808134283520249908e-01
9.766002422222723467e-02
7.898808390420355985e-02
1.157553083336192168e-01
1.656850552961236789e-01
1.933752713935831258e-01
2.019138451471362838e-01
2.149170040054177999e-01
2.240466522371734326e-01
1.962837986232121856e-01
1.356913721616186397e-01
8.220164965900453313e-02
4.181323183483603989e-02
-2.232109678857640417e-02
-8.556957002998720474e-02
9.907760280927612601e-03
3.704734288921763263e-01
6.743470908167157329e-01
2.112046416530142523e-01
-1.204366953395631601e+00
-2.452291405457605045e+00
-2.114011949249115396e+00
-3.963669355121037796e-01
9.776550763653693021e-01
9.361046661154118764e-01
7.066382294690540244e-02
-5.399314073274479320e-01
-5.449855755117722911e-01
-2.504848757126142411e-01
-8.030697165417662042e-03
6.554760576076626433e-02
2.275103691071788878e-02
-3.613010037501752231e-02
-3.864389687969498055e-02
2.607858353290998243e-02
1.287995096007065465e-01
2.437347357355297839e-01
3.592063605709228669e-01
4.592657710122299841e-01
5.103502882882656744e-01
4.794686854079781568e-01
3.749658518665147655e-01
2.527920307180157589e-01
1.710728199070514211e-01
1.532524627801000183e-01
1.825004575158242770e-01
1.989342674224449659e-01
1.357128044059777161e-01
7.640228149975328807e-03
-7.708188030406812330e-02
-3.846273921780431898e-02
8.161634220327214362e-02
1.766809721626546315e-01
1.942641153316541081e-01
1.724242060998006365e-01
1.745299626969719353e-01
2.194755451522744649e-01
2.805420581944462755e-01
3.203609448607461219e-01
3.108376710215141059e-01
2.429808806451672076e-01
1.363474250327947612e-01
3.289416009639148375e-02
-2.721274354244482621e-02
-2.897625131723840716e-02
1.257748801580943834e-02
6.818600468628746580e-02
1.172765163602655092e-01
1.606082155954265955e-01
2.077253820512813542e-01
2.486038194085360420e-01
2.507121685536001787e-01
1.879125398057508445e-01
6.311805851094810793e-02
-7.215442786452010149e-02
-9.082934959719816959e-02
1.431317786673269588e-01
5.140216369397175855e-01
4.581820689014771686e-01
-5.840255548884772940e-01
-2.185967774963298194e+00
-2.889618260330698796e+00
-1.852163523925191679e+00
-8.070947191545563282e-02
7.803191707726079285e-01
3.609001194042998351e-01
-4.539909739875260808e-01
-8.558520519178083319e-01
-7.533968481436754683e-01
-4.427347812018115891e-01
-1.699789397844518601e-01
-1.681261529697254328e-02
2.864132883076215413e-02
1.140020857119453113e-02
-1.108030223583388735e-02
8.440304179351900554e-03
8.146506190069538467e-02
1.835501521850291529e-01
2.816215071578804796e-01
3.526623199547530563e-01
3.762142381686043313e-01
3.387098657970818993e-01
2.626078801682841246e-01
2.049085436990015774e-01
2.044914851250782817e-01
2.313392456331115621e-01
1.918654895801306381e-01
1.813893568969020959e-02
-2.171259274544011242e-01
-3.273811371965951733e-01
-2.096283474108203149e-01
3.193015849884280055e-02
2.042110219665441428e-01
2.223833751429060424e-01
1.538863183706924154e-01
1.061746889051038839e-01
1.188718977202025684e-01
1.639487576770723432e-01
2.130499610403527866e-01
2.661601146215416547e-01
3.099568978270651476e-01
2.935232617501901120e-01
1.882741887456090835e-01
4.842359843394566238e-02
-3.438370272770595315e-02
-2.630483195158524190e-02
3.068865639137571821e-02
8.136770677362617499e-02
1.102094044125578598e-01
1.377959761762462543e-01
1.799443375011011703e-01
2.177171394613779676e-01
2.082237120850842782e-01
1.149990579947714475e-01
-5.281235021464457391e-02
-1.793108706242969308e-01
-6.695171564156138233e-02
2.855336456998184280e-01
3.807185728348786991e-01
-4.171073150170671595e-01
-1.843990811786220929e+00
-2.533822609045846441e+00
-1.595029236927154592e+00
7.528469586870395469e-02
8.992965734462350369e-01
5.009269243325080723e-01
-2.830199681327534300e-01
-6.857795208914566620e-01
-6.140479876931677072e-01
-3.284887604246790049e-01
-5.327674332920003669e-02
1.210269632409802232e-01
1.873795024323574032e-01
1.729425419327500490e-01
1.219053600259547288e-01
8.844136121232598624e-02
1.087238699596534824e-01
1.682080770156649252e-01
2.211746807184512831e-01
2.547651067984032514e-01
3.026762677491731113e-01
3.783023656314179473e-01
4.344920364302475302e-01
4.196060905538180896e-01
3.434986492294974658e-01
2.566820177920933199e-01
1.746276087774558949e-01
5.622185742680160803e-02
-1.139260156687247338e-01
-2.440276149066225031e-01
-2.035305696913146112e-01
1.616982714375439847e-02
2.677137408262570961e-01
3.900614257350260572e-01
3.509783495368005157e-01
2.474478511404404890e-01
1.926784192686447905e-01
2.161349399270150740e-01
2.704198076010547735e-01
3.127581026179258039e-01
3.471290430600981747e-01
3.849848932367029297e-01
4.039917657688447683e-01
3.729199873272532328e-01
2.980493510660789935e-01
2.187015845865092900e-01
1.655110800290470197e-01
1.439098935822311909e-01
1.506246536501189004e-01
1.849587838970390696e-01
2.459936097429342161e-01
3.250649234001609100e-01
3.877437468902945605e-01
3.681534592335464762e-01
2.275601814788767163e-01
5.248841537734390966e-02
5.501215425793172520e-02
3.532307480378549802e-01
6.384526197142981196e-01
2.223141765147978455e-01
-1.128386715575010912e+00
-2.404897045610513651e+00
-2.205265576458652621e+00
-6.071918213482558890e-01
7.640060975120126496e-01
7.828391056305200602e-01
-6.708597471300650761e-02
-7.489430331824856735e-01
-8.724207106127791489e-01
-6.638438951617861017e-01
-4.062354947033423591e-01
-1.986405537527104748e-01
-3.952913523179192590e-02
6.578912585745665120e-02
9.850813557674127641e-02
7.250514456030282551e-02
4.187938115046983822e-02
4.321930004718955998e-02
5.893985068286765328e-02
6.692899868591861701e-02
8.709664923597970621e-02
1.421816220502500061e-01
2.118292326868417841e-01
2.559961545888378431e-01
2.557769076272144448e-01
2.145222490041189256e-01
1.339167755337703214e-01
-3.139739507783768924e-03
-2.094963014514394095e-01
-4.269218440957388561e-01
-5.170630288357800364e-01
-3.832768549520871870e-01
-8.836185244605032629e-02
1.917635063817929586e-01
3.197770568678252601e-01
2.857451977412938104e-01
1.756033014104942946e-01
8.819753510990491208e-02
7.436738955286659181e-02
1.221312483458439763e-01
1.866470629072203846e-01
2.361457141498197188e-01
2.656286085258268703e-01
2.741493531067902278e-01
2.516072817625086278e-01
1.889973127683246823e-01
8.691145311885228875e-02
-3.781035410034603444e-02
-1.457527773113179159e-01
-1.931163639411489497e-01
-1.641058890165903172e-01
-7.579302992620283452e-02
3.928828234273731151e-02
1.329324913772172434e-01
1.374483820602590833e-01
2.314341446992898566e-02
-1.013510279361780897e-01
-2.443282018221564628e-02
2.607343142394661362e-01
2.711243165522945753e-01
-5.643221896789349934e-01
-1.895992608530990831e+00
-2.369373056223677221e+00
-1.248076775465581267e+00
4.275105463925055194e-01
1.116501526639415598e+00
5.917019989358853760e-01
-2.395677356399261437e-01
-6.655609819401226979e-01
-6.616597541947466521e-01
-4.735750168458405795e-01
-2.538603076960829763e-01
-5.204467991000763516e-02
1.078496600153985158e-01
2.061328202536007737e-01
2.296721030221379467e-01
1.873032858126588429e-01
1.216091632873788214e-01
8.286574234831629859e-02
9.329775577799849506e-02
1.447405692945348266e-01
2.169427353028310357e-01
2.909355659758660617e-01
3.514378745376534052e-01
3.809283958176560292e-01
3.657990092080679601e-01
3.144756017153538807e-01
2.360286899532892668e-01
9.828001163473928936e-02
-1.214663078118028150e-01
-3.343934830628338406e-01
-3.834759141248529346e-01
-2.129100472558738688e-01
7.181066161212557031e-02
3.109168280473753598e-01
4.096039478653894506e-01
3.731239407127590613e-01
2.743116667336132908e-01
1.920773676469630098e-01
1.613480893624665014e-01
1.700959388404742478e-01
1.990851029849191878e-01
2.514992647254679081e-01
3.321458041667318950e-01
4.116630475193945315e-01
4.383283901046682862e-01
3.880438793505868733e-01
2.849956137354027197e-01
1.722977168083228428e-01
8.206939420676867547e-02
3.910098117578608701e-02
6.769569780292007677e-02
1.695301084285232296e-01
3.015850458169412329e-01
3.891481580073763991e-01
3.671386206342476255e-01
2.523100764575155197e-01
2.061391542214435768e-01
4.055855595675101899e-01
6.597850553981003952e-01
2.838321612940091776e-01
-1.110876140134007706e+00
-2.595836123167973408e+00
-2.571899487305775445e+00
-8.782312011899554571e-01
7.734956070289661367e-01
9.697340901692541593e-01
1.018873090765256284e-01
-6.565660064241514160e-01
-8.161478719626994449e-01
-6.380136776656473163e-01
-4.469111773174220259e-01
-3.012781313657921789e-01
-1.297785935877932562e-01
8.130996542910592928e-02
2.702131332874959102e-01
3.739913906452224657e-01
3.769599252247141652e-01
3.147855202229534743e-01
2.503844891407076556e-01
2.275186071120612608e-01
2.366351758150063711e-01
2.425623401177793570e-01
2.467331319548059232e-01
2.885411535158817764e-01
3.773592969879339121e-01
4.560518566533707241e-01
4.393509545399885141e-01
2.741441688494079543e-01
-1.488636317411140553e-02
-3.076117350031958853e-01
-4.436444600231244650e-01
-3.461778841957985908e-01
-9.127171394219088518e-02
1.646011991284965226e-01
3.103192613460761806e-01
3.297380390397329775e-01
2.692296526696237868e-01
1.895193639151069587e-01
1.299792625015839531e-01
8.497400867428517302e-02
2.115247384139843853e-02
-5.574985335127680824e-02
-7.890587417598085573e-02
-6.902163333695650327e-03
1.077789993960141940e-01
1.821321341938456351e-01
1.905344365566721543e-01
1.548295832958116180e-01
8.990104425903609753e-02
-1.882082707135061426e-03
-9.626026885692873236e-02
-1.414943199492091352e-01
-1.022002813022413470e-01
-5.444167917613554342e-03
6.171372426669059080e-02
3.011939042222600005e-02
-3.650742768608041672e-02
4.381630656173090416e-02
2.866193324471641990e-01
2.450246153017443529e-01
-6.476994572600570654e-01
-2.093974138325346512e+00
-2.751103425520036616e+00
-1.757824038098062536e+00
1.602131233250203568e-03
9.734427979439964629e-01
7.488855794825511891e-01
7.422147350632635199e-02
-3.609896699947216514e-01
-4.610886274663564821e-01
-3.989254267113651053e-01
-2.855800135425133890e-01
-1.512751641580844797e-01
-1.407648115041642937e-02
1.132557806553857460e-01
2.270543212409247003e-01
3.119371729476021482e-01
3.410232294419884291e-01
3.086589801270853139e-01
2.467882440431882207e-01
2.019005038561107745e-01
2.035412975233145128e-01
2.534560469550550255e-01
3.319316693581761957e-01
4.126376868623830574e-01
4.773672018334587652e-01
5.023238995180224764e-01
4.267652970199428131e-01
1.916403078735727794e-01
-1.461697698925153721e-01
-3.935481650095916661e-01
-3.867454174762551822e-01
-1.564048179076139855e-01
1.171099192055342908e-01
2.881980716269748055e-01
3.491684870752470582e-01
3.713611754157474798e-01
3.924220551869315732e-01
3.856928397229898442e-01
3.246316568421335758e-01
2.367883820246885485e-01
1.743876813935297532e-01
1.575519473929891945e-01
1.725239647376679564e-01
2.069753607630487324e-01
2.577992194581320007e-01
3.099135047016173816e-01
3.345985408909779024e-01
3.170693464195779576e-01
2.658011213814315266e-01
1.937743671631094733e-01
1.218280747999209712e-01
9.213600902337373832e-02
1.317299906650045982e-01
2.056315925046593995e-01
2.485000683189947934e-01
2.631753080037653736e-01
3.644764770392891484e-01
6.066647560742152168e-01
6.600368940736761614e-01
-8.390588818228167378e-02
-1.614808676476453098e+00
-2.734174717896673990e+00
-2.233236353023656751e+00
-5.603169920244879254e-01
6.584268784510480810e-01
6.238323782492258829e-01
-6.426843766695825022e-02
-5.777592919661471704e-01
-7.050478384729949033e-01
-6.318926124009724976e-01
-5.092031812853361483e-01
-3.653539030772521845e-01
-2.053430788921184469e-01
-5.758097432811007388e-02
5.330430599731149355e-02
1.331282487389217617e-01
2.014796969596976961e-01
2.536292918780927441e-01
2.573062628921647943e-01
1.931430148501067645e-01
8.758512717621055876e-02
1.093508759018892856e-03
-1.585921665834517935e-02
4.316233642339510623e-02
1.468936022711931910e-01
2.505702223381476856e-01
2.966129971699734691e-01
2.177339697019153308e-01
-6.527147640937557005e-04
-2.544729699357962116e-01
-3.789666762727260108e-01
-3.015606635995446982e-01
-1.032627768103600019e-01
8.084744464610142678e-02
1.854024715206624707e-01
2.331133141065413750e-01
2.677704800001686758e-01
2.961647542539689315e-01
2.957490250421226374e-01
2.571231883505572524e-01
1.926540282371321244e-01
1.188129239386567643e-01
6.028869608513220957e-02
4.999801617905932222e-02
9.914026115060879663e-02
1.831980258478855261e-01
2.583095994649102223e-01
2.800888565630226257e-01
2.284210440782501461e-01
1.278027653707300426e-01
3.070261423094857930e-02
-1.970700999724844110e-02
-1.524554005891952217e-02
5.710597157137075469e-03
-1.631663995451494709e-02
-7.244066421048589444e-02
-1.939647860628920112e-02
2.815654775431642443e-01
6.234607726475245304e-01
3.632500507178068605e-01
-8.857076894166946435e-01
-2.339131400412187034e+00
-2.531914533824183966e+00
-1.158473330566862192e+00
3.986046073810446955e-01
8.349380227097530360e-01
3.092184315593514699e-01
-2.733436359350788214e-01
-4.620463355259514238e-01
-3.869378217097887984e-01
-2.729091441464475687e-01
-1.961795669986007296e-01
-1.418122094858988158e-01
-8.652116352523006593e-02
-2.114273700782258458e-02
5.079714311409337657e-02
1.277174083394340964e-01
2.149343153444134846e-01
2.976660050842023786e-01
3.318999520726522712e-01
2.916484385643186017e-01
2.063557598752444044e-01
1.309046512507638926e-01
1.001003059677442741e-01
1.243695922830261036e-01
1.968305179074281985e-01
2.777771692167068096e-01
2.908952669826533333e-01
1.713874872392631143e-01
-5.755770191833632643e-02
-2.671268953333821861e-01
-3.220181409625004765e-01
-2.017068508744214728e-01
1.581265907209562782e-04
1.745258812079650557e-01
2.720112992240268923e-01
3.140447595930489499e-01
3.528056143351217533e-01
4.041307995712185019e-01
4.237140951169751646e-01
3.671877668562009700e-01
2.582921590209313889e-01
1.692178325652654580e-01
1.402761456300173348e-01
1.502877491939592358e-01
1.669205474798135247e-01
1.900606276294548591e-01
2.320774172060851848e-01
2.818740412127793138e-01
3.045595475834611543e-01
2.714453432080904394e-01
1.922841412988907650e-01
1.170675637932076518e-01
8.993067176956491549e-02
9.626105180516916771e-02
8.605375065656606370e-02
8.701045995885441087e-02
2.501178917296851822e-01
6.201295983727329597e-01
7.776126061034877024e-01
2.933126773213901028e-02
-1.571840911278858499e+00
-2.688917378366826760e+00
-2.068193461071749173e+00
-2.955552649458151326e-01
8.493255502061205497e-01
6.066634017799494849e-01
-2.231996342753950480e-01
-6.797582493314384688e-01
-6.192141953823904199e-01
-3.931715024748825282e-01
-2.488082450810696900e-01
-1.915702474743392614e-01
-1.420631203486097116e-01
-5.934762838157690151e-02
4.402590465057674290e-02
1.422747214370288504e-01
2.276164084498231988e-01
2.997085250950940472e-01
3.491611886652368213e-01
3.701325914631496961e-01
3.705422595341553160e-01
3.533045041197784286e-01
3.065356457773737442e-01
2.321779181607115938e-01
1.689595203308144333e-01
1.606709014416674852e-01
1.945714985512431439e-01
1.853985993395656229e-01
5.674575107977253979e-02
-1.456738485454261156e-01
-2.696268658485587721e-01
-2.161731401580200829e-01
-3.907251966480214389e-02
1.321201025982484123e-01
2.177076454349942958e-01
2.292466348592629988e-01
2.336979539532881567e-01
2.857797801027216478e-01
3.705440363360286704e-01
4.162791964464920835e-01
3.784551666803664949e-01
2.934188884009412135e-01
2.281885945435520591e-01
1.969839098128155774e-01
1.633385168949687827e-01
1.154181543235057034e-01
9.031197296674470243e-02
1.173110972484331660e-01
1.779137495946114256e-01
2.247571494267742165e-01
2.180602033804471540e-01
1.553195428323858318e-01
7.391670858461776850e-02
6.157205827845513291e-03
-6.353214153249804597e-02
-1.448275360747219298e-01
-1.227731992011483614e-01
1.748584218301478255e-01
5.840861379373962770e-01
3.908485737809490601e-01
-9.326015440377366517e-01
-2.588998179921309983e+00
-2.884863708485016165e+00
-1.351634711197949645e+00
4.824350780465140320e-01
1.041936520402521271e+00
4.257534694163725986e-01
-2.963373400159736160e-01
-5.230099472531470894e-01
-3.792852858614924605e-01
-1.754489203641146633e-01
-6.128497529210504002e-02
-3.580900736269643919e-02
-4.600569968386902103e-02
-4.281389323458729967e-02
-7.718372689600860176e-04
7.622203956443934780e-02
1.603395662298511271e-01
2.271247314481869284e-01
2.815660391460703127e-01
3.370143224149581562e-01
3.720499444996972493e-01
3.406034046033001861e-01
2.350783565257321683e-01
1.195996739073033055e-01
7.904317671346348939e-02
1.256285766084370703e-01
1.640118303336143835e-01
7.693626471246224618e-02
-1.326791698146744802e-01
-3.073585608867415164e-01
-2.865729447238860028e-01
-8.874225116324030438e-02
1.074451535787889211e-01
1.667088639615033063e-01
1.258373130692130859e-01
1.092610701231370163e-01
1.741043548330821200e-01
2.695592756857941308e-01
3.198705836461730456e-01
3.054070176548860371e-01
2.562071430305441488e-01
2.009869486886556034e-01
1.490811050799132897e-01
1.081509926765539253e-01
9.148590621186655780e-02
9.752965573148507372e-02
9.896404991533507001e-02
8.009208840678724850e-02
8.038860322027549521e-02
1.557261250836219635e-01
2.816323614136718168e-01
3.505057885173231691e-01
2.929312652081924595e-01
1.415461996265878486e-01
-2.687680294892384747e-02
-1.060424642449046273e-01
5.344591746504379071e-02
4.368872954794341679e-01
5.708019704775280090e-01
-1.867831058703119385e-01
-1.662575061128668708e+00
-2.555865596653544625e+00
-1.854076247228098939e+00
-2.527140243822197929e-01
6.924908731032334286e-01
4.535659853565228716e-01
-2.497217575501715081e-01
-6.618942763260546869e-01
-6.550050651023737736e-01
-4.459459448865227826e-01
-2.212557722744198097e-01
-5.747338466466433288e-02
2.995146487795276313e-02
5.385225696359530884e-02
4.617992505050663721e-02
4.539214053264764570e-02
7.179568833293858976e-02
1.184158672546549579e-01
1.765997980359238773e-01
2.551652263638737317e-01
3.489518701053206384e-01
4.042276188034583106e-01
3.626220000148114853e-01
2.447024284323981169e-01
1.460881030867804131e-01
1.312908535756169559e-01
1.537526223128743430e-01
1.039111067632299823e-01
-5.496795210036437007e-02
-2.154551970933052674e-01
-2.269620949124389053e-01
-6.660463861299367738e-02
1.333463280222676461e-01
2.304572666911797185e-01
2.038450658621090150e-01
1.386726747419340378e-01
1.211171554898991670e-01
1.699046993937137762e-01
2.471696180723027270e-01
3.068600441279888402e-01
3.311841148781018429e-01
3.297174813238871183e-01
3.104683783827061339e-01
2.644620366104289966e-01
1.847978011412136357e-01
9.185003530442757691e-02
3.035818043629336799e-02
3.692005132498444447e-02
1.075341797784480774e-01
1.986397738294159721e-01
2.622517291961970476e-01
2.814866235969681885e-01
2.695345182899133718e-01
2.283234051007852761e-01
1.264177866786931614e-01
-3.480073098675752485e-02
-1.276647206409702862e-01
1.548855585060640236e-02
2.673314469752952616e-01
6.489191486678719256e-02
-9.410656815458481317e-01
-2.026048289330515839e+00
-1.940339428263944566e+00
-6.126785828569558667e-01
6.002323526595971792e-01
6.731481954805751400e-01
-1.802647854668781857e-02
-5.734452937231053760e-01
-6.473677928345876742e-01
-4.396825091177332112e-01
-1.967444921944690450e-01
-7.213160971337166660e-03
1.139514490233509009e-01
1.561305313036596143e-01
1.314337627384531415e-01
8.519251805093472352e-02
6.430895151245706598e-02
8.787090561268197375e-02
1.482897552519606699e-01
2.254521326451613406e-01
2.948251601331459693e-01
3.355174553011625038e-01
3.382821605824573585e-01
3.043070480902214103e-01
2.464839671908812258e-01
1.936764807524937460e-01
1.654001809297699910e-01
1.287276061772305857e-01
1.873161846045664353e-02
-1.575195708868357136e-01
-2.707430945062129224e-01
-1.950464178358445599e-01
2.815487700549703168e-02
2.235699091983412157e-01
2.732170804568793687e-01
2.135115281721474689e-01
1.483830734558959641e-01
1.299208615563369751e-01
1.459870061096310290e-01
1.780514440873686155e-01
2.269565074454191755e-01
2.893565983854950452e-01
3.356571386245760236e-01
3.218591641881414778e-01
2.276547020672486932e-01
9.062704381722021252e-02
-7.612363592932741563e-03
-1.361124994234447910e-02
4.619680760346835113e-02
1.080641901512424119e-01
1.488104321266667251e-01
1.961028330151236843e-01
2.712165604199548441e-01
3.371273912702349995e-01
3.109374961232971857e-01
1.590207452180606995e-01
1.000217847292670173e-02
1.056228726057431844e-01
4.692533467949981940e-01
5.877114376343005597e-01
-2.251642123716273425e-01
-1.766803355393530506e+00
-2.646556365508270670e+00
-1.822693217447515446e+00
-1.020181414413713350e-01
8.179553361751495943e-01
4.131446384304564567e-01
-4.480790492889403231e-01
-8.945315230665532580e-01
-8.337829789961902494e-01
-5.864439920462247713e-01
-3.623032041644302925e-01
-1.747235532409714409e-01
-3.388621981111274769e-03
1.189431147171501058e-01
1.504794331391687834e-01
9.769453580977079110e-02
1.807481096227756684e-02
-1.710182414798576064e-02
2.740624021773661531e-02
1.239012931787426830e-01
2.141704495972104050e-01
2.689960103480523168e-01
2.965358506880856893e-01
3.065896148088741446e-01
3.009918612520837700e-01
2.786284262688108471e-01
2.123864891914700737e-01
5.535505831800088816e-02
-1.764176641304111282e-01
-3.550313789373491513e-01
-3.397763747330718731e-01
-1.270936425130854142e-01
1.338818119082296199e-01
2.730515613971627453e-01
2.343283145414815083e-01
1.000839585337972293e-01
3.474226587077515471e-04
-8.946418547129807858e-04
6.792144709944387959e-02
1.477076157975265036e-01
2.044607126614821913e-01
2.320156396338771687e-01
2.340108040169522341e-01
2.170242010455117054e-01
1.891270716196343238e-01
1.517465984406428936e-01
1.014548897705890296e-01
5.018843849525167489e-02
2.636186617824134992e-02
4.373610898171357425e-02
8.854605205188770256e-02
1.452499850510590440e-01
2.060358509743110411e-01
2.370658589512732450e-01
1.758509687940881527e-01
2.677602318516219063e-02
-4.403376433542698087e-02
1.562373724127106289e-01
4.491216804350965930e-01
1.552701217903435238e-01
-1.120905685466764723e+00
-2.484996360804535342e+00
-2.390218003396007873e+00
-6.890987249561405514e-01
9.553326552436511854e-01
1.160532210067490189e+00
2.802997019070760931e-01
-5.361936992329323637e-01
-7.412125555935404897e-01
-5.277394146853029433e-01
-2.450593549638883095e-01
-4.604415377017379019e-02
8.532261653077669039e-02
1.886077449612172108e-01
2.580546119940645422e-01
2.725893670202285124e-01
2.408494531575843811e-01
2.013427274607411110e-01
1.884429493853167215e-01
2.033785740487978055e-01
2.277636783523874775e-01
2.629828161640652695e-01
3.249352919335675161e-01
3.991995458326325630e-01
4.447160591131986140e-01
4.415689911370752618e-01
3.879213730084750122e-01
2.569315376617070101e-01
2.461662755648490186e-02
-2.403605086314316575e-01
-3.792762288791595715e-01
-2.811448519325430162e-01
5.859437591316116190e-03
3.135642715137467729e-01
4.861438068188155270e-01
4.836186976197431320e-01
3.801767234084314495e-01
2.716493729859332795e-01
1.977940435834330268e-01
1.548658557932260371e-01
1.450759480339095520e-01
1.798048470942328336e-01
2.482500438216567462e-01
3.114290389742943588e-01
3.294095466200568922e-01
2.889176003983733865e-01
2.151379998849217434e-01
1.577646128774053969e-01
1.456766048620624643e-01
1.574736302769089713e-01
1.606617081443467709e-01
1.684196063151615907e-01
2.192385949720873917e-01
3.016328436685694614e-01
3.382833718919118215e-01
2.730935422808195567e-01
1.808237335020493330e-01
2.474446472982246292e-01
5.076212118453169442e-01
5.350332833321047588e-01
-3.053520261606266772e-01
-1.872021153658828707e+00
-2.824515607456740796e+00
-2.017242985553730605e+00
-1.254313751111968966e-01
1.085915134613917532e+00
8.748261606518086264e-01
-1.563269428649205484e-02
-6.431427770800426380e-01
-7.532616897420467694e-01
-5.757712378028003730e-01
-3.564860967884083132e-01
-1.837581597675301270e-01
-4.865227373067034650e-02
6.331691685133528091e-02
1.400378560870301214e-01
1.577176058148525017e-01
1.088188071654917211e-01
2.524920446441247107e-02
-2.669633376345626613e-02
2.492488484359497991e-03
9.344940608448838726e-02
1.800994031392702255e-01
2.280385881290743766e-01
2.610431115770738830e-01
3.033302036810642255e-01
3.222806478490335969e-01
2.377050561160295172e-01
-1.420631624768076140e-03
-3.252895511862205491e-01
-5.520530958979040781e-01
-5.362352693508267709e-01
-3.033933411770809441e-01
-1.195356524849630619e-02
1.996522536800605929e-01
2.986424139006650935e-01
3.191172310423736058e-01
2.945376176662629630e-01
2.387364070396372495e-01
1.642422090284140490e-01
9.740187107123543520e-02
6.818163624189298166e-02
8.784263384717187761e-02
1.427936810645433485e-01
2.050064604828839288e-01
2.414978734588941189e-01
2.248912062118270383e-01
1.509396875538015492e-01
4.736091011750261093e-02
-4.258956013836673327e-02
-9.177776765410167181e-02
-1.020961397536327558e-01
-8.190394410445478446e-02
-2.560919939451720279e-02
5.822310907106201250e-02
1.098537892156928597e-01
8.198173157643146025e-02
6.967245021529508420e-02
2.255255688086632293e-01
3.717113858333965237e-01
-9.870766332101128804e-02
-1.428451465916376062e+00
-2.656689170986140880e+00
-2.414222600187764467e+00
-7.554864924432057594e-01
7.637431450091030083e-01
1.028261071531539450e+00
4.027803174832009780e-01
-2.202709584508488194e-01
-4.765222957440761742e-01
-4.967769487215634161e-01
-4.399198423629261390e-01
-3.261825502768115337e-01
-1.452357651037241015e-01
6.102123377243834357e-02
2.322102292586346872e-01
3.359402932755451432e-01
3.680304433657846097e-01
3.419432510560215244e-01
2.861677765794271022e-01
2.351351227514092423e-01
2.125205980386521976e-01
2.195274332259999350e-01
2.403904435589598321e-01
2.650096057085163936e-01
3.045450799165180245e-01
3.675672474571135551e-01
4.074433357222306817e-01
3.212498193538892988e-01
5.722499081562585493e-02
-2.716258938367012710e-01
-4.462084952161383122e-01
-3.491701049880394092e-01
-7.494650338607247719e-02
1.887935294965895072e-01
3.421868101291690722e-01
4.045382344509020345e-01
4.177285765332111045e-01
3.871663796637928034e-01
3.096445085976577416e-01
2.084354419446022844e-01
1.284230316098355362e-01
1.062274215157929386e-01
1.411535835537320593e-01
1.989128230440683209e-01
2.516360755562587204e-01
2.986316386562050673e-01
3.377320636228520745e-01
3.449433908864945608e-01
3.038239414318442688e-01
2.313202662538133281e-01
1.602701059643347470e-01
1.204381210069194047e-01
1.356607847114440490e-01
2.018063045881586803e-01
2.667577601945711474e-01
2.837332818870803575e-01
3.155071134245402975e-01
5.026411952016155427e-01
7.562033554717030315e-01
5.237072116740700833e-01
-6.843861387954818243e-01
-2.277725870715093137e+00
-2.751246500961935570e+00
-1.497600886801576436e+00
2.326511792320539729e-01
8.869134781376383225e-01
3.654548674805433994e-01
-3.808664906561368690e-01
-7.178181447728596565e-01
-7.005621877268256581e-01
-5.770048159003453581e-01
-4.373053731197086846e-01
-2.697907429360135723e-01
-9.517215498697806364e-02
3.485898438810083877e-02
1.106640376749842003e-01
1.734583215726387961e-01
2.443209147887201449e-01
2.855540662697788612e-01
2.574320520817180991e-01
1.826186171899504274e-01
1.253357762865468517e-01
1.229642289889396750e-01
1.597196636409533854e-01
2.041293033594969997e-01
2.526616949351230823e-01
3.090037857259522180e-01
3.192486766295491996e-01
1.876863483353367612e-01
-8.907279143278240552e-02
-3.524984379715835336e-01
-4.256060545999415523e-01
-2.953248279066744697e-01
-8.844096182652727567e-02
8.380806027482641529e-02
1.932681688572681078e-01
2.568089363250903312e-01
2.924642731947692531e-01
3.052753246625314887e-01
2.942157826642534668e-01
2.615164692962069215e-01
2.111765936023050905e-01
1.479536620239456923e-01
8.394021408656576755e-02
4.307200144253727631e-02
5.079647119796352334e-02
1.073381764271574140e-01
1.749414575538901784e-01
2.061800484349593232e-01
1.841758145168415906e-01
1.265697697254993537e-01
5.998184920392039821e-02
1.005291821953015197e-02
5.336638879170655866e-04
2.341649049820526338e-02
2.969522082701796240e-02
1.766401258031855687e-02
1.144163566483016037e-01
4.072271693156002126e-01
5.790764520817928140e-01
-2.329039623680942417e-02
-1.484256182450447881e+00
-2.657347669622194708e+00
-2.248332243193203794e+00
-5.712500374883269227e-01
7.462213614661763472e-01
7.921597956183163980e-01
1.298410273967422479e-01
-3.471936242460771926e-01
-4.014086719696694505e-01
-2.872237889632622276e-01
-2.319602805300775561e-01
-2.561707956088824512e-01
-2.699335138247173638e-01
-1.989976711060869041e-01
-4.475613822589742663e-02
1.286726557956064110e-01
2.508868860277996826e-01
2.943889587146921727e-01
2.806260746071369550e-01
2.444213435296337944e-01
2.014246283151682471e-01
1.584824112863695289e-01
1.364554358462129746e-01
1.571893432790696654e-01
2.181606263709805482e-01
2.954672456639656497e-01
3.506619624609286778e-01
3.251620278681124909e-01
1.741312075544302340e-01
-6.221354732420360939e-02
-2.555651923571991002e-01
-2.915272313978656826e-01
-1.661558892797914133e-01
2.341787663835456779e-02
1.701616107148391233e-01
2.389599573729327409e-01
2.725420582277695569e-01
3.234819296135851285e-01
3.826873072148235244e-01
3.889811601044921852e-01
3.133912307402962893e-01
2.028568346407823297e-01
1.248855449251256577e-01
1.015916711586230259e-01
1.145168000594741775e-01
1.454830882992143859e-01
1.896915877642181003e-01
2.373436571100931980e-01
2.642488319250123618e-01
2.506903688770080185e-01
2.030130845512676252e-01
1.532315734014482733e-01
1.369540441647550677e-01
1.563980375710330994e-01
1.630313114760054694e-01
1.221251525430648577e-01
1.250500410474336133e-01
3.438114801868660253e-01
7.015035404215290704e-01
6.244631964544061775e-01
-4.481282596211841329e-01
-2.017461845698981460e+00
-2.580417450891618891e+00
-1.417030757120605555e+00
2.916812724175411042e-01
9.263864284410547878e-01
3.245415456227444539e-01
-4.920585751049457723e-01
-7.803422844493612676e-01
-6.092136734988191638e-01
-3.596958338415313094e-01
-2.399760826079185838e-01
-2.421458730256272340e-01
-2.759020328110841080e-01
-2.520803233724377423e-01
-1.343783784305505602e-01
4.198407316499083025e-02
2.172110877625302860e-01
3.478422432697102495e-01
4.026945830745624622e-01
3.741174776108696087e-01
2.993290505341726915e-01
2.317628112964290055e-01
1.928730553437118800e-01
1.767471461622721896e-01
1.872799330730683942e-01
2.301092947445041170e-01
2.634221916460025015e-01
2.019654167093205555e-01
1.092925027640648944e-02
-2.174666016962402970e-01
-3.278945700820388720e-01
-2.535995051474092543e-01
-7.467192407220435424e-02
7.769210471925225292e-02
1.438261734106686951e-01
1.594573901303575902e-01
1.899604264840955570e-01
2.566943548789445417e-01
3.161585076139005190e-01
3.081460320005403597e-01
2.266844309576875882e-01
1.301795330475172818e-01
7.611731935371085500e-02
6.426638501667920889e-02
5.711321082291204165e-02
4.141507900529774189e-02
4.728627482459912129e-02
1.028746325350800017e-01
1.835818398070462598e-01
2.225241806523417520e-01
1.776790445376339178e-01
8.278256704366375451e-02
1.765571587311744878e-02
1.378875177529328283e-02
1.137337990494716178e-02
-3.045773700340707185e-02
1.429978153220282794e-02
3.246622413072503543e-01
7.049077152247977818e-01
4.371442912962201222e-01
-9.057861851159720867e-01
-2.420527625856829346e+00
-2.505941340450334121e+00
-9.335231790136914176e-01
7.025096515981154033e-01
1.028544116006062437e+00
3.359987237441064423e-01
-3.134835713673420621e-01
-4.308804627576419133e-01
-2.223135987023900917e-01
-1.455337090926915253e-02
7.449357153626152972e-02
8.510013765505462791e-02
7.493859333866079164e-02
7.153493166448711416e-02
9.512391917486558157e-02
1.640098568565240833e-01
2.712031150858071893e-01
3.808744805464756578e-01
4.524142049456676418e-01
4.600903949373619239e-01
4.003886930166224989e-01
2.979408542818258177e-01
2.008019724925673988e-01
1.542924615262954713e-01
1.708643786851352098e-01
2.135715658098576719e-01
2.033302534825512098e-01
7.813550527108417687e-02
-1.214936007685427505e-01
-2.621875419477941449e-01
-2.509022436929000399e-01
-1.245604993800727978e-01
1.427825749171861280e-02
1.043849482092071845e-01
1.510553428710764978e-01
1.931832361682419008e-01
2.671006893317289799e-01
3.683928902861943744e-01
4.361714277859717881e-01
4.064168348283713206e-01
2.870737109792723118e-01
1.519223341878171152e-01
6.368958069279238854e-02
3.107368163535495845e-02
3.363749319610122301e-02
5.818171181782098161e-02
1.024026645905776328e-01
1.564464471888421804e-01
1.961123541744309307e-01
1.993662200343297441e-01
1.645861455281699970e-01
1.096602625056587593e-01
5.101251282645119511e-02
-1.832267315226357440e-02
-1.024547967100790519e-01
-1.207029391926684042e-01
8.388735699072258356e-02
4.836108073478843083e-01
5.780291852315440071e-01
-2.682700457633190316e-01
-1.811346370982510612e+00
-2.678155305952251819e+00
-1.892780377023542959e+00
-2.610000596939171524e-01
6.323463192110739817e-01
3.346743308262946637e-01
-3.688431833053489872e-01
-7.282860462815458069e-01
-6.636828507498263585e-01
-4.323562383272172571e-01
-2.249067591647901654e-01
-1.000123364245495555e-01
-5.549549077795079555e-02
-5.430681530519716749e-02
-4.027665316295630377e-02
1.820747921327092386e-02
1.093610406146429681e-01
2.052535967178063248e-01
2.897674286685027467e-01
3.600030971325867135e-01
4.069141913280515110e-01
3.952617168128682024e-01
2.882982687550882939e-01
1.208202838741441604e-01
1.182182540548824129e-02
4.074015904437693070e-02
1.262148213631402172e-01
1.032157118623883568e-01
-6.602256020359467681e-02
-2.273043139927825029e-01
-2.181228675182235455e-01
-5.833327380657223060e-02
9.517539769971598840e-02
1.374895393445949854e-01
1.004954542886338786e-01
7.913760652544432617e-02
1.263493598543440344e-01
2.165640924201854833e-01
2.874451877854545256e-01
3.061403557187470925e-01
2.875105521103084594e-01
2.584312460938046896e-01
2.268103091237391178e-01
1.847099999540962600e-01
1.275639380353896790e-01
6.833798837249135949e-02
3.336519193160347729e-02
3.871974476420388805e-02
7.413721243967939800e-02
1.180882913871169615e-01
1.612400559071933692e-01
2.040212659201781908e-01
2.300323772018575408e-01
1.910363609916013172e-01
5.340153787975471245e-02
-9.815049574051079584e-02
-4.246103116541497663e-02
3.265974497848960212e-01
6.200782719034331203e-01
9.478838740661595097e-02
-1.352974922638397137e+00
-2.530545261036608817e+00
-2.125847017865432065e+00
-4.898801283921289662e-01
7.393960086139694798e-01
6.957781524768584802e-01
-1.954514647744903799e-02
-5.116984396362073140e-01
-5.458482478168511509e-01
-3.617008099387420406e-01
-1.704808088428161339e-01
-1.963898780667425181e-02
9.003316979173127399e-02
1.478759373476426497e-01
1.673823170688605033e-01
1.833971086065110112e-01
2.113222084465412598e-01
2.462902493192585252e-01
2.898138754368785319e-01
3.495849639258333807e-01
4.182174893891724143e-01
4.644724468188204947e-01
4.499907503553206567e-01
3.649391933421967660e-01
2.515588693559853706e-01
1.748931495776395173e-01
1.480979928932976974e-01
9.581735166808397208e-02
-6.113102371044353001e-02
-2.691175227414162041e-01
-3.569529760655112405e-01
-2.296984621935786453e-01
1.610354972425123016e-02
2.085735331281430294e-01
2.707745421764434779e-01
2.452965027007319720e-01
2.095081923726738460e-01
2.104734206053057999e-01
2.533331937973248293e-01
3.145525985789535128e-01
3.623400376612987972e-01
3.691787557795908059e-01
3.183528629590179349e-01
2.235278104310961522e-01
1.347843199567205219e-01
9.671920118149590628e-02
1.083447286503586432e-01
1.392177444276719023e-01
1.667892579064381708e-01
1.927646599827100016e-01
2.371982953918813086e-01
3.066099551023654390e-01
3.625789813791268079e-01
3.423670787333076837e-01
2.165443196334209397e-01
3.725349254430895818e-02
-4.006612836424026242e-02
1.551372639523023456e-01
5.215499433202134272e-01
4.835150515872434496e-01
-5.149197432886796211e-01
-2.005815885814239863e+00
-2.546408801615381190e+00
-1.439076858120612590e+00
1.898561507012538896e-01
7.978446502788072436e-01
2.361799065505085227e-01
-5.375740687806307427e-01
-8.455370482142858801e-01
-7.363299198925500333e-01
-5.004342928746319252e-01
-2.831847017837651470e-01
-1.014785258311889510e-01
3.662868955548564953e-02
1.020811677041151416e-01
7.797398324979040729e-02
9.638660089405261255e-04
-4.343302327566418708e-02
2.942070354721285086e-03
1.119086836470595814e-01
2.128857613841345642e-01
2.719618173104144665e-01
3.030712122122252161e-01
3.212274761967439107e-01
3.121429043130827252e-01
2.586841609878812731e-01
1.747771637346444418e-01
7.357088703665193297e-02
-6.958996274154585771e-02
-2.530578625607683985e-01
-3.767320865825422582e-01
-3.265215658826230438e-01
-1.239409397274340435e-01
8.291433799199703081e-02
1.714992355639810007e-01
1.401345266521049626e-01
7.234587339165995945e-02
4.916711346030886581e-02
8.817699379367222035e-02
1.454365660511522662e-01
1.770565458060269215e-01
1.917625408539526122e-01
2.225862765039036961e-01
2.582771658710297791e-01
2.437451757842347688e-01
1.583123030451260571e-01
5.571220687385865233e-02
1.974610727674304834e-03
2.345713461860444993e-04
3.491338500171941271e-03
-1.259489387800459721e-02
-1.384214660527473446e-02
4.674484942526647285e-02
1.521226535980781946e-01
2.088151391229336462e-01
1.343261929564938117e-01
-2.143023999061343526e-02
-5.111038343461683786e-02
1.997057388510646292e-01
4.634853269490467609e-01
6.861850489550562482e-02
-1.203957889825364447e+00
-2.336893769272724519e+00
-1.987745911289687362e+00
-3.434135383145043852e-01
9.512172079151494097e-01
8.775626701677599062e-01
1.071691090222334775e-02
-6.271965107405632622e-01
-7.046365627752735339e-01
-4.771881507971881264e-01
-2.243573697287804813e-01
-3.449369494133526504e-02
9.886682695403731236e-02
1.772052717084730278e-01
1.941023387532950784e-01
1.604362399047904453e-01
1.066417048884990004e-01
6.902108272468407413e-02
7.313158205916960031e-02
1.227958858666370889e-01
2.069746331843975162e-01
3.129563330983993197e-01
4.153938304763349909e-01
4.630680799367073996e-01
4.199452647014100259e-01
3.195904210988942395e-01
2.242364783128216743e-01
1.253451782261731651e-01
-4.353093151823510948e-02
-2.699917965705440071e-01
-4.091963274835701547e-01
-3.188820348593654486e-01
-2.305692199851534091e-02
2.897805905544196814e-01
4.319371148900776891e-01
3.739665264391933697e-01
2.378195346095350604e-01
1.548790432901524239e-01
1.601717094040240874e-01
2.113448705322898413e-01
2.626311444460791011e-01
3.046037404715433161e-01
3.494274111282888451e-01
3.904494905835644292e-01
3.914203594836008770e-01
3.292734834889017859e-01
2.320982769096425757e-01
1.532415170505021518e-01
1.192027692115213838e-01
1.214858506000479343e-01
1.464409057093903066e-01
1.927195658164156666e-01
2.625489373143012339e-01
3.364245207298867668e-01
3.540728982315938800e-01
2.662165754422209929e-01
1.566280231663816636e-01
2.381657886707356231e-01
5.405067293202190370e-01
5.755478152623387800e-01
-3.064047076809772174e-01
-1.846204690260430326e+00
-2.609433183559306091e+00
-1.596956159193259062e+00
2.548466156329498022e-01
1.153499822295972921e+00
6.169478144291902222e-01
-3.662235172592122612e-01
-8.549203078693842217e-01
-7.600503584095044118e-01
-4.338591652847124114e-01
-1.560662163657330348e-01
-3.220781268574958445e-02
-2.873812451683990105e-02
-2.164744122071213250e-02
5.931086022185427797e-02
1.469769594886865260e-01
1.572817343009671465e-01
1.096530094910141834e-01
7.822936206238187418e-02
1.010186567015222275e-01
1.668106137871074313e-01
2.436911130783926405e-01
3.012306402992753762e-01
3.230276109126567485e-01
3.128866040698668471e-01
2.803587720948640394e-01
2.014334106852594952e-01
2.046149405985528413e-02
-2.523713643016251007e-01
-4.690830105015964535e-01
-4.573076542377584319e-01
-2.110654871391193232e-01
9.913416512380808510e-02
3.022049523882988642e-01
3.529445427976237171e-01
2.999854705695814139e-01
2.052901249885819290e-01
1.135870669906940966e-01
5.339116138781786064e-02
3.583235929759771843e-02
5.262332447710044853e-02
8.270232538587433957e-02
1.120843821891627928e-01
1.448487557106672707e-01
1.794999774603144305e-01
1.876916047083352079e-01
1.409093686881954244e-01
4.794412676414953195e-02
-4.746533372293280234e-02
-9.836434062527255051e-02
-8.796436301453057494e-02
-3.796347433941210658e-02
1.940619469315874035e-02
5.593732406404187951e-02
3.124656813229546859e-02
-5.886362499689606897e-02
-8.432604617378090806e-02
1.079151980023832086e-01
3.093333078949369597e-01
-1.274417090980269340e-01
-1.476644695625385806e+00
-2.768597082497389117e+00
-2.565664339184032805e+00
-8.557711747055328777e-01
7.763960297532294108e-01
1.111319263228767840e+00
4.606556138971120151e-01
-2.246796241684760331e-01
-4.877033842038541178e-01
-4.367911404190035207e-01
-2.947444884988446590e-01
-1.571642136584996685e-01
-1.948573823367572011e-02
1.373651818003278069e-01
2.999501565918430424e-01
4.122291098662981268e-01
4.117249222931220753e-01
3.033105247383887648e-01
1.844868363762242613e-01
1.570825919003334681e-01
2.208982077598503901e-01
2.972397326988840405e-01
3.388528525847821493e-01
3.640010010753525482e-01
4.024368635058955812e-01
4.486751155506970012e-01
4.479948458929450261e-01
3.194691841805702426e-01
4.135553626647869851e-02
-2.693395528325325805e-01
-4.188408389652410468e-01
-3.136637935555249834e-01
-4.229732510964991782e-02
2.292523950745663508e-01
3.958360596273453602e-01
4.410560325638796519e-01
3.906638985007891973e-01
2.861208378316969503e-01
1.840526184283522437e-01
1.328301952885842796e-01
1.370998739793483356e-01
1.663079086502888548e-01
2.002674130642636829e-01
2.463563534341755845e-01
3.080892115812419729e-01
3.563250996308640062e-01
3.488764051650771192e-01
2.760725915003497954e-01
1.743008098593078481e-01
9.290934878823182974e-02
5.812687839193891870e-02
7.165943610042971312e-02
1.270491955505960446e-01
2.051104356274458529e-01
2.582838070975821410e-01
2.485757422029941377e-01
2.417947720462776950e-01
3.857640805059369682e-01
6.176475550651974178e-01
4.186308940234325093e-01
-7.034854676343286206e-01
-2.211959636295301124e+00
-2.649361081854524347e+00
-1.401305423800698780e+00
3.116787785964691415e-01
9.410604954185585180e-01
3.732881088987992646e-01
-4.341685285943224226e-01
-8.114002884530646664e-01
-7.828482712029021240e-01
-6.065632066961008650e-01
-4.167869592299853210e-01
-2.372928565694439051e-01
-8.081106140266161586e-02
4.809923773137938369e-02
1.749136032671123886e-01
3.038695963956259405e-01
3.700590859337400396e-01
3.149271139603759817e-01
1.858878502621365558e-01
8.886221827355639258e-02
6.905449578805179789e-02
9.544824635214856079e-02
1.325430638782630621e-01
1.784942920605928629e-01
2.396269346598952910e-01
2.875310206053198758e-01
2.474815981321649150e-01
5.788128142986558033e-02
-2.306421379408252204e-01
-4.514658916559614599e-01
-4.639130768219743572e-01
-2.810872152697014292e-01
-3.552328244812344438e-02
1.538908399254112491e-01
2.602495857733467255e-01
3.152189780156900989e-01
3.343077993930291258e-01
3.016720235562568853e-01
2.171492734811892034e-01
1.195943386066938008e-01
5.627739483841481122e-02
4.888362398365150158e-02
8.763482013509669988e-02
1.474986330014137204e-01
2.085905958092840184e-01
2.565995545415228341e-01
2.722123411165117135e-01
2.436833903783782174e-01
1.847912181159787615e-01
1.139678538801423141e-01
2.327612635103431735e-02
-9.681706239688028792e-02
-2.029813859344330451e-01
-2.259846066998119907e-01
-1.682547987418986368e-01
-8.058281230699959607e-02
7.996718339206833337e-02
3.696098164448794465e-01
5.087973735352674387e-01
-7.901540115318986257e-02
-1.423077128604848696e+00
-2.423603943174914122e+00
-1.922654045768735331e+00
-3.068543221862485848e-01
8.851967805422531477e-01
8.663741866539740322e-01
1.973310792576618844e-01
-3.170809994326423409e-01
-4.659777543820232681e-01
-4.326765131592330005e-01
-3.625236907863157443e-01
-2.688571411468200778e-01
-1.380318949786376037e-01
1.022884966278042249e-02
1.441075630510041117e-01
2.500005575590497076e-01
3.238721646802334431e-01
3.437934150036954795e-01
2.808950683449570329e-01
1.580648072082639355e-01
6.479310666499235594e-02
6.817601252859492589e-02
1.388702674150787408e-01
2.070860490344402505e-01
2.536412903639741478e-01
3.030467453898330610e-01
3.440506310387860256e-01
2.953902057057460340e-01
8.993759108972212979e-02
-2.026874751870910429e-01
-3.998875488010622536e-01
-3.824292737004991727e-01
-1.962763324571508705e-01
2.555571377679371689e-02
1.850052574207846634e-01
2.657725319926415031e-01
3.036193080937133471e-01
3.251808116832039519e-01
3.222201491284069630e-01
2.854398935070954213e-01
2.340427996035095992e-01
1.913063980654048646e-01
1.572654631409709236e-01
1.326937789137184465e-01
1.427301483147312144e-01
2.061299127663413222e-01
2.997662053857465536e-01
3.688462986620723028e-01
3.617997883082861299e-01
2.659793970577730149e-01
1.335848480461730436e-01
6.222141337528123983e-02
1.097543615524199379e-01
2.134996652548080132e-01
2.361825511985402304e-01
1.433621666340276768e-01
1.143717415664078224e-01
3.703952317758135160e-01
7.711606465371365626e-01
6.437967570571757614e-01
-5.763656375517761665e-01
-2.271085834012564586e+00
-2.828930442113344323e+00
-1.567701646947222693e+00
2.183482629270726005e-01
8.825610605962388444e-01
3.108113194142537727e-01
-4.720252346844169833e-01
-7.666640250712453142e-01
-6.415293044165605307e-01
-4.205700479283748794e-01
-2.623100882347513263e-01
-1.577089628534096011e-01
-7.309074454548909749e-02
-5.646245362845100577e-03
4.982968454497865851e-02
1.200020569940022097e-01
2.180255150272089881e-01
3.137993622870521304e-01
3.575150527480228102e-01
3.262674001023900261e-01
2.447351908753035987e-01
1.691350765083434737e-01
1.508079683970402207e-01
2.046136158986039955e-01
3.058269017684997482e-01
4.049890129473124878e-01
4.321862729599166841e-01
3.192606716205135253e-01
7.184325250485931735e-02
-1.892443040673207622e-01
-3.084926946888522092e-01
-2.310216030975673629e-01
-4.015071611706970411e-02
1.392873622473422557e-01
2.503622297621799775e-01
3.134920583757817569e-01
3.658512372823878311e-01
4.137308337817076631e-01
4.243386907462181612e-01
3.613528805509529929e-01
2.413944654554654179e-01
1.357445455040079962e-01
1.009962266020469623e-01
1.295898809897992332e-01
1.778959393797428234e-01
2.196998199152395692e-01
2.553150883315321584e-01
2.789904459658941183e-01
2.631286036939575190e-01
1.919330875413734760e-01
9.930237866807548053e-02
4.360727832961337758e-02
3.649546430907768535e-02
1.863954702638308258e-02
-6.966669649032485034e-02
-1.754714039014576565e-01
-1.086536386900541357e-01
2.409011209182341240e-01
5.282579683713719554e-01
1.209507359904427731e-02
-1.497728233624820549e+00
-2.834076767811798181e+00
-2.512679649909174806e+00
-7.196854782558640418e-01
7.934048309234396079e-01
9.154748563388555027e-01
1.904278297489656047e-01
-3.620404370667928418e-01
-4.175459596360484582e-01
-2.398781648183957171e-01
-9.768668128839891329e-02
-4.704258052483444030e-02
-3.544958512784515681e-02
-9.539929350196957314e-03
5.148690303301457771e-02
1.318867238675558717e-01
2.097584156947667755e-01
2.897156876213913823e-01
3.744356642609304453e-01
4.240793403649870674e-01
3.908960665934672063e-01
2.849023190543700235e-01
1.735860741264487750e-01
1.257013391158640636e-01
1.686787013641950495e-01
2.722029207896144443e-01
3.482367655548789243e-01
2.989216987402011916e-01
1.113768738667410829e-01
-1.017743177900252843e-01
-1.974009325348859700e-01
-1.398194737064357429e-01
-1.369012723181957381e-02
8.775491057989504018e-02
1.408917838023548974e-01
1.677816444064555435e-01
1.902149127706159182e-01
2.194953885344402833e-01
2.567824205021520534e-01
2.848936363972713881e-01
2.730452201110329935e-01
2.066066002135872604e-01
1.114978032030005672e-01
3.772769857426222506e-02
1.732425492913522436e-02
4.642282085145480602e-02
1.038718622486820842e-01
1.669906480116139791e-01
2.069195248623944827e-01
1.982816618579859302e-01
1.498753865821201015e-01
1.058791430700683212e-01
9.824854191487783495e-02
1.014899588658612350e-01
5.521325328604691912e-02
-3.509930165155061149e-02
-1.952107411863187106e-02
2.692108955733615860e-01
6.582563945663901794e-01
4.947581038091320993e-01
-6.848566544008977131e-01
-2.176658903903934572e+00
-2.497128680662477063e+00
-1.233108603952184801e+00
2.923325618331974463e-01
7.267648113933115051e-01
1.746835447487529169e-01
-4.376972377294229277e-01
-6.132285738537527342e-01
-4.828880395376632939e-01
-3.091980096526257826e-01
-1.907428679663156212e-01
-1.156073618522640151e-01
-7.295522973890748719e-02
-6.302652705287892232e-02
-6.129133429231063690e-02
-2.315196493700294109e-02
6.766755652909255125e-02
1.651453568963901497e-01
1.969038205954178333e-01
1.517228733501095050e-01
1.004630289208489902e-01
9.683907942296382521e-02
1.121254314236304755e-01
1.116976027110830605e-01
1.203778834090219185e-01
1.581581478981842204e-01
1.731695439997519570e-01
9.633047399223063079e-02
-5.531552315384107021e-02
-1.747800500533880641e-01
-1.765609344118684587e-01
-8.333837410598220197e-02
1.583406396637549937e-02
6.973116020014612226e-02
9.979601388276895801e-02
1.463519917723704600e-01
2.190063418506354720e-01
3.014371664940698192e-01
3.703126522378629160e-01
3.976857846579938682e-01
3.596274808372742493e-01
2.622027715183145036e-01
1.483366078614146155e-01
6.458144127024420533e-02
2.934137892462304956e-02
3.935642371909445214e-02
8.662761377176410316e-02
1.542902150340204892e-01
2.101111694683497344e-01
2.218393328215447768e-01
1.855912010251994093e-01
1.320338814722077370e-01
8.371186014150154564e-02
1.269550865317322502e-02
-1.067885257622306072e-01
-1.825013594142421702e-01
-2.886169588554692023e-02
3.441839234033469141e-01
4.603383939522591173e-01
-2.708350806687433443e-01
-1.597420158059825068e+00
-2.241359306397923135e+00
-1.370804544887733956e+00
1.656892581645491580e-01
8.985956871420767156e-01
5.196138494933778551e-01
-1.614648365290362597e-01
-4.750455947875836249e-01
-4.098396614135113580e-01
-2.233889030476727544e-01
-6.520710086199069111e-02
3.900218512303729734e-02
7.366984716262947597e-02
1.619047408977130481e-02
-8.803057880006193159e-02
-1.212762467871116717e-01
-2.130857560573375803e-02
1.411447863223170007e-01
2.645767368027536759e-01
3.317127168367988155e-01
3.713770285344223376e-01
3.721450888085699460e-01
3.011629812042829757e-01
1.833703268119320218e-01
1.068166944880230840e-01
1.295197536554505979e-01
1.900415377716814513e-01
1.455781937246986568e-01
-5.766057988627145553e-02
-2.754551548881570833e-01
-3.044642823430697143e-01
-1.222546445181734165e-01
9.595977519255496913e-02
1.896449942327886606e-01
1.582494829727619789e-01
1.017436708245631760e-01
9.098150939055897612e-02
1.194323560906054432e-01
1.497730618477587372e-01
1.739971897191683603e-01
2.145059884388651195e-01
2.741357915559387570e-01
3.094095202311658022e-01
2.735762827512659423e-01
1.802676894963761989e-01
1.011041904063308405e-01
9.353018875709873114e-02
1.481660379037379460e-01
2.149642598441920682e-01
2.619726951306100560e-01
2.911695256485799521e-01
3.099898205688105257e-01
3.091072420760176409e-01
2.629074078748701027e-01
1.487109357384028829e-01
5.101873170145721122e-03
-1.291354581572894816e-02
2.480371486214378030e-01
6.004941979587922196e-01
3.994875739690560423e-01
-7.714807062052602138e-01
-2.160889125416353362e+00
-2.319415000407439642e+00
-9.568671120324897528e-01
5.037599308538804888e-01
7.341457973242759838e-01
-3.486966546822517499e-02
-7.548065785509163739e-01
-8.948303193286198942e-01
-6.394392987409791562e-01
-3.319442797524423949e-01
-1.287780514875515037e-01
-3.286987951316903273e-02
-4.493435257874173888e-03
-1.545527286420832896e-03
3.596402220095860219e-03
1.218823181185493820e-02
2.073421952065689078e-02
4.789767905519370927e-02
1.168696579030412408e-01
2.143138635209753395e-01
2.903304870246987135e-01
3.040112631550536682e-01
2.569438930827863676e-01
1.891572292671077904e-01
1.512574881249380276e-01
1.579301523975032706e-01
1.510371118112500688e-01
4.001402775952191126e-02
-1.796775099694292444e-01
-3.706978376398295527e-01
-3.714474477176253897e-01
-1.647500740183494572e-01
1.059667859313387084e-01
2.732390358148762410e-01
2.737968808136576060e-01
1.706542360092374866e-01
8.300819618268144573e-02
8.271116537608962094e-02
1.464461444174465221e-01
2.156383967130402757e-01
2.725878401354914216e-01
3.211825616096603553e-01
3.356164232529623703e-01
2.848205088177172550e-01
1.857675149817786253e-01
9.718062961922598053e-02
7.001177992569887487e-02
1.109367523194007138e-01
1.841544669773534093e-01
2.501600927373697769e-01
3.009112811150088662e-01
3.425757464366653293e-01
3.491404386801347792e-01
2.616626677750442109e-01
6.506234627401304149e-02
-1.118711722545587955e-01
-3.187627584948248688e-02
3.373029450443819632e-01
4.869239253351712038e-01
-2.897283028892306267e-01
-1.800661048295652433e+00
-2.615946753464093888e+00
-1.657285935324051884e+00
2.197853964398360227e-01
1.219447908593652485e+00
7.869867583394496435e-01
-1.409928875321646846e-01
-6.132307943802199901e-01
-5.277427715047680046e-01
-2.525352753916179638e-01
-3.630715134838302660e-02
1.042165569106704437e-01
2.031535591769066396e-01
2.429035642760259961e-01
2.009862895671975791e-01
1.135061564339228668e-01
6.306995718743069190e-02
1.054366640599159743e-01
2.182223218635501727e-01
3.341616312705997238e-01
4.143203997527176163e-01
4.662423304586357231e-01
4.990275231245531740e-01
4.953124213894114503e-01
4.395517045607166828e-01
3.474958008199527937e-01
2.365724129084289806e-01
8.550995393852460491e-02
-1.167487418762186840e-01
-2.838271862223626929e-01
-2.766950501009098340e-01
-6.882664033588342667e-02
1.945721080120025870e-01
3.380627085408298704e-01
3.153356601177655927e-01
2.070131917924752929e-01
1.102863854019785206e-01
6.886679740560576468e-02
7.806613617628338497e-02
1.146234386979177317e-01
1.629361430635063723e-01
2.189396499720143996e-01
2.663416037686918703e-01
2.710895905708636811e-01
2.133830398073195966e-01
1.100617853161023479e-01
5.054148913684587685e-03
-5.454998236829164404e-02
-4.843191272621928667e-02
-5.052045917017140841e-04
4.754478704197876576e-02
8.857719535755241569e-02
1.519722323816274645e-01
2.302098307241015884e-01
2.368201646656656889e-01
1.144173768935351221e-01
-2.680327856182584609e-04
1.350216246156594468e-01
4.210481070606426623e-01
1.841113152798465880e-01
-1.083411140832297059e+00
-2.605819415433007880e+00
-2.768217277216309391e+00
-1.183137397513371880e+00
6.053772184285453051e-01
1.054903456836238762e+00
2.950032009597665095e-01
-5.726063099080638263e-01
-9.004167985148446851e-01
-7.810503320432856666e-01
-5.215368319111944873e-01
-2.794897195619749919e-01
-7.487791153711227665e-02
8.702452703375779253e-02
1.728096170005759269e-01
1.635418429676283036e-01
9.315794080628801710e-02
2.442608364242359123e-02
4.281016910379676493e-03
4.713907030288505551e-02
1.326494973806167654e-01
2.181935554794970644e-01
2.760293058637498520e-01
3.110512386127688433e-01
3.335659294542758779e-01
3.299837771780231299e-01
2.649532446781738826e-01
1.085408071563966348e-01
-1.199998838713201149e-01
-3.217744974957543191e-01
-3.685061931539562186e-01
-2.211793752858844386e-01
2.439988434621166366e-02
2.305935096657687755e-01
3.269490023782892218e-01
3.219879333454530590e-01
2.559704008518191021e-01
1.714646518082560966e-01
1.054221883162662909e-01
8.080299429126361344e-02
1.017665387395926269e-01
1.553102367721969912e-01
2.187023588919617678e-01
2.734931601140322410e-01
3.068730187381138452e-01
2.992932367053775522e-01
2.341154493156949179e-01
1.237711844084716378e-01
7.892696043212521495e-03
-7.189521455584452214e-02
-8.913480887999214453e-02
-3.774846460168818779e-02
7.318288109262702235e-02
2.111521233118597018e-01
2.861693939991274416e-01
2.034645090194289463e-01
4.828962993014519756e-02
9.075294819438789462e-02
3.555755101962094211e-01
2.708837793935074401e-01
-7.524791139018517372e-01
-2.193239172397630554e+00
-2.567092564096312923e+00
-1.272843487346948077e+00
4.471541322314481204e-01
1.065505170922496303e+00
4.990266823603997093e-01
-2.965041159968329065e-01
-6.660662791419025286e-01
-6.333481663005768869e-01
-4.481673004622340195e-01
-2.475686619102031027e-01
-5.951795114383226504e-02
1.072347777663795326e-01
2.306463642615300125e-01
2.882388171246043629e-01
2.803244650383126535e-01
2.349410573805278679e-01
1.882803923431923265e-01
1.605769145613274995e-01
1.526855893288898980e-01
1.666192421603204799e-01
2.131166132015761550e-01
2.864032760749783968e-01
3.562959831226803487e-01
4.034849334716145153e-01
4.256189956771315730e-01
3.825839345053181351e-01
1.970801119468287288e-01
-1.200615019189417709e-01
-3.924702929057797829e-01
