-8.972060698723544059e-02
-1.238691845251365872e-02
2.333444836144906408e-03
-1.215248858064027840e-02
-3.819574092814434496e-02
-6.450461078353235400e-02
-7.794485328518775680e-02
-7.092136150352074120e-02
-5.076527749562607245e-02
-3.785095931182136386e-02
-4.712522252818338725e-02
-6.986557097785260628e-02
-8.142659216535490241e-02
-7.000346864123736801e-02
-5.497792911106449965e-02
-7.571884322341407292e-02
-1.441273367707579522e-01
-1.838465714014048680e-01
-6.325478982683037377e-02
1.800505004577043211e-01
1.381497532590155730e-01
-6.281197333858337117e-01
-1.790745063602205533e+00
-2.214910849385113512e+00
-1.274545123601475094e+00
1.805947180943717478e-01
8.191286133462497565e-01
3.905280884615784931e-01
-3.079098049631402434e-01
-6.110100286856221530e-01
-5.426597065982666779e-01
-4.111926009570687768e-01
-3.392647854307191402e-01
-2.632519751831745580e-01
-1.469628977125123637e-01
-3.644114747016803657e-02
2.687238931231175632e-02
4.735258274722823485e-02
4.574974189288882886e-02
3.499737206316481247e-02
2.268023967838290328e-02
1.647774496861586363e-02
1.728460599144197862e-02
1.045257635704611998e-02
-1.832461549059655193e-02
-5.524621934642596349e-02
-6.796858034949961047e-02
-4.664080847834458504e-02
-2.121428574806259737e-02
-3.773249220499837187e-02
-1.256529614045011067e-01
-2.827396294851439729e-01
-4.651477252518813055e-01
-5.870352402440889295e-01
-5.716156613570246847e-01
-4.227243892520007318e-01
-2.248302873358658804e-01
-7.260769583767405499e-02
-9.061958120489960189e-03
-1.377395078877623885e-02
-3.777321615469722560e-02
-5.332734054972844417e-02
-7.010071744884038836e-02
-1.043608371024102310e-01
-1.440398442459832618e-01
-1.582900670656103848e-01
-1.391490214090856659e-01
-1.125487755424578323e-01
-1.014521609435811988e-01
-9.770231390414491068e-02
-8.629484520287400429e-02
-8.611581025984195448e-02
-1.292779429323198115e-01
-1.775298634148693711e-01
-1.065280841201512452e-01
1.153635473238034254e-01
1.848426182954639452e-01
-3.882312062829108568e-01
-1.561410317485894650e+00
-2.350723903387236469e+00
-1.778304623068304835e+00
-2.487623816525034726e-01
7.661802448282161171e-01
4.967203073488438148e-01
-4.056710304611556017e-01
-9.401024224245375649e-01
-8.293921626350391207e-01
-4.265688575509877789e-01
-1.047843593471185775e-01
2.945943036506411261e-02
5.198198171805350903e-02
5.801723132888429724e-02
8.214167650209289184e-02
1.082292603050385299e-01
1.179587486532436141e-01
1.236967362011593408e-01
1.573582757525485154e-01
2.352461617409203065e-01
3.422040017506899900e-01
4.440096418994874394e-01
5.123121297161520316e-01
5.454247283084229236e-01
5.611658337114848738e-01
5.716956054361430617e-01
5.785384595370440808e-01
5.773611513083632962e-01
5.474849105933734528e-01
4.589086385680860580e-01
3.260954030006579241e-01
2.455982083903502922e-01
3.222793771097505200e-01
5.348332716448048751e-01
7.293648615706840310e-01
7.807796962773934091e-01
7.166432333119682196e-01
6.534423112972509440e-01
6.555706181019972378e-01
6.959704401848579858e-01
7.234355920299484488e-01
7.210765852897889072e-01
7.034189395654265597e-01
6.882168014220924057e-01
6.824917101179354129e-01
6.847051891931478229e-01
6.882854571234198193e-01
6.850157446288986929e-01
6.677458393766472211e-01
6.242197606416898248e-01
5.449874204891246299e-01
4.730902839401716076e-01
5.250149760992429693e-01
7.473540838984810142e-01
8.637624443744138514e-01
3.363744356561809146e-01
-9.441801980798042448e-01
-2.069691872148509582e+00
-1.863738382300131891e+00
-4.139453870067683616e-01
8.639477961813664120e-01
9.319901669182852899e-01
1.726735175350092577e-01
-4.446405297575450888e-01
-5.162962689648834536e-01
-2.846497726255032279e-01
-8.219187741142548742e-02
-1.169034589449702288e-02
-6.577346107478322657e-03
1.206596651381217078e-02
6.535046531625213206e-02
1.329965079817136409e-01
1.901685194142674340e-01
2.219294276007146016e-01
2.248694083803033095e-01
2.086810855179497270e-01
1.839628007612963967e-01
1.561506690833827371e-01
1.435361051179798453e-01
1.595100332775080121e-01
1.651336319726164903e-01
1.073011937601537347e-01
7.599155415084810072e-03
-6.225982610192909439e-02
-9.114853629938206303e-02
-1.473237967313984487e-01
-2.735333808555773238e-01
-4.048510842980721502e-01
-4.277597217256857154e-01
-3.120141665130417574e-01
-1.423694236770850496e-01
-2.010004244324972711e-02
2.365710323753400166e-02
1.607895951238364624e-02
-1.045818824284541759e-02
-4.016302300359628208e-02
-6.646138835372884801e-02
-8.738670293914389819e-02
-1.024686690587280902e-01
-1.035367843313794722e-01
-8.043993088060287511e-02
-4.274420495329137731e-02
-1.793920710588574330e-02
-1.675444566795634971e-02
-1.669700927552774522e-02
-7.040542673627527785e-05
7.588507107497565948e-03
-1.275929559366835615e-02
1.805556357173469795e-02
2.025494650205274527e-01
3.801735279281803770e-01
6.219521455213254668e-02
-9.745728121854622117e-01
-2.018271819703696401e+00
-1.933458401726698472e+00
-6.066506660177717336e-01
7.325415506839815238e-01
9.653814853005490138e-01
2.628956604181184042e-01
-4.513653293064365801e-01
-6.301200047591124509e-01
-3.967981016286944995e-01
-1.135271878220839997e-01
1.678179338165204995e-02
1.638813830636351790e-02
-4.040125935812766134e-03
1.434860645502976026e-02
5.414225398636768327e-02
8.579200532421921155e-02
1.060730161536235783e-01
1.174520848672151452e-01
1.125755198561759485e-01
9.165650161440946908e-02
7.365228921527429418e-02
7.956442874313748859e-02
1.082730644664688380e-01
1.322151255611148657e-01
1.239193770025830144e-01
8.782892869261388347e-02
5.249817919216615003e-02
2.703826756129267331e-02
-1.710740200395706456e-02
-1.038738504202088020e-01
-1.986359669826857077e-01
-2.256900760805354289e-01
-1.535607860774385325e-01
-3.533862295468827297e-02
5.322773697946377169e-02
8.604017439570799120e-02
8.363914054588103553e-02
7.230472519742497939e-02
6.843775987495100133e-02
8.524610386924379168e-02
1.280737180321860902e-01
1.785001284418859524e-01
2.023354572574821431e-01
1.847542025767601181e-01
1.448286204793621801e-01
1.114296059570974579e-01
9.893380042643021288e-02
1.053546691599108187e-01
1.171216077828721308e-01
1.116169358733450634e-01
7.888162994508088333e-02
7.259323160287578514e-02
1.973244712367838993e-01
4.089354382302722857e-01
3.261201058944490638e-01
-4.357815200465068872e-01
-1.518375864407995213e+00
-1.842959167648221985e+00
-8.871205205522831871e-01
4.669891649321808447e-01
9.562661568407410106e-01
4.058131663828551394e-01
-3.637415212206510651e-01
-6.737609688225405513e-01
-5.208215239634119698e-01
-2.406198214631377064e-01
-6.832285108204330659e-02
-2.705800235597683942e-02
-3.915069397689067976e-02
-4.040997299993876607e-02
-9.948504119508747023e-03
4.562500881739327968e-02
1.082384743673069222e-01
1.608856447828812541e-01
1.923304670610267719e-01
1.940847353632623173e-01
1.676515824167781332e-01
1.311283810248661252e-01
1.003950122011048329e-01
7.543596604164042041e-02
6.237831291610217849e-02
8.248103242608251229e-02
1.372000712303875214e-01
1.860608372040179481e-01
1.682943854768366998e-01
4.553830862595996398e-02
-1.451094224888243578e-01
-2.843961165232314903e-01
-2.742227482904590063e-01
-1.447315328278179214e-01
-8.365120934899947583e-03
7.083248826533154741e-02
1.097301769129772342e-01
1.367158624867633454e-01
1.483404984976960383e-01
1.306977164450840445e-01
9.199674316092171233e-02
6.443811519220428441e-02
7.113133080579289724e-02
9.490833877235713145e-02
9.662590753464507520e-02
6.561655434432180078e-02
3.339802516880359395e-02
3.476470638935166141e-02
6.811851774625633793e-02
8.957075655988142038e-02
4.859001162509402061e-02
-3.325663777286844147e-02
-3.038745136532417651e-02
1.189796592297484717e-01
1.500065419795157395e-01
-3.919254789509091230e-01
-1.441394903469976008e+00
-2.072128239742356381e+00
-1.469808191637900219e+00
-1.316730384089268013e-01
6.289094380048283472e-01
2.950949314484237473e-01
-4.515589628103469089e-01
-8.198935186905490502e-01
-7.105963337526757240e-01
-4.506056196701659355e-01
-2.654110538766664140e-01
-1.669893529054777004e-01
-1.108988479331226018e-01
-8.347966291276269490e-02
-7.281877358425160873e-02
-4.996338300255606657e-02
-7.264021129818450107e-03
1.949814291416826495e-02
8.466006976932567707e-04
-3.588945658651843118e-02
-4.512579640189216812e-02
-3.136993390629727596e-02
-3.328673130613263309e-02
-5.439950977575898350e-02
-5.775214631313268371e-02
-3.183768115783239955e-02
-2.473315603893457351e-02
-9.406576392024539046e-02
-2.343340409953840187e-01
-3.715997511909229223e-01
-4.277082147580367200e-01
-3.679242990437374128e-01
-2.059964533241694096e-01
-9.027062808580279749e-03
1.283464357678234524e-01
1.612262644523580202e-01
1.303960036776137255e-01
1.087437396422473723e-01
1.348391601400479589e-01
2.042575109720032589e-01
2.991330460429790783e-01
4.025356825810664785e-01
4.919997515999525728e-01
5.437945398191169621e-01
5.554753641662208974e-01
5.566838215365572662e-01
5.838493451526118871e-01
6.412888677819801320e-01
6.908605976717780983e-01
6.801604334525080953e-01
5.981298917758584022e-01
5.355548942855021810e-01
6.535679552473884213e-01
9.495441907049072539e-01
1.012570580662166320e+00
3.018553354307222381e-01
-1.009376831289018117e+00
-1.763568184672776207e+00
-1.033805308464239125e+00
5.574491275739665852e-01
1.489671004415333400e+00
1.166429254796908621e+00
3.390767313972224417e-01
-9.913925333123779771e-02
-7.559875836638148272e-03
2.575725724611339085e-01
4.200864460974738646e-01
4.564600436009920714e-01
4.507135577919510472e-01
4.545671544866078384e-01
4.667508058714699981e-01
4.730146188357007286e-01
4.703062815350196879e-01
4.599726868387453704e-01
4.417025808191444303e-01
4.181463911950188406e-01
3.915114125067805650e-01
3.578596551675574111e-01
3.164762247521450966e-01
2.765451593313218437e-01
2.465232005528316117e-01
2.310551815862929015e-01
2.352491692424121539e-01
2.451483189800036377e-01
2.105983969034014858e-01
8.605623609256074502e-02
-9.695305209246810052e-02
-2.242528228757075803e-01
-2.011093385558238855e-01
-5.660368667296333811e-02
8.733198332134516073e-02
1.477900829257312865e-01
1.451545649727358223e-01
1.394845968315847062e-01
1.487108676307239974e-01
1.471197305005155775e-01
1.155304749334234438e-01
6.601176960764484902e-02
2.087115885698755460e-02
-1.266456671111888810e-02
-4.015277442897479537e-02
-6.365309294986480626e-02
-6.725747107644078349e-02
-2.239519343935519186e-02
5.990758002780181835e-02
9.101918436664482859e-02
-8.117050256737323027e-03
-1.585376744075727706e-01
-1.458179574956813274e-01
8.882936085509041124e-02
1.721236450259233108e-01
-4.396793980376656474e-01
-1.647470099574505520e+00
-2.401620913285813508e+00
-1.774407506986241057e+00
-2.267784220566707032e-01
8.514734719473324720e-01
7.670802971508891011e-01
4.869075673864958764e-02
-4.902886924541395297e-01
-5.744150540970366370e-01
-3.941884273791149695e-01
-1.974046411118779987e-01
-8.860314156481081949e-02
-4.747233147371565654e-02
-1.588918806276742521e-02
2.825105318481324623e-02
5.726976712932951852e-02
4.616451059635327120e-02
1.719335473781084811e-02
1.260377493567556295e-02
4.198921043327489416e-02
8.086468815763679652e-02
1.074885305447734196e-01
1.160516864181725949e-01
1.044109524872314926e-01
7.668412014968695178e-02
5.211918697780144188e-02
4.930910327926441017e-02
6.063429824593311035e-02
4.513012717250174111e-02
-4.490247527807330469e-02
-2.021912032760654065e-01
-3.318379126204103469e-01
-3.274812209560468701e-01
-1.915366919637590537e-01
-3.701708653869160287e-02
3.986958966767059631e-02
4.610691969151713837e-02
4.276136272211185363e-02
5.924383785249415224e-02
8.163260242378556075e-02
9.200729578663249808e-02
8.990199120360140017e-02
8.562783265407392097e-02
8.647638543987311299e-02
8.848869308617676732e-02
7.993921363159361970e-02
5.301645304225108962e-02
1.381078433221379770e-02
-1.930753527182127449e-02
-3.534874937042034593e-02
-4.633106360847134148e-02
-5.221539498612971786e-02
1.637756553920478517e-02
2.207008718133810776e-01
3.673032556996891351e-01
-1.428407539852389815e-02
-1.081088522543417252e+00
-2.075871068704554290e+00
-1.915280495049436427e+00
-6.082999604527075110e-01
5.661543269356466013e-01
6.062561886307650250e-01
-1.472914565018355881e-01
-7.531975556412888739e-01
-8.146299694117909995e-01
-5.769365968886465135e-01
-3.617613327840998871e-01
-2.542344098153788146e-01
-1.943748200890896838e-01
-1.401406611304202854e-01
-1.010514055488612173e-01
-8.573982806761015762e-02
-7.482200172700061158e-02
-5.403307844238063040e-02
-4.475742056854099815e-02
-7.193827535085896285e-02
-1.169751213658508648e-01
-1.356673136472252017e-01
-1.166101585309578109e-01
-9.632172782043625647e-02
-1.128758797986939982e-01
-1.536700582291131711e-01
-1.602993973035120034e-01
-9.779821641484059969e-02
-1.688702484320838901e-02
-2.690206197942326266e-02
-1.855703772028226839e-01
-4.127851463220811312e-01
-5.410314217832693506e-01
-4.758618812360842498e-01
-2.831114748135806769e-01
-9.796754808607044396e-02
7.701005655325807858e-03
4.329046051334069917e-02
4.391892311158322043e-02
3.962870260303857223e-02
4.711617707109912873e-02
5.866456125235025576e-02
5.263980347375356306e-02
2.843907600564439531e-02
9.244927083814042518e-03
2.016979578856541166e-03
-8.344655366765291182e-03
-1.491664144206349477e-02
1.175016455605418578e-02
5.888025362311472000e-02
5.721262630270895766e-02
-1.499704992263898792e-02
-3.380788857266416036e-02
1.500552142981567139e-01
3.838605524815021930e-01
1.354930115137457647e-01
-8.819859858644085726e-01
-1.959279069935415452e+00
-1.882591345327115473e+00
-5.068337585843444293e-01
8.544108281413269612e-01
1.038626813482927513e+00
3.231686154412087841e-01
-2.759122508311745436e-01
-2.951460749642768611e-01
-1.925826220261647737e-03
2.386475521939221967e-01
3.497806603502383593e-01
4.317553879442038167e-01
5.426267700393686555e-01
6.530638547393039506e-01
7.231197321757311114e-01
7.437704629464102490e-01
7.182833532144041744e-01
6.523573020733116623e-01
5.686578703803485402e-01
5.129412770898899021e-01
5.288511032996502381e-01
6.112189011723141441e-01
6.986231994624726438e-01
7.347640748258830179e-01
7.210543104159455874e-01
6.948194122906530268e-01
6.776015809774114107e-01
6.528691634412825406e-01
5.792258032287002090e-01
4.370526947608491808e-01
2.814714774404011299e-01
2.197557101703983551e-01
3.028991138383709814e-01
4.647837572864877975e-01
5.937920003006014191e-01
6.385284509965671873e-01
6.262793156412302942e-01
6.039831628862741830e-01
5.861675135391685165e-01
5.583275365287382330e-01
5.139828537226059924e-01
4.726589506658654960e-01
4.566858480083752503e-01
4.574682674153617290e-01
4.400897566797074556e-01
3.880899290288034043e-01
3.249763698964230896e-01
2.757032116438322134e-01
2.247746194424372901e-01
1.375707883109529017e-01
3.723896051810642038e-02
5.023487581198760044e-02
2.811010481108788261e-01
5.243581867745604752e-01
2.258181081157346615e-01
-8.827744543103481778e-01
-2.062908177641921803e+00
-2.089324929609947201e+00
-7.919828358415877956e-01
5.717953800579566037e-01
8.436378293086920221e-01
1.989791033110277496e-01
-4.424161721761623589e-01
-5.841084262480963352e-01
-3.857600309606093458e-01
-1.672698806915740577e-01
-5.324848465932269237e-02
-4.641904668709732201e-03
3.067963945792495650e-02
6.111292968102204071e-02
7.701123382095322045e-02
7.967471110923027289e-02
8.253402445205773597e-02
9.464716666827475977e-02
1.093312074437397252e-01
1.110095693595437305e-01
9.250539061441391542e-02
6.372954146703981027e-02
3.997635741421690092e-02
2.487303073650804636e-02
1.134630830182414493e-02
-2.702863992201246304e-03
-7.799108616079545794e-03
-8.559912055298745867e-03
-5.526729393063338491e-02
-1.983317564359320939e-01
-3.850080394219084767e-01
-4.694035543851260428e-01
-3.745673807162663849e-01
-1.869686144817117313e-01
-4.732914831228855757e-02
-1.818748896914059322e-03
-1.524447751445629634e-04
6.490134543761705635e-03
1.809749829762738460e-02
2.035577732646388222e-02
1.574310785197843496e-02
8.471504965017277386e-03
-8.366848650238935259e-03
-3.720378402825319508e-02
-6.742767600273139039e-02
-8.506603034855605983e-02
-7.709321434421118058e-02
-3.768315404410832459e-02
7.127308815047783339e-03
-2.604753994875105491e-03
-8.937926006865387629e-02
-1.531697813121680185e-01
-3.873438424841364053e-02
1.891180991866766303e-01
8.017444039950466506e-02
-7.686850326037293346e-01
-1.932742438352650804e+00
-2.259120738777762316e+00
-1.219536439629199887e+00
2.561902173255814485e-01
8.551119550792394275e-01
3.702012700060254846e-01
-3.876135116137618963e-01
-7.242608281856498520e-01
-6.069802642050979857e-01
-3.404553576507594048e-01
-1.397954521935386440e-01
-3.883386729948851840e-02
4.541665551807398671e-03
2.926427886949066470e-02
5.389424303562347779e-02
7.404851104236766235e-02
7.147080947920816940e-02
4.497679011071575861e-02
2.484367828301717318e-02
3.583413589026165913e-02
6.083991301855812273e-02
6.849680087013046426e-02
5.963804545730073264e-02
5.650656568423938902e-02
6.013951975860601373e-02
4.900648133286492070e-02
1.262789090834626898e-02
-4.457606684042570572e-02
-1.301743216705161243e-01
-2.591741945977382722e-01
-4.095836605332953684e-01
-5.056248183857182665e-01
-4.756779140416497742e-01
-3.295862420475099697e-01
-1.516777444345460413e-01
-1.803347363612014392e-02
4.587310135457823429e-02
4.139914254789031633e-02
-1.349747529411164659e-02
-7.332167343240419966e-02
-8.867579993817605033e-02
-5.051862729202403340e-02
2.030601488584336117e-03
2.254922692552856905e-02
3.522824443238883885e-03
-2.687019057091837027e-02
-4.739478235421699243e-02
-6.030032038700572361e-02
-7.355916416955624038e-02
-9.783142752120556340e-02
-1.431564815802447155e-01
-1.648526978702441192e-01
-4.384810459962845686e-02
2.407763773989378686e-01
3.629788408115464104e-01
-2.003158547231412845e-01
-1.436947287903818538e+00
-2.366062397126007522e+00
-1.958665052115944771e+00
-5.225597804237345212e-01
5.467010224743744651e-01
4.536007263528870070e-01
-2.751546287502370514e-01
-7.498727961215025939e-01
-6.984240253394735642e-01
-4.025486826457129741e-01
-1.700706486635542858e-01
-8.513623266390282773e-02
-7.974132414913612243e-02
-7.088391119221482128e-02
-2.881289161880223187e-02
2.897853837339864347e-02
8.038042217657824506e-02
1.281305563017537397e-01
1.870956820155460776e-01
2.531777482997219497e-01
3.030479873195296436e-01
3.260879823747286355e-01
3.399140049900429839e-01
3.680907415648754788e-01
4.116509615313924675e-01
4.534392538690428243e-01
4.900496180386388900e-01
5.355801319396533700e-01
5.759153733992119495e-01
5.524892824361125054e-01
4.387653393419919112e-01
3.145082995599121078e-01
3.035514192162441782e-01
4.344187481088910285e-01
6.088451224614722657e-01
7.133085588244963970e-01
7.288326555740051171e-01
7.205116213536263414e-01
7.410042206249350949e-01
7.760343078777955927e-01
7.869928754718465980e-01
7.696036205877869740e-01
7.486133148951075178e-01
7.377859106488204866e-01
7.293493756108730963e-01
7.165931211909223331e-01
7.111619013226426755e-01
7.318550392205481758e-01
7.757365715685465846e-01
8.029692296049623090e-01
7.669161866867181265e-01
6.919827604337550619e-01
7.123937818219877594e-01
9.200404439947603707e-01
1.070750707936577006e+00
6.147490639531949519e-01
-5.984049413475730494e-01
-1.695096307092731402e+00
-1.505678665423237250e+00
-9.537972705043973320e-02
1.152355285642896909e+00
1.214602452356561502e+00
4.642678461190805073e-01
-1.496303745864844270e-01
-2.369435713972894153e-01
-3.243961947914712762e-02
1.582857790561073008e-01
2.524470529334329472e-01
3.033123369410443138e-01
3.463564405476319275e-01
3.640751986086551151e-01
3.385538373191336325e-01
2.879193785915728498e-01
2.472957063598465455e-01
2.329000789408886829e-01
2.296449698460633349e-01
2.121335970263667769e-01
1.777725099006652321e-01
1.499516844351024003e-01
1.426780383663038276e-01
1.348460711293879566e-01
9.619997129726252927e-02
3.354658438603508319e-02
-1.605100413485244237e-02
-5.101137082135697581e-02
-1.320594645492025321e-01
-2.975171592636606799e-01
-4.684129631987060116e-01
-5.087629682852362611e-01
-3.890174559537759591e-01
-2.230648272207410576e-01
-1.319120802678761806e-01
-1.310810891974844850e-01
-1.604776455479901554e-01
-1.706580669726402433e-01
-1.619305037748475506e-01
-1.625671216413792919e-01
-1.808321467546656347e-01
-1.878248056503854790e-01
-1.593319873287241673e-01
-1.188013153878437200e-01
-1.152431259701542643e-01
-1.644371608691360398e-01
-2.282761642859880424e-01
-2.566153600224215237e-01
-2.492122800328316901e-01
-2.600677798770446580e-01
-3.073248405592832189e-01
-2.922430444226395974e-01
-1.091958627801260934e-01
7.243864411190303887e-02
-2.429412780075358991e-01
-1.308746799172150643e+00
-2.455101480892234900e+00
-2.517982356039853098e+00
-1.279597817830716577e+00
9.262397301537789174e-02
4.418208292679534077e-01
-1.355821486430107692e-01
-7.746071680990117558e-01
-9.627584527294944516e-01
-8.141690366340383900e-01
-6.271520218853454676e-01
-5.311962255115973974e-01
-4.886493625318889533e-01
-4.403170489466527449e-01
-3.839316117160755382e-01
-3.507825703926642502e-01
-3.518005379390609644e-01
-3.622881795813170935e-01
-3.545154477543367988e-01
-3.311180182355181745e-01
-3.169197569708094298e-01
-3.265539340301845117e-01
-3.518495306864891647e-01
-3.770546111175140935e-01
-3.970893876381691445e-01
-4.142808810124030683e-01
-4.190077277725219873e-01
-3.938493998104533045e-01
-3.540829526292440521e-01
-3.690996742271971942e-01
-5.022161180605339004e-01
-7.056061390846671832e-01
-8.189608263616059425e-01
-7.323081633717466454e-01
-5.202014639568903753e-01
-3.501969237852740613e-01
-2.899733781369057684e-01
-2.742205112164657343e-01
-2.329383457972816762e-01
-1.715812169820303823e-01
-1.258629145386765402e-01
-1.035634332711905525e-01
-9.044810188858576350e-02
-7.673473358476395889e-02
-5.910934144424733611e-02
-3.212827529643363239e-02
1.538578048541610482e-02
9.541383116630250405e-02
2.011408253470217955e-01
2.938533581350660784e-01
3.253210007163874762e-01
2.899561848000671849e-01
2.723723568743435242e-01
4.068338315335248145e-01
6.653827098852274080e-01
6.528674174670829888e-01
-9.634293647001376804e-02
-1.314200763419183016e+00
-1.851780221338636734e+00
-9.624083756459399508e-01
5.606142009560510786e-01
1.266621858804296785e+00
7.840786460899699106e-01
-2.704798550881692965e-02
-3.479062172213290838e-01
-1.513406656908078685e-01
1.680181410214106053e-01
3.776045222059601358e-01
5.246760084755052178e-01
7.140543127606702178e-01
9.398074368770076292e-01
1.126982188511244098e+00
1.239206519622009228e+00
1.294763398068595084e+00
1.322921477728145057e+00
1.342337764447583792e+00
1.357816434088853219e+00
1.361265035544171553e+00
1.345313799874761740e+00
1.311623215066479720e+00
1.260314183140572863e+00
1.184193610177021183e+00
1.081200970534957451e+00
9.663909909438715973e-01
8.581902314467064752e-01
7.428315648386937253e-01
5.820075490598388690e-01
3.923866949144348415e-01
2.726609367557804586e-01
2.905356766244728273e-01
3.879335133844508121e-01
4.579744380132668158e-01
4.664313168993948211e-01
4.441994843675194371e-01
4.122756086545495968e-01
3.726493269756799287e-01
3.404108096589055221e-01
3.288490222850740108e-01
3.158504775523677255e-01
2.712922938653007376e-01
2.066732716099363432e-01
1.580971246921271667e-01
1.351318840602714899e-01
1.168015201182362739e-01
8.405396675006732155e-02
3.572259329589695664e-02
-2.555153595572659531e-02
-1.003020459818276949e-01
-1.432067177924301049e-01
-3.208125165622631447e-02
2.570678959695040788e-01
3.664222545915461482e-01
-2.678854394559844199e-01
-1.587058434051075828e+00
-2.499762922649543029e+00
-1.962058890280604873e+00
-3.873017614848756618e-01
7.548535841619649078e-01
6.841696050983793187e-01
-5.475485327371584776e-02
-5.798774269821991290e-01
-6.020324017534408600e-01
-3.635059125803251079e-01
-1.546030750437453194e-01
-7.057410571011588085e-02
-6.220436430178798159e-02
-5.985802992511908560e-02
-3.604068947557430291e-02
-3.106026247811175672e-04
3.177598423477544926e-02
5.488772611606908269e-02
6.509873617745731700e-02
5.310421738576366624e-02
1.708194120432245458e-02
-2.583041602688771962e-02
-5.180098454578065115e-02
-5.457160879601895276e-02
-4.965131455699920565e-02
-5.072477874699381217e-02
-5.378139457485506258e-02
-5.400803337071316546e-02
-6.922715348754143738e-02
-1.341851468078001930e-01
-2.609260541201766093e-01
-3.997476390459259732e-01
-4.602621883996935725e-01
-3.960172659433282560e-01
-2.562270176619710349e-01
-1.335123464950221106e-01
-7.514618909455997309e-02
-6.186461941876129911e-02
-5.381908844902422162e-02
-3.510158568824522929e-02
-2.143634570045473142e-02
-3.666189726301351953e-02
-7.808718329146303871e-02
-1.083878034565328857e-01
-9.607333083965542697e-02
-5.603545227095313441e-02
-2.603927641523949565e-02
-1.257920290008566339e-02
5.865004174543827359e-03
2.452537790323455064e-02
3.880459966497929597e-03
-5.441305849719849097e-02
-4.472398187452982649e-02
1.382934550690198550e-01
3.377975824772873614e-01
8.335430482011882414e-02
-8.607738940257784188e-01
-1.840812038161571351e+00
-1.762777217850749922e+00
-5.030064592017724490e-01
7.408375521127689156e-01
8.883839409043460256e-01
1.505645273564396314e-01
-5.454729277200965898e-01
-6.980353203092314329e-01
-4.713042955454183058e-01
-2.111655038160126230e-01
-7.115022601556793280e-02
-1.747509695759642129e-02
1.927813386424141739e-02
6.565355061707384143e-02
1.145301553588494725e-01
1.488452511289075630e-01
1.528010289396981025e-01
1.235887766425446399e-01
7.942150737362263513e-02
5.157763162920417366e-02
6.383509104154308500e-02
1.126121689836228623e-01
1.677854517331015816e-01
1.959049947076851594e-01
1.808509703744257402e-01
1.361455615850148682e-01
1.080465646450983891e-01
1.329606818304534810e-01
1.672077500267272199e-01
1.131822466878960182e-01
-3.837948777463526945e-02
-1.588704127028714441e-01
-1.351391522740408579e-01
-5.103970223053136065e-03
1.138585219525561493e-01
1.664350433742981805e-01
1.807932751958017947e-01
1.963286497413113396e-01
2.163805098779579827e-01
2.208313679771060634e-01
2.005081593240777005e-01
1.738409381030841527e-01
1.697001073565684859e-01
1.893365645610521619e-01
1.931344899359089262e-01
1.471456324085412548e-01
7.871258542119423385e-02
5.037434218411095121e-02
7.429171222001537678e-02
8.940294509439981885e-02
4.755128762765078315e-02
1.511070858867107763e-02
1.331435228091898959e-01
3.771398581881458267e-01
3.687840849799720599e-01
-3.105784510910172269e-01
-1.402324431803454896e+00
-1.890104091549336118e+00
-1.135629437058875313e+00
1.656426420120143128e-01
7.664175967204033268e-01
3.457934292979239488e-01
-3.743839727336273349e-01
-6.978321835852017152e-01
-5.776598694293858527e-01
-3.324880145896852435e-01
-1.872582463286570909e-01
-1.499986247536417294e-01
-1.328087493576055045e-01
-7.770273988087669781e-02
5.635904328092165155e-03
6.995252868097992516e-02
8.378984044057349867e-02
5.943397786197419236e-02
2.856148721849073938e-02
4.629528213493178807e-03
-1.763393177342347656e-02
-4.420963252075767180e-02
-7.662763761519794659e-02
-1.097005157743127096e-01
-1.291013682794154849e-01
-1.194674303685851896e-01
-8.033775259739094066e-02
-4.346824319795004887e-02
-7.139458506111187597e-02
-2.077396593336777453e-01
-4.061901394078864524e-01
-5.341700132464397566e-01
-4.894842815733350117e-01
-3.077794000616621006e-01
-1.217233252483152783e-01
-2.661970221447340981e-02
-1.749943888960460436e-02
-3.651082165552080316e-02
-3.987105519301883949e-02
-2.315127515885383874e-02
-1.056525384503079375e-02
-2.620840274270184317e-02
-6.916247007982549710e-02
-1.151640733915793857e-01
-1.398994678183466678e-01
-1.368612824791617943e-01
-1.112310392803263076e-01
-6.265449160678834839e-02
5.148099455821456699e-03
5.348594417366621390e-02
3.430372734333424212e-02
-8.543699768576979922e-03
8.268053596281954576e-02
3.558863348101022894e-01
4.583724859970115251e-01
-1.650191701568537728e-01
-1.444407254110643635e+00
-2.289300459978769631e+00
-1.677170057804756143e+00
-7.511134165516575312e-02
9.873331624302953413e-01
7.560080910047436431e-01
-9.024161839964464638e-02
-5.737424167688461862e-01
-4.634462008115022291e-01
-1.143737892076782670e-01
1.568807929127953027e-01
2.975765117733240039e-01
3.799694316915238623e-01
4.607518703772228164e-01
5.474844485068811606e-01
6.141105282930988674e-01
6.349215603019002785e-01
6.149744166506774246e-01
5.939602944464256185e-01
6.281122740658537928e-01
7.478297114144621949e-01
9.031025386481386086e-01
9.821055382248108367e-01
9.289631238410913650e-01
8.075372956297586224e-01
7.196794023841569521e-01
7.067608914185734559e-01
7.322251014721518070e-01
7.119149784546064952e-01
5.800244586303928696e-01
3.699942143052666332e-01
2.151086413198765035e-01
2.302600760965318183e-01
3.931974001116872452e-01
5.675744605529502440e-01
6.391388495845207185e-01
6.038075638392116362e-01
5.304135797016932274e-01
4.749970135199952370e-01
4.421577529312719079e-01
4.054741740732939470e-01
3.479954313724445414e-01
2.826801479897642078e-01
2.340587602983715265e-01
2.066881184198356980e-01
1.845009879039017364e-01
1.611821400182319453e-01
1.568832572483632171e-01
1.896639578588893427e-01
2.270506620178211199e-01
1.963462992337162705e-01
9.534308640302921467e-02
7.257215913186775003e-02
2.496594901943862133e-01
3.718305656213667376e-01
-1.247130183441964163e-01
-1.322750097476410813e+00
-2.273066084349350202e+00
-1.888780596578490734e+00
-4.013219825254937256e-01
8.054769822031976334e-01
8.589331448052146545e-01
1.854587823961270365e-01
-3.511981163255564198e-01
-4.147195829626281194e-01
-2.087941804072065977e-01
-1.131438968658413785e-02
7.848945496205708694e-02
9.290434381630494065e-02
8.292425545372565654e-02
7.742793136381041774e-02
8.951990096719773804e-02
1.219706663731673218e-01
1.655855395482389303e-01
2.000850156679994662e-01
2.064392097614097532e-01
1.820470817123345242e-01
1.373584049539026686e-01
8.147586684003446655e-02
2.293829250338332709e-02
-2.117641701784855196e-02
-3.317991910318112553e-02
-1.350413701378260119e-02
1.131859139233081998e-02
-6.438408936636236951e-04
-7.631411841279782393e-02
-1.960180401653973670e-01
-2.931438506929587851e-01
-2.999048337162545375e-01
-2.117217377410304247e-01
-9.443133091838482041e-02
-1.092681885844083538e-02
3.772256476448130474e-02
8.491005478746543877e-02
1.372653042474789309e-01
1.622337140062819205e-01
1.314329936376327501e-01
5.719265379331658905e-02
-1.762745935102092570e-02
-5.422493574403827732e-02
-4.499373990047787070e-02
-1.255998426449225422e-02
1.996949195009319056e-02
4.727264583735918402e-02
6.469766453499634085e-02
5.251966506355284364e-02
-4.583123234940422730e-03
-7.528271479139644895e-02
-6.242002644068923856e-02
1.043859606451454647e-01
2.474440723783529472e-01
-9.389131703149092290e-02
-1.122643166450485008e+00
-2.151360240133637358e+00
-2.078554218039390999e+00
-7.967168408472681262e-01
4.869899214342823246e-01
6.953322242138390008e-01
2.994418480564392526e-02
-6.115507729132990677e-01
-7.485541714056104246e-01
-5.316130758562216396e-01
-2.751865939800197114e-01
-1.241008944006045944e-01
-6.874955663433773845e-02
-6.511566135540464151e-02
-8.087853460344482381e-02
-9.159541523731840051e-02
-8.662525004411744667e-02
-7.096121378901562582e-02
-5.110986541322640880e-02
-3.119242100003552509e-02
-1.779870117935450358e-02
-1.569084374728475090e-02
-2.399898077497966686e-02
-4.222703394199164850e-02
-7.233165096076545064e-02
-1.087216775913846939e-01
-1.349555629296104731e-01
-1.420285394225179187e-01
-1.499882308288206234e-01
-2.030131403974696769e-01
-3.251939338692950154e-01
-4.668462186295072036e-01
-5.200136769364452904e-01
-4.253265632712826538e-01
-2.441964706453730038e-01
-9.131261941898982659e-02
-2.542986388559137501e-02
-3.218024753233517804e-02
-7.054338192075032543e-02
-1.046839857024101789e-01
-1.169508787700543895e-01
-1.083955228558526052e-01
-8.066214997928949915e-02
-2.931086976584247258e-02
3.276248248705497523e-02
6.935143142468527810e-02
6.165115589984614813e-02
3.481163835984748406e-02
2.275835453441422962e-02
2.154442625786500559e-02
-1.020663750600867697e-02
-9.661874935239020412e-02
-1.653640726132792060e-01
-6.452092575742429670e-02
1.927043765241816253e-01
1.783779176267304700e-01
-6.133449454777805121e-01
-1.884936789334679785e+00
-2.421648185490660410e+00
-1.480079113352784859e+00
7.920258894545231798e-02
7.795775272152830615e-01
2.931777372263694170e-01
-4.823193159058131729e-01
-7.464021058083346594e-01
-5.149321435713273276e-01
-2.041985111061262459e-01
-4.927098863820048025e-02
-9.177629757904912089e-03
2.471323635372919825e-02
8.668902335834138828e-02
1.537957665119868145e-01
2.085960000179058471e-01
2.581654539537759918e-01
3.168942858399804718e-01
3.900925193673199232e-01
4.686091557690326703e-01
5.320015537198360400e-01
5.623097012955092788e-01
5.564825177268566403e-01
5.257910731499880752e-01
4.938869201707830614e-01
4.950511998254368273e-01
5.511391766432695016e-01
6.319181616282686376e-01
6.524274841085352383e-01
5.478276674587143624e-01
3.671449099330104660e-01
2.560865983785405309e-01
3.100247501929515037e-01
4.745639291662124282e-01
6.254170777367219491e-01
6.995142801547923339e-01
7.100174025847270087e-01
6.905370173186873295e-01
6.726361062491331699e-01
6.785543209447969515e-01
6.969555059003949005e-01
6.865113697538940407e-01
6.277925041124512440e-01
5.556752831696772921e-01
5.217155348593394137e-01
5.406009956346666812e-01
5.893353467662408862e-01
6.387033722945314462e-01
6.606869209110061147e-01
6.185417629825755714e-01
4.989593943816572619e-01
3.867192761967380710e-01
4.472334153176042437e-01
6.841119827087985827e-01
6.834361529200311258e-01
-8.979803789331203268e-02
-1.426446959886493726e+00
-2.149617708554390827e+00
-1.385032161516499105e+00
1.848953417225646101e-01
1.063254084052003945e+00
7.116264994750914896e-01
-1.189244217716615287e-01
-5.722524268794090263e-01
-5.136929004072485760e-01
-2.740974182264538372e-01
-1.088454215046233409e-01
-3.819869990153625799e-02
9.102407666607102710e-03
6.171949778304455098e-02
1.017707719503723046e-01
1.156359352428752985e-01
1.123979303523729989e-01
1.101538143527268365e-01
1.211614650152320755e-01
1.432605367297536403e-01
1.578156068900908315e-01
1.391347631733290680e-01
7.612111429520060368e-02
-9.188308339411969949e-03
-7.146717946067193683e-02
-7.932224720425823383e-02
-4.339298400596034583e-02
-1.023413168224666242e-02
-3.644144838234772421e-02
-1.547351856059892561e-01
-3.290385353715566952e-01
-4.475656058230452761e-01
-4.122855751709964545e-01
-2.467186371369067543e-01
-7.811895842324680095e-02
-1.024361332543154840e-02
-3.955489821072413759e-02
-8.903198559733037365e-02
-9.960763058173797979e-02
-7.977013567037562203e-02
-6.756567323332637875e-02
-6.768680131073413764e-02
-5.658438064106917353e-02
-3.198373798089914483e-02
-1.573695000930738080e-02
-1.568219163405467145e-02
-1.842515624262885607e-02
-1.628821088602519160e-02
-2.267049175477475406e-02
-6.297028189127891473e-02
-1.449407771755671648e-01
-2.111341926437553806e-01
-1.331469934450759396e-01
1.381811117056818417e-01
3.214682398472440972e-01
-1.180078873388443750e-01
-1.270135589601852022e+00
-2.242614003619581187e+00
-1.949727880737760266e+00
-5.384590842698852020e-01
6.669935674868689990e-01
7.624590592616281581e-01
1.148041705436939341e-01
-4.291750573169567651e-01
-5.056624810336330933e-01
-2.811442787572089874e-01
-3.057508337114929822e-02
1.015144912214515360e-01
1.107876294277312379e-01
7.549725583833200027e-02
7.560221680224593621e-02
1.276639563333819838e-01
1.918737493284208562e-01
2.251045214464225674e-01
2.190299804605611300e-01
2.049177459290498771e-01
2.230829015645584279e-01
2.714696550143714804e-01
2.982461694719805712e-01
2.645766799300766081e-01
1.921889362028086634e-01
1.365130540833136841e-01
1.368600889677176746e-01
1.872432032670035273e-01
2.261884765911493511e-01
1.690496666281119387e-01
-7.195898920322647135e-03
-2.070888520823439272e-01
-2.874220420524410957e-01
-2.042452500968308382e-01
-4.890088067354067536e-02
7.336459407896164797e-02
1.425002384268259648e-01
1.898340717396891641e-01
2.326106321091994666e-01
2.696977336465300468e-01
2.983167474586855827e-01
3.109435170775847190e-01
2.987417899614442929e-01
2.706808307324905516e-01
2.520812741194125572e-01
2.520643887428132834e-01
2.487500905386122452e-01
2.246847966976508459e-01
1.956351678717384301e-01
1.745451693681663030e-01
1.340825165036798883e-01
6.040166906313367695e-02
3.763111786138025744e-02
1.868764198516044972e-01
4.142451400804331163e-01
2.787994930880426936e-01
-5.602591228924627131e-01
-1.609773284794949744e+00
-1.758705007481750959e+00
-6.631993308419619204e-01
6.159821735546657795e-01
8.885737644489186682e-01
2.045623356865410303e-01
-5.238997304722265991e-01
-7.204890977842111077e-01
-5.029671212131920921e-01
-2.211800016970545124e-01
-5.694128390519483107e-02
8.819205387419395276e-04
2.019408733739746706e-02
3.751487175746756608e-02
5.565306257264834161e-02
6.744043319752909826e-02
6.454365211460443008e-02
4.241766228159964125e-02
9.777880605335399072e-03
-1.199767828010062792e-02
-3.846873353953717684e-03
3.459991599622733865e-02
7.873505961624033267e-02
9.307696497661689661e-02
6.451478799251224305e-02
2.087143113495738486e-02
1.085903110106631320e-03
1.358246952601843346e-03
-3.238983004268836813e-02
-1.362886371973905109e-01
-2.576604176927001499e-01
-2.882836414329489338e-01
-1.848981830674638061e-01
-2.384295821108278063e-02
8.725085248889451195e-02
1.200245130304727070e-01
1.202408795480619796e-01
1.241378256489096277e-01
1.230701416535068399e-01
1.002530566067891121e-01
6.225707901685431644e-02
3.062885278720941032e-02
2.351689224353109217e-02
4.187065922951033192e-02
6.338934891569056318e-02
6.157557758627753286e-02
3.963394815504540925e-02
3.022730568389340317e-02
4.587040450284089743e-02
4.750829204676445400e-02
-2.632475733050629318e-03
-5.252077268757129880e-02
2.623776043732287816e-02
2.384247243182407994e-01
2.487913583562096631e-01
-4.013187669173904903e-01
-1.567832804828241944e+00
-2.240566278368774977e+00
-1.597060051375641443e+00
-1.877307117476938458e-01
6.285266931049882100e-01
3.231247195735744149e-01
-4.127274648026572068e-01
-7.679796916306285137e-01
-6.359228162728920442e-01
-3.680260005524803590e-01
-2.140580782983366459e-01
-1.647192768964409748e-01
-1.320395704319089480e-01
-9.387501539752346469e-02
-6.420426612759441709e-02
-3.227400754089229662e-02
1.252970972392189464e-02
4.465640731103905081e-02
3.955097132715584829e-02
1.796493392542391349e-02
1.394511485907570097e-02
2.000601313094960837e-02
3.056253922742530049e-03
-3.865229761113727486e-02
-6.901749083087677095e-02
-5.350984235073501932e-02
1.262548923208391821e-02
8.863670520837338418e-02
9.048052621703531195e-02
-4.140373435720914874e-02
-2.466490377716522575e-01
-3.662654788249635196e-01
-3.039471667831511459e-01
-1.264118978796327231e-01
3.223603932025578822e-02
1.114448293014937419e-01
1.330094168531083254e-01
1.314262203460145606e-01
1.279016186425966095e-01
1.405742724211475059e-01
1.735183118131249091e-01
2.025864705781122987e-01
2.035727807285301894e-01
1.891812700805630132e-01
1.940426053776327653e-01
2.366230928875662221e-01
3.134952281993930723e-01
4.099482214140344194e-01
5.010594406402207879e-01
5.520547318135820003e-01
5.355075184267324984e-01
4.857285296946339814e-01
5.340560333493785672e-01
7.572099309899350539e-01
8.774407904402865555e-01
3.443900064006492068e-01
-8.791343925043259011e-01
-1.783917398164184487e+00
-1.277412030893571471e+00
2.940420185739185954e-01
1.394234396399848475e+00
1.166135416121310886e+00
2.589982998174997775e-01
-2.769189915587701445e-01
-1.582493484966233377e-01
2.215516108359514846e-01
4.769090969427139948e-01
5.442188937559432338e-01
5.422272462227740730e-01
5.578258768317534422e-01
5.863200474703982312e-01
5.942959818662860716e-01
5.753571224149834906e-01
5.449669336639386685e-01
5.194372512562686062e-01
5.121272888790008304e-01
5.291032439313402280e-01
5.610488482313472636e-01
5.875975167714514447e-01
5.887501124271461439e-01
5.557172056089042522e-01
5.026854620694886089e-01
4.612916901724750662e-01
4.429470648999578319e-01
4.044834030557004634e-01
2.755898807592895294e-01
4.927874613768620099e-02
-1.601744470249522045e-01
-1.975258115704859874e-01
-3.508821414042505304e-02
1.715108570481311268e-01
2.385817343896158016e-01
1.523784940468803917e-01
6.258453664902650926e-02
7.492737935694054885e-02
1.276220397795139738e-01
1.169127708995042203e-01
5.681800056544855648e-02
3.498295090691130177e-02
7.650321240739865747e-02
1.299359101989657761e-01
1.475181705882303573e-01
1.234596398368150161e-01
8.095346218736163002e-02
5.948436959468257623e-02
8.233506050840161405e-02
1.014286001538635962e-01
4.686599807716313598e-02
-8.057166580284783053e-03
1.040218956739274309e-01
2.490078661203713739e-01
-1.274904317410519294e-01
-1.278270968620904613e+00
-2.401154937015704149e+00
-2.283438019637671790e+00
-8.668364214219843600e-01
5.381090935705161726e-01
8.303079657610699105e-01
2.226630726477730471e-01
-4.000639751183548420e-01
-5.588545493088462601e-01
-3.771390896052482233e-01
-1.544535289646998266e-01
-4.611713032659524314e-02
-3.914422244463488382e-02
-5.554639585062688678e-02
-4.103073682650278803e-02
7.039247938521127346e-03
6.228901895207405309e-02
1.046544349839314686e-01
1.344656527945175539e-01
1.573424163740927695e-01
1.661510118298268612e-01
1.456971122488642523e-01
9.082606411020777148e-02
1.823501984898380848e-02
-3.942682740996585750e-02
-5.724570049476162409e-02
-3.698545622934303057e-02
-6.122877679087845512e-03
-1.219980053270676434e-02
-1.064119683963162949e-01
-2.873202090038720624e-01
-4.592163203347783829e-01
-5.038279025137221145e-01
-4.029758219340788816e-01
-2.467667865313666331e-01
-1.291282777609595867e-01
-7.595191008724422321e-02
-6.389577794250216047e-02
-6.767567525421529229e-02
-7.798211778466182520e-02
-9.297941849518581714e-02
-1.094284812197418577e-01
-1.244295143907116485e-01
-1.409088566042370760e-01
-1.626635638075074886e-01
-1.811376738754258697e-01
-1.777943105430550286e-01
-1.448692525253890973e-01
-9.791406149416347071e-02
-7.366902047104258167e-02
-1.154622479320464856e-01
-2.215873942049328416e-01
-2.843336443520710910e-01
-1.542072617396439416e-01
1.051097996815785474e-01
4.112963779238373863e-02
-8.001112948389677015e-01
-2.065651120510199057e+00
-2.566526326299603422e+00
-1.620758097845472756e+00
-9.525316905181682725e-02
5.702785561198454589e-01
6.093302787955623412e-02
-7.405821699288235305e-01
-1.034631164542066717e+00
-8.149439877226076767e-01
-4.773558071651609613e-01
-2.616687548702015809e-01
-1.663824899569368854e-01
-1.299825743336897599e-01
-1.196297393787131708e-01
-1.091991905249446587e-01
-7.984751705801496069e-02
-4.177822984087675023e-02
-1.442676318731173080e-02
2.445131312511575339e-03
1.685539280495353814e-02
2.360980358631989406e-02
1.427917344606765421e-02
-2.096730901836763028e-03
-6.497510011435003729e-03
2.948162846090701672e-03
1.438289867411817607e-02
3.577932404521119020e-02
8.455331591203882335e-02
1.229860610876892524e-01
6.087233639866447554e-02
-1.164100426935342353e-01
-2.677252509859847085e-01
-2.338144769266235490e-01
-3.384160675258414408e-02
1.657931258853817258e-01
2.611471219676737010e-01
2.942766481671623136e-01
3.378643356315014223e-01
3.955836197272067922e-01
4.361492496524366214e-01
4.572869491553223087e-01
4.837141703482834010e-01
5.281523116295843145e-01
5.738370344034328108e-01
5.928460381530836765e-01
5.758963080571347648e-01
5.443446365549684529e-01
5.390954085905488302e-01
5.843738500076225417e-01
6.399528175552007259e-01
6.265712831741331312e-01
5.602554667273744737e-01
6.113572331562502349e-01
8.761074410118209199e-01
1.035122767992315618e+00
4.852703644636741087e-01
-8.259469486237577263e-01
-1.857230752925692174e+00
-1.440814090119702851e+00
1.562517480389163105e-01
1.406518429517401136e+00
1.358698981233906089e+00
5.369563443335975128e-01
-5.032296145719376834e-02
-5.573882326675810850e-02
2.143975975842400961e-01
4.135301372605470482e-01
4.691369280413523746e-01
4.743166518347746718e-01
4.976309191010906963e-01
5.287412000522548894e-01
5.321276751542338701e-01
5.014629635111648165e-01
4.600592192877564490e-01
4.275591732176478033e-01
4.022937392410158575e-01
3.741242985359006790e-01
3.403678374863558509e-01
3.048039274566951007e-01
2.679001585569614208e-01
2.253948648133287380e-01
1.812327898349087030e-01
1.541853863711489803e-01
1.535492077126049681e-01
1.480681798527726800e-01
8.066419764511612023e-02
-6.602672351212164614e-02
-2.198684795786124968e-01
-2.679771741734009449e-01
-1.758423238703419600e-01
-2.492439269823445991e-02
8.173671940733243102e-02
1.107497708463246744e-01
9.373870677615792069e-02
7.754292674310152289e-02
8.288059907528588788e-02
8.227994762421764197e-02
2.654776946392732595e-02
-8.164273908295943682e-02
-1.671708335025959835e-01
-1.707274450327769810e-01
-1.203470846805424488e-01
-7.886568472508968808e-02
-6.243632706069714156e-02
-4.706103211203697956e-02
-3.299182437441022797e-02
-6.487737347150698830e-02
-1.539199599279685304e-01
-1.894922287306453346e-01
-4.028388218712545404e-02
1.407875081850549215e-01
-1.496652364892013809e-01
-1.156064604375222293e+00
-2.176467869694811874e+00
-2.083542307017367978e+00
-7.780402160766550779e-01
5.298056636092220995e-01
7.853011871413010381e-01
1.814002911719959921e-01
-4.339692243390126380e-01
-6.012469219832509149e-01
-4.398310155307814662e-01
-2.259780689976565171e-01
-8.261244425077354792e-02
1.354503964205300802e-02
9.929350359869276721e-02
1.637840507034074577e-01
1.888162392387005561e-01
1.924979190281543018e-01
2.054858443561666526e-01
2.260499736189324760e-01
2.277274337134672089e-01
2.043930160637672522e-01
1.832131852731690991e-01
1.878510657872204948e-01
2.029042869666373150e-01
1.885151215240008227e-01
1.342947774564915431e-01
8.770011365525236247e-02
1.047649434212244712e-01
1.639659506984623150e-01
1.613162232085207370e-01
3.188258919360400373e-02
-1.413464832559758744e-01
-2.007737893127167494e-01
-9.644899764253615781e-02
6.658094663839442262e-02
1.635307378387437505e-01
1.708393471076979919e-01
1.461730435965078456e-01
1.409231255268393601e-01
1.591817039403287670e-01
1.811404803634217298e-01
1.937275967794506171e-01
1.934319154275858654e-01
1.804216277194947982e-01
1.619662242242339012e-01
1.537491115810110665e-01
1.652517215849167442e-01
1.838994935849676826e-01
1.876785861700851765e-01
1.673949551357217513e-01
1.164638921996029863e-01
3.204861234573541662e-02
-2.234648495982911529e-02
8.426242551175996964e-02
3.410127696028734112e-01
3.730759468154221659e-01
-2.915778005761152092e-01
-1.460769669971266227e+00
-2.079321073786434049e+00
-1.361340696629059543e+00
7.228097101374764133e-02
8.589431724953539016e-01
5.162699491391802287e-01
-2.510051462240207587e-01
-6.431648887943951509e-01
-5.324756237624863608e-01
-2.398282525031255330e-01
-4.021803040714824751e-02
1.552420247612945961e-02
7.687144159168407542e-03
1.246777826013130419e-02
4.301261556791366458e-02
7.187842826036233701e-02
8.484089274387970891e-02
9.985201106745861255e-02
1.285348215613313916e-01
1.468512301379036600e-01
1.319405445833187196e-01
1.037147984747302937e-01
9.575669562883012964e-02
1.007339514302833527e-01
8.136843060063458921e-02
3.453637928981727334e-02
4.918096679876103605e-03
1.274852848364378330e-02
-1.990189991403804384e-03
-1.159437675329897666e-01
-2.990925552276176291e-01
-4.083241947858846088e-01
-3.479248511127729926e-01
-2.001185675518925566e-01
-1.291457032066163635e-01
-1.708652228371779769e-01
-2.008125089389741769e-01
-1.229499300800494382e-01
3.272331161894970371e-03
6.295336308443620632e-02
3.060936843222624229e-02
-3.022953817550565539e-02
-5.928259421689845154e-02
-5.522839455141981269e-02
-5.437527333599499746e-02
-7.447092096766180780e-02
-9.510544197589064497e-02
-9.151696252097972495e-02
-6.954369257683110095e-02
-6.614796083184167064e-02
-1.173474458682642607e-01
-1.965016332779658537e-01
-1.794147748963909883e-01
2.336970068247288049e-02
1.910156322463528733e-01
-1.874711861043792949e-01
-1.259623444969753647e+00
-2.222369118160939294e+00
-1.981782782890634920e+00
-5.910508555716146306e-01
6.240820974741964067e-01
6.549775507141176734e-01
-1.295626920913862112e-01
-7.463147550317881240e-01
-7.715202984693936283e-01
-4.691626779221251264e-01
-2.057899425907635804e-01
-8.387472458530416397e-02
-3.108811189597749519e-02
-7.207559554312029104e-04
-1.496571471601267078e-03
-2.030009490674306027e-02
-1.449059698582221001e-02
2.575610438233360069e-02
6.193822916284186242e-02
6.252828172152624653e-02
4.467416391134449577e-02
4.598073077089571276e-02
7.082531790838596242e-02
8.810783164053037630e-02
7.803300408497215734e-02
5.742843371286776577e-02
5.564872098166470660e-02
7.772246986507225230e-02
8.917577491803319045e-02
3.734313779946352163e-02
-8.669809087433534567e-02
-1.976737396230431876e-01
-1.723583039219481472e-01
1.353512455727126293e-02
2.483097312612869978e-01
4.081706747352859543e-01
4.674448583175743188e-01
4.732905579791740758e-01
4.746615740687238905e-01
4.990384532196846523e-01
5.502929418928903527e-01
6.043412457063572774e-01
6.327970760767076541e-01
6.372359647530752014e-01
6.366872102406825329e-01
6.315855655423545656e-01
6.125585046780499532e-01
5.937227608440996951e-01
6.017011532884108949e-01
6.279833777121004434e-01
6.218398351911444966e-01
5.714491657381964851e-01
5.881104784904556126e-01
7.953093515931621837e-01
1.014664629026019727e+00
7.056335787848774244e-01
-3.971539976994833965e-01
-1.554149606543460571e+00
-1.539292089503450089e+00
-2.000309303083099843e-01
1.155248879547054797e+00
1.335996528879408451e+00
5.776608847935107427e-01
-9.576944091035712037e-02
-1.675970775495847498e-01
1.172015590696260934e-01
3.483765383894127377e-01
3.871293484472201341e-01
3.268544252922852000e-01
2.836646854287589448e-01
2.897637086630525105e-01
3.126797816910974470e-01
3.162739360629142626e-01
2.966663574058522324e-01
2.685820924964997802e-01
2.356102826377231563e-01
1.940499259041861546e-01
1.529068500863842717e-01
1.249816032525653264e-01
1.081526320002638708e-01
9.293146042455975586e-02
7.863961795709922820e-02
7.391912931977093204e-02
8.221813388032234160e-02
7.773227162904516874e-02
5.511139217437219240e-03
-1.562303419265816951e-01
-3.319285001511787514e-01
-3.984849105302156747e-01
-3.162073712814001403e-01
-1.645650450543247600e-01
-4.127554562659194182e-02
2.179732249917906706e-02
4.275045041559184800e-02
4.547925966082231458e-02
4.126957683891158829e-02
2.821672367581914628e-02
3.336239416451964451e-03
-2.617736210998119692e-02
-4.982440437821878537e-02
-6.618661124006321173e-02
-7.994170249098142556e-02
-8.734805079351083690e-02
-7.485429878004970505e-02
-4.146390386096993064e-02
-1.983871991846016328e-02
-5.860146447282560400e-02
-1.535458471710595685e-01
-1.906931029431740421e-01
-3.995213729133174213e-02
1.794682264580063080e-01
-2.744013684518492244e-03
-9.214259515107510179e-01
-2.056232802686928096e+00
-2.262966168839002812e+00
-1.127751161939142488e+00
3.567225613563247411e-01
9.388340100963984414e-01
4.766763053787185789e-01
-2.473276392836369353e-01
-5.882770869640370215e-01
-4.980579365557471494e-01
-2.438698890114249784e-01
-4.228528932996389322e-02
5.893750958937343104e-02
1.100336576560606017e-01
1.508686999983825383e-01
1.701278495159932180e-01
1.469620339671431630e-01
1.042827690804359192e-01
9.739884902289860924e-02
1.507679397036996161e-01
2.275810080061344831e-01
2.746256885771672374e-01
2.800568985596591509e-01
2.649586276030110876e-01
2.370664756050243904e-01
1.887692735817563250e-01
1.308363171183460905e-01
9.221844482512196739e-02
8.037209462634090085e-02
5.758175635330968489e-02
-2.726608425029186655e-02
-1.693970325274107291e-01
-2.794780488247800565e-01
-2.585250850536993106e-01
-1.110126687972230047e-01
5.239575281380152300e-02
1.371089370814509989e-01
1.473070715643755024e-01
1.382488350592176729e-01
1.412537492147136475e-01
1.563863394410356378e-01
1.770523571040881761e-01
1.975792178633180296e-01
2.118066336055898780e-01
2.135357730562454648e-01
1.971623608098314606e-01
1.629734864341245981e-01
1.256957212493666765e-01
1.102938027522666065e-01
1.246637141896034667e-01
1.356578596980148044e-01
9.996240006369186415e-02
4.794537636654064294e-02
1.092976464007218568e-01
3.476201839813057859e-01
4.952126951941945854e-01
3.583578859476796441e-02
-1.098050452350519679e+00
-2.008188240729211760e+00
-1.643832126298887308e+00
-2.313479848532134231e-01
8.365127414315354226e-01
6.925667674576956312e-01
-1.468840998202341208e-01
-7.146777949640509275e-01
-6.874621185900128273e-01
-3.816933362495951720e-01
-1.593272639163940407e-01
-1.044121665807749844e-01
-1.101288212605148059e-01
-7.968699191829964334e-02
-1.412913392735015705e-02
3.446817820189886777e-02
4.132350063933140638e-02
2.593919135391855452e-02
1.302075429793220218e-02
2.889699733949421118e-03
-1.632583282796092744e-02
-4.296666814559781111e-02
-6.348354848140799755e-02
-7.646187573512412683e-02
-9.456742394044860556e-02
-1.159325762997262671e-01
-1.151936465618682293e-01
-8.361321299884945379e-02
-6.985801889419301913e-02
-1.486674256261010241e-01
-3.255379417052030599e-01
-4.907858614682927278e-01
-5.108884411950590509e-01
-3.693740342840877711e-01
-1.791961598816854406e-01
-5.708793158338056756e-02
-2.858457061504394645e-02
-4.898224653935933509e-02
-6.862504437124530843e-02
-6.914563871087832381e-02
-6.133116858005661920e-02
-6.168377743532042767e-02
-7.221899149421789899e-02
-8.183835443162705559e-02
-8.028454684666175289e-02
-6.304263887248304221e-02
-2.847385160238384907e-02
2.029949887799713595e-02
6.972006766283848911e-02
9.026329449892669943e-02
4.755477881493852532e-02
-4.520663510389021089e-02
-7.738323220385333323e-02
7.848311850021437441e-02
3.150049777611819701e-01
1.614813298005195741e-01
-7.526774785115504240e-01
-1.914828753033753328e+00
-2.114480507824422872e+00
-9.156129464979922972e-01
5.664815261821964931e-01
9.720677627063707416e-01
2.736712032641912540e-01
-5.164006930537086149e-01
-7.082376903557316972e-01
-4.447538109223585501e-01
-1.666238666152199954e-01
-6.888853595752170156e-02
-7.063222870719762514e-02
-4.696814138515487819e-02
2.218830256927199068e-02
8.018299286892066613e-02
9.398837733055784294e-02
9.206147074672238473e-02
1.197010540419133490e-01
1.886008433025868902e-01
2.762288583899727978e-01
3.595964585712936312e-01
4.318269267652443677e-01
4.891401946068987816e-01
5.262936971289106092e-01
5.480662123943897956e-01
5.639155902404074938e-01
5.603722375245702159e-01
4.927043870648679658e-01
3.390765712318603575e-01
1.655781840274780370e-01
8.811831091831966167e-02
1.589273335864056780e-01
3.223346887080882350e-01
4.747463919774900787e-01
5.502841450126086942e-01
5.579065056971236336e-01
5.445832935396144325e-01
5.372278310491842568e-01
5.359294315894631566e-01
5.423431407743530830e-01
5.614082169591081417e-01
5.819472316314395766e-01
5.825137534849362808e-01
5.575567163392940451e-01
5.224790955363622924e-01
4.944563492337659127e-01
4.812377947082540075e-01
4.817400235682526843e-01
4.781367291439317380e-01
4.381170771238577788e-01
3.639616988373741147e-01
3.489848088232975210e-01
5.139202188707437946e-01
7.655942407443488973e-01
6.429239710527668850e-01
-2.745787449868630214e-01
-1.576836981126974901e+00
-2.065192168491302382e+00
-1.117806342880515169e+00
3.599014110522586463e-01
9.769805463938558976e-01
4.726172915260055118e-01
-3.028920865699264997e-01
-6.149096325757561488e-01
-4.598754010960960370e-01
-1.946155783068424239e-01
-4.699835100529742293e-02
-1.869342439185812943e-02
-2.330847481819534744e-02
-1.423976324087670303e-03
5.343647210349992960e-02
1.167048331995017840e-01
1.618691513869592591e-01
1.768107587940948022e-01
1.654509446713118281e-01
1.375564313717048681e-01
9.609739247728309175e-02
4.439750080555358858e-02
4.274696177777793926e-03
-9.482470231139510097e-04
1.494724656236529753e-02
1.728433028420443135e-02
6.703617364515874338e-03
8.462682209247451848e-03
1.515797062512345278e-03
-8.035103708967825109e-02
-2.501192951333261472e-01
-4.098048477664658074e-01
-4.308767446539525925e-01
-2.915913914561612530e-01
-1.041355916507658574e-01
8.596490158885316396e-03
3.034428542249152302e-02
2.433767511991479643e-02
3.175196651739115028e-02
3.994939707858005673e-02
3.061127603407109987e-02
1.427801596197781839e-02
1.001456213192235961e-02
1.739864442630928432e-02
2.110010767983694704e-02
1.645296132151114615e-02
2.480193581537572939e-02
6.963863179342248688e-02
1.305560740821448684e-01
1.428839969504327456e-01
6.680732588484558643e-02
-3.501883490777564500e-02
-1.144121330675114401e-02
1.926874263078912075e-01
2.939225806816223585e-01
-2.097247410583546467e-01
-1.348554814986883343e+00
-2.226985339967475053e+00
-1.850159111476503249e+00
-4.499313409354460114e-01
6.819789667507528685e-01
7.392737216315786730e-01
1.168326311740249535e-01
-3.947234092874306599e-01
-4.788025538016724147e-01
-2.965118668901560728e-01
-9.036540862483399827e-02
3.289366308664721378e-02
9.211490384759299377e-02
1.464693726537857343e-01
2.233160645456423177e-01
2.966163166590528588e-01
3.274152676629921710e-01
3.175791078152502278e-01
3.033338875170799587e-01
3.045604169621816681e-01
3.122967756137327022e-01
3.191051896212558914e-01
3.291719344244436463e-01
3.402913647525965257e-01
3.401928081939364912e-01
3.243532009401858818e-01
3.055074514829483334e-01
2.984941084840607717e-01
2.905010165574817838e-01
2.331815507246490504e-01
9.608303120293058830e-02
-6.131952200139219322e-02
-1.158422737084997822e-01
-1.314740150405996170e-02
1.560709538241907002e-01
2.492525388534219399e-01
2.266263472481728214e-01
1.759533695778665863e-01
1.858523374544339413e-01
2.440626177248706730e-01
2.840429952588909845e-01
2.871909164380506696e-01
2.926572396309367052e-01
3.221116016670654281e-01
3.467749287797357582e-01
3.385927345348869189e-01
3.095957900602659962e-01
2.881190512289327765e-01
2.876078697617712732e-01
2.974890287905164188e-01
2.881746091749274319e-01
2.523631674477714859e-01
2.632509656091908679e-01
4.246416577972326745e-01
6.459079033199682796e-01
5.090424652362366409e-01
-3.221302726804412542e-01
-1.389189306824388348e+00
-1.596942823060911287e+00
-5.463912851061196729e-01
7.483542410947853218e-01
1.050277606593770008e+00
3.518522744227191579e-01
-4.031980316167981249e-01
-5.893294699611978382e-01
-3.534565857163172176e-01
-9.702687658265909953e-02
1.009403266035047153e-02
2.697459772875965972e-02
4.338928853172779876e-02
8.352392962410355726e-02
1.208462885370452655e-01
1.175055180724174780e-01
5.338983627418100730e-02
-4.286707295276259017e-02
-9.158440653210737914e-02
-4.431249558853303516e-02
4.127820784169510676e-02
6.951083445455383258e-02
2.418620685172994181e-02
-3.416527203378408317e-02
-5.796296547274287780e-02
-5.472095300600324230e-02
-5.312191006948690369e-02
-7.307883006149476501e-02
-1.428961464845652785e-01
-2.930617012766872365e-01
-4.894046411143818109e-01
-6.164578922251483517e-01
-5.827305770090055459e-01
-4.194619865243930379e-01
-2.396732448239562718e-01
-1.276415559081121309e-01
-9.463276278147335352e-02
-1.056366721149304133e-01
-1.175079436030352087e-01
-1.129312093774921810e-01
-1.126209640664758704e-01
-1.427450744690066664e-01
-1.964259460581883054e-01
-2.400759625292412935e-01
-2.471135043009742294e-01
-2.170446131452220540e-01
-1.701810724777516048e-01
-1.311962697528483712e-01
-1.226149630626405529e-01
-1.689153306659733345e-01
-2.763618984742280960e-01
-3.780304989641723457e-01
-3.280483653284197443e-01
-7.827262710327234640e-02
4.885502552213293048e-02
-5.122371093028934563e-01
-1.781871050858475414e+00
-2.730799433664094167e+00
-2.252956937520886438e+00
-6.733878040731186010e-01
4.922031952497705198e-01
3.586579542336609250e-01
-5.043511187140971019e-01
-1.085917282515018734e+00
-1.044919739401173331e+00
-6.975365931568774380e-01
-4.206651446253165672e-01
-3.152597025073412551e-01
-2.845143378170778004e-01
-2.391162039032526665e-01
-1.784487360578422277e-01
-1.379056368147071332e-01
-1.282359997502595661e-01
-1.300921401817925760e-01
-1.177735081845406040e-01
-8.068875841654499226e-02
-3.209066809191219588e-02
-1.187050419694787862e-03
-8.815354051372237265e-03
-4.696220073523277999e-02
-8.890596201213270267e-02
-1.147050202418370968e-01
-1.195645594904325287e-01
-1.161929256645013175e-01
-1.450808989179180608e-01
-2.511104316851793250e-01
-4.097748054770261605e-01
-5.067653549069329744e-01
-4.518585045224856600e-01
-2.926074738754865789e-01
-1.537620540064217889e-01
-8.332595818890167760e-02
-1.739044783125955063e-02
1.147374078184240642e-01
3.027060773609027700e-01
4.765343824771959280e-01
5.833572678547658263e-01
6.269900157745679214e-01
6.423143300412812451e-01
6.513949397602563085e-01
6.530288150460455965e-01
6.443683859927316071e-01
6.376106063551185699e-01
6.482078496820717906e-01
6.679901978360027748e-01
6.567158003374024000e-01
5.808280619396688493e-01
4.884067097757358589e-01
5.181227136185586613e-01
7.158876680947575677e-01
7.709160475496377174e-01
1.403576658757105244e-01
-1.207346227405081240e+00
-2.294040380368730148e+00
-2.016587579099264893e+00
-6.080800769967479313e-01
5.071090039300961694e-01
4.334649936722529406e-01
-3.462260377298189140e-01
-9.019781601208699540e-01
-9.227238695931627710e-01
-6.948127367005759725e-01
-5.289201100116727172e-01
-4.844506127491851610e-01
-4.818061727807527728e-01
-4.638569076626425369e-01
-4.274833483409384849e-01
-3.896789415065151641e-01
-3.636243005669772543e-01
-3.487095184604400711e-01
-3.384602519748306504e-01
-3.371037671264485724e-01
-3.521479875494519240e-01
-3.733182895265188539e-01
-3.783161081078791899e-01
-3.646030678713688689e-01
-3.623277506851705354e-01
-3.991864501130770737e-01
-4.576985355371446795e-01
-4.935385366578015076e-01
-5.030127988369248460e-01
-5.470579187059667614e-01
-6.805083183177553785e-01
-8.498033460786280635e-01
-8.951838667530447324e-01
-7.157580604233622079e-01
-4.092385707916730841e-01
-1.342715239357480383e-01
1.606137286736771252e-01
6.809390411060761705e-01
1.362389354942776354e+00
1.708709482584037875e+00
1.254320119629968033e+00
5.862658722402334932e-02
-1.398836674797959034e+00
-2.691273100071397195e+00
-3.719264167634996454e+00
-4.592491108716035164e+00
-5.325594595729952196e+00
-5.702818970640928242e+00
-5.496641187444756937e+00
-4.791309756826018784e+00
-3.916757646577032403e+00
-2.997019101404954977e+00
-1.776054277901794265e+00
-5.367264351503587411e-02
1.802995521876922913e+00
2.989879655220286203e+00
3.126977562991803961e+00
2.972512637154366644e+00
3.822002292936562462e+00
5.950975030947244448e+00
8.172390439075787327e+00
9.268956222293999403e+00
9.293722293519728339e+00
9.136685379850826294e+00
9.390267842147018484e+00
1.000044888359291129e+01
1.064473801946613918e+01
1.108907052435102614e+01
1.127957394259015622e+01
1.135486005024259626e+01
1.156192408842551700e+01
1.182473197084897443e+01
1.132205524486623105e+01
9.057490618800100535e+00
5.217847703797862557e+00
1.415864929924983473e+00
-9.032002717138090109e-01
-1.851991014534549951e+00
-2.506380110668286143e+00
-3.409816057051626270e+00
-4.257268227210762923e+00
-4.799760845952501853e+00
-5.243088580172914348e+00
-5.591927317424588040e+00
-5.396241310036812067e+00
-4.545271467667442167e+00
-3.661318181427198670e+00
-3.299300267425207878e+00
-3.226860393607059674e+00
-2.806273343551938915e+00
-1.801146367978591512e+00
-5.804875762521831684e-01
3.525277294626543712e-01
8.582348414488973898e-01
1.164905892387241515e+00
1.479463296303202169e+00
1.755362911807229587e+00
1.927419320458125140e+00
2.196299552585382120e+00
2.800144504416903768e+00
3.538834853585530293e+00
3.817069722787202579e+00
3.234001243210862686e+00
1.950084466087220747e+00
4.217075255781684295e-01
-1.064810459366818174e+00
-2.494947265174358719e+00
-3.868963208782843832e+00
-5.020908294524544679e+00
-5.746543439462628022e+00
-6.017218077418609923e+00
-5.993687431996366222e+00
-5.872877894385401198e+00
-5.768885638041962416e+00
-5.702497177818496077e+00
-5.647637105713048555e+00
-5.578671281268326787e+00
-5.490702876531594612e+00
-5.392144180777075135e+00
-5.291607672807444374e+00
-5.196797607212857883e+00
-5.116394591662074554e+00
-5.053054374612214517e+00
-5.001317266479944124e+00
-4.954191592031480518e+00
-4.898995869965923511e+00
-4.817727287518723145e+00
-4.718013462009732706e+00
-4.646630664805993405e+00
-4.629561509546527454e+00
-4.609958592255838816e+00
-4.509116234282307900e+00
-4.374594059779348676e+00
-4.392080274119584793e+00
-4.605999994728161795e+00
-4.584859469308299573e+00
-3.583802589427893537e+00
-1.307089692265892111e+00
1.573463131237102353e+00
3.925087512034796333e+00
5.153994131763665720e+00
5.507758251300202801e+00
5.474762392054921989e+00
5.238083819869659763e+00
4.832609401481483324e+00
4.477664679002147707e+00
4.442124979631564941e+00
4.727634521152024760e+00
5.073327297872567421e+00
5.196761523838344665e+00
5.006150472909897786e+00
4.672451614340023873e+00
4.459868274670069965e+00
4.439040470356346191e+00
4.451406486235936377e+00
4.335429478541796833e+00
4.036165950472103248e+00
3.521476692464535763e+00
2.771681489704964196e+00
1.889725182083072497e+00
1.108322047902991159e+00
5.657046530371857562e-01
7.226488845857309551e-02
-7.209007674608486349e-01
-1.833140181589437034e+00
-2.821607467428433935e+00
-3.275678674600101647e+00
-3.318971735714685067e+00
-3.441178501797012679e+00
-3.763291614168845278e+00
-3.585641974441359459e+00
-2.054276200919840534e+00
5.051409087168212686e-01
2.482691328024489330e+00
2.769546069224371632e+00
2.045940647510844812e+00
1.623721613288801047e+00
1.701704523867707985e+00
1.539451968093159762e+00
7.895227204519406072e-01
-1.316748577350157212e-01
-7.692527520419860654e-01
-1.118277247510987227e+00
-1.368962776134152959e+00
-1.557796405182189536e+00
-1.622701545043561122e+00
-1.657086117049020091e+00
-1.920999711836269386e+00
-2.506230044497467890e+00
-3.141368554848634087e+00
-3.500679650715357027e+00
-3.560746496977988507e+00
-3.520465703248944145e+00
-3.523645996459080720e+00
-3.569992509384184221e+00
-3.608519110073237446e+00
-3.625616865150648405e+00
-3.642651807251150231e+00
-3.671651202568054995e+00
-3.701697642128755739e+00
-3.721742458488132232e+00
-3.738446781095316140e+00
-3.768017842655385863e+00
-3.813354678220817195e+00
-3.850795259305078932e+00
-3.852354974660272990e+00
-3.826209639084293457e+00
-3.813045474181302907e+00
-3.837209829438641862e+00
-3.885924705204455876e+00
-3.933067758889571497e+00
-3.959929636684953458e+00
-3.965564454000209516e+00
-3.973338392761867510e+00
-4.005362706372086024e+00
-4.045872150053256178e+00
-4.062638370600557991e+00
-4.060536464835498904e+00
-4.075220819979398001e+00
-4.117420869183670007e+00
-4.152179868714275024e+00
-4.136255001344863125e+00
-4.083662993800468932e+00
-4.099987334300523756e+00
-4.264166107483582380e+00
-4.304910559635742651e+00
-3.337623534838176642e+00
-2.120483091950039478e-01
5.341097131927501351e+00
1.180371823704542322e+01
1.672936711879556526e+01
1.884310149664884548e+01
1.885223042265945637e+01
1.818729187752166254e+01
1.772072404627864017e+01
1.783418205247304655e+01
1.869398459946875590e+01
1.952449675066793233e+01
1.811695419841088039e+01
1.266448005458276960e+01
4.526069910408415886e+00
-2.331461041180215688e+00
-5.276172931076832384e+00
-5.149075876545249564e+00
-4.319043912630894155e+00
-4.072986597631274464e+00
-4.276321584751553218e+00
-4.469461499703699658e+00
-4.540170984926533038e+00
-4.549269252073782077e+00
-4.426722899815561441e+00
-4.133401192953225944e+00
-4.053133265086283465e+00
-4.758120130947957271e+00
-5.788467170727235711e+00
-4.885356642321101006e+00
1.806913442387593216e-01
8.428521497561581199e+00
1.577011149209334206e+01
1.910636512099630835e+01
1.902345541122813799e+01
1.805492511703173975e+01
1.777202239611105128e+01
1.807774394582681765e+01
1.825261201743983364e+01
1.800731859817960512e+01
1.781269397970913460e+01
1.837120973524134016e+01
1.933149037186848673e+01
1.853965462920841034e+01
1.375364501828640229e+01
5.741889342065897850e+00
-1.624766617455965845e+00
-5.216622666053924995e+00
-5.399886745515706465e+00
-4.535041309163640122e+00
-4.175815719252691238e+00
-4.361722536224851510e+00
-4.601344290294532513e+00
-4.674701545627574895e+00
-4.648450060844277587e+00
-4.609958799059033829e+00
-4.580429463727980988e+00
-4.578285825516775098e+00
-4.628342834827541274e+00
-4.712295971871899525e+00
-4.777071811516256261e+00
-4.791847626956135642e+00
-4.774662227452457053e+00
-4.773414538760412995e+00
-4.820184580272207420e+00
-4.893983962233543039e+00
-4.937671070732848833e+00
-4.921242146340754076e+00
-4.884019087227465583e+00
-4.899054652794049503e+00
-4.989965012965274838e+00
-5.109847529003225475e+00
-5.209634203116543461e+00
-5.283888631137839020e+00
-5.345623252370145906e+00
-5.403825984445486341e+00
-5.467035479013681254e+00
-5.537776650545474411e+00
-5.608041084466564463e+00
-5.672853397371360629e+00
-5.739701111768354735e+00
-5.820727514718803342e+00
-5.919438396556663484e+00
-6.025086722069447731e+00
-6.121909537327788975e+00
-6.204154572690533165e+00
-6.280798973088887571e+00
-6.369657136721609270e+00
-6.485639027201007600e+00
-6.624464316460469959e+00
-6.759663757602324630e+00
-6.868005983946548376e+00
-6.951408139157312149e+00
-7.024315877630251670e+00
-7.097255495908776801e+00
-7.181666788646626998e+00
-7.288924276657303913e+00
-7.415476785579908636e+00
-7.544253195859811356e+00
-7.668264342278804158e+00
-7.803030877767623608e+00
-7.961559990939097275e+00
-8.125504358455831522e+00
-8.274915155715238058e+00
-8.440838954656587845e+00
-8.659516793176969429e+00
-8.854383242418386146e+00
-8.884395341246230871e+00
-8.834333197853693420e+00
-9.119249826199677500e+00
-9.901901501725683730e+00
-1.025902205947760137e+01
-8.650481076053281981e+00
-5.131691128369261001e+00
-2.107847785893539161e+00
-9.289218133324642634e-01
8.250574584324104066e-01
5.583022796954452360e+00
1.087541684945161435e+01
1.172340058406442154e+01
7.239045205867208566e+00
1.904929251211409991e+00
-4.479666916807067967e-01
-1.401780230474255040e+00
-4.406023739302082909e+00
-9.041443814383256949e+00
-1.210550494209690342e+01
-1.242675051207181092e+01
-1.185431904541858472e+01
-1.240284039269904603e+01
-1.360730475294086617e+01
-1.253294597828491419e+01
-6.891480094866080819e+00
1.615040210413594135e+00
8.415399224100298170e+00
1.082522464543424512e+01
1.011304654932251879e+01
8.926581170366000961e+00
8.511771793915649198e+00
8.631047686969763433e+00
8.755955256074139825e+00
8.695913996570542537e+00
8.531513281480757271e+00
8.380365896220562050e+00
8.272036879263000131e+00
8.170476904879045321e+00
8.053031517618592261e+00
7.933264348155395496e+00
7.826548489700248190e+00
7.723709822612419451e+00
7.601907199957558703e+00
7.458768117787004215e+00
7.325307862393380276e+00
7.231355555548345748e+00
7.170901949596121483e+00
7.110111240419587197e+00
7.011203158458497953e+00
6.858658669385568452e+00
6.690702399859842053e+00
6.578782246877308282e+00
6.545266523380149692e+00
6.540331139487839174e+00
6.518074991655272932e+00
6.482195473557402110e+00
6.444637840361539638e+00
6.392975106451725509e+00
6.321522983731644452e+00
6.257580262662647108e+00
6.223483210491314921e+00
6.198876807246079146e+00
6.153909143268574411e+00
6.094633373908954432e+00
6.050431719049246482e+00
6.036385286259450034e+00
6.040417771402104563e+00
6.037649706275886707e+00
6.017086176929734798e+00
5.996595160685076920e+00
6.001750160030744574e+00
6.027973727430996576e+00
6.040197095465853039e+00
6.018201039816099218e+00
5.986331592442994953e+00
5.983622652606281456e+00
6.016772427751980068e+00
6.059144180925715162e+00
6.083288371737365807e+00
6.080958121699018726e+00
6.068613698585922478e+00
6.079081067992266441e+00
6.126301977947044897e+00
6.183208060437505260e+00
6.217962980471623879e+00
6.239865790604913975e+00
6.283974601266173465e+00
6.358300915581349244e+00
6.429141315350737074e+00
6.465536450325899409e+00
6.492503959993024765e+00
6.575108322285604601e+00
6.707034232764507387e+00
6.738817479748281158e+00
6.558121452710192756e+00
6.430589359411317041e+00
6.916386905292755571e+00
7.915418134379377690e+00
7.723217915485525609e+00
4.034845427710116006e+00
-3.232245624677880347e+00
-1.092207221064977674e+01
-1.551837195424774229e+01
-1.640174067780552392e+01
-1.552962948326057990e+01
-1.483125829374458959e+01
-1.479666091705947650e+01
-1.499867391848468401e+01
-1.504688670862897304e+01
-1.491487404669414651e+01
-1.474637283872067073e+01
-1.463003930542188868e+01
-1.456299713597021572e+01
-1.451449519712518210e+01
-1.446299464708792826e+01
-1.439572594859042809e+01
-1.430695542507275064e+01
-1.420619002069601500e+01
-1.412669942677402979e+01
-1.410583862355617413e+01
-1.411948133705018193e+01
-1.403787735927102531e+01
-1.374905443775028857e+01
-1.345150786670574838e+01
-1.368923672790272050e+01
-1.457717262213135712e+01
-1.470995693627529377e+01
-1.165034432800084829e+01
-4.657092322880760804e+00
3.512940580636912280e+00
8.926930535612957129e+00
1.033855725349200760e+01
9.609818013972290629e+00
8.943979780671520885e+00
8.991894095744978443e+00
9.305597914311768193e+00
9.469045711963909540e+00
9.482712495652121376e+00
9.489812519593415985e+00
9.502716224683741331e+00
9.454079649493696280e+00
9.414016573369650587e+00
9.602669031883293016e+00
1.000620994863746205e+01
9.976372480943954457e+00
8.599934759088386116e+00
5.832459040027750063e+00
3.032051441391919955e+00
1.973901851449899603e+00
3.338501968619281612e+00
6.176633079176670371e+00
8.761220218178159769e+00
1.001835387293354174e+01
1.011817995974481832e+01
9.770163645763195959e+00
9.411277126841911311e+00
9.279824465278174728e+00
9.726372817263145620e+00
1.064572325516433260e+01
1.050893007352098607e+01
7.040901693841492559e+00
-9.366819753789390468e-02
-7.952115669826297584e+00
-1.290171766138683296e+01
-1.408693286293826574e+01
-1.340860216475356204e+01
-1.285416210404916626e+01
-1.292695968234666459e+01
-1.320404778333289286e+01
-1.334240084937655624e+01
-1.329720243688485759e+01
-1.306151239803592112e+01
-1.263023153936627274e+01
-1.209154279669468224e+01
-1.147748388290419541e+01
-1.073707474535205719e+01
-1.001887234993935927e+01
-9.614694266624281838e+00
-9.549328157423838448e+00
-9.572130437514475787e+00
-9.512217327250780841e+00
-9.371240439861272975e+00
-9.108978006566159635e+00
-8.522135666053317848e+00
-7.414279982520997514e+00
-5.905153171270812962e+00
-4.514081081163087816e+00
-3.748543716659136216e+00
-3.531604352566775962e+00
-3.267050807376784327e+00
-2.604003020053116568e+00
-1.852101793269496310e+00
-1.449792142414962903e+00
-1.325474774878809159e+00
-1.067820420573557971e+00
-5.167388685402942716e-01
1.097081083782861510e-01
5.856833322810836018e-01
9.459489361002867414e-01
1.355242793058637707e+00
1.867183097513342105e+00
2.457224717968886640e+00
3.185878398875078510e+00
4.112401716983987932e+00
5.081154268492023007e+00
5.774944733626568016e+00
6.011466926914270203e+00
5.902637299487908606e+00
5.702557603226568794e+00
5.564697847562166899e+00
5.479661818011505758e+00
5.387737860072889795e+00
5.272609138467827528e+00
5.148280359411482543e+00
5.021762422014172778e+00
4.895165745793993217e+00
4.775215626646812872e+00
4.664781368092723923e+00
4.551506581713510968e+00
4.417075250858077062e+00
4.271506975747279000e+00
4.158340110738500073e+00
4.094608941069644459e+00
4.032654230854757493e+00
3.918290004380275082e+00
3.758840861133721400e+00
3.601771703127223390e+00
3.473295240402089590e+00
3.366866782337873509e+00
3.268961495809969087e+00
3.169177839661991403e+00
3.059547403982552538e+00
2.940857318708393286e+00
2.823423950229466683e+00
2.719398128883730781e+00
2.634819381799268445e+00
2.560999103579486569e+00
2.474533695006592371e+00
2.356737551563356625e+00
2.214878507803038410e+00
2.076669351447896439e+00
1.962337921106848793e+00
1.869377042200567773e+00
1.784972828145261481e+00
1.701954155786278289e+00
1.618560490414089781e+00
1.533436095051009529e+00
1.447346413926173359e+00
1.363922885518940031e+00
1.285082765574206087e+00
1.208736307526028675e+00
1.132654958273436652e+00
1.059198644045105109e+00
9.922927721608365559e-01
9.282612315568695704e-01
8.568007371541557227e-01
7.746522713609100830e-01
6.889754033633297414e-01
6.036793693311447440e-01
5.147869634992057186e-01
4.236760419792628962e-01
3.433764751224654410e-01
2.870895632078245829e-01
2.533094366050611668e-01
2.227926146383943928e-01
1.748032533723716808e-01
1.098779953848404434e-01
4.940812734555499741e-02
4.657095327938343132e-03
-4.246900146369902984e-02
-1.083548590872149275e-01
-1.742059145787659968e-01
-2.134619746653163563e-01
-2.331808501827372648e-01
-2.618627516660794741e-01
-3.145976787681944442e-01
-3.810096991054102711e-01
-4.330885699959900470e-01
-4.479553616195636190e-01
-4.334088069747418781e-01
-4.249277187184367088e-01
