-4.330003750882646663e-01
-5.909414272122446299e-01
-3.017033663051613135e-01
2.245572403155420838e-01
4.805302181770615411e-01
2.858718271911315778e-01
-7.406703384939258838e-02
-2.710337933620310946e-01
-2.402037509420342776e-01
-1.076731247560043236e-01
6.041820816884122675e-03
7.431261967058726270e-02
1.217157460270497094e-01
1.548193107490105358e-01
1.577823516498998435e-01
1.356133025029450656e-01
1.281848974684460241e-01
1.701543845191585413e-01
2.482924629572761666e-01
3.105868467739774097e-01
3.147825378910922844e-01
2.624023022900822677e-01
1.908086017289726544e-01
1.368869655486032177e-01
1.080483809030534786e-01
8.455333844727679071e-02
4.135321265509145361e-02
-3.049845056325865486e-02
-1.127447878057716013e-01
-1.659264906167355613e-01
-1.542231643700640031e-01
-8.370251808210868449e-02
-1.297934092007769699e-02
7.293728605886748081e-03
9.738374778221932371e-05
2.821167169130916336e-02
1.047017485949317261e-01
1.746111918913375305e-01
1.814173695217037308e-01
1.267728879715378787e-01
6.092288553383191918e-02
2.821089342430528613e-02
2.984589688062292204e-02
2.748766144721043192e-02
-2.069795131811852373e-02
-1.119206221431002929e-01
-1.929164892732256331e-01
-2.116636206365537509e-01
-1.529621611096428357e-01
-3.860131093761277887e-02
4.774371730042397538e-02
-2.527526791786668253e-02
-2.635477402251343859e-01
-4.068964208026491503e-01
-1.834405227627820822e-01
2.621254945514110424e-01
4.741809939925377138e-01
2.626063634740753994e-01
-1.120203248315077005e-01
-3.233771917234544713e-01
-2.947374503453270567e-01
-1.506398452261957233e-01
-3.608854999794510604e-02
-8.396870378680599753e-03
-3.460511102789299437e-02
-4.997805604166370708e-02
-1.583519438498103699e-02
5.737606595521350938e-02
1.271637780193608513e-01
1.615279145470450983e-01
1.665427154852021085e-01
1.683719600023521612e-01
1.762303466373476568e-01
1.748314945244867358e-01
1.432675736123895094e-01
7.144316581820528422e-02
-2.253857021371725999e-02
-8.817296149645115211e-02
-9.216311699591089868e-02
-7.540661821744644444e-02
-1.118140455449656845e-01
-2.014027962020761287e-01
-2.643116704996201216e-01
-2.592027444168616412e-01
-2.343718917736030138e-01
-2.344802995877827700e-01
-2.327206077970513376e-01
-1.854438101229567704e-01
-9.806788349836778607e-02
-1.545009775049756805e-02
2.480738111114937430e-02
2.037760782416246641e-02
-2.771406416369004075e-03
-1.972687992011158339e-02
-2.920504909749703851e-02
-4.708137361183660496e-02
-7.902485109911695782e-02
-1.094440753749552631e-01
-1.231629375184607050e-01
-1.180239307118554071e-01
-8.320870255174772634e-02
-1.958140217364807718e-03
8.097497193266287030e-02
3.550180928335008174e-02
-1.928181060129454671e-01
-3.827516573687194668e-01
-1.946654230324834645e-01
3.433247992180407104e-01
7.316295592203266862e-01
5.883738352106051561e-01
1.135186553558142214e-01
-2.292350645681967003e-01
-2.479457567776084947e-01
-7.919996321203003065e-02
7.759556308373857791e-02
1.325108471156496992e-01
1.029853996481635420e-01
4.991304201513120653e-02
3.353194309878370499e-02
8.767401559762945384e-02
1.951447769672660926e-01
2.953050442062153391e-01
3.368246134148276671e-01
3.203423604072598851e-01
2.840290690272093133e-01
2.550856653760046888e-01
2.220744457085542245e-01
1.524244505063702126e-01
4.088722691857213376e-02
-5.941864518865536821e-02
-8.698659947326647934e-02
-6.682701144602412602e-02
-9.901420145612342683e-02
-2.152622343641645009e-01
-3.091149959300447114e-01
-2.727652110671059948e-01
-1.534934597782013355e-01
-8.887205771153097733e-02
-1.133340360810847214e-01
-1.284583502773330999e-01
-7.029220172158409663e-02
-9.577609986674527620e-04
6.637053549212517008e-03
-2.114080612597605408e-02
-2.679317747747442247e-02
-3.108763980241814606e-02
-1.073503963513626064e-01
-2.595150426302403335e-01
-3.722354667442172582e-01
-3.297369638638436018e-01
-1.687996840071348814e-01
-3.763188788081942016e-02
-5.571840551918512408e-03
9.887460900279507886e-04
5.189887479919247371e-02
6.762414060483537548e-02
-9.946805642273079395e-02
-3.945547224858403923e-01
-4.689355658096525103e-01
-6.853544963173212323e-02
5.275364582444260764e-01
7.651517733792477793e-01
4.903646706060554861e-01
5.680432892727881045e-02
-1.731610135934196215e-01
-1.573910962583815465e-01
-5.663653132058900364e-02
5.629691550959395330e-03
2.646103751482563327e-02
5.198282814980753619e-02
9.706218147484053926e-02
1.389634204880859092e-01
1.577074434777588352e-01
1.717742331510899723e-01
2.280601069044191631e-01
3.340853164720744006e-01
4.129598801125471397e-01
3.792815861113563725e-01
2.532283535777050121e-01
1.346677834835231791e-01
7.601289396826835243e-02
4.776506738087814286e-02
1.335589853691791784e-02
-3.306855816722851366e-02
-1.039974682545046769e-01
-2.212909925790174648e-01
-3.523200593604440822e-01
-4.053624003582626534e-01
-3.308247035929691160e-01
-1.840194661850230728e-01
-6.152711766472589161e-02
-1.498280632524796874e-02
-3.647204535843075884e-02
-8.497803312199711523e-02
-1.173936636684496937e-01
-1.181957662712736223e-01
-1.011715108077910485e-01
-8.142875796105526753e-02
-6.213171528930320348e-02
-4.720278906189968871e-02
-4.370517170061283263e-02
-4.623655736177707115e-02
-3.645317146668142216e-02
-2.220323682322241417e-03
5.392017870613598912e-02
1.157105283325034761e-01
1.417733255230918532e-01
5.850944233872675676e-02
-1.956533454493165625e-01
-5.450116047283346532e-01
-6.996991376717600630e-01
-3.960917584028239014e-01
2.039807541570513583e-01
5.990853477577969821e-01
5.193178923154714299e-01
1.668492006587066201e-01
-1.201001034430922848e-01
-1.992103920250591909e-01
-1.294028671955305132e-01
-3.205437156936904314e-02
2.015843986908139734e-02
4.476532606557498406e-02
9.312234700678397037e-02
1.606501014538766481e-01
1.991442004600027238e-01
1.982868023779229549e-01
1.852111675449131245e-01
1.626337536503312253e-01
1.148881776266065247e-01
6.259114897935415256e-02
5.091596454686438816e-02
8.039763059219644237e-02
1.004763702737339476e-01
8.581812744072819799e-02
7.387946477423566749e-02
9.895473593520189015e-02
1.171869673614035628e-01
4.171015698962327045e-02
-1.367290074974170377e-01
-3.082868108085145553e-01
-3.637168470427266098e-01
-3.113765877398018689e-01
-2.259494297058018408e-01
-1.431359227628523079e-01
-6.392354884055154174e-02
-3.557741418505535463e-04
3.599318050095107885e-02
4.706990972860485706e-02
2.349401272478483099e-02
-5.846101115128371495e-02
-1.907089085765380221e-01
-3.023705961477184401e-01
-3.078520569013303287e-01
-1.811314398567235584e-01
2.686662149382146661e-02
2.114012978186737834e-01
2.710035631484570273e-01
2.011108326245275302e-01
9.884482166109213874e-02
2.250488751643397317e-02
-9.020487865568492525e-02
-2.765715999004900727e-01
-3.724553220724323155e-01
-1.526331017965778802e-01
3.090724283045324650e-01
6.225804812399196031e-01
5.260371088372126636e-01
1.658491313603519535e-01
-1.372271944201162719e-01
-2.292629766399968683e-01
-1.731659623372156787e-01
-8.655118389416566194e-02
-8.943799366605853854e-03
9.758253735867601641e-02
2.569454746056686889e-01
4.128308850793370732e-01
4.741045145332430377e-01
4.143578473752148050e-01
2.891156028818333001e-01
1.656631931317613382e-01
8.102959335217503611e-02
5.128803683230589300e-02
7.055077160232105238e-02
1.094089469283814897e-01
1.392011305721315984e-01
1.480278369353476842e-01
1.390394702233593294e-01
1.216171326997558672e-01
7.994401230016377757e-02
-3.563574172749503499e-02
-2.294391190773811540e-01
-3.936449901502942494e-01
-4.005653269169610620e-01
-2.536665943607175344e-01
-7.913249782162873336e-02
2.179306035295217742e-02
5.388785089213674745e-02
6.928108277504188561e-02
8.493062317632289748e-02
7.730101632664117262e-02
2.266733180335822606e-02
-8.039575953672507824e-02
-2.004565816079433016e-01
-2.723086650034451939e-01
-2.468772582824399209e-01
-1.557102692076975381e-01
-8.288488103774724336e-02
-6.686219371752591401e-02
-7.574012871021336413e-02
-6.953795657377735695e-02
-3.391066872124071097e-02
2.286408196867235204e-02
4.095373773853402954e-02
-7.831465904671583433e-02
-3.029691377270448127e-01
-3.515964775689712773e-01
8.751925934467649770e-03
5.337551561554650936e-01
7.050123824026808261e-01
3.864575567169624692e-01
-6.054417751143578719e-02
-2.827665597236718731e-01
-2.508771853911213601e-01
-1.209231057617606853e-01
-1.623587810522215957e-02
3.549285108183499599e-02
5.983301156692548417e-02
8.233305119263951977e-02
1.064256257513180731e-01
1.207104009640454501e-01
1.163940294267142156e-01
9.969624742800284323e-02
8.803517667466176366e-02
9.337132952605280145e-02
1.141264602965220698e-01
1.403096511984297523e-01
1.566380222183689219e-01
1.462502303717890251e-01
1.053115527485810471e-01
4.876444074117444738e-02
-1.251181264157896073e-02
-9.019627430302917803e-02
-1.919099718420166079e-01
-2.807454953632913530e-01
-2.911861959011979861e-01
-2.019547408598048877e-01
-7.390399254561326459e-02
5.910903165531229686e-03
2.281731881210623519e-03
-5.852000371050424671e-02
-1.298046427369407840e-01
-1.775692228911344706e-01
-1.915560043691145742e-01
-1.799493830134674122e-01
-1.525208559927492269e-01
-1.081062061219567605e-01
-4.373805025142496472e-02
2.097565892581195260e-02
4.545444422979704607e-02
1.329403872987009426e-02
-4.500126133157186792e-02
-9.096823943371108723e-02
-1.057388066844249103e-01
-8.306177588692743863e-02
-6.253178727718802787e-02
-1.511206309771460921e-01
-3.741892327332623780e-01
-4.915820035628542528e-01
-2.031100846229847712e-01
3.647083814090420484e-01
6.881600585009460813e-01
4.918862713955937660e-01
4.159703460210512072e-02
-2.722945685647903957e-01
-3.303959211662854112e-01
-2.337219979772607870e-01
-9.982364583938907465e-02
2.224017888294576445e-02
1.245378866252574990e-01
1.862251859732095838e-01
1.735677081732373561e-01
1.011073564582475465e-01
4.133884662151431078e-02
3.871815194972264007e-02
6.413953130144572912e-02
7.901114288658760143e-02
8.758925011085150203e-02
1.049779417354482353e-01
1.215053314962630249e-01
1.199876491595543992e-01
1.010035000549667911e-01
7.436781524247218500e-02
3.334995408461789712e-02
-4.819269364112191423e-02
-1.731613463275268328e-01
-2.755650303438074156e-01
-2.635267376621793223e-01
-1.348563603829865398e-01
3.268112878832819118e-03
6.379788029143360073e-02
6.637174938612774855e-02
6.183996666046732288e-02
4.539975038014710390e-02
-6.953046923981174611e-03
-7.186279183958142747e-02
-9.802546306423388922e-02
-6.885941793284232337e-02
-1.707576715465443720e-02
1.826609443591616436e-02
3.332067433710755866e-02
4.866458586622336713e-02
6.504158447563750112e-02
5.197364747010030372e-02
-6.395810237473361325e-03
-6.585001770483028816e-02
-5.682383817383199892e-02
1.171835061187590302e-02
1.542879493837211180e-02
-1.388954871439665451e-01
-3.123324051058280482e-01
-2.196140697078703408e-01
1.750786654456159552e-01
5.174841840065889098e-01
4.808342483917497634e-01
1.496579654358466682e-01
-1.508195651032155082e-01
-2.289194083226968879e-01
-1.261235560672412936e-01
1.531179048631022346e-02
9.269882935708183280e-02
1.036379129507911390e-01
1.219107773172826287e-01
2.089452069635804321e-01
3.283803247843731787e-01
3.770294567138997022e-01
3.267924350535107991e-01
2.619718562334659162e-01
2.360971058463292305e-01
2.038870490698502513e-01
1.424292999583293695e-01
1.110834462233081799e-01
1.355804302969577657e-01
1.503013256325020641e-01
1.078869697270568168e-01
4.597718486262845905e-02
1.332360074132220643e-03
-6.001265573186666258e-02
-1.729567398080867069e-01
-2.799202835227617703e-01
-2.788570530177418849e-01
-1.675822609163984400e-01
-7.215558466176510977e-02
-9.246887259857375363e-02
-1.713354237201818731e-01
-1.803026491712591550e-01
-9.800079183976917463e-02
-2.291953229971386077e-02
-2.866165829196995821e-02
-8.267839995518383445e-02
-1.108012406713700659e-01
-9.003107408765252673e-02
-5.703710551985349125e-02
-4.816718055440852297e-02
-6.063056797743061888e-02
-7.724150495759027346e-02
-9.970628450438326351e-02
-1.248939529048207209e-01
-1.098858934749595007e-01
-2.683274904685306952e-02
3.685047492742307695e-02
-7.682545361658203731e-02
-3.597079629494513431e-01
-5.105548822080486771e-01
-2.479206623556295397e-01
2.525860626298626066e-01
5.085381478092512175e-01
3.264186033493113315e-01
-3.438536426302110649e-02
-2.495827609660184465e-01
-2.291373152705288574e-01
-7.918774686015167541e-02
5.175026420405715033e-02
8.360016244660228857e-02
3.777094186064904047e-02
-1.070148113779413254e-02
-5.904407546417795964e-03
6.356986919257613666e-02
1.769080735622378664e-01
2.841146651771966347e-01
3.257231593356123556e-01
2.935489907274624333e-01
2.469203419515660913e-01
2.303895089041246569e-01
2.057922285605550683e-01
1.093499371031874529e-01
-4.384197981020415691e-02
-1.611194211793055553e-01
-1.836038421521880293e-01
-1.596566927646497214e-01
-1.779432258496701780e-01
-2.382426301947031255e-01
-2.408357225634955578e-01
-1.322467927800219101e-01
-2.427368587659683996e-05
3.601343104729583938e-02
-3.043386377461800019e-02
-1.176331302602373896e-01
-1.703311467796262413e-01
-1.837260772717299318e-01
-1.518275786611902323e-01
-5.942251834642736652e-02
6.723488375749692159e-02
1.391135509259611436e-01
6.968652453083939990e-02
-1.226048041614479917e-01
-3.000615807427132742e-01
-3.355259760285081994e-01
-2.412817249358031879e-01
-1.266845605045088252e-01
-5.670799386686804083e-02
-8.705784764348327084e-03
3.354225586962422678e-02
-7.638068214487906196e-04
-1.715515614668331468e-01
-3.239816320905872793e-01
-1.488674034036363003e-01
3.769996200670694408e-01
7.868047492741704341e-01
6.337423877654149162e-01
5.928910356822512939e-02
-4.005576241104318869e-01
-4.360824927308706300e-01
-1.897673512746537172e-01
2.387044159527256654e-02
5.371931677435570068e-02
-1.664519343895847284e-02
-3.925100512834618638e-02
2.245369340897414648e-02
9.829207525874221474e-02
1.326054368336729294e-01
1.467160783466909812e-01
1.904721370096947031e-01
2.641875452939551061e-01
3.093830397221100093e-01
2.793528753634556550e-01
1.961327507502634848e-01
1.171629326206595767e-01
6.808159552153117411e-02
3.932457538152456938e-02
1.851403745186455327e-02
-1.879129539173417240e-02
-1.121819957464326167e-01
-2.500437068358548620e-01
-3.370932401647297461e-01
-2.947885525806692719e-01
-1.659562928739681253e-01
-6.206396499342108075e-02
-3.322581975388901737e-02
-4.155174317285662694e-02
-3.636557138424519053e-02
-1.009215992400008463e-03
5.858062835568627474e-02
1.208269045476079023e-01
1.465743589587153728e-01
1.065801264315495572e-01
2.090866044569480997e-02
-4.634292160286105494e-02
-4.761508050704837264e-02
-3.221827351699133382e-03
2.660377900004025700e-02
2.365041914365879211e-02
4.083825097738194576e-02
1.325758369558907579e-01
2.595627453850405941e-01
2.689856330968621867e-01
2.044093322416012590e-02
-3.811892989103574103e-01
-5.450615679698840310e-01
-2.098919445236900883e-01
3.367966651109092213e-01
5.596456088795167538e-01
3.346985786465862533e-01
-8.139367380264418694e-03
-1.748118857540731375e-01
-1.499227712696239168e-01
-5.818700697492472373e-02
7.046939481285520446e-03
3.376949946369433436e-02
5.750149011763575069e-02
1.035369545747869269e-01
1.611504274329080832e-01
2.010403681244165852e-01
2.018170178341363308e-01
1.706206107345922263e-01
1.444480440046150282e-01
1.494016888368076834e-01
1.663592863305365099e-01
1.632066878191403003e-01
1.387314298571529214e-01
1.128455284322987390e-01
1.032173915867075492e-01
1.208973367787791464e-01
1.481769124716304786e-01
1.172191721698932210e-01
-2.774168693039349293e-02
-2.281154698963772376e-01
-3.408132198476658825e-01
-3.004402173067718396e-01
-1.826588004487094130e-01
-8.739881261459614414e-02
-4.107466229700897781e-02
-2.693119219123864608e-02
-2.573107319551911146e-02
-1.165251666925850964e-02
2.355538012112953772e-02
3.120247932211014930e-02
-5.434401121277199209e-02
-2.122239816942248225e-01
-3.173031733991778514e-01
-2.758672791634824151e-01
-1.417367580629947388e-01
-3.965783215408923146e-02
-1.890799117463320619e-02
-3.429880640000538411e-02
-2.259838796260004931e-02
3.505710446213818748e-02
7.665091132436475940e-02
-2.249292788965249340e-02
-2.985488748862667463e-01
-5.294290714921564556e-01
-3.866737869846005871e-01
1.209079024863635721e-01
5.580578288386326413e-01
5.666600908433803152e-01
2.481603298703437543e-01
-6.169992744356282699e-02
-1.838134488272313849e-01
-1.650757771134933882e-01
-1.119386449313914678e-01
-6.662902978234735984e-02
-1.194381752068839064e-02
6.740927325017651017e-02
1.492760273807751392e-01
1.961864129201662532e-01
2.035623591979655589e-01
2.052074334917282361e-01
2.210219857520301923e-01
2.210046545800894158e-01
1.596831995872120824e-01
3.617240350829577233e-02
-8.543686371093797693e-02
-1.179652860183418028e-01
-3.473770802533161783e-02
9.636826138654457086e-02
1.826149533096015631e-01
1.722785921755669580e-01
4.836784052394316885e-02
-1.536339905102910852e-01
-3.144313546577469087e-01
-3.238147333836687292e-01
-2.142374417446937795e-01
-1.142438292071796951e-01
-8.316619180571382941e-02
-7.188314970860812392e-02
-2.646398818179861515e-02
4.009060391364011738e-02
7.729590853866302735e-02
5.750949307858477244e-02
-4.924575287329794118e-03
-7.939576191882058431e-02
-1.412851264244373850e-01
-1.663543429769390736e-01
-1.328070806693744110e-01
-5.160223151013356574e-02
2.145274143755204754e-02
3.160703604115822768e-02
-1.242154344611115513e-02
-4.342111735012407769e-02
-3.640704013308475318e-02
-9.383514416396489255e-02
-3.293797069661581478e-01
-6.032262305336318908e-01
-5.282187407185217065e-01
5.259929898750453914e-02
7.206657325366082611e-01
9.051108232554075927e-01
5.469499230199870166e-01
6.657650105450697853e-02
-1.868292988953895728e-01
-2.063395453131396384e-01
-1.643062063350987645e-01
-1.722879056150665167e-01
-1.974281871336972249e-01
-1.458332120142465937e-01
3.529862847119532437e-03
1.668662769712838112e-01
2.463632813113983411e-01
2.116262047819255365e-01
1.007767715921418228e-01
-1.044482529025688236e-02
-5.269895159354660852e-02
-1.587819984782213104e-02
4.843585566193345932e-02
8.627819251866668260e-02
8.968198787432901664e-02
8.702829479075645247e-02
9.151686337048833830e-02
6.151409591711083646e-02
-6.610975495608091557e-02
-2.861868922222446376e-01
-4.875397505877738791e-01
-5.370245278244335507e-01
-4.106157294415264114e-01
-2.172080837269895481e-01
-8.339958444676973115e-02
-4.437308341566802150e-02
-4.981599109278545684e-02
-3.778611556021728435e-02
7.695096939961718931e-03
4.780629795697979856e-02
3.246713743734162827e-02
-3.681336452777292378e-02
-1.023701801364218511e-01
-1.158605174525521309e-01
-7.702881414953702266e-02
-7.614408737831338155e-03
6.317061436673419850e-02
8.859240606740906299e-02
4.197887649044745179e-02
-2.622857215543992343e-02
-2.608039846505872533e-02
4.539391365556686569e-02
5.764073425774873111e-02
-7.813343225710099593e-02
-1.833009267151272936e-01
3.727113890968526688e-02
5.235595815287165111e-01
8.113147430364406887e-01
5.996862372052760293e-01
9.968098379665420172e-02
-2.804659898203967217e-01
-3.527668527202081350e-01
-1.974778994632088447e-01
8.301601156799884307e-03
1.331366787430439957e-01
1.556102052901637278e-01
1.454206875918712671e-01
1.680232069060682010e-01
2.119587139188986169e-01
2.203619612665057848e-01
1.716552651261445406e-01
1.052540698444745931e-01
7.407833499277485800e-02
9.222980574295684686e-02
1.308395923622261980e-01
1.518183797722968131e-01
1.412481090273809692e-01
1.136950716821298613e-01
8.589443739479600548e-02
4.754176234803207668e-02
-3.649587201371350120e-02
-1.823327909632248556e-01
-3.348136428425784739e-01
-3.863283100872778042e-01
-2.888423741877697570e-01
-1.197096677604679582e-01
7.075085052644761868e-03
5.684585832378497017e-02
6.290980353813489800e-02
4.637737768381303832e-02
2.544108860824561159e-03
-5.551921594627820533e-02
-9.427937728215729507e-02
-9.850503894629494828e-02
-7.920730663904820834e-02
-4.889959233146359829e-02
-9.913374396411350764e-03
3.779011304747935396e-02
8.326268484748945709e-02
9.925629835556380731e-02
6.585681140728072425e-02
5.118598027092655621e-03
-3.116479798278064955e-02
-2.882282006325998305e-02
-5.754483778918557946e-02
-1.868134141156378436e-01
-2.996062063696915967e-01
-1.197667351052717072e-01
3.879880041570921700e-01
8.028575743564739797e-01
7.067698735441432234e-01
1.992036885113418476e-01
-2.855235783346194434e-01
-4.808777575207501820e-01
-4.203139236969185566e-01
-2.499332743159098646e-01
-8.510514990081746722e-02
1.404220806569929370e-02
4.359353468708870860e-02
4.517655021691074912e-02
5.230882541923251305e-02
5.491423277898653532e-02
4.604514149701700865e-02
6.336641656062896866e-02
1.344295229967446825e-01
2.242910108101516531e-01
2.834467806122105138e-01
2.996873757211092060e-01
2.738192280286616542e-01
2.013808944317372895e-01
1.010606012884355948e-01
9.510490182966633080e-03
-7.379319300500696011e-02
-1.910864967363706257e-01
-3.403612420784418169e-01
-4.246824262636565428e-01
-3.495443594467842474e-01
-1.526707466235681376e-01
2.601902260874057460e-02
9.290698920467294064e-02
6.492747177758539934e-02
3.134610957063242373e-03
-5.473606371060577708e-02
-9.381910389937107853e-02
-1.045249005833376599e-01
-8.234996113301958076e-02
-3.107898657236931456e-02
3.187114067843938719e-02
7.513088315710220177e-02
7.690704212660941230e-02
4.364340678519038064e-02
-9.796368537045838099e-03
-7.788565234122989123e-02
-1.410836365122441205e-01
-1.490827120594407085e-01
-7.347682296743614228e-02
1.912116811351326565e-03
-9.803114076743237038e-02
-4.057765934626956783e-01
-6.154384206616161368e-01
-3.647157220829499447e-01
2.213137250101789022e-01
5.819950696573841231e-01
4.072733825277212727e-01
-4.979475466478126833e-02
-3.773135876167542646e-01
-4.156306909198956290e-01
-2.531751500455193260e-01
-4.293644710867712544e-02
1.159402203008145643e-01
1.964884267922956951e-01
2.087599191358191497e-01
1.754182843912171774e-01
1.317730861724182301e-01
1.137100636685370036e-01
1.340539202217299053e-01
1.805006872319894484e-01
2.310334502020573166e-01
2.654681758089968424e-01
2.739877180407713775e-01
2.551332142478691667e-01
2.031377946777507271e-01
1.211611531052111668e-01
4.704043296720450407e-02
1.727695408284272288e-02
-3.156494138776312630e-03
-9.137138236974894079e-02
-2.380305007952974172e-01
-3.147089999382455261e-01
-2.256887554785629302e-01
-4.000368004461554022e-02
8.839352846686997223e-02
8.854730575404823334e-02
1.201366994684600203e-02
-5.433119004424739190e-02
-6.954348346586110285e-02
-5.028147173286953014e-02
-3.537661516135842676e-02
-4.920885312850532822e-02
-9.043195436912121465e-02
-1.364278364007270594e-01
-1.529573707672519656e-01
-1.237950718075150475e-01
-8.170402092360776192e-02
-8.148081042337868007e-02
-1.249867258258752362e-01
-1.372939702893232194e-01
-5.052220607313731571e-02
8.384713010644766207e-02
1.063158003954908781e-01
-5.814396513144531875e-02
-2.184903338057653521e-01
-7.422965647675874856e-02
3.594646514859087816e-01
6.727113310535430823e-01
5.480219226356082274e-01
1.268181960945270748e-01
-2.249235886764175407e-01
-3.137665143202160722e-01
-2.013331389365972390e-01
-4.771453715139896412e-02
4.515833047199842298e-02
7.472993659175049264e-02
7.304428108114119356e-02
4.529216542129461259e-02
-3.140496198644977636e-03
-1.833163357277867861e-02
5.118793259009516566e-02
1.584079999010647721e-01
1.882083654175800702e-01
1.056741645525878237e-01
1.291105237600565295e-02
1.592301750183826303e-02
8.704590224924037278e-02
1.209191339572628920e-01
8.050661822692108116e-02
1.568032932472480240e-02
-3.592367159002115423e-02
-9.806273494655312617e-02
-1.937641931001443940e-01
-2.768315127559974331e-01
-2.706120826060949280e-01
-1.700351525055886215e-01
-6.002705114319960289e-02
-2.082666196777863826e-02
-4.936713903587974100e-02
-8.614858524401429463e-02
-8.943442847365871973e-02
-6.355363453797745199e-02
-3.091691083981971955e-02
-1.626838311605911672e-03
2.347881073342833122e-02
3.568071378769161611e-02
2.184574428369358279e-02
-1.614607977297333880e-02
-5.805666437389420120e-02
-8.410123002832985140e-02
-8.874357254924199190e-02
-7.006655224098012891e-02
-1.633394911267696537e-02
6.637226871733754863e-02
1.036496939823563501e-01
-8.122130827243671108e-03
-2.324107707871284068e-01
-3.161372507814552146e-01
-5.680230287963012464e-02
3.632309352965124583e-01
5.395766354408207954e-01
3.422183548793674146e-01
1.914905674815175346e-02
-1.573560023561104693e-01
-1.430766540724278668e-01
-5.346337886541517592e-02
9.300156498942295860e-03
3.341703440284538029e-02
5.037834614535164485e-02
5.918909729468128933e-02
3.053891068147247811e-02
-2.466761348956166000e-02
-4.304248443784682715e-02
1.565992955327789871e-02
1.209474683699859332e-01
2.103032786882532701e-01
2.351170718018046057e-01
1.792720796104536884e-01
7.432246733662939420e-02
-1.966907884881215901e-02
-6.374230715529453917e-02
-5.659150587574778013e-02
-2.760582734605072225e-02
-3.690001356928870879e-02
-1.333549276733270450e-01
-2.733758184243516576e-01
-3.348355603432707217e-01
-2.613886830446703335e-01
-1.378023396903846343e-01
-7.379380478958255662e-02
-7.477006620045781315e-02
-7.363524046099702292e-02
-3.318736211143134135e-02
2.944649757544712948e-02
8.599690314326761953e-02
1.237373555661259728e-01
1.356298801617684402e-01
1.113324905864034875e-01
4.989494933996584114e-02
-2.388160395096429120e-02
-6.828075862849514177e-02
-6.429634645636944645e-02
-3.718404939503174716e-02
-1.297492074745884051e-02
2.750929000359214963e-02
1.041263432748988638e-01
1.523011316994377085e-01
4.752125655098958512e-02
-2.135881175166855217e-01
-3.744052987930766574e-01
-1.341689085797047876e-01
3.946249458301258617e-01
6.790311879124516503e-01
4.124547974109748494e-01
-9.198057704537626611e-02
-3.513217674166076443e-01
-2.714064099448978418e-01
-8.493555792520532388e-02
1.523744195813695954e-02
1.394526858580511820e-02
-1.748895869305568812e-02
-1.507992308362647062e-02
4.705225227766188234e-02
1.488009978901266017e-01
2.382661238120000746e-01
2.756321870781989203e-01
2.648167034503126072e-01
2.392088265676099723e-01
2.217642803789589556e-01
1.941303582339817535e-01
1.100043612922214920e-01
-3.413930322469875545e-02
-1.542219852415615822e-01
-1.529395089711488021e-01
-3.766399534258948328e-02
7.042432377189769555e-02
5.095857331837165549e-02
-9.214562967342931898e-02
-2.289320943354413440e-01
-2.479842212189344586e-01
-1.780876916733196702e-01
-1.243211111133122049e-01
-1.273126045099200743e-01
-1.430484942063335874e-01
-1.238967128583473853e-01
-6.505727592975740770e-02
1.120797340716385600e-02
7.357776306146379675e-02
8.521547405950297138e-02
2.846885081498158609e-02
-6.260142234758210578e-02
-1.226294905366421134e-01
-1.172423085696306516e-01
-7.133092529455747899e-02
-4.141551494768172526e-02
-6.562042027406099487e-02
-1.215212159550746740e-01
-1.376994088153419005e-01
-8.395634541152080521e-02
-5.046374497349691290e-02
-1.776424802161487571e-01
-4.348305306259634406e-01
-5.137727768746350732e-01
-1.527611151761219810e-01
4.151958035724709895e-01
6.533425595290992538e-01
3.938500220591459877e-01
-1.788598777738295564e-02
-2.255821200455229714e-01
-1.940455501506037350e-01
-7.422287920890623114e-02
2.231027756999945377e-02
7.815932878422829355e-02
1.120839411402090452e-01
1.367860834248168511e-01
1.615968645553070293e-01
1.962760979259243477e-01
2.387872254184769394e-01
2.606963333260438609e-01
2.140455706909105971e-01
8.726948134164064230e-02
-4.489398190603037520e-02
-8.412235256329297917e-02
-2.618609190273621379e-02
4.441767875703125229e-02
7.269669687759161558e-02
8.008295273969023853e-02
8.752190501963803826e-02
5.016174658436433481e-02
-8.690793603366356312e-02
-2.793880528864733370e-01
-3.867350610787907428e-01
-3.189269316289248257e-01
-1.456508556366691853e-01
-1.562280923116621256e-02
5.684144623829696583e-03
-3.090219912482947834e-02
-5.867589297613156479e-02
-6.399665700089673948e-02
-6.225755178901590248e-02
-6.259411796110485315e-02
-6.639718943627319347e-02
-6.620072349396581568e-02
-4.447086103893294756e-02
3.187603109754118345e-03
5.133327666262674921e-02
6.609504048409300947e-02
3.783673089770535347e-02
-7.594178603586305108e-03
-2.367766147492297510e-02
1.607156463591562570e-02
5.931570090138769263e-02
-2.792739129697093328e-02
-3.014040546674214283e-01
-5.347590692252457423e-01
-3.627741530476319975e-01
2.164479664164775663e-01
7.025883793504140717e-01
6.694915182961655997e-01
2.493373757263876445e-01
-1.342788732853777423e-01
-2.631933123077895287e-01
-2.034130567145336632e-01
-9.104738833902316364e-02
4.822318991629426926e-03
7.635757894954747771e-02
1.359034898347612763e-01
1.907353516529029513e-01
2.346643431078955511e-01
2.591414784009156702e-01
2.652615332669600590e-01
2.563974046466070966e-01
2.318661170033824159e-01
1.992187557373573392e-01
1.795222804606498579e-01
1.861366802350067906e-01
2.015908692935070856e-01
1.912845896153632097e-01
1.494426368179674058e-01
1.057446231786979274e-01
6.088840624344123154e-02
-4.042568156146380404e-02
-2.152758544637825566e-01
-3.628229686648173358e-01
-3.592924344250815749e-01
-2.105807835173024167e-01
-4.015263954616596354e-02
5.204271444720919015e-02
6.196646119762067029e-02
3.852263299552474707e-02
2.082107400036199013e-02
1.547628021886265220e-02
6.046561293298627349e-03
-2.270912827623638303e-02
-6.164567769660345836e-02
-8.084225373450504293e-02
-6.440102885988929771e-02
-3.329154399728681546e-02
-1.870202230645089808e-02
-2.410935668357757494e-02
-3.727312599427761580e-02
-5.832703602928597519e-02
-7.884792345625664389e-02
-7.489251373292762914e-02
-7.846551971511682433e-02
-1.855161432017303214e-01
-3.794521674198014782e-01
-4.127486266070540255e-01
-7.108500419703200901e-02
4.500834532992632475e-01
6.905877644372286905e-01
4.687319782104164556e-01
4.086837910936574891e-02
-2.552340269723860078e-01
-3.034779770794397979e-01
-1.894070240295535057e-01
-4.647442680769114931e-02
4.547073538461623987e-02
7.987430905322936980e-02
9.277690108571039207e-02
1.135138214661511047e-01
1.351714668601368408e-01
1.331847597855220777e-01
1.038121096011815764e-01
7.006469627311520676e-02
5.659231405634743833e-02
7.093158132587061571e-02
1.018088352427161114e-01
1.282163416490823271e-01
1.381019512332263277e-01
1.410729054491988987e-01
1.511440270176907796e-01
1.475546898259202933e-01
6.180345153869389735e-02
-1.593220415168938031e-01
-4.441874799796861617e-01
-5.958350524701371276e-01
-4.823100327115187325e-01
-1.961033829370374959e-01
5.148259984302784587e-02
1.476213210614674420e-01
1.259699523951808842e-01
5.859311913305455255e-02
-2.242748609938775839e-02
-1.107736239737208001e-01
-1.887615680223890258e-01
-2.277908175419986470e-01
-2.117418178444369359e-01
-1.424043193560869947e-01
-2.938382355006799104e-02
1.049782331993759921e-01
2.101918854529916392e-01
2.227179100236356402e-01
1.247781815437633973e-01
-1.222052557964152519e-02
-8.067298218374056862e-02
-6.350074871324092041e-02
-7.262886828694470331e-02
-1.861766034630141786e-01
-2.636680074913270722e-01
-7.571024162265761748e-02
3.288642959275312472e-01
5.830763222409663937e-01
4.374082819679755429e-01
4.802647206291614512e-02
-2.562005588945553414e-01
-3.188747018398468969e-01
-2.076047426101433058e-01
-6.169780460989418569e-02
3.682823880377473352e-02
8.674247071768717565e-02
1.159327315248992046e-01
1.319280564859638127e-01
1.235202723560789029e-01
8.642568148531151739e-02
3.339707518101709544e-02
-8.327443751106375358e-03
-9.440663209959270635e-03
3.507611714691722532e-02
9.353373708565930478e-02
1.229470589609472087e-01
1.070579645041300487e-01
6.345395029967373923e-02
1.824668704567483993e-02
-1.738647845584748858e-02
-6.380462362009681199e-02
-1.692293037064121763e-01
-3.367193260130906807e-01
-4.579044642173016877e-01
-4.096178396579236436e-01
-2.182926310171306450e-01
-3.657829382666503981e-02
3.487759715646775865e-02
2.153712698815708065e-02
-1.054448243323924915e-02
-3.677789437476473855e-02
-6.230898909353885934e-02
-7.938935303110850050e-02
-7.056803700528367640e-02
-3.689148658805445347e-02
1.501429399872431479e-02
9.929627032963130040e-02
2.075205073632775954e-01
2.623544851797215416e-01
2.007172157421269199e-01
7.885831346106822459e-02
1.360770832785183904e-02
5.362127070996029754e-02
1.472192155191286989e-01
1.754843060262784027e-01
2.170232157030258652e-02
-2.723706549812671129e-01
-4.154893698495420451e-01
-1.380867462961525294e-01
3.800485199277772730e-01
6.239294909550089363e-01
3.724554807021804859e-01
-7.229828752814405901e-02
-3.194245925282663823e-01
-2.824695115111084398e-01
-1.204706029562815917e-01
1.231471550012221486e-02
8.470557441499537710e-02
1.285729743758041443e-01
1.526076746249939997e-01
1.442612044396542059e-01
1.122728177318878390e-01
8.965448132182353425e-02
1.022545679896423032e-01
1.446701159146411286e-01
1.870416254508761034e-01
2.052004257059972525e-01
1.933141037360076309e-01
1.448531443948090636e-01
5.001472527814862512e-02
-7.597185599620451257e-02
-1.909282032910401272e-01
-2.615151476521103691e-01
-2.875193134604846490e-01
-2.959566231720919260e-01
-3.069905008635392396e-01
-3.009671467940286949e-01
-2.472179689247850920e-01
-1.618840887455303135e-01
-9.764546685345312782e-02
-8.563812216163062263e-02
-1.140194481671101961e-01
-1.435611986213038704e-01
-1.317401194870540249e-01
-6.595077797419891807e-02
1.971110579576074162e-02
6.959073469691420821e-02
4.341916438624804364e-02
-5.804097360605149636e-02
-1.763239019635665927e-01
-2.286716181817408100e-01
-1.953402517170136077e-01
-1.389954169276512996e-01
-1.076404729881144939e-01
-7.048746057974257517e-02
1.475733113646766903e-02
1.060316966943248146e-01
8.442663781575818205e-02
-1.044494717113162718e-01
-2.893426657893982679e-01
-1.686160993270517383e-01
2.842241091964188282e-01
6.567632559871856568e-01
5.682599456218437872e-01
1.419471257823529120e-01
-2.062588828159136189e-01
-2.616176422847272254e-01
-1.176166138115351950e-01
4.701335289790697924e-02
1.405374814226023616e-01
1.646507439524002026e-01
1.538940375055008192e-01
1.347443936238254814e-01
1.215564364098250527e-01
1.291213981192370075e-01
1.696136023105668245e-01
2.306116104277717294e-01
2.731953779204088772e-01
2.653332338528922585e-01
2.083269133747111812e-01
1.285164947066586849e-01
5.811922431429936142e-02
1.772528639827181812e-02
1.429769918748972739e-03
-1.146290707640658726e-02
-3.978446380695332962e-02
-1.118935202761962705e-01
-2.409723870969885662e-01
-3.584136199982091431e-01
-3.523649974969884080e-01
-2.131206110045423818e-01
-6.254966678700724092e-02
-8.154144428247050991e-03
-3.189685803442288137e-02
-4.380853008221398392e-02
-1.720728890455813613e-03
4.846464144777873351e-02
4.466297905615967956e-02
-7.583660534625173005e-03
-4.874706495629661102e-02
-4.768072187594651207e-02
-3.564269240000616373e-02
-5.639199392265605015e-02
-1.088629816906063197e-01
-1.523763514017448806e-01
-1.561527761271721271e-01
-1.223091439491268417e-01
-5.973508682942277326e-02
2.373565487160968213e-02
6.774752627847657749e-02
-4.892808594842564668e-02
-3.418008436174380660e-01
-5.510470870834359713e-01
-3.603271827303144437e-01
1.387666220579765741e-01
4.785966430140002337e-01
3.976411382866736899e-01
9.824160212070466580e-02
-1.052700415459377342e-01
-1.192594930764398486e-01
-3.754420918291367232e-02
3.146594145085786914e-02
5.615236178376804832e-02
6.628627749556045834e-02
9.508768853986795944e-02
1.471313283437668817e-01
2.042666207001676837e-01
2.480068191931407151e-01
2.778623612761863537e-01
3.027730308271426307e-01
3.149875764135491307e-01
2.936683607267284168e-01
2.404965349560163612e-01
1.846493432017933534e-01
1.447037623308065624e-01
1.174051110034081968e-01
1.037165270229016001e-01
1.023244005876121770e-01
7.936715138550053117e-02
-5.270656609228222857e-03
-1.296973356987048964e-01
-2.082206610900736443e-01
-1.847536382450395975e-01
-1.001080890893791264e-01
-3.571621768329659441e-02
-1.991938431558689521e-02
-2.170107054951325720e-02
-6.906533756254823811e-03
3.098946236730350245e-02
7.581191386054333958e-02
1.002106726511083484e-01
8.121643935782338342e-02
1.989431059552971420e-02
-5.223239788144096868e-02
-9.276025777198208810e-02
-8.321582215383079018e-02
-4.594028683377723160e-02
-2.119099846978353408e-02
-2.803381007354686233e-02
-4.534885036892645493e-02
-2.697088354481248784e-02
3.703041415122142188e-02
5.463816952439363994e-02
-1.001078919798441130e-01
-3.672328495574972984e-01
-4.368021472171730313e-01
-9.969352900806355278e-02
3.922092826944579280e-01
5.784640575051819278e-01
3.505068602788771193e-01
1.400031689456647521e-03
-1.886412717538526462e-01
-1.880776889433036780e-01
-1.143272016934988589e-01
-6.512485643624507659e-02
-5.360148691085709488e-02
-4.371352096902714202e-02
-8.143373729590189236e-03
4.940476211293850367e-02
1.054694626038061300e-01
1.398687431489043786e-01
1.517984073494219599e-01
1.499329425416381645e-01
1.301818639112498621e-01
8.289449758981326521e-02
2.303937956711842733e-02
-1.182276948670927044e-02
-8.468023889794430714e-04
4.020580129583360002e-02
7.681364020339739862e-02
7.186371222493787014e-02
-1.186478505200700556e-02
-1.861505588356940633e-01
-3.886757659726067793e-01
-4.968162850428705646e-01
-4.405966442551429996e-01
-2.788924017049060344e-01
-1.276717968987732266e-01
-4.804531864960893961e-02
-2.726231350059073189e-02
-2.723069498307477410e-02
-2.609969007914345052e-02
-2.637164943957220897e-02
-3.624789393604663235e-02
-5.404746587164736132e-02
-7.294523436901365065e-02
-8.685556613775899382e-02
-8.763384414979630277e-02
-6.763773254734356533e-02
-2.797459844541580129e-02
1.850937247419006532e-02
5.497469314389390183e-02
7.856213141987217208e-02
1.008098020837765035e-01
1.016709087304770442e-01
-5.341308493705138744e-04
-2.418847581331740326e-01
-4.379945038227787135e-01
-2.822340367578435871e-01
2.242537534766878282e-01
6.319614472819558015e-01
5.597255452146358001e-01
1.530287757834817020e-01
-1.771924263470152916e-01
-2.533588342671322380e-01
-1.898342052780562228e-01
-1.232163196049327336e-01
-5.546513322784196731e-02
6.532196124920588987e-02
2.106511294742266782e-01
2.805295807669742625e-01
2.351713054383358370e-01
1.506082655696285855e-01
1.172026158835830917e-01
1.375447425073173524e-01
1.486411876056720205e-01
1.011619427161161988e-01
1.087664760703409804e-02
-4.698183139506131867e-02
-1.883239763085000143e-02
5.367357292407389652e-02
8.103749015759771634e-02
2.128467516371161314e-02
-1.085525841024459620e-01
-2.690690817184772654e-01
-4.024185890112384478e-01
-4.391831530105466119e-01
-3.550514322444982551e-01
-2.099145350888868833e-01
-9.167406770795713533e-02
-3.145001494367190981e-02
-4.864222634583652630e-03
7.648714981928842090e-03
1.255317868963423504e-03
-2.820715347579474258e-02
-6.541079618035822163e-02
-7.529453577580261237e-02
-2.759515446431275512e-02
5.896939517651101498e-02
1.219829342060859412e-01
1.311309821419398836e-01
1.167902351959741319e-01
1.042776020083088784e-01
7.896273792772230682e-02
2.905352934964017947e-02
-2.411324700177279109e-02
-4.961801651900306365e-02
-7.254466476708798517e-02
-2.046428871916217418e-01
-4.811278799759368119e-01
-6.423477392457321855e-01
-3.497511312747726420e-01
2.732187226130491919e-01
6.632620318403626980e-01
5.075884938936856550e-01
6.750968727124674607e-02
-2.436485758740822849e-01
-2.857167834482076674e-01
-1.617551238029959759e-01
-5.061785265970085435e-03
1.160140908299427259e-01
1.770513253762327766e-01
1.819449371964782236e-01
1.845037514026729997e-01
2.635317830967892072e-01
4.198215784987228694e-01
5.321220388970147042e-01
4.844001640721208868e-01
3.152713103623018265e-01
1.709497577276209990e-01
1.322604471375850577e-01
1.585084891578909805e-01
1.788570003097668393e-01
1.691760597133194766e-01
1.429203291368643380e-01
1.048928598568441700e-01
1.990465723851563701e-02
-1.532951418708925484e-01
-3.683537842780398863e-01
-4.825765697422420009e-01
-4.074964325803731025e-01
-2.194556584710199709e-01
-5.944155019951520569e-02
1.852174691852855049e-02
4.406657939379898109e-02
4.103296295772344837e-02
8.285434999179197221e-03
-4.397554108506665504e-02
-8.783861350993160677e-02
-9.948524994893769013e-02
-7.355078129422742972e-02
-2.373627114845247577e-02
3.108972689313450888e-02
7.943606120758604783e-02
1.052122286054436584e-01
8.099745365922021711e-02
3.332633682099549362e-03
-7.621030764779439248e-02
-9.155057970759011843e-02
-4.763472855000207978e-02
-4.830681397955245704e-02
-1.926069914531636784e-01
-3.983443701482470289e-01
-3.918028361886597422e-01
-2.325148677099334038e-02
4.465047531608209441e-01
5.960248602676839758e-01
3.479041502258788388e-01
4.341997123026436478e-03
-1.543208284074921166e-01
-1.195088339089578622e-01
-5.905099817683384655e-02
-9.231459965686186764e-02
-1.686870645050400630e-01
-1.529496733621945326e-01
-5.460486971961782399e-03
1.661948616616122920e-01
2.343115323566759556e-01
1.867720853738281672e-01
1.159610873465753700e-01
9.789679661039812908e-02
1.213938883901591603e-01
1.401211481612391618e-01
1.480096572390579290e-01
1.660829076947598903e-01
1.851835728887830657e-01
1.702212643995439645e-01
1.087302781221118203e-01
1.681874938369114572e-02
-9.533352676857501096e-02
-2.272150529997171153e-01
-3.463039905654408113e-01
-3.809981797270429738e-01
-3.031684716206926034e-01
-1.873007256681577248e-01
-1.214739431229488048e-01
-9.824024497671506040e-02
-6.247527829384918324e-02
-1.400292459722670205e-02
5.739587374232970121e-03
-1.303319129479885326e-02
-3.714047885778247460e-02
-3.064867627089858798e-02
1.252057686441360347e-02
6.227329406199019063e-02
7.923924517338112872e-02
5.756565132734542400e-02
2.137316472465743133e-02
-2.187298192346532472e-02
-7.755249911419394293e-02
-1.134217575630404456e-01
-7.624510328935095449e-02
1.290123632010279492e-02
2.343899206516803987e-02
-1.364201829662163301e-01
-3.132630622302431944e-01
-2.049747942178708759e-01
2.178087429518985874e-01
5.699165417470776207e-01
5.032594140383853665e-01
1.210538131758846780e-01
-2.074589807780417017e-01
-2.735688810867000775e-01
-1.518489166036484928e-01
-1.854078662762820295e-02
4.013926809528176737e-02
5.125824745128403775e-02
5.921675255250417186e-02
6.304189537671363308e-02
4.209805536699250117e-02
5.841699827883025699e-03
-1.303777452841152918e-03
5.284149968902166622e-02
1.414185110432007730e-01
1.960629117667840593e-01
1.830798236965889003e-01
1.402469104819237256e-01
1.148131474045162997e-01
9.737042360090476800e-02
5.341830546885869418e-02
-1.473340673465112043e-02
-8.330226470911050729e-02
-1.605047546209690534e-01
-2.676749450780350759e-01
-3.604286422900326858e-01
-3.392314761605246809e-01
-1.840469680144123932e-01
-1.251923818485013717e-02
5.041029796307950478e-02
3.734005929120898584e-03
-6.711582565229405606e-02
-9.629025193284401762e-02
-6.801635088651580840e-02
2.868811636660634559e-04
6.305442185118935450e-02
7.319093575479256042e-02
3.068740440347748552e-02
-1.881593722536352431e-02
-3.891083823335531044e-02
-3.498704828455008464e-02
-3.520849024345149014e-02
-5.415190770731556635e-02
-6.870275680888875136e-02
-2.766966784309418323e-02
8.511431010112915918e-02
1.758719343834841409e-01
7.847750967148661716e-02
-2.247607406412565900e-01
-4.296368169778682633e-01
-1.885527274923128327e-01
3.606979998360524964e-01
6.604720166825753802e-01
4.352445742305660614e-01
-1.245580692481498830e-02
-2.666756788790146104e-01
-2.343967805333964649e-01
-8.004380989738159313e-02
3.248026923038156710e-02
5.804816608652754728e-02
3.201217842535721003e-02
-5.161010517365190349e-03
-3.103819818243282527e-02
-2.758462276957202378e-02
6.258104991916790469e-03
3.189855220972985517e-02
1.301802959793564238e-02
-1.252073942054367922e-02
2.829220791925969938e-02
1.194040282218085114e-01
1.533228408179178603e-01
6.978255704599815867e-02
-6.730486838505374270e-02
-1.439137911853546337e-01
-1.206130312021453932e-01
-7.391572551772768174e-02
-1.014858313375639337e-01
-1.913454126721919335e-01
-2.307909835517509833e-01
-1.577917756889214429e-01
-4.173036726239820471e-02
1.316645116184232168e-02
-1.542798340121026568e-02
-7.141433213010350833e-02
-9.074993761841740336e-02
-5.175376799131251038e-02
1.816310096447002267e-02
7.443909422670118292e-02
9.140354902193603692e-02
7.087213759799323998e-02
3.353443856541424295e-02
3.313589439254098837e-03
-1.209828907444499176e-02
-2.313585353673345418e-02
-4.064498325950469809e-02
-6.087540424117018900e-02
-5.933276185172471628e-02
-6.973436838334182847e-03
7.193561311270701975e-02
6.423874776307988976e-02
-1.182614933929917317e-01
-3.301917673868055014e-01
-2.408078074049753436e-01
2.323611405977887567e-01
6.920756416093525321e-01
7.089317686046353595e-01
3.360004868910280718e-01
-4.577416563168067859e-02
-1.970154377792892875e-01
-1.482507860712853343e-01
-3.124943036456881776e-02
5.868273746662419632e-02
9.302198869209030163e-02
9.349996089303921898e-02
1.019051599441510442e-01
1.466439655991798319e-01
2.205588553977519128e-01
2.901801381703254523e-01
3.293191372725661203e-01
3.355363651009397041e-01
3.129110791854312623e-01
2.584488173208189798e-01
1.775285684603566949e-01
9.661227006108442927e-02
4.876688023495027308e-02
5.127410918979975751e-02
8.241126297859943661e-02
6.891817774639893979e-02
-6.039852236108449179e-02
-2.742552630975430561e-01
-4.352569710057119790e-01
-4.387151815255368459e-01
-3.225650627774007129e-01
-2.063386344997973076e-01
-1.566171411140229730e-01
-1.496787001230267533e-01
-1.372746533047793094e-01
-1.023342476203704804e-01
-5.359158315267720241e-02
-4.359616641476717416e-03
2.911095677373909743e-02
3.113591812028222022e-02
6.368511602105522001e-04
-4.906506306968053122e-02
-1.008276604372356777e-01
-1.338570295865512405e-01
-1.290369327829374579e-01
-8.869700133070487769e-02
-3.522019216565682592e-02
1.552808889581193917e-02
5.254090792097734774e-02
3.270839428574304208e-02
-1.140511755469919147e-01
-3.727831769928224293e-01
-5.291906950165566892e-01
-3.207916458446537500e-01
1.907358904614169237e-01
5.841867463477267153e-01
5.538664732923265221e-01
2.321328304554723110e-01
-5.042799211908322032e-02
-1.343902339471786667e-01
-8.815357001223660116e-02
-3.819487635693351313e-02
-3.499646784815251682e-02
-4.506079674455896328e-02
-1.413006926691979387e-02
6.989037609162064568e-02
1.642819201844308852e-01
2.198853169731102009e-01
2.322910190397692309e-01
2.273161760336590287e-01
2.097699282249348429e-01
1.622496134310566496e-01
8.933942898818234002e-02
2.707277799560565273e-02
4.826973407455837327e-03
1.946278708607047242e-02
4.960193337514347961e-02
7.242625661373565393e-02
5.215559218555183146e-02
-5.272810440350087641e-02
-2.209148148002661460e-01
-3.362488080149819702e-01
-2.992381217469458621e-01
-1.570459317670027943e-01
-5.142409488684584334e-02
-4.806248195735671191e-02
-8.292743991109592649e-02
-7.509582767047359719e-02
-2.826004190585933856e-02
5.641279839239412251e-04
-1.421528580811148856e-02
-4.744723240260331765e-02
-7.022461242928333680e-02
-8.242258260741809617e-02
-8.825101769847949751e-02
-7.080593203105979561e-02
-2.470587536495803122e-02
4.413754196804596693e-03
-4.292173924128101642e-02
-1.482054576622773012e-01
-1.971027308402198697e-01
-1.153110906169400596e-01
-1.343171600267439002e-02
-9.353490042915928171e-02
-3.421819361362308798e-01
-4.180261348177424785e-01
-4.554046804929456210e-02
5.259917241382817688e-01
7.519798036060693081e-01
4.623096652043942600e-01
-6.662165211317738756e-04
-2.637505433981830461e-01
-2.691843392353290287e-01
-1.767351869250564089e-01
-1.259604921537615385e-01
-1.247888478785074695e-01
-9.218750109004111848e-02
2.055328822175078382e-02
1.614094118218968033e-01
2.432136042212129923e-01
2.429486882999871700e-01
1.982322138064926964e-01
1.395950263511785694e-01
7.867653030499620337e-02
4.706784826961332019e-02
8.696142205016826887e-02
1.824169919575215348e-01
2.447153993188949661e-01
2.137452450269924642e-01
1.391666172339412477e-01
9.568503384995852290e-02
5.064765160861280785e-02
-9.395484652299020134e-02
-3.237922328021132223e-01
-4.711835955324127911e-01
-4.074400370613896483e-01
-2.043625452604041492e-01
-3.509597133725698287e-02
2.331890005361888368e-02
2.187813350746572669e-02
2.508150848312796707e-02
3.079042191199012068e-02
-3.173179669289314005e-03
-8.629149636393762535e-02
-1.666584404473786529e-01
-1.794589192609326589e-01
-1.113499120221351502e-01
-3.868850976929599783e-03
8.962391521926420246e-02
1.353222198934288245e-01
1.293589432384360249e-01
9.518836528998095292e-02
6.382197360770164307e-02
5.441589656323167490e-02
5.931662722450883191e-02
1.541108322624373805e-02
-1.592728654280007317e-01
-3.877087789179057831e-01
-3.688498767126242028e-01
6.877898844739584183e-02
6.015080733152825543e-01
7.184083738637894179e-01
3.485595690969454652e-01
-1.185339723430276077e-01
-3.386091462067193358e-01
-2.863804803018609180e-01
-1.265763593252250407e-01
-7.421974469942856784e-03
3.177740582434726568e-02
4.345217880748139527e-02
9.417568687237047598e-02
1.844977855707204406e-01
2.405714341457625138e-01
2.004265465817065550e-01
9.628138541202889422e-02
2.265280303560240904e-02
3.477717973730389683e-02
1.078058036485058380e-01
1.803023459719355903e-01
2.100636692349399648e-01
1.984380985076807935e-01
1.758683787474535631e-01
1.563671318631687512e-01
1.030279940894820306e-01
-3.953222854871820541e-02
-2.562607706074221947e-01
-4.280576723237630721e-01
-4.329615865720555790e-01
-2.755712287800725080e-01
-7.670757488315436967e-02
5.340674544020940218e-02
9.064896226453378336e-02
6.552430369333162030e-02
1.170099315807272312e-02
-4.837669634654913342e-02
-9.714950203184227751e-02
-1.156887937091224672e-01
-9.293905474096723907e-02
-4.543937085763690570e-02
-7.874003988028413503e-03
2.723715899051599477e-03
-5.045703414996331043e-03
-2.107930938121908501e-02
-4.778613662016448910e-02
-8.872415060083695126e-02
-1.261886046946310291e-01
-1.251546435202077479e-01
-9.687678648847408702e-02
-1.434424883210643764e-01
-3.239677625506057201e-01
-4.420912250099768848e-01
-1.850540335873209485e-01
3.856925353038357929e-01
7.613741253800597741e-01
5.999740109399144261e-01
1.319784723865285447e-01
-1.976321281777904393e-01
-2.249237204592119399e-01
-9.335508972245426529e-02
1.694363065294736750e-02
6.163450706735749268e-02
9.053401364754046221e-02
1.316173408616999885e-01
1.619968995936564571e-01
1.626375651646896348e-01
1.462038946955438456e-01
1.271925863183864247e-01
1.063394871851131296e-01
9.671121839902856177e-02
1.273103901130830107e-01
1.996598796826157263e-01
2.642408884704391947e-01
2.601120498940143744e-01
1.760265843046461554e-01
6.510525238650638480e-02
-1.391188923193016624e-02
-7.387916330981032786e-02
-1.854281838811119576e-01
-3.566321087543075641e-01
-4.704905848156470394e-01
-4.080144201262977388e-01
-2.056247048027391722e-01
-2.162261575257817120e-02
3.432025138131397646e-02
-1.632374789862370973e-02
-8.892859116234036465e-02
-1.327485695842910429e-01
-1.499429701040408958e-01
-1.505441966281174659e-01
-1.261159142721438864e-01
-7.293459194544572866e-02
-1.574810086878487836e-02
7.763443505522217916e-03
-1.544216921370498638e-02
-5.852869785247061946e-02
-8.882514690538396984e-02
-1.102984861488472551e-01
-1.366338976962101770e-01
-1.232875461972702258e-01
-2.939329681353232155e-03
1.630932706710976898e-01
1.678743265652806738e-01
-6.553247154415188513e-02
-2.627535487597158492e-01
-8.955638887865641218e-02
3.512866974922069785e-01
5.998786673274113523e-01
4.151082885394900557e-01
1.626940015722597166e-03
-3.003559991482469549e-01
-3.328144469154728502e-01
-1.690386742186012481e-01
1.114235729126587457e-02
8.258661688633694986e-02
5.280119039661435726e-02
9.381906131848501487e-03
1.467942542473666366e-02
6.203623621114875281e-02
1.178796214233955447e-01
1.673792589511053641e-01
2.078816414525171130e-01
2.345802263316878744e-01
2.495516817464275561e-01
2.579744782017348026e-01
2.483376192835687613e-01
2.047285169288639572e-01
1.434651506745111271e-01
1.010792702493346074e-01
7.275138834508732000e-02
-5.706928379481361266e-03
-1.901339865957767661e-01
-4.349744563804229247e-01
-5.872606226134445828e-01
-5.281236086649075956e-01
-3.177488347475134756e-01
-1.344762532292245183e-01
-8.429573879323472296e-02
-1.337489835140752148e-01
-1.932740386245078434e-01
-1.976697166176456244e-01
-1.343918280444899305e-01
-4.376320489446072770e-02
1.926145488813533341e-02
3.455090181023300067e-02
1.683008978350267193e-02
-2.101474100210332790e-02
-8.143913035586632099e-02
-1.621588479263546823e-01
-2.352532227493224215e-01
-2.460450933848608301e-01
-1.395743213400933436e-01
7.778035137048372460e-02
2.822597127713198373e-01
2.880280729841704912e-01
4.271974160925547798e-02
-2.242592109762216734e-01
-1.639502122118784433e-01
2.800651792107086702e-01
7.280236253488482356e-01
7.844227510181244201e-01
4.803941330718247693e-01
1.433011538649135441e-01
-1.269877891835945877e-02
-1.396761306752823499e-02
1.344480657142057764e-02
-1.929021630592939879e-02
-1.071726846330189192e-01
-1.681979785341674027e-01
-1.319341270368539487e-01
-1.117259490143467787e-02
1.202147527774206498e-01
1.922250090428429259e-01
1.868678988220731363e-01
1.495014014069707409e-01
1.376648242992151161e-01
1.510445067764216442e-01
1.374168415715118496e-01
6.901685882942676376e-02
-1.394185383087408713e-02
-4.637580284464754010e-02
-1.258948351500481684e-02
2.804008990650997540e-02
-1.331948971243355866e-02
-1.647096611538608202e-01
-3.335924614134833655e-01
-3.774077483497886298e-01
-2.657512504311884682e-01
-1.213432611023504415e-01
-6.664445204253895139e-02
-9.138972390945047930e-02
-1.050770428274018647e-01
-6.421255228710998075e-02
-7.814597069847885671e-03
1.156135695047776080e-02
-5.367000011426087749e-03
-2.477793849439755003e-02
-4.191014030525080925e-02
-7.752951987209416584e-02
-1.174089363368985839e-01
-1.141905256166365762e-01
-6.958065493039693183e-02
-5.394226123661862576e-02
-9.725623999258685426e-02
-1.167772542526082646e-01
-3.043929783055029925e-02
8.583186138401617538e-02
4.439295183164780612e-02
-2.021709173415688621e-01
-3.945380875707812374e-01
-2.034302540872430787e-01
2.995337442327252742e-01
6.296549008932184055e-01
4.787309261213302802e-01
6.608132962425158907e-02
-2.107774351262868273e-01
-2.214346063310665136e-01
-1.038900656827841384e-01
-1.587778576864096527e-02
6.645997930489675604e-03
1.324091267218313606e-02
4.418081393045494160e-02
9.361831511746876444e-02
1.409556449618697693e-01
1.806480967197015008e-01
2.165010244626281444e-01
2.449802992254903611e-01
2.481580328426002680e-01
2.076125509020222970e-01
1.328702932443229512e-01
6.207960291092882305e-02
2.578945607774357773e-02
2.155545705715609245e-02
2.326624940347454124e-02
4.222666590325783835e-03
-5.273633681434726495e-02
-1.556079183097986429e-01
-2.816797904006145270e-01
-3.598321961149056891e-01
-3.287355373480966292e-01
-2.165732569063786306e-01
-1.135556855773629387e-01
-6.706646878061103823e-02
-4.342503773636262332e-02
5.826649739148315188e-03
7.340123889249583478e-02
1.116802151209199956e-01
9.901909244581265368e-02
6.028983297352988324e-02
2.624776386172150699e-02
1.200173692877324000e-03
-2.237289219796651657e-02
-3.931049270573457044e-02
-4.005190150186777737e-02
-3.199319259414433458e-02
-2.646808632669700109e-02
-6.659193093581279761e-03
5.761876141755361419e-02
1.429433390201867715e-01
1.351859715792362859e-01
-8.130520342786765053e-02
-4.146285185335314982e-01
-5.032646757323816500e-01
-9.542803396642567104e-02
5.118138887021811412e-01
7.392095070824346026e-01
4.363098572828191246e-01
-1.095005952277167127e-02
-2.280437246897638326e-01
-1.926054075915905051e-01
-7.988559056290903126e-02
-1.348311204533384801e-02
-1.044080527145318030e-03
-1.288362772467175656e-04
1.604043237757535323e-02
4.176657970054075547e-02
6.388726147228333818e-02
9.202555028706008167e-02
1.422822769086329042e-01
1.895464924316444533e-01
1.731250294990777372e-01
7.110295378153239088e-02
-5.374479245668926236e-02
-1.078542984207727928e-01
-6.139129619524376358e-02
3.102276726773062904e-02
9.946343498466680977e-02
1.129989548310076919e-01
6.095067758508240785e-02
-5.887351943511905800e-02
-1.988194207493358123e-01
-2.665980813698017315e-01
-2.202516594277082462e-01
-1.141229899577846096e-01
-2.051053168702588955e-02
4.179973210904622261e-02
8.415960176398505632e-02
1.100848040498000890e-01
1.175705693702153443e-01
1.063800382181308291e-01
7.687311223023081397e-02
3.485783662657729320e-02
-6.775654571631384467e-03
-3.698933412262433301e-02
-4.733210075479569318e-02
-2.397532926062613534e-02
3.510368500035868783e-02
8.291342519890994300e-02
3.975818906991798740e-02
-1.086102129718195669e-01
-2.545591898691930699e-01
-2.926924482737192079e-01
-2.886332927214886879e-01
-3.820722578989426688e-01
-4.961972660860159423e-01
-3.532198961698624351e-01
1.059598432324101169e-01
5.321922592658452356e-01
5.675633614169497410e-01
2.541043842214009696e-01
-9.347283556722135733e-02
-2.482960364657718078e-01
-1.988031216337817209e-01
-5.708408203139739290e-02
6.131858137574643097e-02
1.151981379759797475e-01
1.480109155228748752e-01
2.193343238918594729e-01
3.197575810195508184e-01
3.720466593950884637e-01
3.245138547693281472e-01
2.153981285047735506e-01
1.298205427758057362e-01
1.141977733388417904e-01
1.424837085847088791e-01
1.540719339658293829e-01
1.191386407249896418e-01
6.483504915719462414e-02
3.623581540895862846e-02
3.765013228676578061e-02
1.557883303008860722e-02
-9.206510236671595904e-02
-2.703706082925849130e-01
-4.038415508839911516e-01
-3.831146014119384269e-01
-2.293232154284460811e-01
-6.550116470736014329e-02
2.054070059803028703e-02
3.650639148260158978e-02
3.013472545043254652e-02
2.670499553879733534e-02
2.148454010251860460e-02
1.538038415896940403e-03
-3.482674785828851483e-02
-7.066998450510629526e-02
-8.179063527875869710e-02
-6.132816082256663248e-02
-2.874785559791903644e-02
-9.884620251496499185e-03
-1.394003396303202316e-02
-3.087209386374133516e-02
-4.274311324001348056e-02
-3.402432952288833579e-02
-3.154500187387886644e-03
7.620793648953283310e-03
-9.156517571186384430e-02
-3.101717363837290797e-01
-4.284817535295151192e-01
-1.813696661875314753e-01
3.223285299743360310e-01
6.228807884252823834e-01
4.613070621272092331e-01
5.459869625556933170e-02
-2.386508422571427535e-01
-2.897103242523595412e-01
-1.921542420958414488e-01
-6.688316209476971586e-02
3.726313926285405170e-02
1.178658139931742788e-01
1.755901913133074144e-01
2.065655050402378790e-01
2.079328602491087585e-01
1.785545171897589267e-01
1.241234234414458765e-01
6.445684437362905750e-02
2.683095479074701709e-02
2.847633776544175946e-02
6.712201648223978245e-02
1.234258099329193226e-01
1.680744844393769200e-01
1.737890563474144556e-01
1.304205246356416326e-01
4.682377927936816342e-02
-7.281621830728525480e-02
-2.403913942644020363e-01
-4.324843238894842679e-01
-5.487355228816382935e-01
-4.987791797989130083e-01
-3.174942139279705589e-01
-1.137570866632856004e-01
5.387627362367435752e-02
1.654908887437318010e-01
1.813337410752388912e-01
9.226161903413898635e-02
-3.242305788902412333e-02
-1.081530462611437482e-01
-1.087200232885758705e-01
-6.644135306160967036e-02
-2.984322616295013650e-02
-1.855476475522525523e-02
-1.139003293993016280e-02
1.003814339004768103e-02
2.088431605286482709e-02
-1.301703310223739640e-02
-7.093130505521864915e-02
-8.496993713446109042e-02
-3.099730079244437941e-02
1.468694853125638699e-03
-1.193152946738196690e-01
-3.565934931841004407e-01
-4.098545519511637147e-01
-3.936913642884383446e-02
4.984188100439579938e-01
6.609383764333839339e-01
3.087413617502543506e-01
-1.596295140314136496e-01
-3.545127471532661945e-01
-2.581346089580759950e-01
-6.754157777241984184e-02
6.967735389221393905e-02
1.232952184997075373e-01
1.210208470048255436e-01
1.007174489424921549e-01
9.376653961712889951e-02
1.108355333430715711e-01
1.382527509078109174e-01
1.565023425045131422e-01
1.629508555358553379e-01
1.746851574094802073e-01
2.060832376547821199e-01
2.411471306325873309e-01
2.345254657217059058e-01
1.580019536491396592e-01
4.829532930274388347e-02
-2.376660135231802376e-02
-4.686769023303307552e-02
-9.204053409467546909e-02
-2.107499353149133170e-01
-3.420864922333685110e-01
-3.671482877166185599e-01
-2.487051835890874141e-01
-7.781887630886463736e-02
2.187078375297062810e-02
8.034528623205080405e-03
-6.643328044867245763e-02
-1.267338147083489075e-01
-1.371806730551350384e-01
-9.457215779631154839e-02
-1.144177117938989865e-03
1.241173861696403952e-01
2.197953506664455658e-01
2.147582009524279800e-01
1.122982206487394968e-01
7.438966295605954626e-04
-5.458446915948599043e-02
-8.118367644904024572e-02
-1.184979737805257893e-01
-1.206941351691351999e-01
-1.766004028640692780e-02
1.253449260020304545e-01
1.014544006696956741e-01
-1.686974880526947163e-01
-3.961059638067119248e-01
-1.850650141044561381e-01
3.856902324427224915e-01
7.388267113468022229e-01
5.024581172204735102e-01
-6.420215202383966480e-02
-4.695707039622769030e-01
-5.175157907470337992e-01
-3.378984946908107911e-01
-1.277670661057573875e-01
1.002122138537640469e-02
6.691147845543493622e-02
7.583065250365560173e-02
7.322605667546032426e-02
8.406059088760599318e-02
1.201286748297681339e-01
1.783637842081152169e-01
2.391192571602955008e-01
2.766210749306913796e-01
2.780520419028120749e-01
2.521086401703978019e-01
2.186585382746996931e-01
1.924275692051448383e-01
1.748692307351923658e-01
1.549115776675538680e-01
1.152916050910149232e-01
3.818970191654130764e-02
-8.505696568193350793e-02
-2.221678730110311639e-01
-2.880775557245166540e-01
-2.236098456164752890e-01
-8.640751935031520947e-02
-1.717693530537640900e-03
-2.468757852870540753e-02
-1.007465980116816900e-01
-1.494329981084611958e-01
-1.413453357330809734e-01
-9.655050127078469713e-02
-4.584025074319059145e-02
-9.716441593828077997e-03
-1.082527541319574030e-03
-2.668405356482115090e-02
-7.597727472666143678e-02
-1.214184005007841599e-01
-1.450735716733562719e-01
-1.573399116611276793e-01
-1.767163587238010924e-01
-1.935379948450623722e-01
-1.656130226494311464e-01
-7.249186307688801345e-02
6.927674048702363307e-03
-8.393323717740981682e-02
-3.732537237247156581e-01
-5.873512644818210671e-01
-3.934281748736371265e-01
1.233179904297964924e-01
4.887294523449269845e-01
4.203390062662100135e-01
1.108736510619750815e-01
-9.932515756658853723e-02
-8.943914343387820987e-02
3.043632816103761587e-02
1.092057505966638337e-01
9.402688925959831745e-02
3.457299634149910150e-02
3.825577337237717063e-03
3.183681059091876542e-02
1.037182388422089319e-01
1.890367402683231501e-01
2.574446798513495005e-01
2.902823712685623780e-01
2.931254513271785989e-01
2.821496729469377684e-01
2.602622570207506758e-01
2.214853518547070799e-01
1.683946425320721751e-01
1.152527698705253928e-01
8.081038221932096421e-02
7.178932140488342162e-02
5.938333056664912152e-02
-1.107313478094973033e-02
-1.465768421462992355e-01
-2.547784102035783871e-01
-2.330286361431036790e-01
-1.051854956061390456e-01
1.295304072802653389e-03
8.233238061805300823e-03
-4.181699609985093519e-02
-5.942378753949673076e-02
-1.034323863355755824e-02
6.291522981318185825e-02
1.005599018140594381e-01
8.810288079554079443e-02
5.556038324670589668e-02
2.712227551494509475e-02
-7.892991614353125907e-03
-6.440535696219004680e-02
-1.190165293175813876e-01
-1.296345928107323908e-01
-9.258216493518309220e-02
-3.561226776159714252e-02
3.815689086421836934e-02
1.265432802197166140e-01
1.412413742966370511e-01
-4.694486066019101095e-02
-3.798653413405846946e-01
-5.171932705938693253e-01
-1.875177130583657037e-01
3.819099146561433233e-01
6.563408775818269092e-01
4.176797543317353201e-01
-4.465700013836312876e-02
-3.290397648108229212e-01
-3.083952345850239363e-01
-1.383126761068042276e-01
-1.478158537516113119e-02
8.686024340943104133e-03
-2.271274161945208321e-03
1.872922344370710201e-02
7.836150188770810154e-02
1.437320563002525142e-01
1.852168878480077718e-01
1.980980057461151356e-01
1.889945048226581714e-01
1.484899147028077571e-01
6.322428147692299438e-02
-4.321767062353144145e-02
-1.176185001671138375e-01
-1.274156662457339440e-01
-8.434146655769202139e-02
-3.354746987642850259e-02
-3.253396996663832086e-02
-1.211657493072965386e-01
-2.834015561068148337e-01
-4.292981117840917737e-01
-4.486763409352104159e-01
-3.189510447417960304e-01
-1.409682278054943949e-01
-3.916606244044062990e-02
-4.003510796641736313e-02
-6.327667856440322147e-02
-2.200324111926741516e-02
7.647990253978448338e-02
1.419808755882189244e-01
1.179992192843216658e-01
4.439501222183332707e-02
-1.301834787247267006e-02
-3.470764967824792324e-02
-2.948637063209842007e-02
-1.554833249522745604e-03
4.185611149484512461e-02
8.086235157747823088e-02
9.854374425381587366e-02
9.816336099898982648e-02
9.380401596824787525e-02
7.092339327465335685e-02
-3.806478718694925045e-02
-2.672251262170256547e-01
-4.501445447325322369e-01
-2.841141356907346815e-01
2.497680218989808409e-01
6.973253987774776785e-01
6.386981522330955618e-01
2.130242203428435455e-01
-1.267792138664640966e-01
-1.861811542612593628e-01
-1.179064638255404029e-01
-9.679249455686651793e-02
-1.256910987744200847e-01
-1.218528463295584507e-01
-4.861113680304560841e-02
6.166892043515513622e-02
1.553894380094219541e-01
2.066345013385941232e-01
2.227920087832018226e-01
2.111925763155063918e-01
1.680439031816640671e-01
1.056734411469771318e-01
5.768800265396173410e-02
4.312602517350171138e-02
4.906619312273827888e-02
6.105959183971863130e-02
8.603537000576716443e-02
1.190797646796981912e-01
1.067455256650537559e-01
-8.584232158945099070e-03
-1.971631136691474051e-01
-3.387097250143311644e-01
-3.443241780283731734e-01
-2.513487996504062960e-01
-1.605884804684124534e-01
-1.156114949563418481e-01
-9.124627307388848141e-02
-6.444577216503100114e-02
-4.154001163389459128e-02
-3.680764089420614921e-02
-5.551725989332320643e-02
-7.655405832204936756e-02
-5.293037658565472731e-02
2.847501808798218875e-02
1.008059310735489461e-01
8.816030471063045215e-02
9.116772201816723473e-03
-4.988021271417292235e-02
-4.640669724081077779e-02
-1.124210329949046003e-02
9.123284306329177903e-03
-2.098216641372850980e-02
-1.438654790115658222e-01
-3.878169211069437683e-01
-6.692469301458053854e-01
-7.238956068933811716e-01
-3.197147127975251690e-01
3.459172947735265069e-01
7.224323069647498041e-01
5.371120085835956459e-01
7.787592612330891673e-02
-2.289115436608996634e-01
-2.516326152443327802e-01
-1.248840836077469707e-01
-9.048867719074465271e-04
7.790436693981385441e-02
1.362950365961568544e-01
1.908881582651464626e-01
2.336011176743744977e-01
2.541165557251390261e-01
2.552598350376259484e-01
2.429744397179477433e-01
2.136410580482053512e-01
1.706799031424228452e-01
1.422345130924258516e-01
1.538516449334790259e-01
1.931246221253299644e-01
2.261009448215640927e-01
2.369101982595070988e-01
2.275489494430903425e-01
1.841672922876209650e-01
6.990370548050479915e-02
-1.280607659396978404e-01
-3.429242235970585972e-01
-4.509064504149610797e-01
-3.921615125701398696e-01
-2.495196781979903689e-01
-1.484513119951767768e-01
-1.051086302249803761e-01
-5.284236537837654069e-02
1.052119053756925271e-02
1.561082080974579567e-02
-4.647540945622768982e-02
-1.036471703127682803e-01
-1.142849888868114339e-01
-1.013678178453444045e-01
-8.477979516004460758e-02
-5.399191301971799362e-02
-4.325617247023070752e-03
4.307983528278871294e-02
6.139152274743822635e-02
4.025190986690395378e-02
-7.608614142069235371e-03
-4.984165135627526000e-02
-6.431327313363385811e-02
-7.842704934497729541e-02
-1.380834426010756621e-01
-2.021540808839302483e-01
-1.178175701744031689e-01
1.944519365068291539e-01
5.448604796765215141e-01
6.247688270584147441e-01
3.690688127530246110e-01
1.051593387842950089e-02
-2.105378039706075066e-01
-2.442149410710742763e-01
-1.653655643382700435e-01
-4.520448962689143507e-02
7.588513177321808134e-02
1.624920401924164759e-01
1.928856421591799986e-01
1.774637165118571058e-01
1.411954579536013332e-01
1.005955592175975244e-01
6.880248858576482052e-02
6.088530958555894712e-02
7.732418796337800493e-02
1.009669106593240051e-01
1.212776415997805224e-01
1.396273843206603804e-01
1.488927062265653078e-01
1.360756817455210099e-01
1.021537614933403781e-01
5.012429862561119248e-02
-3.987272587158507964e-02
-1.860556509874671527e-01
-3.444802910588698475e-01
-4.117470234422944131e-01
-3.311351754728742436e-01
-1.669825833416244687e-01
-2.118781253406882420e-02
7.876364736770978536e-02
1.503774447674990633e-01
1.792898107585484679e-01
1.382422432432148796e-01
4.162880859344614271e-02
-5.478847462151903436e-02
-9.159273441747939337e-02
-4.997948926848658213e-02
2.813158151671681442e-02
8.061856915966127135e-02
8.369495640318803942e-02
5.256696747799440017e-02
3.938693085607253112e-03
-4.894791018254571885e-02
-7.180154077967963733e-02
-2.785391083855615763e-02
3.976188729896332208e-02
-1.073019438851581520e-02
-2.358667020567468409e-01
-4.048642191288693293e-01
-1.954007566245355432e-01
3.208816430819355636e-01
6.477211257401386257e-01
4.550777560645610231e-01
-4.663292363904640581e-02
-4.204733265510625095e-01
-4.628427864230008626e-01
-2.781003132272544254e-01
-6.717678876764517082e-02
5.877716584548239864e-02
1.060831184397092453e-01
1.222597988566380134e-01
1.265303401409589856e-01
1.005298064672640324e-01
2.424750475823174434e-02
-7.974170093476647125e-02
-1.386355618491573738e-01
-9.088235924718313097e-02
3.581005008760165115e-02
1.401933554575596763e-01
1.523661146552779677e-01
9.242480397946495341e-02
2.373410694820216049e-02
-1.509307812659804390e-02
-2.868051443460499159e-02
-5.284224610097957436e-02
-1.281554438816813191e-01
-2.450350976344663201e-01
-3.167221933903187625e-01
-2.594855263220811059e-01
-9.833677226902143298e-02
5.469956158070380520e-02
1.140220552564431417e-01
7.533591636328547392e-02
-1.068673131608317839e-02
-7.998406082899912894e-02
-9.286248417524800569e-02
-5.733540098009976688e-02
-7.219636359960477853e-03
3.866657008143334351e-02
7.522314235517078840e-02
8.614475237508625871e-02
5.626808853276418082e-02
1.263697490843589122e-03
-4.474273240870201701e-02
-6.739101740450229028e-02
-7.490212768123019615e-02
-6.404567441687819551e-02
-1.917570721852832061e-02
2.053663892010130707e-02
-5.988505509783864644e-02
-2.795565994540202270e-01
-3.837595498443972519e-01
-9.069965325192561045e-02
4.230463834060572692e-01
6.298740336866266443e-01
3.367398366515778063e-01
-1.000657654765498561e-01
-2.911305683114548404e-01
-2.104203708336460921e-01
-5.115047442245448245e-02
5.340306775065011696e-02
8.940905590691418381e-02
8.116201257199702479e-02
5.364278679918528525e-02
4.094464592119628071e-02
6.375932264530376203e-02
1.071474473192426252e-01
1.479090135132907768e-01
1.818721513630587594e-01
2.112095448899770356e-01
2.259065427434006068e-01
2.074326765063888856e-01
1.501650451116876284e-01
7.809208198360421960e-02
2.674980493584442481e-02
3.220446627324909106e-03
-2.412759516112807090e-02
-9.577543793249632120e-02
-2.177280416104557526e-01
-3.282942179613955180e-01
-3.310266115080880422e-01
-2.048278710967210425e-01
-4.710741948369114723e-02
3.573483675534453591e-02
3.134588768407359227e-02
-1.152360660736208818e-02
-5.273521127359793309e-02
-7.041415991240208838e-02
-4.963732141171069839e-02
1.025931838139216949e-02
8.027487555932415197e-02
1.042650866733524084e-01
4.513283051654264771e-02
-6.541783792939001585e-02
-1.536651778445201899e-01
-1.829447391714270621e-01
-1.805352068056544357e-01
-1.831590812296284843e-01
-1.739243692672148844e-01
-1.027036546892772378e-01
5.875525726550104300e-03
4.794305181931813806e-03
-2.038035331786164917e-01
-4.250205329237800034e-01
-2.968291353129416388e-01
2.000216272221566338e-01
5.989374513905886266e-01
5.167686618376837737e-01
1.104860372881342617e-01
-2.086726444651710866e-01
-2.589890706619426552e-01
-1.431138242142125927e-01
-1.974998732635758342e-02
4.053632673783476303e-02
5.058882487789893856e-02
5.265252654733761778e-02
7.197658057566362622e-02
9.896109270101358102e-02
1.137800930672913657e-01
1.228147863980242893e-01
1.507329354252253117e-01
1.940320404275195088e-01
2.065567263899678596e-01
1.561564181824262598e-01
9.330532428339968765e-02
1.172752020451907629e-01
2.390453440690652465e-01
3.360477015447470572e-01
3.033135414765370519e-01
1.712209453676825088e-01
1.376503260750459694e-02
-1.421128500163771347e-01
-2.595630304570844538e-01
-2.784185528713999380e-01
-2.075725043805349834e-01
-1.293653170883971026e-01
-9.660193710730757832e-02
-9.214716976909022306e-02
-8.080616081771285764e-02
-5.465867962849631223e-02
-3.022674708118863046e-02
-2.203631831717144107e-02
-2.510397903504644340e-02
-2.392943591717968527e-02
-1.789715792377940054e-02
-3.155596980501210874e-02
-8.477684600700069462e-02
-1.496135976768421805e-01
-1.655730073073320152e-01
-1.135632607215816270e-01
-4.131157795202716060e-02
5.966289891539975146e-03
3.388360228559147980e-02
3.054790387853786524e-02
-8.862959804793224539e-02
-3.385662258526823676e-01
-4.897414881447825774e-01
-2.581437239744407419e-01
2.670480501418440178e-01
6.342694060221939489e-01
5.528326873709167311e-01
1.784826338662943435e-01
-1.490426621910722893e-01
-2.455905893223278846e-01
-1.547767741616468684e-01
-3.000586260241324202e-02
1.706872240829186010e-02
-9.239019896003274404e-03
-3.189112394073592704e-02
9.779294017321424684e-03
1.141963301266151615e-01
2.298181024522289728e-01
3.006346170732218104e-01
3.071745430985415304e-01
2.653357521155312315e-01
1.999223908955444218e-01
1.325649247379555307e-01
7.848900922785422007e-02
4.362555902821668719e-02
3.144450604543368166e-02
4.700851319462123756e-02
8.261380616059858795e-02
9.619074549892051018e-02
2.410209881168607488e-02
-1.425173931694049545e-01
-3.034597619908487309e-01
-3.376796380335094216e-01
-2.458713474991203463e-01
-1.366381549561664910e-01
-7.234128517962776228e-02
-6.707014375575209679e-03
1.010431871317202801e-01
1.921375597020561488e-01
1.935674307340357059e-01
1.285865148860669827e-01
6.563724758601691134e-02
2.034838251714330901e-02
-2.603419970230046870e-02
-6.493001055096180030e-02
-6.539087014777782148e-02
-1.592108045112483605e-02
5.155852956122486397e-02
7.741769194020925449e-02
3.465597196664144813e-02
-3.211353889608337814e-02
-6.656909662657069238e-02
-9.495849476019702085e-02
-1.974907784574948810e-01
-3.397128165545821865e-01
-3.049341001498768189e-01
4.995009627476397485e-02
5.015317203577014382e-01
6.530607101911157786e-01
4.158999904341778020e-01
7.102864965235081152e-02
-1.132343588165845294e-01
-1.240758302554499232e-01
-9.356706189311495003e-02
-9.606716540099835555e-02
-9.789210077826293599e-02
-5.308028110341218853e-02
1.894878958729959845e-02
6.792922633704732982e-02
8.157657898267545171e-02
8.640688367234562739e-02
1.008261612988498868e-01
1.127028410328885510e-01
9.902082489802065124e-02
5.967008770680276575e-02
2.577114855322493181e-02
2.653697146751413105e-02
5.288075685532377807e-02
7.182813954957731339e-02
7.429707607771940392e-02
6.935923433355398182e-02
2.563091097517346956e-02
-1.090742814207320971e-01
-2.963208114563678497e-01
-3.997376535229653638e-01
-3.420599808391840413e-01
-1.922601782260004999e-01
-5.778317208992889142e-02
2.128361142424325600e-02
4.294717817845452451e-02
5.099214999536257932e-03
-6.469475533900785613e-02
-1.054213183446818664e-01
-8.602356752969318732e-02
-5.380078551994117025e-02
-9.370032753740589748e-02
-2.171494388862231228e-01
-3.119841536535568616e-01
-2.650541051125274161e-01
-1.161486723350446670e-01
-7.065798534496407074e-03
-1.642493258918961002e-03
-3.958479613064795621e-02
-5.031691428788320763e-02
-5.646466132983249397e-02
-1.518887368229542012e-01
-3.428840086643978324e-01
-4.210523700241184386e-01
-1.503789713877620449e-01
3.610159316178713218e-01
6.873397984898707014e-01
5.717217978773267983e-01
1.842294734795676958e-01
-1.411181956770773127e-01
-2.290605939857218998e-01
-1.160865200322123980e-01
5.490105974553403240e-02
1.577490199617941069e-01
1.670243373076303606e-01
1.438615271943500251e-01
1.440395209945336541e-01
1.596613193258180907e-01
1.505696925519444396e-01
1.069526424972210010e-01
6.012867489481454192e-02
3.680787125187934272e-02
3.011625773013551152e-02
2.665968269183198458e-02
3.273851418324911361e-02
5.480790113436515704e-02
8.107627714348622505e-02
9.499511405972525802e-02
7.733235778431124530e-02
-8.261181076162870535e-03
-1.844913394077467295e-01
-3.906345905931606355e-01
-4.907661767684078913e-01
-4.025991149442163519e-01
-1.920352061963677415e-01
-4.050191375753672829e-05
9.348495206229208432e-02
1.033522583601093059e-01
7.984319070880245561e-02
5.649617481042133738e-02
3.571067285692700738e-02
9.131289637713613586e-04
-4.948104447008456336e-02
-8.507219785308541005e-02
-8.040593354356928568e-02
-5.325968061820349903e-02
-3.699396890385486802e-02
-3.068767434939688107e-02
-1.106416135199853913e-02
1.760422388509163757e-02
2.911201075646822206e-02
2.913232094474413336e-02
4.162959430052357718e-02
1.836413987899252614e-02
-1.413944993392457494e-01
-3.744825854119552822e-01
-3.650959268327193530e-01
8.203078847665060125e-02
6.402945149351408904e-01
7.701061292462739738e-01
