5.518838680681759090e-03
6.389543585920694213e-02
1.280054842397889692e-01
1.533191147438326685e-01
1.241992858837298180e-01
6.909828233827493282e-02
1.674543690056851802e-02
-3.241846952003427096e-02
-8.433557788510138986e-02
-1.314771706916251226e-01
-1.631038998801108975e-01
-1.796690709019967414e-01
-1.865889424403505137e-01
-1.720173305120635265e-01
-1.103733807242537196e-01
-1.763707896857379109e-02
1.253981938787574607e-02
-9.816096161388537800e-02
-2.328704258603036259e-01
-9.112028350524054021e-02
4.217276082150893113e-01
8.808582376089839627e-01
7.759054330884275208e-01
2.363315918306456154e-01
-1.243789212386240961e-01
-3.619299156349677082e-02
2.282044166722236866e-01
3.827329793420705117e-01
3.990609799662557244e-01
3.093544938448716253e-01
1.131051727576259380e-01
-1.145738904538731173e-01
-2.509462547443039870e-01
-2.619625525603953009e-01
-2.080014104572726896e-01
-1.549182042132944415e-01
-1.339410093620541919e-01
-1.488413268584563853e-01
-1.791686197944294123e-01
-1.916286735300666566e-01
-1.736593640908155045e-01
-1.467121647581013377e-01
-1.363626867097522954e-01
-1.416999112936533078e-01
-1.308638293152982468e-01
-5.120357194976433296e-02
1.244285543774057284e-01
3.207843180724623822e-01
3.902137319891533229e-01
2.891271189700416744e-01
1.402335882458827787e-01
5.452935271172046350e-02
7.031985486951631940e-03
-5.932965695898014674e-02
-1.258221726159650389e-01
-1.474701057023892203e-01
-1.347996488993459530e-01
-1.301016683307303357e-01
-1.281412070117719793e-01
-8.300030684814566073e-02
-7.898871910559135054e-03
7.117965240631430116e-03
-7.234024811002756628e-02
-1.542665216904436920e-01
-1.531504778471656225e-01
-1.250536031466855380e-01
-1.727029119731191276e-01
-2.128249416438401098e-01
2.212259072963162002e-02
5.690765984418966195e-01
9.621925941959605932e-01
7.466410652538985060e-01
1.554157600144236429e-01
-1.693938491958235926e-01
-1.088271642638634004e-02
2.810366412986079476e-01
3.533503124590449129e-01
2.038411861809180936e-01
2.007079486822492542e-02
-8.816098878721601029e-02
-1.391593953293586428e-01
-1.776156957058687147e-01
-2.102815947314631284e-01
-2.241333475667531550e-01
-2.128749249139975930e-01
-1.754090542557249222e-01
-1.181854375738160684e-01
-6.707518955754332435e-02
-5.235032406574267883e-02
-7.842939756856789901e-02
-1.260773822657742793e-01
-1.753436369383777615e-01
-2.079290349311410102e-01
-2.004821699645047139e-01
-1.377771957073793130e-01
-2.915341948732665112e-02
9.708956189263052983e-02
2.063785154151835666e-01
2.613256218360880956e-01
2.334273253152486516e-01
1.284123296647353696e-01
-8.000999534937068558e-03
-1.205583273196624700e-01
-1.791296277290929939e-01
-1.850376791093895634e-01
-1.547418350100474849e-01
-1.071446799804044586e-01
-6.581054834988830926e-02
-5.687139552326021807e-02
-8.646055032970434429e-02
-1.241936056499301083e-01
-1.287398661911765274e-01
-1.028478728206244919e-01
-1.153612368615063999e-01
-2.237731104667491921e-01
-3.230495264876145911e-01
-1.408245705573231976e-01
4.127363641673833516e-01
9.091799108504862170e-01
7.955113312853900887e-01
1.801084577882811066e-01
-2.541512701520042272e-01
-1.624161850721375089e-01
1.360276936688162019e-01
2.350113587923252645e-01
1.047667671804785039e-01
-4.623206937337111244e-02
-8.506575339581284867e-02
-4.665976308695996000e-02
-3.492818207324009661e-02
-1.115610197978390422e-01
-2.479800907974142599e-01
-3.521164853942215789e-01
-3.593098880004392259e-01
-2.936952938168862492e-01
-2.222652215071962700e-01
-1.761178797023670306e-01
-1.446634467923657297e-01
-1.181430759922286466e-01
-9.658961298913451565e-02
-7.096547431181385313e-02
-3.523563307866370287e-02
-6.215696482389684342e-03
6.989204460150850312e-03
3.097355504777673380e-02
8.432681608575770538e-02
1.333596284767218088e-01
1.278793289741128325e-01
6.109040463833552426e-02
-2.530162661103544861e-02
-8.296369968564069886e-02
-9.912065376278328399e-02
-1.016021245010377827e-01
-1.196669227871744456e-01
-1.472113104331104760e-01
-1.545059374060586410e-01
-1.230968191762545072e-01
-5.609196976696140952e-02
2.642895770315753165e-02
7.517554977352342016e-02
1.946964648234883119e-02
-1.331745078659626047e-01
-1.817899185354895086e-01
1.359171279843224278e-01
7.303593899146507695e-01
1.053086470997390611e+00
7.324244679989870832e-01
1.405202501529492221e-01
-7.741785836076654770e-02
1.692410965837116144e-01
4.509332317858507078e-01
4.573812519099652030e-01
2.530386651540818543e-01
3.259958759990929517e-02
-1.054267478254294205e-01
-1.592123681126118573e-01
-1.559582744002335208e-01
-1.272646425534538217e-01
-1.055671564479560703e-01
-1.141856232915649111e-01
-1.513378169144738716e-01
-1.848087186827677697e-01
-1.823218836227160633e-01
-1.602993459625634276e-01
-1.748001208460467359e-01
-2.374639071505588173e-01
-2.784473569526204062e-01
-2.342094477309049350e-01
-1.303843930138454676e-01
-3.509050812115506457e-02
2.634857741120824257e-02
7.290709117047629306e-02
1.179497027008312299e-01
1.457774554555495428e-01
1.282835926221624345e-01
5.907978349469997226e-02
-2.855341103779079209e-02
-8.385576039781932056e-02
-8.272990568488353125e-02
-4.939173998044896208e-02
-2.796704019364034538e-02
-3.236522660791850414e-02
-4.337633115799436473e-02
-5.330422259889411318e-02
-7.375834185737381588e-02
-9.230517877561078555e-02
-6.859233331934345979e-02
-3.678579173557298271e-03
1.455230898267166444e-02
-9.607667862652653767e-02
-2.260818242045590509e-01
-7.260028353047408289e-02
4.730442082986856533e-01
9.769052907165219901e-01
8.705658287500358528e-01
2.452325670166118909e-01
-2.160765148452839790e-01
-1.338851365806442151e-01
2.035129845708945062e-01
3.670192390179396469e-01
2.674902070104838714e-01
7.617019723441467716e-02
-5.508715044217828150e-02
-9.711583107131631365e-02
-9.523775431244682621e-02
-1.078574547587569654e-01
-1.549124913349119448e-01
-1.977353025313683121e-01
-1.948355545745311668e-01
-1.708496424370443134e-01
-1.932207687661356421e-01
-2.738960142298091927e-01
-3.322447278415543992e-01
-2.936679905907221277e-01
-1.911108990920357686e-01
-1.158887476798810823e-01
-1.030686853479451104e-01
-1.145918130468731311e-01
-1.048524563985956948e-01
-6.278896451799599598e-02
-2.049924965382958313e-03
6.409300471902308616e-02
1.292069941825743640e-01
1.725997409563806151e-01
1.493533210386026044e-01
4.225624006874475341e-02
-7.754140572551847244e-02
-9.955042548160167315e-02
-9.132073718966654541e-03
7.868925383830320530e-02
6.379297409782140604e-02
-1.570402439794149618e-02
-6.224839129489118106e-02
-6.214159362712542295e-02
-7.650194365252138695e-02
-1.214667960739144181e-01
-1.399518939027823983e-01
-1.197432470320877324e-01
-1.679929117254192472e-01
-3.509033066701151005e-01
-4.559740512402820078e-01
-1.412897600748470595e-01
5.075090645769149145e-01
8.734815223022344144e-01
5.854560020910849483e-01
5.775882823116547382e-02
-1.014285113703748686e-01
1.379599682299888774e-01
3.634879649420068026e-01
3.258427583517208848e-01
1.304907029338812086e-01
-2.475178979692620879e-02
-8.351052122273885936e-02
-1.054516674186537495e-01
-1.365963815947600912e-01
-1.710172834882411619e-01
-1.958034778783179497e-01
-2.096568678962754118e-01
-2.083943005704626816e-01
-1.962886967715757880e-01
-1.963476389606529926e-01
-2.172906693824418756e-01
-2.337768287335580952e-01
-2.219221912761903115e-01
-1.921085720335335423e-01
-1.729081308464344713e-01
-1.778303234845059477e-01
-1.962500372219475597e-01
-2.053616703421809742e-01
-1.797599787650805137e-01
-1.022127967979943874e-01
9.954954697507257047e-03
9.400407431006278791e-02
8.961126514908634988e-02
2.669669965437160286e-03
-1.070343593261413317e-01
-1.967731497464462187e-01
-2.612179376477364867e-01
-2.964220627045443535e-01
-2.933331010731399791e-01
-2.569960161568721757e-01
-1.982216429393799662e-01
-1.264510121768639417e-01
-6.779172923352251579e-02
-5.601238809416004411e-02
-8.839302490372361043e-02
-1.206463462780536233e-01
-1.311061872341431067e-01
-1.685293765442782143e-01
-2.753104181043183329e-01
-3.341575991481823271e-01
-9.923889079026708415e-02
4.412525727409543075e-01
8.286180181281744828e-01
6.177669354676467162e-01
4.560550007035003850e-02
-2.414314562817380660e-01
-5.454454740462945372e-02
2.128313764813619668e-01
2.257513180438772415e-01
5.866652437983076174e-02
-5.429310926676894633e-02
-3.625553477161339022e-02
1.651705192617917289e-02
5.719287690420744863e-03
-6.325963380327326302e-02
-1.258179871334721422e-01
-1.490637111421913852e-01
-1.461518601769740133e-01
-1.298179655894879103e-01
-9.797917136817474448e-02
-5.574025271628726963e-02
-1.744944280817753088e-02
8.937173604528610843e-03
2.343280448770051691e-02
2.758891607308172275e-02
2.859168156950483985e-02
4.781928331428431794e-02
1.064032918375758668e-01
1.845079574803347722e-01
2.163349618589640311e-01
1.626086248333866724e-01
6.954495803771058859e-02
1.390415881922484748e-02
1.184215084546911406e-02
2.135408976194463210e-02
1.094168416717180431e-02
-8.748932293863167370e-03
-1.971948369392869174e-02
-5.004435444488610635e-02
-1.530331316081028625e-01
-2.922277444677596758e-01
-3.144450935636509126e-01
-1.377350162920057963e-01
9.307844774087228878e-02
1.539831211767696828e-01
3.782450013868342287e-02
3.528127368803106456e-02
4.127555354547018940e-01
9.609569317677583156e-01
1.114629993821759646e+00
7.077617973163439213e-01
2.571309046686046651e-01
2.534920567294295934e-01
5.667014347175888256e-01
7.702024975998570389e-01
6.984102978858246491e-01
4.952652961885051219e-01
3.382776894167247028e-01
2.781260809105156606e-01
2.774293889624483977e-01
3.015339344901877827e-01
3.505132182328455359e-01
4.256360099096120897e-01
4.915807306958562273e-01
4.973584007509919691e-01
4.360906030731415139e-01
3.560941807465666242e-01
3.060016681757946055e-01
2.974816916344535933e-01
3.247228045730323753e-01
3.855406210288709334e-01
4.725617457693439549e-01
5.654760456897350851e-01
6.427438048803394421e-01
6.998273992065483506e-01
7.503721646956396096e-01
7.945627449148997545e-01
7.962254798222472285e-01
7.251215574655252016e-01
6.140793189001947372e-01
5.361365691756645457e-01
5.281707560766374376e-01
5.620591532388138356e-01
5.891273550402968961e-01
6.029574938200157330e-01
6.431465283329473870e-01
7.016208282642919514e-01
6.437006670652015705e-01
3.613879962487897557e-01
1.162125788934709608e-01
5.018147348136676733e-01
1.598828236902358979e+00
2.356368846130522332e+00
1.722108236637371004e+00
2.449858538718303613e-01
-6.021865181375424259e-01
-3.926160054770082564e-01
1.302991932190530333e-01
4.760561623143543808e-01
8.898769252970567534e-01
1.487798722617652558e+00
1.701058184211747148e+00
1.028417469843896592e+00
-1.144390074598420903e-01
-9.929013238223358684e-01
-1.683330118366734629e+00
-2.711340287600280785e+00
-3.762516327679234607e+00
-3.856020496817451182e+00
-2.841602353615128251e+00
-1.747648971473822144e+00
-1.496902184050203033e+00
-1.899588406082648673e+00
-2.116369372602314058e+00
-1.830541601500711213e+00
-1.565378957415852312e+00
-1.819377691097284533e+00
-2.368381800740235299e+00
-2.594018428501168927e+00
-2.203119253002843170e+00
-1.508635083621086004e+00
-1.066454917909581246e+00
-1.094427932284759430e+00
-1.343132387573223063e+00
-1.464373040984145335e+00
-1.312604868634021260e+00
-9.598624014594052678e-01
-6.308738662948796261e-01
-5.661136217879203514e-01
-7.839522463151150644e-01
-1.044700077567752183e+00
-1.157820545817543012e+00
-1.180073684493256669e+00
-1.183971703552050947e+00
-1.073416841758670914e+00
-8.203390069590414946e-01
-6.194283070390440571e-01
-5.995958417443792987e-01
-6.196957589237592767e-01
-5.426177171833242996e-01
-4.679632422022227400e-01
-4.778309573049992487e-01
-4.193538555536089896e-01
-1.772919817144965882e-01
1.410683391722531987e-01
5.089523481676505590e-01
1.058310723596232128e+00
1.608642003260994269e+00
1.643423658699735723e+00
1.091743356674363064e+00
5.825431685460258358e-01
6.034632960693157022e-01
9.314683331631645746e-01
1.108486789823928120e+00
1.020670562686914584e+00
8.401745672114127039e-01
7.017583505648111730e-01
6.095227778095018145e-01
5.400240731255012694e-01
4.998761608369071130e-01
4.934202233266737347e-01
5.045747029410374562e-01
5.227529188752096934e-01
5.552184630872039062e-01
6.021460563656227949e-01
6.373048330460329147e-01
6.310654128044779210e-01
5.871467459201351602e-01
5.376538165033228900e-01
5.012091864255225904e-01
4.695598950940509941e-01
4.459149181418833319e-01
4.711724053356419750e-01
5.816791823449317667e-01
7.433346431677492205e-01
8.540235009806650401e-01
8.260917081086235347e-01
6.700475359763489180e-01
5.033130589377269315e-01
4.506046249871334397e-01
4.810005085492326526e-01
3.633586942764773786e-01
-8.492500855913343027e-02
-6.502117549546432285e-01
-8.279755862835156410e-01
-4.298554346961587780e-01
1.537427383748891097e-01
4.602847077150329369e-01
4.537600887595295562e-01
3.820117734802607190e-01
3.782841235998827822e-01
3.518321293277886230e-01
1.950650887518866061e-01
2.783617823017827536e-02
1.691679328400214899e-01
7.205486458290613072e-01
1.225103250406395672e+00
1.107776719287459688e+00
4.876512774399881511e-01
6.138935519296805088e-02
1.549025299816196855e-01
4.255051914770350829e-01
5.027498636743708005e-01
4.339189026151146766e-01
4.178865978813710580e-01
4.428934167791794829e-01
3.717026934961339402e-01
2.003078612864303831e-01
3.990737345577499706e-02
-5.336859833944217202e-02
-9.730289045744269782e-02
-1.083803721309629653e-01
-9.248280586309562401e-02
-6.863527448019439425e-02
-5.474610691977173371e-02
-4.716152890622600513e-02
-3.193992558375852164e-02
-6.409676786179666075e-03
1.379583457463712248e-02
1.104549586429127983e-02
-3.848626155951509475e-04
2.494183551570695878e-02
9.579357700302981726e-02
1.458275441920545146e-01
1.113984840593031933e-01
1.262198770463767578e-02
-8.686102143563212419e-02
-1.551362062199583280e-01
-1.895784294185221819e-01
-1.886457790879967622e-01
-1.707559786013916336e-01
-1.962549538298054286e-01
-3.195804018430666860e-01
-4.903170479898272816e-01
-5.478086645095082696e-01
-3.980246570915287885e-01
-1.584356568859346948e-01
-4.437296992511920862e-02
-1.529819203502955083e-01
-3.608724726457537835e-01
-3.626389896548782854e-01
5.787994019834404730e-02
6.407523310480136569e-01
7.875011680020255200e-01
3.283240908835224348e-01
-1.914639855601735774e-01
-2.492287715543246573e-01
3.480460351501905858e-02
2.293033897774554297e-01
1.601480040538756922e-01
-4.022226746075070053e-02
-2.041419359733997185e-01
-2.837872516970463832e-01
-3.125699665494842128e-01
-3.201700716599442664e-01
-3.079778419868391959e-01
-2.722154397766318179e-01
-2.219609948712938374e-01
-1.783788970796129913e-01
-1.643267777783813666e-01
-1.913853068257365120e-01
-2.536912398157161186e-01
-3.290063588893454294e-01
-3.820610891675947918e-01
-3.776555869584363734e-01
-3.042553603932821038e-01
-1.831713432271823150e-01
-5.183410077793118576e-02
5.066896342498244943e-02
8.595805869401051957e-02
3.488653798374272835e-02
-7.649229035876395355e-02
-1.895178071974845391e-01
-2.582558663658888753e-01
-2.722845827426383369e-01
-2.433545770539982667e-01
-1.924471817037072541e-01
-1.460474152131334413e-01
-1.222261100024242403e-01
-1.190180573831239041e-01
-1.235409253934397350e-01
-1.247533229361978552e-01
-1.227886220371898762e-01
-1.433048173557845972e-01
-2.149642130103396886e-01
-2.676019102621703949e-01
-8.515437142651641200e-02
4.434207701198390472e-01
9.780934177548977759e-01
9.785472112186155424e-01
4.499201252704440046e-01
5.514810433797201483e-03
4.200552589006500970e-02
3.121000574884873480e-01
4.058628797996414184e-01
2.496701051691783690e-01
3.686012452551775537e-02
-7.624498967529572124e-02
-8.658313008890129725e-02
-5.970811854933828072e-02
-4.141566974866055240e-02
-5.285940984573330587e-02
-1.064098469874194680e-01
-1.942636175900935014e-01
-2.793178950416576600e-01
-3.170926423114915904e-01
-2.899447028652881175e-01
-2.176570633394215859e-01
-1.344165952866688274e-01
-6.419040507672804652e-02
-2.383900685838176436e-02
-2.876737203261758163e-02
-7.271680724426241027e-02
-1.142451220026738101e-01
-1.071198809199081364e-01
-4.129742973248457655e-02
5.967107341224819200e-02
1.631866225722317931e-01
2.283634161249573358e-01
2.159365048749032900e-01
1.306436575203617223e-01
2.650375816736558546e-02
-4.883202171498293026e-02
-8.915424141248107226e-02
-1.094557845239426813e-01
-1.217336590430096316e-01
-1.290850200220005906e-01
-1.218461004055373526e-01
-8.420987300196418335e-02
-1.624431617831754299e-02
5.143985481074112714e-02
5.685046348427731655e-02
-6.322622343701125858e-02
-2.640773768709725466e-01
-2.948538094084360295e-01
1.117636857695348540e-01
7.926053202159357713e-01
1.133372133599613640e+00
8.011271484882173111e-01
2.318075683863808911e-01
4.005818587973034722e-02
2.520176217522837048e-01
4.461826884022446205e-01
3.712233437666879743e-01
1.411992184339118939e-01
-3.030245349299673721e-02
-7.374932007836390579e-02
-5.305947223720533512e-02
-3.884419700458085351e-02
-4.886550892498629783e-02
-6.912159491705695269e-02
-8.567546066993314557e-02
-9.928270776650083285e-02
-1.206140467607524913e-01
-1.508675871689449666e-01
-1.734766445999183504e-01
-1.662911298455057307e-01
-1.190156408321999953e-01
-5.115204687507812764e-02
-9.392072571587748928e-03
-2.138333936001582739e-02
-6.402732244541567419e-02
-1.038558755963322061e-01
-1.440160335461057317e-01
-2.028541129998170656e-01
-2.584432835260951355e-01
-2.406988524815327213e-01
-1.085665167412763615e-01
6.564829321265547302e-02
1.468864630805983840e-01
9.291885931742893678e-02
-6.866660956124797516e-03
-6.797039413709080047e-02
-1.046532157895832676e-01
-1.577406681006936207e-01
-2.088981126242828723e-01
-2.132844412873875217e-01
-1.682968472264841087e-01
-1.082973598965794176e-01
-5.103045191236708911e-02
1.625207812190703274e-02
8.984966116639495071e-02
1.171559800503709642e-01
3.731847383092354309e-02
-1.498291697375255249e-01
-3.271049221247386285e-01
-2.553190072431821278e-01
2.095054143797945023e-01
7.730226365405589162e-01
8.744539136443811866e-01
4.226244620272109898e-01
-2.838965490825959281e-02
-4.581751104653637718e-02
1.856760925894769265e-01
2.795177048848436208e-01
1.496610909494350550e-01
-3.200827332202425130e-02
-1.231474866513122823e-01
-1.313973587286351719e-01
-1.427106869637170261e-01
-2.090557326134380722e-01
-2.934387301329061115e-01
-3.148336967621817029e-01
-2.585442281413332655e-01
-2.038007558725688506e-01
-2.153308596820134591e-01
-2.665674838611629127e-01
-2.947478343635033804e-01
-2.706864453932834036e-01
-1.981381910206380381e-01
-9.621455077092228025e-02
-4.120859241273822256e-04
5.306561451991882727e-02
6.482265084034569136e-02
7.014226757911214138e-02
7.988810211080688006e-02
5.440889742107417326e-02
-3.463370071672123435e-02
-1.454609499361230740e-01
-2.051687693323287764e-01
-1.900292793278304249e-01
-1.359604081243629137e-01
-8.743054897617397181e-02
-6.973639072450746323e-02
-9.539884884827473654e-02
-1.589172868578679620e-01
-2.221118520433733590e-01
-2.329691834978480647e-01
-1.824805281002579160e-01
-1.377184460748309136e-01
-1.876877081261068836e-01
-3.138918167524328284e-01
-3.083495983668396723e-01
5.693695366839293670e-02
6.440580013580881058e-01
9.137500048183688772e-01
5.649646801941209384e-01
5.368325576682181355e-03
-1.666454507104021543e-01
9.167809819276184768e-02
3.681105926809312701e-01
3.940396949848265495e-01
2.452002913283519991e-01
9.769615368299532088e-02
1.949012072186677089e-02
-2.039154495744424644e-02
-6.591728217321990435e-02
-1.273203983291520958e-01
-1.777554138653746063e-01
-1.787536857196188045e-01
-1.219321134676165097e-01
-4.599359935023099311e-02
2.302844983349452285e-04
4.796726000267477301e-03
-1.068990186227140524e-02
-2.900176455357268007e-02
-5.135796155153873194e-02
-7.742132220108592644e-02
-9.161419188857389262e-02
-7.291342573221691603e-02
-4.576718552846619631e-03
1.113718388505595402e-01
2.148509566123686099e-01
1.977940124386902698e-01
3.281762287293162050e-02
-1.473043335670276843e-01
-2.013121556900234754e-01
-1.541778971051689651e-01
-1.216530571667202160e-01
-1.397640823595229231e-01
-1.549948738656068137e-01
-1.218428087500169205e-01
-5.794387393496091415e-02
-2.128553781736965134e-02
-3.787362497588502019e-02
-6.346851363694451520e-02
-5.080712466384693093e-02
-4.180414038889037481e-02
-1.268121319951723835e-01
-2.614876936066487523e-01
-1.823907598465312474e-01
3.023968837452576941e-01
8.910957607115668200e-01
9.872218262205486594e-01
4.908544354385605546e-01
-2.022805238806152373e-02
-7.865096018879613737e-02
1.595242577206506251e-01
3.132278666045106852e-01
2.610109001644864146e-01
1.163126659405148422e-01
2.726198487293822036e-03
-3.859602962223432354e-02
-3.241960242953526028e-02
-2.652884354490291433e-02
-5.004723508208359928e-02
-9.840983303180571296e-02
-1.509847300575426210e-01
-1.953282782774686532e-01
-2.298352601899099901e-01
-2.462647972606396563e-01
-2.254412212354374168e-01
-1.671682835367283848e-01
-1.123133716123623921e-01
-9.837981967993414401e-02
-1.065076900322950021e-01
-1.005748667007196062e-01
-8.459597118089273726e-02
-6.898663476990345156e-02
-3.019510721917913199e-02
4.988798150987927560e-02
1.455129363376927165e-01
2.153110239917445934e-01
2.403307379544170896e-01
2.189598922503299128e-01
1.501136709594947938e-01
4.406296571039725746e-02
-6.477282076726102733e-02
-1.392117303520465366e-01
-1.665666429692477801e-01
-1.519838378138318735e-01
-1.044356590935336532e-01
-4.258712372017491032e-02
1.380804597315603288e-02
6.417554828939456280e-02
9.833127769789312689e-02
5.388878654304440213e-02
-1.173717858323609781e-01
-2.907615365787675765e-01
-1.670920371155901474e-01
3.747142221313523036e-01
9.357961847344324902e-01
9.499135770680734447e-01
4.484205145124108283e-01
4.443644374829132382e-02
9.275073452461060630e-02
3.276974804178921508e-01
3.708517831111234342e-01
1.921865854816633412e-01
-1.190570241567594223e-03
-7.782493972365883694e-02
-7.476496785416988922e-02
-7.735697838124949710e-02
-1.038223594042944620e-01
-1.135499280038185926e-01
-8.915627155828258210e-02
-7.174290994930930532e-02
-1.064642316826474588e-01
-1.801774451234795515e-01
-2.291727239105856573e-01
-1.981226422176883550e-01
-9.472379884596861255e-02
6.812928854200973189e-03
3.506954775285327230e-02
-6.001455435854606037e-03
-5.679416444013571375e-02
-7.522170086766154229e-02
-5.703465615423697344e-02
-6.466291475163190791e-03
6.442072902962239778e-02
1.108591081729204397e-01
8.407106847506179426e-02
-1.897740310806791952e-03
-7.698008813296541852e-02
-9.734743737989171031e-02
-8.308969517671804805e-02
-7.385422712120164046e-02
-8.483206414646435323e-02
-1.112595099187891484e-01
-1.448309687647116872e-01
-1.759848801287182130e-01
-1.928035551055234664e-01
-1.759292031980343451e-01
-1.066882393944634799e-01
-1.733600338528782508e-02
-9.360297984557473805e-03
-1.181095288390294762e-01
-1.477970070799351499e-01
1.548781788911904322e-01
6.409473682943266359e-01
7.727101968686101996e-01
3.500689451222921411e-01
-1.319134113168766720e-01
-1.531907921268942097e-01
1.785549391669122299e-01
4.127383661816495519e-01
3.580331252668197961e-01
1.738233932464170461e-01
6.383320614225043710e-02
5.578230453400745414e-02
4.636977666994814007e-02
-2.665600110521418320e-02
-1.171368519025763888e-01
-1.645743236178206226e-01
-1.763410530247209174e-01
-1.878126748296841120e-01
-1.982152811393815828e-01
-1.831372934846476896e-01
-1.462381881214134816e-01
-1.266418926662859490e-01
-1.523106885970812452e-01
-2.005476325720636221e-01
-2.167151301311837086e-01
-1.708363934770021075e-01
-8.064697250670294082e-02
2.243884494891176806e-02
1.213309655685632232e-01
1.923248387268244042e-01
1.911099143670637046e-01
9.698864063901024846e-02
-4.335931519614216745e-02
-1.523143726199436554e-01
-2.072715589116818358e-01
-2.573896967843207206e-01
-3.285326709992670291e-01
-3.600909327955487682e-01
-2.965069582017127447e-01
-1.879189265211185789e-01
-1.262765640828301394e-01
-1.250885474970539757e-01
-1.253099364792020221e-01
-1.024253590184039386e-01
-1.200195989597786089e-01
-2.359044857379992144e-01
-3.326060794609627669e-01
-1.245298807652947121e-01
4.673743404862942818e-01
9.624226518195257984e-01
7.473211947607157901e-01
-3.501630819198277289e-02
-5.577064834108018676e-01
-3.888851666639301374e-01
7.511745056028519552e-02
3.000472596833198557e-01
2.107324161441810617e-01
4.258938973838950065e-02
-4.209994514772685825e-02
-6.191906123764572001e-02
-8.625183827342955412e-02
-1.280256671442083494e-01
-1.611750217280319142e-01
-1.768764484931036607e-01
-1.894585247835658126e-01
-2.027570996307450080e-01
-1.972260479858308491e-01
-1.572003905132410007e-01
-9.815258968862644595e-02
-5.628391364776958589e-02
-5.414644781640973181e-02
-8.296517491891444718e-02
-1.155490627485233485e-01
-1.272903491009298171e-01
-1.081496879010241802e-01
-6.328390114020189527e-02
3.228771634709080070e-03
9.759580201039490255e-02
2.019356527711237137e-01
2.454369892359301863e-01
1.660738692401485250e-01
4.004052897119424886e-03
-1.258159252428117103e-01
-1.631892000684705135e-01
-1.475352463128822011e-01
-1.295476831774305115e-01
-1.063923107103362103e-01
-6.380157562836449858e-02
-2.040347456113162164e-02
5.102145313895833575e-03
3.027417461155155337e-02
6.955727525164846770e-02
6.921285835850363166e-02
-6.248904564450215304e-02
-2.906601001952616170e-01
-3.360310667213156077e-01
8.599216039123683264e-02
7.780451503661600654e-01
1.090401400735006021e+00
7.195701005429254726e-01
1.520251830578581709e-01
-8.662789933348534477e-03
2.152319584624666493e-01
3.964266772951678397e-01
3.202710830220250049e-01
1.179758587303454537e-01
-1.922960071622425993e-02
-4.880900359652067672e-02
-3.478520199177748823e-02
-2.376072803603255026e-02
-1.380117746620520072e-02
-2.639569212169685930e-03
-1.458006284087143625e-02
-7.316839963888122078e-02
-1.608656085232844923e-01
-2.219957040849516172e-01
-2.184528941654679812e-01
-1.694005676639693259e-01
-1.170828295825471210e-01
-7.270322224922015630e-02
-2.660262781566743312e-02
3.344015237810287616e-04
-3.697793945341395355e-02
-1.249758220058475033e-01
-1.626208066897336102e-01
-7.514337597041684247e-02
8.146871794258940536e-02
1.893273753720273178e-01
2.006678614049855758e-01
1.499100567086940616e-01
7.643262074419815422e-02
-6.465398285579191176e-03
-8.682035102626993461e-02
-1.511221713121528865e-01
-2.011012321514311363e-01
-2.422477585429147484e-01
-2.629771415133789203e-01
-2.432801788675378885e-01
-1.770616984571101171e-01
-7.730048601387697060e-02
2.535034316910188962e-02
7.147480966013357306e-02
-4.588314226822584607e-03
-1.558650998508396002e-01
-1.320798644515120135e-01
2.927163350672388198e-01
8.870293558117112731e-01
1.050175073776503432e+00
5.876049989933029849e-01
6.306195748850218497e-02
7.227983404321147720e-02
4.963156123244471529e-01
7.635007464930713139e-01
5.929541553014234800e-01
2.057089964974483098e-01
-7.081156825369677721e-02
-1.478020082832881277e-01
-1.280655629560766007e-01
-1.095827214668210481e-01
-1.095344482839773481e-01
-1.056043669234395382e-01
-8.770666123498072064e-02
-6.822122407362139762e-02
-5.975290670775292023e-02
-5.797228791963102146e-02
-5.678475906947350049e-02
-6.778927094708667167e-02
-9.981920920652356810e-02
-1.295367816299430319e-01
-1.233232492334410124e-01
-8.131210205309785666e-02
-3.164565143834235927e-02
1.436597718053542194e-02
7.658475861693357645e-02
1.650627318016188450e-01
2.340985693305564219e-01
2.087637229646298609e-01
7.790038367703064348e-02
-7.345292760546096034e-02
-1.558478130084218483e-01
-1.643726168212354399e-01
-1.497059064556020835e-01
-1.434833028655119469e-01
-1.446306063498217220e-01
-1.505968111113530905e-01
-1.723589080957826647e-01
-2.218566568390865912e-01
-2.882475660696295905e-01
-3.248412968048195459e-01
-2.801345257712045678e-01
-1.723777310581537381e-01
-1.176197070637144126e-01
-2.068761478650933683e-01
-3.116751425413625820e-01
-1.310857969315279425e-01
3.808160516928358330e-01
7.497070838761277223e-01
5.070016696767729591e-01
-9.966560252629927397e-02
-3.893901112949566534e-01
-1.486975407517227843e-01
2.231897066654086048e-01
3.489305326464736123e-01
2.356082213070974096e-01
7.071935296173718910e-02
-3.897659021866532042e-02
-9.762446299963513374e-02
-1.437047474290349125e-01
-1.945606311618130468e-01
-2.257400939513297122e-01
-1.985046751110216001e-01
-1.204459399397395242e-01
-5.498077417952195595e-02
-5.139077774901248952e-02
-9.540576984066879984e-02
-1.470648116233950198e-01
-1.864293120167963835e-01
-2.050130080131524757e-01
-1.934508052160959501e-01
-1.466512695521873244e-01
-5.889519850108223403e-02
6.735786835549376073e-02
1.872218301724906386e-01
2.196478098651112876e-01
1.232148882232055459e-01
-4.751747745318862792e-02
-1.893644088144460502e-01
-2.432413150536449353e-01
-2.201670653690803725e-01
-1.624332425155290971e-01
-1.105519011700223653e-01
-8.945797834131480331e-02
-9.893166152380385159e-02
-1.165931242875933999e-01
-1.178646722850845013e-01
-1.001320735078075480e-01
-9.496921858188606125e-02
-1.541705600944257015e-01
-2.846973317099310008e-01
-3.465924946872732670e-01
-9.531118327926323130e-02
4.786334538376511571e-01
9.151969744023116249e-01
7.447676194620723722e-01
1.625931312477899016e-01
-1.870863675107092283e-01
-5.679978985811746234e-02
2.123902673549527553e-01
2.702068343171294407e-01
1.341118179537259536e-01
5.463179654176811978e-03
-1.462468687098436061e-02
2.855029398811084404e-02
4.809692696720258009e-02
4.830499966676670386e-03
-7.637395461694050647e-02
-1.514836878057511105e-01
-2.030116502567953229e-01
-2.365143505866739992e-01
-2.518952521420039226e-01
-2.352797728655965648e-01
-1.764321863368707999e-01
-8.978556383829636167e-02
-1.604633947216807174e-02
8.830366635186130339e-03
-8.400990482457484226e-03
-2.718755227880278319e-02
-1.999168641797959001e-02
1.077662077826846421e-02
4.877856587751943501e-02
7.098016322240323361e-02
6.094697328076163767e-02
3.425001727125003004e-02
2.605731918782246137e-02
4.506575674377907847e-02
6.082598256671870041e-02
3.963294799292852583e-02
-1.863526938421522852e-02
-8.202793131322212716e-02
-1.204407489054248326e-01
-1.283791212365623380e-01
-1.089203675414033984e-01
-5.119923084521799117e-02
4.728038793537270301e-02
1.271348881609473680e-01
9.122003482236067107e-02
-2.031380441456182712e-02
7.191436246470825355e-02
5.549688207594076772e-01
1.065688994016935176e+00
9.939212853785659441e-01
3.596880027704866256e-01
-1.341452480397765656e-01
-4.748854798430447027e-02
3.219735566956091199e-01
4.858861957377894059e-01
3.447240705436932506e-01
1.283016107444605314e-01
1.621891795842580683e-02
-6.671178944996247751e-02
-3.031895870066056986e-01
-6.567870026275529627e-01
-8.185611714949068141e-01
-6.014841165074599205e-01
-2.208583726562522997e-01
-1.079827397377648712e-02
-4.051852739002887588e-02
-1.505156842093249014e-01
-2.033638910266160615e-01
-1.862087700910221577e-01
-1.521148628576920181e-01
-1.381927120075193138e-01
-1.350897599866205667e-01
-1.116104754531390270e-01
-5.562186883699895418e-02
1.384588221706481784e-02
7.052529681758824831e-02
1.041934550164717171e-01
1.136703357737023357e-01
9.317056812489540873e-02
4.324978778906520688e-02
-1.423789394251633381e-02
-4.873044380478625676e-02
-5.073527003308974520e-02
-4.124747935845914093e-02
-4.426995284958920585e-02
-5.975891573433436688e-02
-7.669596014790822092e-02
-9.561716502022273023e-02
-1.144376058614723357e-01
-1.091500794861705870e-01
-6.522212215362477306e-02
-2.846228974079870883e-02
-7.917969280070231985e-02
-1.959014304048254107e-01
-1.528763864109336512e-01
2.839885191842531076e-01
9.308166078774858798e-01
1.194474422662049173e+00
7.892252374942284598e-01
1.667283079084152519e-01
-1.023253431130291824e-01
-3.628752592638710694e-02
7.403859849461395803e-03
-6.754055474234806067e-02
-1.066522970130749232e-01
-6.045720787008838221e-02
-2.444829681974029778e-02
-5.709698166318480372e-02
-1.337398567854204134e-01
-2.096962105127803677e-01
-2.548466477042559686e-01
-2.591914589015956727e-01
-2.275074984857607674e-01
-1.662947408341557409e-01
-8.756682319230595091e-02
-2.335275441356321133e-02
-8.060178963273677277e-03
-4.155225935937815335e-02
-9.116177762557059472e-02
-1.276184519870768308e-01
-1.441326928981809807e-01
-1.481459816282157671e-01
-1.429490571728129489e-01
-1.117307279355942984e-01
-2.428089183459674477e-02
1.220954278066772730e-01
2.667209768339908749e-01
3.164095135819245952e-01
2.291676351369079656e-01
5.874543400008253036e-02
-8.942578011086589618e-02
-1.446485491739030460e-01
-1.161266521337570023e-01
-5.798988131710988703e-02
-7.819595545268249320e-03
2.546766859543850986e-02
3.582859158370019226e-02
1.469592185461871155e-02
-3.049870801327499159e-02
-6.918476168250760339e-02
-6.741026865126981127e-02
-2.789401263993039962e-02
-1.493154347677590546e-02
-9.190387242020178760e-02
-1.770541830550322882e-01
-3.445651367399514553e-02
4.151085343283011375e-01
8.169572094099704085e-01
7.310225056988362002e-01
2.665594085886832110e-01
-3.233738832377155981e-02
6.899371524065534000e-02
2.881318745659299241e-01
3.242203514185209023e-01
1.921869402145637562e-01
6.102484498001975455e-02
7.565377774768361312e-03
-1.038518039698250670e-02
-5.191936860929732833e-02
-1.306724415620985902e-01
-2.135455539450647200e-01
-2.485650240635529362e-01
-2.143685214574572728e-01
-1.438639112261704267e-01
-8.584773539031802236e-02
-5.948459608284738243e-02
-5.324876870424703756e-02
-5.068589700920377722e-02
-5.247580385092612265e-02
-7.657307476140896851e-02
-1.322507553159416038e-01
-1.899346031058882500e-01
-1.825250360133322258e-01
-6.222759369028579152e-02
1.264116385615878246e-01
2.578822221357854882e-01
2.401304062121067950e-01
1.025382848711346995e-01
-4.675834075999247413e-02
-1.263593483303324938e-01
-1.292673827139360909e-01
-1.020627065387074983e-01
-9.709582311951032996e-02
-1.196882621326934293e-01
-1.273712274822693113e-01
-9.960955998632306518e-02
-6.800908226860490069e-02
-5.189977000420260139e-02
-2.064575856768063877e-02
3.443669517032028199e-02
3.190498058004082732e-02
-1.184060109878821848e-01
-3.254940467043222485e-01
-2.734304145828135857e-01
2.437294360458236164e-01
8.911053145624692196e-01
1.020965466224319496e+00
5.107854141959705663e-01
-3.423781564628988749e-02
-1.065884934655600691e-01
1.369326978804227268e-01
2.798179437886441079e-01
1.886833275106849783e-01
9.309096652045718845e-03
-1.054534386264997653e-01
-1.242191774302150442e-01
-9.728381823529536065e-02
-8.156951871186585157e-02
-9.825973895830733551e-02
-1.391668118370626706e-01
-1.965458427826430043e-01
-2.626457002536148333e-01
-3.097045270688859597e-01
-3.087917644580345233e-01
-2.666730107566870345e-01
-2.149068819825207810e-01
-1.712516319894095140e-01
-1.344247717187177782e-01
-1.025599556709803212e-01
-7.308110730002588540e-02
-3.425880565037096176e-02
1.364364783941901180e-02
3.203273552394274304e-02
-2.212423832677498994e-02
-1.304091844633875064e-01
-2.167501440193002060e-01
-2.270208314371024994e-01
-1.859595570451349489e-01
-1.654988059968291458e-01
-1.997112797590135935e-01
-2.414349378199953100e-01
-2.196850047372468917e-01
-1.449866295267447647e-01
-1.163580270210280987e-01
-1.816113318644043129e-01
-2.520548562351132560e-01
-2.335544278854104483e-01
-1.747033553212929691e-01
-1.691103691199337955e-01
-1.300174249959500372e-01
1.599359083376868107e-01
6.357806626936164385e-01
8.148047621353121661e-01
4.128379904715901993e-01
-1.434755278500039199e-01
-2.484028140510096405e-01
8.720002892413744600e-02
3.651970003634318340e-01
3.079876710029892384e-01
1.280130057485683037e-01
1.688010672130546563e-01
4.347316305107983281e-01
5.664750680356862578e-01
3.211733300528217816e-01
-9.632721273700101117e-02
-3.268977011197660154e-01
-2.896481889782468455e-01
-1.658186307464971643e-01
-1.089860278676966637e-01
-1.164911138929513590e-01
-1.247050374552373664e-01
-1.174804784982256406e-01
-1.206071132014573388e-01
-1.443215631569097768e-01
-1.674544626199185871e-01
-1.638541285941415848e-01
-1.208069088060907681e-01
-3.678398213621730112e-02
7.361422698731595604e-02
1.681496499879887585e-01
1.928701424349092697e-01
1.237474343402016341e-01
-8.482772245983680875e-03
-1.355867055100093976e-01
-2.002314571389830766e-01
-1.962473921760009565e-01
-1.574322115194443372e-01
-1.102241928923632097e-01
-5.843197623330916718e-02
-1.360707019278499172e-02
-5.542535338639425872e-03
-4.068545905621092501e-02
-7.370485325180967107e-02
-6.279672332753906405e-02
-5.455028808989972194e-02
-1.446592667008622379e-01
-2.818710946450012078e-01
-1.804452853516820277e-01
3.517895955789210882e-01
9.647468865833748186e-01
1.012368812588683387e+00
4.168290032365223885e-01
-1.582332215290580824e-01
-1.887798036353680320e-01
1.304656434844529977e-01
3.308926432412051533e-01
2.641005192334109353e-01
1.028382999632499323e-01
1.826477575565471287e-02
1.933860098696727620e-02
2.428708524920408784e-02
-2.429826234687643138e-02
-1.180838610401024197e-01
-2.092954138690295840e-01
-2.589565224960424517e-01
-2.610360630837743612e-01
-2.289469461454864685e-01
-1.742927535993023525e-01
-1.081442867636813188e-01
-5.175201023923066412e-02
-2.544303415487374209e-02
-3.196836305983714877e-02
-6.659274268822695797e-02
-1.263293306140358674e-01
-1.917429053331555500e-01
-2.203103043652187287e-01
-1.704097101618183840e-01
-2.445756430812938073e-02
1.873186078503923380e-01
3.634810227999663579e-01
3.822802355524521079e-01
2.258616295660554607e-01
1.274788460129486559e-02
-1.277859238166222100e-01
-1.668829184989936987e-01
-1.484476538604713458e-01
-1.122272842499939388e-01
-7.017800240883709240e-02
-2.337457656422312416e-02
2.054885272444326866e-02
4.497411014126137530e-02
4.466166609626604639e-02
4.242458507247934274e-02
5.478367526377663638e-02
3.632651046900088609e-02
-8.460057117401613425e-02
-2.469332460819897435e-01
-1.775399201404123939e-01
3.283254182323071535e-01
9.714604868798444315e-01
1.116921710123032652e+00
6.151879956969096286e-01
6.520579942598100920e-02
1.115405424312724408e-02
3.032664060525745442e-01
4.680616615908081979e-01
3.304333294776491403e-01
7.558627981594230605e-02
-7.092386830778779627e-02
-5.703848776369827012e-02
1.861587760388298471e-02
3.380145839309749850e-02
-4.723078545495447422e-02
-1.425601198295764760e-01
-1.390346713795390654e-01
-3.864160906975618037e-02
2.309725068885818550e-02
-4.554443355310967834e-02
-1.630089328245148961e-01
-1.906908662982437219e-01
-1.111925164271306832e-01
-2.536164708244536409e-02
-1.709386053155977428e-02
-7.009502452897188596e-02
-1.041561778562464652e-01
-6.450023497411001838e-02
2.644047764411937979e-02
9.251920969778568149e-02
7.719017981386858129e-02
-3.988500838047644159e-03
-8.528387460654709984e-02
-1.167302281783357404e-01
-1.025888739667246696e-01
-8.698943311036082260e-02
-1.062143582230662964e-01
-1.458925274364999691e-01
-1.528084293836769747e-01
-1.092164403498293301e-01
-8.986712237325560071e-02
-1.911907158362327608e-01
-3.606073415679407201e-01
-3.856078954617798704e-01
-1.793281164573140296e-01
2.845399475330422090e-02
-1.616867198693161881e-02
-1.883155673233355420e-01
-1.091976648728204269e-01
2.974311092403562062e-01
6.072507171338761278e-01
4.535824169287762109e-01
7.055875390850765982e-02
-4.817750341648404516e-02
1.707820732650041640e-01
3.896405574840889341e-01
3.638553879167457650e-01
1.485493324697960416e-01
-8.402741925961701441e-02
-2.303216187210467281e-01
-2.771226626431401718e-01
-2.488653892311860627e-01
-1.795929027793334853e-01
-1.145380022671047132e-01
-9.731315610704456553e-02
-1.343591938983368650e-01
-1.884180701179785644e-01
-2.225530881661018923e-01
-2.335855453368211321e-01
-2.358981793309964381e-01
-2.326739521887902784e-01
-2.080465029240782804e-01
-1.404605878167571043e-01
-2.877899638511553088e-02
9.091295404405942693e-02
1.598378577245297416e-01
1.352199855440739951e-01
2.473887076963461953e-02
-1.114728004887136359e-01
-2.029933935402131739e-01
-2.241576022730713269e-01
-2.023299875560420069e-01
-1.723979453320745592e-01
-1.419195116480374275e-01
-1.055422458596186747e-01
-7.179825685966900739e-02
-6.135654101329111182e-02
-8.405248358712676116e-02
-1.223482429618015926e-01
-1.467600277528535446e-01
-1.651340021542359315e-01
-2.275580106155897508e-01
-3.012815030876040967e-01
-1.724785045431500297e-01
3.081624794135642831e-01
8.320502094233985790e-01
8.465968060864255129e-01
3.202362378025621625e-01
-1.458134986251780618e-01
-1.358652450658852928e-01
1.198664933406388133e-01
2.235429826481674098e-01
1.204861750982589574e-01
3.613555492379304929e-03
-1.292131015446025544e-02
2.087991992697983343e-02
2.318139490412358256e-02
-1.617322677696702432e-02
-6.183481925993337264e-02
-1.001691417725974476e-01
-1.402965176359783350e-01
-1.689650075672293472e-01
-1.511528795589860141e-01
-8.339850873588634805e-02
-1.400960141209140093e-02
1.162103851208246691e-02
9.266041039618536784e-03
3.093416219817149773e-02
7.596683140276887236e-02
4.578545838307182536e-02
-1.568229038540980280e-01
-4.337902576311004621e-01
-5.016041887157218770e-01
-2.360065052101142369e-01
1.241749347831341554e-01
2.780523328487927159e-01
1.999426155152699558e-01
5.034363802515826741e-02
-6.305990769758931802e-02
-1.241993354040337172e-01
-1.401444723952278704e-01
-1.266314700818481631e-01
-1.095532316405029571e-01
-9.866721513065046523e-02
-8.099565066644863476e-02
-4.300221557206634904e-02
1.143138362783237619e-02
4.314344804614518580e-02
-1.822548392471032980e-02
-1.736605423226995071e-01
-2.199212986778212864e-01
1.265242390819074636e-01
7.818779918194539436e-01
1.162475302972191260e+00
8.543806704079833780e-01
2.213883399012260278e-01
-6.990428386277078299e-02
1.016547143678214055e-01
3.319135844871303753e-01
3.190167725268860943e-01
1.235298497701355636e-01
-6.200031625860005779e-02
-1.447280178025872055e-01
-1.412805609931142015e-01
-9.846827495523095830e-02
-5.405595463033070758e-02
-2.841936886246829164e-02
-1.814393809145313508e-02
-1.073251524718242013e-02
-1.580095394034114475e-02
-5.871776703384626317e-02
-1.320934932316285282e-01
-1.834702590274920886e-01
-1.709074001284819622e-01
-1.052815925562807786e-01
-2.655688448785611250e-02
3.286405338706763213e-02
6.087475138613521186e-02
7.009427750267628598e-02
8.471396762750366127e-02
1.085342190614449059e-01
1.162068007112193602e-01
8.344370787652682919e-02
2.287918667441901296e-02
-2.179632047132682923e-02
-3.157755916522814871e-02
-3.588308677391848639e-02
-5.418691843587033347e-02
-6.258785107227818334e-02
-5.270277688586189752e-02
-6.433477273261062335e-02
-1.237263193608895556e-01
-1.967627654927396608e-01
-2.243449471258536498e-01
-1.730864617259766924e-01
-6.191595944521556538e-02
2.319176384916164790e-02
-1.525977620726455715e-02
-1.254825198137111963e-01
-4.833075047130928892e-02
3.788320432016458184e-01
8.422623231932701016e-01
8.091945991752199641e-01
2.791792350855968330e-01
-1.415938955583160852e-01
-5.299184583312295527e-02
2.936723740271589556e-01
4.606481704535888566e-01
3.420261435481600776e-01
1.176611248546546862e-01
-4.793008302614903959e-02
-1.298137973188850103e-01
-1.711903428289081874e-01
-1.997899176109084463e-01
-2.119735944733140143e-01
-1.958698390363088904e-01
-1.571318455447961449e-01
-1.172924422194334404e-01
-8.844962267279438128e-02
-6.880554957727140486e-02
-6.012783111841595030e-02
-6.802265035454563291e-02
-9.021739033632632243e-02
-1.160500298725812562e-01
-1.297829205093123384e-01
-1.170765520741092747e-01
-8.147994722243144528e-02
-4.477932321753769207e-02
-1.570029875778224115e-02
2.540481505622899094e-02
8.619352737453393754e-02
1.215643928481226210e-01
7.423746487865730270e-02
-4.053582970078949133e-02
-1.337432122150675196e-01
-1.413471357748185553e-01
-8.822703690236181895e-02
-4.353573734644667487e-02
-4.671944294815467968e-02
-8.469032933687797859e-02
-1.224118854281230212e-01
-1.496607954412595698e-01
-1.844446322363284818e-01
-2.235995376958502534e-01
-2.236918048798478553e-01
-1.586577726206332140e-01
-8.246733969947751819e-02
-9.880908962852215371e-02
-2.129950473602622851e-01
-2.076531899282193505e-01
1.705484823553048146e-01
7.595509013865668901e-01
9.695633481760692618e-01
5.280264141223217633e-01
-6.190894208534443444e-02
-1.826251648781510584e-01
1.191599536794208936e-01
3.651512247481302764e-01
3.209210955917017882e-01
1.281347608156835072e-01
-2.114167623113697575e-02
-9.170458044242069118e-02
-1.414824732060510071e-01
-1.978231662398934332e-01
-2.323171732179110660e-01
-2.168296203988200610e-01
-1.684613318791517989e-01
-1.282970895397098077e-01
-1.124135215604108173e-01
-1.070376857090971912e-01
-1.023891983013506396e-01
-1.047274580261085969e-01
-1.197623345731973071e-01
-1.458040684811855170e-01
-1.751838313348158815e-01
-1.812254905191183485e-01
-1.196331933980069873e-01
1.872202677211042693e-02
1.604011698369284811e-01
1.992045609808124063e-01
1.060146429572939308e-01
-4.013094465089955820e-02
-1.394196044022137093e-01
-1.649680776543182292e-01
-1.595904902390979929e-01
-1.633431513473906638e-01
-1.699665625326579332e-01
-1.509003162254100583e-01
-9.853645083877336786e-02
-3.848122438400835427e-02
-6.842445345889264230e-03
-1.697427006870403515e-02
-5.764948542631917472e-02
-1.274825435572898291e-01
-2.301968782484026255e-01
-2.883899941377908172e-01
-1.102783542114039311e-01
3.845655917604642315e-01
8.630607063670774348e-01
8.201383172817297007e-01
2.848482406751395302e-01
-1.275354877882989291e-01
-4.332769860484755875e-02
2.453707709177253560e-01
3.069306990717511896e-01
1.058646421228035261e-01
-1.020832350243145448e-01
-1.408187434034717800e-01
-5.882903071303716147e-02
-8.561439297639021617e-03
-6.533257272085148115e-02
-1.495523491928766879e-01
-1.151584339940282531e-01
5.236780958377203199e-02
1.693051260683348103e-01
7.935358125866197321e-02
-1.273893053486146454e-01
-2.428614173137572385e-01
-1.985566834001710468e-01
-9.332085986207733219e-02
-4.158943022782547738e-02
-6.278818416472467523e-02
-9.565319714737605117e-02
-8.545832703407738040e-02
-3.143882496994612752e-02
3.881700101850792811e-02
9.069846667678879704e-02
8.376941540694138322e-02
1.118581504149200254e-02
-6.640574881642080651e-02
-8.057595088952893003e-02
-4.368172002334824722e-02
-3.655223171315265945e-02
-1.078591528108138048e-01
-2.141869696526909062e-01
-2.723966708033577766e-01
-2.498064948423563414e-01
-1.775292581533087777e-01
-9.322641613279615547e-02
-1.186089235184655498e-02
3.686705880656398343e-02
-1.534572742100392788e-02
-1.792897914485011845e-01
-2.619552191350134063e-01
2.364644759233539700e-02
6.167522979780795112e-01
9.687936435256769840e-01
6.917194585191897005e-01
1.392579273024965869e-01
-6.752868428458261296e-02
1.511080007326096597e-01
3.849936580223408122e-01
3.512597355107381358e-01
1.284472158279422738e-01
-8.419128764357500239e-02
-1.959039989572704810e-01
-2.313152730732974116e-01
-2.368973968970074506e-01
-2.219771587969560089e-01
-1.706594414449248420e-01
-8.972724408521180750e-02
-3.044297614266252422e-02
-5.242878797911303124e-02
-1.574867474627873742e-01
-2.679016895839889112e-01
-2.888028326610605490e-01
-1.935867913343342073e-01
-5.081984254477507623e-02
3.516462251092310198e-02
2.960656626846205550e-02
-6.797474836980704760e-03
-1.459583329264537918e-02
2.057016524473853289e-03
2.920780987098565290e-02
7.950388401708760600e-02
1.447749075957920073e-01
1.722360430151561039e-01
1.198563794563677620e-01
1.187638929006173093e-02
-7.612092339008127984e-02
-8.523236891998905995e-02
-2.862630084460895258e-02
2.236289893479147250e-02
1.247013841948441115e-02
-4.643584773156644169e-02
-1.077008434616171240e-01
-1.504934148219343182e-01
-1.779370104336396585e-01
-1.728928516238457114e-01
-1.045715573750369970e-01
5.093437306139576501e-03
5.525857253869613517e-02
-2.901585555957802293e-02
-1.235408962114343673e-01
6.521038564502801282e-02
6.027198030624627556e-01
1.035318839098826826e+00
8.618959390212577176e-01
2.633385904816074596e-01
-9.763962649034778341e-02
4.667746456153235024e-02
3.554346235314774782e-01
4.550855735517678746e-01
3.206066501372149546e-01
1.193794433520085074e-01
-3.815039039003993021e-02
-1.438168095219706233e-01
-2.178863870072873521e-01
-2.572440337644425479e-01
-2.424133606416769560e-01
-1.737209276195554875e-01
-8.979210327188077989e-02
-4.447421693582526148e-02
-6.267672533976037519e-02
-1.223124082602554674e-01
-1.838720469483260400e-01
-2.271558664345771084e-01
-2.471384374705632991e-01
-2.327226085588290916e-01
-1.816536686293655500e-01
-1.286230650695774080e-01
-1.135817945875331331e-01
-1.119358640826787210e-01
-5.544406800645255984e-02
4.389865069775804318e-02
6.743158301753450490e-02
-4.547519796540217679e-02
-1.688414354582422339e-01
-1.181610226913863831e-01
9.821359017977600303e-02
2.560993723697502777e-01
2.014652653935368187e-01
4.391569432776910170e-02
-3.022664422081914465e-02
-8.842078761665520328e-03
-1.010955352622844305e-02
-8.625044752456312303e-02
-1.670442384348098663e-01
-1.700226338475251120e-01
-1.173492253014077336e-01
-1.193915734623370167e-01
-2.075993126474403594e-01
-1.885690835514259311e-01
1.886367654827097728e-01
7.876606375427903650e-01
1.030305780368227397e+00
5.965500548061146713e-01
-6.448123579605116729e-02
-3.000263488157508540e-01
-5.583439189169701194e-02
2.347378026892045222e-01
2.884900454698494654e-01
1.833916636959710689e-01
9.090664420102759213e-02
5.278284378905653135e-02
1.750429726263734442e-02
-4.534703711568953410e-02
-1.208844050341750520e-01
-1.839698743698886529e-01
-2.133876245404206784e-01
-1.913976372590539266e-01
-1.247983402331331038e-01
-5.723949130221667181e-02
-2.667888485073142968e-02
-1.825895449124208952e-02
6.536637821857653637e-03
4.680004500084609248e-02
6.868190584965540302e-02
7.200793115880461948e-02
1.042780205214575429e-01
1.811803263658199048e-01
2.382767166904429246e-01
2.098020995439259240e-01
1.121276452759681491e-01
8.271945515317334977e-03
-6.586746497421672175e-02
-1.146272775750644818e-01
-1.571970539905201969e-01
-2.041320034407752282e-01
-2.448070805991052756e-01
-2.578394054963101256e-01
-2.354828080801424084e-01
-1.871363628623627651e-01
-1.291914591020628666e-01
-9.512193527331500031e-02
-1.406898699355038085e-01
-2.785365841589428348e-01
-3.668112068694117101e-01
-1.653714589055982620e-01
3.153587268042195024e-01
6.322419814357792545e-01
4.131295216041481755e-01
-6.427991494923668281e-02
-2.103682631640350909e-01
8.098952391189197242e-02
3.597225485341495888e-01
2.420107650246592634e-01
-1.706091750862048506e-01
-4.876578952723111260e-01
-5.021413658961282334e-01
-3.508779275257172259e-01
-2.356732186734533385e-01
-1.831986234021410198e-01
-1.394292033724516267e-01
-1.185694927148201044e-01
-1.550026664271604016e-01
-2.174855532841275807e-01
-2.558238682631923111e-01
-2.654768257404035992e-01
-2.595026928876514871e-01
-2.374073093345271390e-01
-2.037213477631391045e-01
-1.663017041097426818e-01
-1.136264978764841976e-01
-3.205043202386819584e-02
6.408908281574403343e-02
1.417628141109162909e-01
1.667376292533003512e-01
1.085830394587156827e-01
-2.252791499541435122e-02
-1.311933030914533005e-01
-9.480998705389458159e-02
8.317753296492881587e-02
2.355925573662907835e-01
2.221492442818326085e-01
9.304808933697861217e-02
-1.903010579733195248e-02
-7.855729307532080541e-02
-1.298501702633770571e-01
-1.827243563198513998e-01
-1.981688235474109439e-01
-1.637917086170201930e-01
-1.410968123197948176e-01
-1.953326988996582081e-01
-2.363825046239251271e-01
-6.128105429945540986e-03
5.776765957061738010e-01
1.088663252298130546e+00
9.728703035271690780e-01
3.296934759588802666e-01
-1.490697512626025234e-01
-8.506333976455904278e-02
2.204064632253359135e-01
3.430371517215493604e-01
2.298036929201965894e-01
8.443891064383519940e-02
3.507315218414963631e-02
2.309665931467766442e-02
-6.715842877375732822e-02
-2.388863339389744322e-01
-3.406136486659666063e-01
-2.110191034065606319e-01
9.817660766717956067e-02
3.135354104786871599e-01
2.450464157341851190e-01
6.854970815981499543e-03
-1.628069807334728836e-01
-1.810540796099990857e-01
-1.338075868580540784e-01
-1.177676048530572478e-01
-1.472948568701117622e-01
-1.769436878909726729e-01
-1.692102463119484201e-01
-1.292462156688345687e-01
-7.860853821116521589e-02
-1.831794476168745189e-02
6.653046847076782289e-02
1.918516751187431535e-01
3.625989199476253866e-01
5.102477099544978634e-01
4.835185695219859081e-01
2.290864650903220445e-01
-8.551825966201209717e-02
-2.522718813091051615e-01
-2.309517835861854274e-01
-1.161419404623717094e-01
-1.314104062057891084e-02
1.831968416057828605e-02
-2.526733180924096295e-02
-1.052281681852851314e-01
-1.692912070706496241e-01
-1.680949966191339628e-01
-8.768313284387024842e-02
-8.339902947888239854e-03
-5.568312125598182810e-02
-1.759687157031083471e-01
-4.956098817054883920e-02
5.072235209734010652e-01
1.081300218478833397e+00
1.030435596631884332e+00
3.790405171716821342e-01
-1.639799949234729548e-01
-1.518190548573651322e-01
1.559153810265100915e-01
3.224954670480754126e-01
2.508983184475430672e-01
1.073896891892973660e-01
1.809841324222829714e-02
-4.153684010221496414e-02
-1.472099669299483660e-01
-2.872884459702687021e-01
-3.195092145099235892e-01
-1.071866894882796684e-01
2.314948769792060657e-01
3.353903453511660748e-01
5.055212281647518402e-02
-3.037947215227528308e-01
-3.591854031080978782e-01
-1.693204637436735716e-01
-3.906180294069460518e-02
-9.812529743194844944e-02
-2.148233476689706267e-01
-2.077154871238738321e-01
-4.363589027744335658e-02
1.539438737786352762e-01
2.600474932152316843e-01
2.573286784859964427e-01
1.835948888974403281e-01
6.413875438509561433e-02
-7.006876904659396776e-02
-1.672608092620277986e-01
-1.906281528953130411e-01
-1.561339749287412038e-01
-1.230614043670534424e-01
-1.268760302893205405e-01
-1.363607848885533547e-01
-1.115193346401961716e-01
-7.047106771330069463e-02
-5.620570451711758009e-02
-7.204100704118691911e-02
-9.138649776915452883e-02
-1.135014345130512664e-01
-1.749903813061162994e-01
-2.784669292110534267e-01
-2.870414292921181221e-01
2.397473297318040292e-02
6.212825241859725178e-01
1.009633034897859050e+00
7.488793497307635327e-01
1.058167347405078451e-01
-2.586975200556486665e-01
-1.353874414513056013e-01
1.275033266974526236e-01
1.970335918603754177e-01
7.132998416427610566e-02
-7.559561608429643531e-02
-1.250393833853436776e-01
-9.047573088951009479e-02
-6.231925856627680560e-02
-1.087605635778046559e-01
-2.165322463776940543e-01
-3.192567491552352754e-01
-3.772657444911643454e-01
-4.007132276756914524e-01
-3.897279095393043624e-01
-3.157314405021823811e-01
-1.914320232906316366e-01
-9.071395248637734166e-02
-6.333072295016665965e-02
-7.967476975514584114e-02
-7.495523587458158277e-02
-1.564130489419677389e-02
7.020917495678631604e-02
1.093162104096451342e-01
5.287240199598423201e-02
-5.737328377659741546e-02
-1.249486523124951620e-01
-1.120879399613005645e-01
-7.743089342965346622e-02
-8.604429866117294101e-02
-1.323129545630845338e-01
-1.790090552894466891e-01
-2.212898890061109070e-01
-2.707252594761508924e-01
-3.073113038815395437e-01
-2.852562851391387544e-01
-1.830667682918903083e-01
-4.514558640414386564e-02
1.881854053841330171e-02
-7.995679463491968397e-02
-2.439371275702116593e-01
-1.559266265560112774e-01
3.667780689963630603e-01
9.436647700149721762e-01
9.387377161365244582e-01
3.470661747034659572e-01
-1.241473103306390963e-01
-2.326228522765963480e-02
3.438934535589455721e-01
4.942361451672411254e-01
3.491678393556995608e-01
1.165532194701981439e-01
-5.816473961743524879e-02
-1.612872107833520641e-01
-1.994944384758682299e-01
-1.729848489298711767e-01
-1.208398029035870069e-01
-1.016404124882875071e-01
-1.239517330738032219e-01
-1.419106272186988760e-01
-1.280899735685089302e-01
-1.125679246717261467e-01
-1.327291554715093747e-01
-1.773497658336826432e-01
-2.046197443515817838e-01
-1.914517582030820508e-01
-1.417948594109805505e-01
-6.720638695280060915e-02
1.833712300498461720e-02
9.792906564183863349e-02
1.577858786696471616e-01
1.844388073219064283e-01
1.583195799977990259e-01
6.915103895522016486e-02
-5.696191039509684167e-02
-1.614676503633432070e-01
-1.938350290650293350e-01
-1.463516183608480348e-01
-5.738763874748234461e-02
1.448918180938411383e-02
3.195040217597645144e-02
4.058295246668584821e-04
-4.996508063581683173e-02
-8.835873465063616428e-02
-9.455319405118392528e-02
-8.543930174201863625e-02
-1.256050047739087350e-01
-2.254732000534152292e-01
-2.006559787862988442e-01
2.010403229626308574e-01
8.661893391102292172e-01
1.212528350487144246e+00
8.547345343311507637e-01
1.798578149012940441e-01
-1.356433106674760358e-01
3.911992006069224537e-02
3.043745112142313691e-01
3.465971201128010826e-01
2.097836200764504611e-01
7.553197103599226803e-02
1.991729024059844116e-02
-1.751762595277279316e-03
-4.877190856587074186e-02
-1.275177508222751777e-01
-2.030769572380167753e-01
-2.437928868777014535e-01
-2.450650134604238917e-01
-2.197431240498350646e-01
-1.809584959735042187e-01
-1.406622786955756543e-01
-1.132231681566860521e-01
-1.050173784404395405e-01
-1.087145986809017056e-01
-1.206365546194732852e-01
-1.473818968074556979e-01
-1.811041309436811075e-01
-1.854159709597631989e-01
-1.211204973445207250e-01
1.723330950576377335e-02
1.856141404518018845e-01
3.036263489702519802e-01
3.038548068559119852e-01
1.910175046871486482e-01
3.761529233372802594e-02
-9.118997572573160626e-02
-1.816931632545440156e-01
-2.347551279904458998e-01
-2.335135568919523563e-01
-1.740185525340580130e-01
-9.315413485871315569e-02
-4.214839456764245262e-02
-4.228125554737904163e-02
-6.648291672859177326e-02
-7.035605515300105695e-02
-6.337555322850572936e-02
-1.284452331165827077e-01
-2.979004709447508614e-01
-3.847419005387494595e-01
-8.017416752754961962e-02
5.901689875599666069e-01
1.060503662482451537e+00
8.461358711385487119e-01
2.373885925489998272e-01
-7.169072142015212035e-02
1.129254370646439465e-01
3.871483608785551422e-01
3.922530259390519247e-01
1.776308757566035790e-01
-1.569099166463446687e-02
-6.510548815360805985e-02
-1.637567626196745688e-02
3.428185401340058669e-02
2.945947757652635571e-02
-3.041913990156439040e-02
-1.058449238743954246e-01
-1.602135512442216525e-01
-1.871237841997422102e-01
-1.893163402509271953e-01
-1.589605037187970249e-01
-1.016233340860972639e-01
-4.456821072930466920e-02
-4.275411226133162337e-03
1.578627526096523445e-02
-3.605879027798906608e-03
-7.767098714069885224e-02
-1.631620558512995589e-01
-1.667095289839341798e-01
-3.721523620214932382e-02
1.562718788617528387e-01
2.706677036967257699e-01
2.298427131742024621e-01
9.319597847347362018e-02
-2.989655143919638103e-02
-9.371501640821215673e-02
-1.222870960692508113e-01
-1.447795384553945131e-01
-1.674988300499742622e-01
-1.905708402700676818e-01
-2.078478010099641393e-01
-1.964845288132167911e-01
-1.413331461735018724e-01
-5.958481700969056605e-02
2.087847094861060293e-02
7.624238209660424981e-02
5.451675742935511992e-02
-1.030351663273896823e-01
-3.156955964303633233e-01
-2.928425267955992450e-01
1.744301094802125085e-01
7.912977619537744367e-01
9.522378942803541024e-01
5.290918977429086567e-01
6.471058145846173004e-02
2.366187028500745665e-03
1.829498198642143802e-01
2.464588779383850015e-01
1.109676623913584126e-01
-7.078790641166364528e-02
-1.661843514170744107e-01
-1.661762237986930679e-01
-1.343118527689106667e-01
-1.248590752887668853e-01
-1.429805819343376860e-01
-1.580946317548549418e-01
-1.508140303678205951e-01
-1.454596360276717848e-01
-1.816895317224945516e-01
-2.559196762703739858e-01
-3.124877878850369495e-01
-2.982663295659189751e-01
-2.154503276087453845e-01
-1.150320487924957197e-01
-3.818444025633349614e-02
2.406168066386538129e-02
9.440755956147611760e-02
1.484710682767328704e-01
1.305732301103831317e-01
3.088013749171346703e-02
-8.840358414009971688e-02
-1.575107469852153330e-01
-1.678863089595807601e-01
-1.551977453127602047e-01
-1.357030313711576897e-01
-1.023680935204265702e-01
-7.247638270520924408e-02
-8.724413829105633067e-02
-1.584990024166577915e-01
-2.428439369611194165e-01
-2.702965748226500708e-01
-2.038554491849128292e-01
-9.010320546646950757e-02
-4.000544392433579705e-02
-1.258719887638305446e-01
-2.570180804919572348e-01
-1.727686142685262993e-01
2.771985549453707676e-01
7.738460556499691112e-01
7.563539533069122411e-01
1.887830092463077258e-01
-3.045529494056135045e-01
-2.741706060530322842e-01
3.370296806048693472e-02
1.736409002786347688e-01
1.256849734285054032e-01
1.996428630270834781e-01
4.800677689325561492e-01
6.384085241316934667e-01
3.998637140753814601e-01
-5.589545963543467860e-02
-3.601893893285281756e-01
-3.923583561167715006e-01
-2.833622734100417206e-01
-1.744889484447741668e-01
-1.084613998257756839e-01
-7.564027823061394984e-02
-7.411655436698416644e-02
-1.064426544304270805e-01
-1.489303881866693990e-01
-1.652393003886288292e-01
-1.462639359405093209e-01
-1.049454920495077187e-01
-3.609333144140995653e-02
8.331389014069932875e-02
2.360685608759548193e-01
3.301745124276688204e-01
2.705882246006710568e-01
7.623705988543151568e-02
-1.219366048458638274e-01
-2.160678795175696443e-01
-2.113253482135478978e-01
-1.754546776424412979e-01
-1.483171348889730234e-01
-1.247418618578518268e-01
-9.648169046161746143e-02
-7.212845283654514827e-02
-5.835771275361242849e-02
-6.012609102410107487e-02
-1.128000416623768515e-01
-2.554378749767269863e-01
-3.937610084428569412e-01
-2.449838492152951741e-01
3.621982937949712600e-01
1.070668481327534893e+00
1.212706125303904647e+00
6.529103848868512694e-01
3.111412734531479596e-02
-7.052627148746593022e-02
2.116419218513791445e-01
3.892736216185943010e-01
2.644971006352612730e-01
1.936710555974683820e-02
-1.001417769931518265e-01
-3.993369584695173613e-02
3.424286038973962942e-02
-8.388893379178866128e-02
-3.785582490704740843e-01
-5.826030046697046050e-01
-5.081348070286910712e-01
-2.868069237366923652e-01
-1.567017751193394981e-01
-1.618585563830680918e-01
-1.852483221225930399e-01
-1.501803056689582638e-01
-8.036484662908489895e-02
-2.211904731489060943e-02
1.293490101066016064e-02
3.396917523789266813e-02
4.334643392148605778e-02
3.429367132745829438e-02
7.665106376714869024e-03
-9.589318254940727704e-03
1.747919609555475054e-02
7.679928376704331372e-02
1.110580576355945648e-01
9.689669125564670527e-02
6.861447774872278527e-02
5.141220204864244830e-02
3.147903131636557023e-02
-5.877590070779151882e-03
-5.530539929930242127e-02
-1.034141445176452734e-01
-1.343846076572755843e-01
-1.256325289323223793e-01
-5.381517011622646840e-02
7.287373119924771270e-02
1.747356574620576308e-01
1.289445905937102177e-01
-7.433040517949900117e-02
-1.832847954404193958e-01
1.203438388942247445e-01
7.118209005078893759e-01
9.804200483957487000e-01
6.102626506732098388e-01
7.771475743865965957e-02
8.038806421937806646e-04
3.390103271252271067e-01
5.822304093145710402e-01
4.526188751130901800e-01
1.223232449671851074e-01
-1.282837418997681833e-01
-2.204348210964099941e-01
-2.358764469241869111e-01
-2.387152208032209399e-01
-2.277131310950791243e-01
-1.976944628317084396e-01
-1.692480321898992557e-01
-1.582362849682299455e-01
-1.557905923119724811e-01
-1.528019705129928518e-01
-1.618843184488691911e-01
-1.972908636133946514e-01
-2.407806383185230881e-01
-2.443012260806672886e-01
-1.806826993188942743e-01
-8.903464667699474699e-02
-4.439940937192225767e-02
-7.112844100599305386e-02
-1.128185159915324615e-01
-1.027536328557208389e-01
-3.690811045122763256e-02
3.484261901270969963e-02
6.549096573446008818e-02
4.956978978938636482e-02
1.631143299678210895e-02
-8.163700450362175801e-03
-2.206163021043890463e-02
-3.113705732877649832e-02
-3.300737257759023269e-02
-3.037614627113296301e-02
-4.102432280570697531e-02
-7.953758163943772108e-02
-1.377412399984677960e-01
-1.865731726617531061e-01
-1.899398567325553955e-01
-1.240392300468548953e-01
-3.327636694728805002e-03
9.956192652532044884e-02
7.940656852531501053e-02
-8.334145585679915424e-02
-1.844035921809450973e-01
8.277987650089586869e-02
6.688212722959386847e-01
1.009222751192985212e+00
6.909043830758745397e-01
8.143184686567453423e-02
-1.502986321970010142e-01
9.592151918779653896e-02
3.837311089246360774e-01
4.000080094956676158e-01
2.160294513858581067e-01
2.845243729867685117e-02
-8.479919550514430915e-02
-1.492684020940071021e-01
-1.843335428164576961e-01
-1.780383095438871632e-01
-1.321415187139196867e-01
-7.570127409932725371e-02
-3.611045900520984397e-02
-3.092466775935373557e-02
-7.109566931148628144e-02
-1.359644806099896130e-01
-1.722004407869540676e-01
-1.495392234159649836e-01
-8.707130585800823552e-02
-1.242673170396476831e-02
5.378687515692388149e-02
6.113308583438273325e-02
-4.442013890557647282e-02
-2.052406399007682125e-01
-2.584527230119647578e-01
-1.542993884814930217e-01
-4.880358080672103638e-02
-7.591866574308697713e-02
-1.744036812863447028e-01
-2.153860438436792368e-01
-1.628655122580730530e-01
-6.560724792435310149e-02
1.608774724358328842e-02
4.562008960660060564e-02
1.588095268019674988e-02
-5.106905689650603763e-02
-1.143434656425752760e-01
-1.374153311861376348e-01
-1.095476671137749491e-01
-5.981810204899652705e-02
-5.859063091944066021e-02
-1.542479424105596686e-01
-2.366634394968450683e-01
-4.651170020554257906e-02
4.649471879116485740e-01
8.543561978139357915e-01
6.466894023851356144e-01
4.346801513450665455e-02
-2.978737176434467782e-01
-1.331449316799128146e-01
1.836910409152707202e-01
2.910164419661089852e-01
1.938051896294371856e-01
7.719296964652111459e-02
1.974014396187152159e-02
-3.541990514810649388e-02
-1.377387842928507466e-01
-2.492665245171557242e-01
-3.010972985424969495e-01
-2.890648138937506051e-01
-2.817247885644325600e-01
-3.163849399621126990e-01
-3.291939877263309611e-01
-2.498699545570256808e-01
-1.203052777423957442e-01
-4.131258600742259562e-02
-4.519702741591875156e-02
-8.250837632156285406e-02
-9.446194553858824894e-02
-5.350406760217660262e-02
3.739787249426645283e-02
1.423869868479685219e-01
2.010534046671836328e-01
1.748541080369944434e-01
8.407628796384013226e-02
-1.675988691230926100e-02
-8.715238935953456556e-02
-1.194218275853158456e-01
-1.342753712666050758e-01
-1.648344570751875127e-01
-2.222806765601443857e-01
-2.642005472885472495e-01
-2.211689701903045147e-01
-8.773163634091846186e-02
2.957070860830177117e-02
-2.969943270633901636e-03
-2.085041240123706452e-01
-4.598516158702681822e-01
-5.508468067420587699e-01
-2.866205882389337156e-01
3.502413903312869836e-01
9.828486525800648188e-01
1.060768954022883515e+00
5.500414418604943068e-01
5.313276381935691517e-02
2.100345873215930456e-02
2.573542001862671458e-01
3.541979303326341366e-01
2.239089595038277480e-01
4.891167817612509378e-02
-3.809693820156127148e-02
-5.588543139654145175e-02
-5.980178113931824274e-02
-6.499606930228556123e-02
-7.007304877310269187e-02
-8.058115421697620295e-02
-1.062087270606315859e-01
-1.564021136220914709e-01
-2.247731800012660597e-01
-2.770426131920297741e-01
-2.791055979010146348e-01
-2.345952336456231524e-01
-1.737945725335941216e-01
-1.161415107761786525e-01
-6.432276964643499073e-02
-1.929178331137266014e-02
2.060446074894730153e-02
6.060444357746868488e-02
9.351073305388638013e-02
9.679980721277983702e-02
5.719129416392054743e-02
-1.104854200365709346e-02
-7.678196256625892391e-02
-1.137431774748616786e-01
-1.150858145815110006e-01
-1.061221947184567416e-01
-1.406044875530314819e-01
-2.281681175425994967e-01
-2.334945200679918453e-01
3.178310185437767388e-02
4.855078401217162165e-01
7.245472179087373288e-01
5.250741470743289785e-01
1.482155580692851582e-01
-8.342393677677116537e-02
-1.749744733775268068e-01
-1.923410797761481161e-01
3.417938335019336804e-02
5.842015315095181460e-01
1.030469949089779291e+00
8.428765798901530770e-01
1.878359630697071792e-01
-2.101440549332445340e-01
-2.485740298334557230e-02
3.567360422845525791e-01
4.655562669817319144e-01
2.624338083548832246e-01
-7.080919162791382560e-03
-1.654410484008729532e-01
-2.137005406651875106e-01
-2.275956003009088069e-01
-2.485165587380000207e-01
-2.646945755483983143e-01
-2.500584480480783633e-01
-2.017202470443248130e-01
-1.458379957313127862e-01
-1.111283077191492635e-01
-1.016992920745934115e-01
-1.030143312310605047e-01
-1.061819326744728176e-01
-1.148353687391769629e-01
-1.320741827131863000e-01
-1.478461337934199871e-01
-1.436987798265907668e-01
-1.139914831373173149e-01
-7.095449686910647313e-02
-1.446195388106336945e-02
7.847408757672827417e-02
1.997465544934647619e-01
2.729694516399521209e-01
2.238841896344306859e-01
7.801924057682381453e-02
-5.970063367498477935e-02
-1.174313862772605188e-01
-1.070503755414908831e-01
-6.912449199682815792e-02
-1.786859014978600668e-02
3.778031381324495341e-02
5.829210794783722810e-02
6.931850991416620492e-03
-9.096971504191429803e-02
-1.579240601384907794e-01
-1.355284203541808896e-01
-4.065984459266493156e-02
3.258601538635914202e-02
-1.816794826591694445e-02
-1.519717427096772822e-01
-9.936790494767595849e-02
3.623954592802883790e-01
9.503045923126062222e-01
1.037528075131270988e+00
4.905533921565843336e-01
-8.191598580685656439e-02
-1.498620762405256379e-01
1.287836147439697654e-01
3.089360811055487654e-01
2.490581323586271711e-01
1.135789440328612149e-01
5.113609651262817496e-02
5.484152387711074828e-02
4.926692421942659161e-02
-4.331661721404707344e-03
-7.979798454724500167e-02
-1.205760202712028023e-01
-1.000653019819782164e-01
-4.298146392453254527e-02
1.400120523414901362e-02
5.347111624051301138e-02
5.970472938949065306e-02
1.016749350981658966e-02
-8.582651869595558924e-02
-1.673694327659615011e-01
-1.742188856392940521e-01
-1.018774539529789802e-01
1.382958081052560254e-02
1.324302933426176332e-01
2.054609786254355530e-01
1.845952504162735597e-01
7.602630347332096916e-02
-4.916753170685598390e-02
-1.372722806161006948e-01
-2.045738374024927697e-01
-2.752096504140058575e-01
-3.153734375068357187e-01
-2.748427026205981782e-01
-1.704150653818108929e-01
-8.088154428454191747e-02
-5.136746165306032424e-02
-5.267791679335024485e-02
-6.631930285290654759e-02
-1.429010663791180080e-01
-3.131290115098236959e-01
-4.982575292629028985e-01
-5.476434421845535194e-01
-3.060126212327179962e-01
2.573808205935225746e-01
8.216162417680488161e-01
8.692006049516626254e-01
3.526753639455729172e-01
-1.391051397336979523e-01
-1.498087822813767567e-01
1.136452898772730702e-01
2.110389567794148102e-01
4.093516551782859503e-02
-1.879411296839715584e-01
-2.969620876807267384e-01
-2.813700151948863026e-01
-2.243993163119991086e-01
-1.977771937411862968e-01
-2.285087039299890099e-01
-2.974598874247525448e-01
-3.643140590095274023e-01
-4.101342578791437044e-01
-4.462585847614246037e-01
-4.757798456534315656e-01
-4.705571263700393247e-01
-4.042902547095264532e-01
-2.937170060086289336e-01
-1.932189828404085596e-01
-1.497766506639952033e-01
-1.606129325682574271e-01
-1.727893787253345637e-01
-1.292470842951955190e-01
-2.535015293294201610e-02
7.710372907168726309e-02
1.093239890842733208e-01
7.238102069510310432e-02
2.708799202499157649e-02
8.606939649228290135e-03
-7.827342753283752369e-03
-5.164897233885377970e-02
-1.085862035868557229e-01
-1.417616456162444638e-01
-1.352009821031610048e-01
-1.046544882680536803e-01
-7.641555132136332307e-02
-5.595914927956056883e-02
-2.130300795414797471e-02
3.079483841839583333e-02
3.716680586272634590e-02
-7.104690271450329886e-02
-1.966961529140137666e-01
-4.407093173792338975e-02
5.151484364012931527e-01
1.056581517866096664e+00
9.901926638288601756e-01
4.009330572633074130e-01
-1.184273159531144815e-02
1.077503895495574293e-01
4.159169512591861517e-01
4.822606848275913793e-01
2.831999128749448369e-01
4.625848356704416464e-02
-8.104579057108227125e-02
-1.156939825663194504e-01
-1.288485419266192089e-01
-1.426187972052118114e-01
-1.272393971350047615e-01
-6.633433501331796600e-02
1.360214875306256510e-03
1.602409925721997100e-02
-4.031643362783528250e-02
-1.309523059637210662e-01
-2.050788498636249846e-01
-2.332291079336490380e-01
-2.106516110869988689e-01
-1.441711106155810496e-01
-4.112818612325598588e-02
8.576772969506121780e-02
2.055885884557648036e-01
2.751472906581557409e-01
2.646072353507588071e-01
1.762335969245867884e-01
4.223290957955832398e-02
-8.919231505192640186e-02
-1.707024289928992522e-01
-1.783706100265280148e-01
-1.290311961096065052e-01
-6.754300873652184511e-02
-3.013342768251363324e-02
-2.311836915454223290e-02
-3.664871138006191298e-02
-6.388331866443824891e-02
-9.125652618660463899e-02
-9.208772765679565375e-02
-7.090323362665149065e-02
-9.443320876971225686e-02
-1.961966858463031760e-01
-2.171234653667335202e-01
1.248098425728284833e-01
8.080254707369559641e-01
1.274991585711380493e+00
1.013626686535666677e+00
2.904541217934901720e-01
-1.606994637836164364e-01
-7.117380031629286230e-02
1.984057983649595014e-01
2.833628522750914480e-01
1.889095320483206719e-01
9.035416608572890973e-02
5.220822706148428582e-02
1.551982116486286603e-02
-6.290082928134110851e-02
-1.557090882569677759e-01
-2.232943962193449650e-01
-2.583220052264618705e-01
-2.668067560126374249e-01
-2.453119665664682258e-01
-1.886725371913263727e-01
-1.084140564993660155e-01
-4.143210287225443378e-02
-3.445836920568796924e-02
-1.041433377173100472e-01
-2.063934822630461019e-01
-2.615532263552085013e-01
-2.291073073980672281e-01
-1.398993610985254099e-01
-3.801859399064747014e-02
6.886991386871933740e-02
1.760748060703877516e-01
2.458133180328789247e-01
2.410592499743388073e-01
1.688125524965054802e-01
6.712872632440029796e-02
-2.992733764838344940e-02
-1.034892920442068015e-01
-1.435534697768409418e-01
-1.396957369669119264e-01
-8.505885426390606685e-02
-4.107535279944807619e-03
4.236009537399824942e-02
1.916057720097457881e-02
-3.020070574289208595e-02
-4.580526720781381844e-02
-6.180357997771072920e-02
-1.708556350248516820e-01
-3.158543600019435571e-01
-2.065039834365499649e-01
3.399878454156406438e-01
9.674835834709925031e-01
1.049387477465149043e+00
5.134394195098384017e-01
-2.398118175147294362e-02
-7.822813434007963584e-02
1.837560103403835798e-01
3.342866003144243092e-01
2.217875306022320803e-01
9.672578003608739428e-03
-1.047595726597953664e-01
-8.473220115243211559e-02
-2.467930248778661684e-02
-1.662202116470180846e-02
-7.121936581627572038e-02
-1.443327155022382235e-01
-2.025044834462984555e-01
-2.403964922865503562e-01
-2.487570838232262271e-01
-2.027387152295018202e-01
-1.036812329007168881e-01
-1.105799334851929189e-02
9.383637329778963046e-03
-3.435197586258651598e-02
-7.402629214240984135e-02
-7.349183722235635985e-02
-6.864003769000537325e-02
-1.052669768608152367e-01
-1.622552896222667906e-01
-1.640556604787568318e-01
-7.095374025418840769e-02
6.708894142377486158e-02
1.561621259504504533e-01
1.429844295536476795e-01
4.918674322595781301e-02
-6.141035857088282535e-02
-1.347297533907951261e-01
-1.545524399469280219e-01
-1.390374197610047269e-01
-1.204066667398631940e-01
-1.330514164217972140e-01
-2.017263380257321992e-01
-2.961744737520156656e-01
-3.189100409205399833e-01
-2.091969700319213643e-01
-3.290894576437777136e-02
7.814345827127226751e-02
3.168199641500543673e-02
-1.519620000034202778e-01
-2.703897990043664934e-01
-3.718590960064408618e-02
5.304950494651377024e-01
9.203839818567386422e-01
6.817980773830443209e-01
8.810264471293555166e-02
-2.022300359277033333e-01
-1.554628163534864729e-02
2.576546957816365779e-01
2.846645244953280862e-01
1.087930243642337147e-01
-4.888856945439642304e-02
-7.033889810725252323e-02
-2.004039372609854597e-02
-1.076653595731600493e-02
-5.475272983984700442e-02
-9.270158158467056708e-02
-1.072913728114293502e-01
-1.343157900676655303e-01
-1.932639184479673089e-01
-2.567309557837110789e-01
-2.758494025859280496e-01
-2.194394993216959855e-01
-1.090374246101715461e-01
-1.491978567471147557e-02
1.323792817942057165e-02
4.237335817225736795e-04
5.376998560739537289e-03
4.990388645375563176e-02
1.016934799825571084e-01
1.017158172962365492e-01
1.724788103428654545e-02
-1.107351470787000247e-01
-1.919067740802402056e-01
-1.665801954722624656e-01
-4.973401833008407602e-02
8.161270276719004291e-02
1.299472619792069183e-01
4.964842098414001814e-02
-9.449897546374003143e-02
-1.741180952982436247e-01
-1.375638287944938587e-01
-1.037956785778493263e-01
-2.632029275217454001e-01
-6.196333947580878743e-01
-9.055417145627898678e-01
-8.535895109616109533e-01
-4.207161413302724640e-01
2.763261815191481174e-01
9.443777325697525482e-01
1.119284953483832723e+00
6.535005551765115106e-01
5.635174435958248407e-02
-8.852779483398030835e-02
1.851608674643362151e-01
4.388852559587289037e-01
4.372750458680260133e-01
2.742344492810293577e-01
1.049654983339137204e-01
-2.240721765685166345e-02
-1.268324229994223507e-01
-2.161569722914801761e-01
-2.709552681955897935e-01
-2.713637586866743390e-01
-2.210155802090472688e-01
-1.432956650669082177e-01
-6.755721162334533958e-02
-2.738849769765116376e-02
-4.737595804479505929e-02
-1.105921428211231600e-01
-1.607363360138593655e-01
-1.579829048284038806e-01
-1.173759701694536833e-01
-7.734879505344156858e-02
-4.625394812037426223e-02
5.401871052391369818e-03
1.026864554319845968e-01
2.169882048289869803e-01
2.678022021060116331e-01
1.945229362776049187e-01
2.510190376365697973e-02
-1.425946165837695401e-01
-2.226616393063531874e-01
-1.993051968889162362e-01
-1.210130970696100539e-01
-4.861263712199613563e-02
-7.558700617515384107e-03
1.003028563682327109e-02
1.237687902195926982e-02
-3.527587607914387663e-03
