4.703430725501477061e-02
2.496014456362491696e-01
5.811195315725118382e-01
6.853329054433430212e-01
3.568908122323468657e-01
-1.221912742116611217e-01
-3.308801333092091235e-01
-2.000109108237894673e-01
2.700172995288317723e-02
1.216324377456300815e-01
3.158821468693435996e-02
-1.460168247295892119e-01
-2.701091500693602043e-01
-2.860579578249082267e-01
-2.525391558719554119e-01
-2.181337724680750545e-01
-1.422407120515989942e-01
2.151233568853035474e-02
2.314464060889467045e-01
3.862693621189434157e-01
4.136027952260627472e-01
3.141009366331485309e-01
1.430757287085985818e-01
-3.068173275485568813e-02
-1.559149241278785236e-01
-2.110497416535722648e-01
-2.038949127278369966e-01
-1.620764844174957531e-01
-1.094948733024419946e-01
-4.946185985674300678e-02
1.383097486976109930e-02
4.266555395178761589e-02
-1.655300771014090247e-02
-1.673011756810678097e-01
-3.266100545083464590e-01
-3.805731148424618127e-01
-2.860410614087745551e-01
-1.052511248269987487e-01
5.976490596356430485e-02
1.493717263609280754e-01
1.655659025319472233e-01
1.362741324178904923e-01
7.854277213627081089e-02
-1.038079575287024353e-02
-1.361248216193716165e-01
-2.688735493862703940e-01
-3.170255560889110868e-01
-1.975197853833330075e-01
1.331622279853367924e-02
9.263596317855343765e-02
-4.256769550595021490e-02
-1.773811922286064047e-01
-9.307037045803281949e-02
1.181307201137128671e-01
2.085296974317122076e-01
1.089791136184178333e-01
-4.726589742857288667e-02
-1.285311795999390938e-01
-1.112320003258006063e-01
-4.219801950778670485e-02
1.637788539860207324e-02
1.836093790757700392e-02
-3.472763909211089295e-02
-8.061711611242625142e-02
-5.131060157340923411e-02
2.943450310435971259e-02
4.974326964912681448e-02
-3.830106966968573057e-02
-1.342751412134548517e-01
-1.191553151878520928e-01
3.108039691366703411e-04
1.224036352180674220e-01
1.567533372673696468e-01
7.892056687777795898e-02
-5.506525336223382083e-02
-1.351843401734664496e-01
-8.418597702749917866e-02
7.398835711961457284e-02
2.454758617206610205e-01
3.498271925915663605e-01
3.629380523210226639e-01
3.031206350867058918e-01
2.006183173354135763e-01
8.123385483678906283e-02
-3.577516399566962879e-02
-1.369875678659459306e-01
-2.102370096045659276e-01
-2.314381179968858504e-01
-1.596437515972198018e-01
2.630198960837781472e-02
2.484649068989084886e-01
2.956869607578519465e-01
-2.094852230353720993e-02
-5.731707209665551916e-01
-9.118750651052125455e-01
-7.574644231813774109e-01
-3.368626244180638607e-01
-4.782806529493779241e-02
-1.428069881780200806e-02
-1.106430169038134376e-01
-1.777067377037327978e-01
-1.168531962757118764e-01
4.524112342062776293e-02
1.486042984004443124e-01
7.976350968177799150e-02
-5.370716460105754569e-02
-4.633500500531612804e-02
9.913457819837073748e-02
1.431480618965672025e-01
-1.465992524791558116e-02
-1.256892838501870724e-01
5.335699940624716309e-02
3.866726615728988126e-01
5.417215211388428653e-01
3.981171747580758424e-01
1.139220690715879447e-01
-1.164773095953925003e-01
-2.254690354883086834e-01
-2.163374509361915277e-01
-8.279879764848635526e-02
1.367001870583526291e-01
3.042733712167436932e-01
2.970946726928299642e-01
1.455333609447770904e-01
-2.136265459776998457e-02
-1.208524987737959466e-01
-1.516098677622247370e-01
-1.477187073796425720e-01
-1.553220639974605688e-01
-2.061219982469102430e-01
-2.577286840340579088e-01
-2.087594905538642798e-01
-3.668973365238994977e-02
1.407216386162626898e-01
2.057204666472288168e-01
1.734251933697128212e-01
1.375680742403190271e-01
1.462225535600506776e-01
1.686900995342047460e-01
1.572197365255723345e-01
1.140109149840556751e-01
8.757212851465034920e-02
1.074847025916127741e-01
1.422998733918107439e-01
1.352523161628500503e-01
6.617620584372801984e-02
-3.946893554760564499e-02
-1.377846108609180886e-01
-1.776382405069540371e-01
-1.243009445657114048e-01
-1.469008656704445456e-02
4.698285380039461667e-02
6.818080057342312990e-03
-5.711206795593696400e-02
-4.574507898474076961e-02
7.871768070785111621e-03
-9.899961879216446700e-03
-1.238825437747355651e-01
-2.326990788595247606e-01
-2.198508202541822609e-01
-6.780004531578927296e-02
1.130199393673915614e-01
1.732284942924149362e-01
9.596745098481695990e-02
5.937802317120052797e-02
2.085230507431358182e-01
3.616013351472245896e-01
1.832888484696366116e-01
-2.644146846753245850e-01
-4.889679188054149583e-01
-2.266297077773605229e-01
2.321256195521239629e-01
4.857383083739146290e-01
4.558874873900415903e-01
2.994132768326514538e-01
1.409567509299615440e-01
7.950709236798143842e-03
-8.543222485321079473e-02
-1.192281300575610409e-01
-1.339356326604449199e-01
-2.079052639493994548e-01
-3.121054420044317990e-01
-2.986990218426437416e-01
-1.196812387639925312e-01
7.322389366241838227e-02
1.298727575779447252e-01
6.245538945201709741e-02
-4.166941345384592849e-02
-1.291489960417500638e-01
-1.740000522966686503e-01
-1.585344512415638452e-01
-8.380064622586103074e-02
3.390638679968595998e-02
1.754558930614657508e-01
3.166569777036896127e-01
4.154891661115677204e-01
4.136688657673529557e-01
2.808273236549532204e-01
6.983078602173208027e-02
-1.009701361735228925e-01
-1.453845683747196083e-01
-7.974399879610946651e-02
1.429504396908931260e-02
7.907779575209081258e-02
1.124970584430571713e-01
1.246649711918892400e-01
9.964166862869874852e-02
1.600781702691360386e-02
-1.083673811502459394e-01
-2.101257970168287914e-01
-2.257820143237677657e-01
-1.450294876681565426e-01
-2.378032153342749672e-02
5.731128516399352363e-02
5.953869109969605472e-02
9.017656327338835487e-03
-5.508030622206635391e-02
-1.226819063645583074e-01
-1.778858447006718135e-01
-1.816535554173081546e-01
-1.432936641274503986e-01
-1.386900940405264848e-01
-1.618277623648300134e-01
-2.363497085760796895e-02
3.948165599391328939e-01
7.712206341053737813e-01
5.857371792019668844e-01
-1.041534371782275037e-01
-5.947918211637140962e-01
-4.517576133891247903e-01
6.257843217936515101e-04
2.558415097350021927e-01
2.215485567348791096e-01
1.080714991017238669e-01
6.316169982695676866e-02
7.147816199499608392e-02
5.717044307858724916e-02
-3.143021511492963271e-02
-1.853413747774217135e-01
-3.301566594566868185e-01
-3.839132246066011556e-01
-3.307198472211626550e-01
-2.211160398774671410e-01
-1.128168231499984686e-01
-3.060469374314193219e-02
2.263898737601995059e-02
3.841911535653273063e-02
2.066719294971514076e-03
-8.400396339604904172e-02
-1.826815844243183107e-01
-2.312604744387495581e-01
-1.812319742218611029e-01
-3.552292443969519431e-02
1.567040646900071110e-01
3.305970624871565899e-01
4.234861708789601775e-01
3.913117882058369523e-01
2.424887265121696278e-01
4.962828092795244783e-02
-1.024566278786171458e-01
-1.841856420095606683e-01
-2.184213212014483319e-01
-2.202887477438433828e-01
-1.739459574987715640e-01
-7.225607236601780392e-02
4.605101043019236423e-02
1.132875900471111696e-01
9.108908267481552468e-02
7.506457885274651562e-03
-7.543090225389972869e-02
-1.233448272987309607e-01
-1.399726782353666599e-01
-1.255636339525233180e-01
-6.188101638588491826e-02
4.610364228262032321e-02
1.460603339711280813e-01
1.832496995893897196e-01
1.505611428814121466e-01
7.210326918171985899e-02
-4.856334456661787202e-02
-2.196471007066894965e-01
-3.603881658012119682e-01
-2.711214731112021603e-01
1.241625528198682105e-01
5.079916257759956588e-01
4.448614985800440902e-01
3.911139439337796286e-03
-2.761487375325774596e-01
-1.234346081382262095e-01
1.784029492606755141e-01
2.678967612381758512e-01
1.020382588462813989e-01
-1.339260472686144843e-01
-2.545705868479958278e-01
-1.930922219133829332e-01
-2.610791767087768458e-02
9.928542055050915138e-02
1.004465631030774797e-01
1.163239595998455389e-02
-8.921520146336864299e-02
-1.595970533090572963e-01
-1.972347171942941957e-01
-2.028390250235052317e-01
-1.589835910693929710e-01
-5.628458429266192109e-02
6.705813440843537421e-02
1.431956657379886699e-01
1.361965111815665874e-01
6.529104962081716534e-02
-1.933089273608346384e-02
-6.495907788905622149e-02
-4.320530871944499446e-02
3.295789394272895245e-02
1.221673429231204810e-01
1.829643386279595496e-01
1.974362968247607153e-01
1.781374688378629945e-01
1.450960506531145389e-01
9.915935708336406917e-02
3.066041865064741620e-02
-5.559983099865929007e-02
-1.373111807904223436e-01
-1.867363930147185602e-01
-1.790415336307921990e-01
-1.048355146390679976e-01
1.240403172631948832e-02
1.205787326302627527e-01
1.735167551080449011e-01
1.608656499728639278e-01
1.004324013908171609e-01
1.211322147269505885e-02
-8.341677555338647410e-02
-1.471727837325444987e-01
-1.341199069706812963e-01
-3.645291140518117090e-02
1.017077877483695270e-01
2.190560889786497545e-01
2.713791513285727652e-01
2.354809409383363528e-01
1.178025925226127701e-01
-1.157159645731428883e-02
-3.882909538136448263e-02
4.910771053418642312e-02
8.255708340285643210e-02
-6.248656615844954548e-02
-2.061212855923523490e-01
-7.420067385970371965e-02
2.878171589589367807e-01
5.550740437771529701e-01
5.233275405097845834e-01
2.827585007202959577e-01
4.118645532899008893e-02
-8.807009575629808074e-02
-1.176211115510453903e-01
-9.115782132569484608e-02
-2.180281844670430361e-02
7.991041370981089020e-02
1.687283242692895202e-01
1.902194592516505411e-01
1.341266352961926200e-01
3.979284260537267748e-02
-4.914636576805988394e-02
-1.121968548096140134e-01
-1.370473620915663160e-01
-1.138822673118054796e-01
-5.322293152183858039e-02
1.937019960189984707e-02
9.169473542515728381e-02
1.686847897479365754e-01
2.470402925591480003e-01
2.998668625141640565e-01
2.929762257929575120e-01
2.161262619032079391e-01
9.871364560061815507e-02
-5.050600594069650819e-03
-5.121294649046762015e-02
-3.208717843455271418e-02
2.473536939122276263e-02
7.287414451702659002e-02
7.068439509537795262e-02
8.064270948430913785e-03
-8.902633657001723932e-02
-1.842466177230060453e-01
-2.501053368024578338e-01
-2.624519548624039134e-01
-2.041666466385644030e-01
-9.173227703966160829e-02
2.105277658559679549e-02
8.227232070701985533e-02
7.741890297944648003e-02
2.580680497194543302e-02
-4.722818982286686174e-02
-1.298475128188239514e-01
-2.136904620892893514e-01
-2.684532197160378053e-01
-2.471327439248126867e-01
-1.397726161931879540e-01
-1.854698931038775006e-02
9.567246762785678107e-03
-7.197566569212786314e-02
-1.581693976347381958e-01
-1.938224849832902719e-01
-2.818340084732969264e-01
-4.566082243395810925e-01
-5.037487538920261132e-01
-2.516926488002872442e-01
1.269362121083624229e-01
3.334840280337358909e-01
2.996457810272379896e-01
1.649788138941596094e-01
3.786789924449878580e-02
-8.311866855134356080e-02
-2.105720878254346562e-01
-3.032212172435984066e-01
-3.192425428252163577e-01
-2.838810769167122161e-01
-2.603847696898100028e-01
-2.587655407961875764e-01
-2.218123156056259759e-01
-1.244412641164006350e-01
-3.501027019883620750e-02
-3.529663508897537549e-02
-1.172612820567948966e-01
-1.995258049573230830e-01
-2.259418892914279442e-01
-2.085526261648361357e-01
-1.732183876420552993e-01
-1.091012996258206580e-01
5.438647350898571931e-03
1.552875236368443657e-01
2.791908211924150063e-01
3.005303331793278132e-01
1.838878901909691554e-01
-2.222511355660421878e-02
-2.085004799136741527e-01
-2.872877196542039102e-01
-2.514636069259846840e-01
-1.501009894331648831e-01
-3.441399802168584182e-02
5.754300953978575689e-02
1.014382281178756451e-01
9.417279053988636406e-02
4.086914377133837872e-02
-5.762681587654551463e-02
-1.793418820914905176e-01
-2.551743483209822361e-01
-1.979227246168266952e-01
1.067108695943109337e-02
2.490382028581680784e-01
3.357112938756360854e-01
2.288376346947813555e-01
6.265495665549072890e-02
-4.339397471746561652e-02
-9.266684209714973197e-02
-1.277553569902671049e-01
-1.641597228909332795e-01
-2.026714703227934233e-01
-2.133722426210155898e-01
-1.160506497741872478e-01
1.110296325231661108e-01
2.854196162383793034e-01
1.714178383815305740e-01
-1.489184894372608259e-01
-3.071014343830412163e-01
-1.393588090212376507e-01
1.283474805192434121e-01
2.399640121234010437e-01
1.960990830091790538e-01
1.394069454149475806e-01
1.428057654038733248e-01
1.732045327774263122e-01
1.731179012079158419e-01
1.191308005647518653e-01
2.437171081535879913e-02
-8.103612396278453422e-02
-1.640707425893460081e-01
-1.923862465239434272e-01
-1.436921913586197141e-01
-2.873583087606320502e-02
9.934928586910596326e-02
1.751398356372576015e-01
1.689591216715988220e-01
1.017567624091753054e-01
1.356991926051365552e-02
-6.832530243197071362e-02
-1.258807330565215321e-01
-1.330924667772704351e-01
-5.945991746842160808e-02
1.016573760334612414e-01
3.015697187378560962e-01
4.441088111611689593e-01
4.554325154226583350e-01
3.489342418993776618e-01
1.966989783637177469e-01
5.072025456490996537e-02
-7.478465880472064120e-02
-1.653399166154231326e-01
-1.909964893603022240e-01
-1.287943860483508896e-01
5.899931280336823819e-03
1.497448429687698312e-01
2.269666329000531724e-01
2.025798885742199906e-01
9.797115090295088757e-02
-3.426348569179694242e-02
-1.385460628072156808e-01
-1.767808321935353533e-01
-1.463647070132752526e-01
-7.407649025452378577e-02
1.699392175102078933e-02
1.200822674142661278e-01
2.168191743465714971e-01
2.498718315286841685e-01
1.493152554311349689e-01
-7.979163336737291057e-02
-3.036038335719528081e-01
-3.436101293039666715e-01
-1.390249555798373504e-01
1.594596462011152460e-01
2.754586379051590650e-01
9.696883931704274040e-02
-1.275337942301280059e-01
-6.698810870811902629e-02
2.578802993333703109e-01
5.289242492319261579e-01
5.314761896680562092e-01
3.174960394031334232e-01
7.441868033425860784e-02
-3.798049690884600788e-02
1.626282689416992319e-02
1.500355425531888776e-01
2.485522233915126167e-01
2.564107407317728349e-01
1.856091308313417565e-01
7.820123065458922662e-02
-2.803952216524890559e-02
-1.086694844780060065e-01
-1.408474379837393875e-01
-1.041204061885771803e-01
-2.149343403307506922e-03
1.265140017238618741e-01
2.258785906390494425e-01
2.572207837012991938e-01
2.229454763626362856e-01
1.576326423426441803e-01
1.042298706804851982e-01
9.685019931584845643e-02
1.445462844947165426e-01
2.224197224352795488e-01
2.862193563284451403e-01
3.026382316625588764e-01
2.697508119938373250e-01
2.084454755260835013e-01
1.380394142448057304e-01
6.766135410737891820e-02
1.326973210801130412e-03
-6.218219495985215228e-02
-1.205801092691845405e-01
-1.482357490092143792e-01
-1.079637950474521824e-01
1.442466793180229717e-03
1.237315931344471903e-01
1.837247340766791637e-01
1.487842771435388955e-01
5.444771567898003262e-02
-2.973057328787765546e-02
-6.525580389038604379e-02
-8.385217927235670554e-02
-1.437267466213957290e-01
-2.164795033346384456e-01
-1.722781754473916294e-01
3.957580553733343331e-02
2.670786263694954754e-01
3.098575851172598594e-01
1.383137529632854912e-01
-7.579177378810564303e-02
-1.139810685477063018e-01
3.932395233532182122e-02
1.144201487550333962e-01
-9.111671439414460727e-02
-3.379324491219637405e-01
-2.291939726445433312e-01
2.024707381538057016e-01
5.308461758057689828e-01
4.879837393991406924e-01
1.980065590889127924e-01
-8.011277339439987211e-02
-2.268010136543164579e-01
-2.768654340075566433e-01
-2.923081434881118490e-01
-2.873093416909163755e-01
-2.540832121615817507e-01
-2.018222433540865501e-01
-1.498851822345878271e-01
-1.179681376287773503e-01
-1.317293827748433344e-01
-2.043074983923737487e-01
-3.083325953525107854e-01
-3.883133315042248124e-01
-3.992772323366479692e-01
-3.316182084996295298e-01
-2.165125266100847989e-01
-1.065638313453762392e-01
-3.653632968556583260e-02
-9.921072861020500955e-03
-2.191778127826027670e-02
-6.497609514350155546e-02
-1.137098114483589134e-01
-1.449371949271872628e-01
-1.666021992824480713e-01
-1.907526980345640721e-01
-1.976266812786927618e-01
-1.595579103248878639e-01
-8.567429833551845619e-02
-2.319342525469489380e-02
-2.018535766029961806e-02
-9.165423396117410026e-02
-2.092447300610891237e-01
-3.149223297926638243e-01
-3.562189335065553131e-01
-3.164258044155517924e-01
-2.104469096098718628e-01
-7.104871209900381901e-02
4.902071186882211995e-02
9.282642206020569331e-02
4.148378304408489176e-02
-6.926395419183714597e-02
-1.790001097894151627e-01
-2.465939493478112032e-01
-2.680928833870708239e-01
-2.514390428569828195e-01
-1.906408011421189264e-01
-9.974001213344899086e-02
-4.189409527015276052e-02
-2.724201769577367857e-02
7.703276617123872017e-02
3.270226605904066330e-01
4.328529081433069026e-01
8.100533123852116102e-02
-4.705050783460497099e-01
-6.047398476735368344e-01
-1.787512847123440551e-01
3.310930060612976567e-01
4.953144137930564073e-01
3.424780908377683675e-01
1.309871273145880033e-01
4.871385595746111075e-03
-6.864985190131223103e-02
-1.582925770153413847e-01
-2.585487565511758179e-01
-3.104986667857193017e-01
-2.837771096030287099e-01
-2.091527726685425137e-01
-1.366332464268250058e-01
-8.476464015767525007e-02
-4.338893742864202707e-02
-1.379367775477877492e-02
-2.091970929373106886e-02
-7.856040984058725030e-02
-1.606594220981886478e-01
-2.189839273735087743e-01
-2.172272839052704074e-01
-1.398794776259179584e-01
8.292057449599966878e-03
1.880060703300599489e-01
3.312892255051942958e-01
3.849154955139540979e-01
3.370288867693231882e-01
1.998438831269732929e-01
-1.260873688762879224e-02
-2.691572191908743750e-01
-4.746306153845213371e-01
-4.927734825954592224e-01
-2.927019656508109691e-01
-2.748626775742168266e-02
1.137234650764540889e-01
8.643321536592257770e-02
-2.074922449420196421e-02
-1.118400346177740312e-01
-1.486853418720150144e-01
-1.315385952994667651e-01
-7.249406170490158008e-02
5.835711760968961825e-03
8.324840527789387212e-02
1.600774732572856907e-01
2.295336946771620035e-01
2.484347946181809652e-01
1.847879823465012616e-01
7.814239415725623972e-02
-3.646027657138884576e-04
-4.366096058260120205e-02
-1.058167003735931977e-01
-1.781688560700155632e-01
-1.221821809198019027e-01
1.861348830085098327e-01
6.015583744503040231e-01
7.213785908732645025e-01
3.554261906470970178e-01
-1.264191394168991400e-01
-2.175943629428118420e-01
8.144658098105328481e-02
3.575921486701748586e-01
3.675802793934559443e-01
2.299294814230728734e-01
1.436884071325497669e-01
1.546912371369031092e-01
1.903451111510290616e-01
1.876543579423061159e-01
1.395661539078359159e-01
6.070893566886620407e-02
-3.427462336159740192e-02
-1.082791080988601967e-01
-1.087013818406082910e-01
-2.686689167990562871e-02
8.270273169920994150e-02
1.585950647310284400e-01
1.817069704784846362e-01
1.608507027712466064e-01
9.837645377185723350e-02
-1.382390455436583246e-03
-9.932883501476377774e-02
-1.299744723777952471e-01
-5.058277459949413885e-02
1.250836060565941044e-01
3.300364786425235009e-01
4.720119798976338266e-01
4.817421153920197763e-01
3.607593366027222470e-01
1.789735903757438962e-01
1.557067375127744319e-02
-8.961081303108886509e-02
-1.308830854060545335e-01
-1.156280179420174914e-01
-6.047774509076186966e-02
1.391408710162621298e-02
9.315500396585371656e-02
1.627918291857297639e-01
1.962630667807429841e-01
1.638102681930820037e-01
5.745653751901563105e-02
-8.799930792275589830e-02
-1.965897032146367018e-01
-1.898370323980984042e-01
-4.858660780567197746e-02
1.501886949039144270e-01
2.799902671737473092e-01
2.812422555968574489e-01
2.108734190876235814e-01
1.442179117791982101e-01
6.694549140821318134e-02
-7.967013827325832021e-02
-2.499078986863443874e-01
-2.535666872558915985e-01
2.742603640144598842e-02
3.716405756927884108e-01
3.910532879149214991e-01
7.859946942555036398e-02
-1.298428293893981178e-01
1.940851230721508947e-02
2.732610838807214004e-01
2.894130829484265477e-01
4.858785901247281852e-02
-2.332046394950521295e-01
-3.619315953405204400e-01
-2.710888589402243309e-01
-3.561470591708451594e-02
1.619561888691449236e-01
1.819834969563859928e-01
6.361319248054690678e-02
-5.619208873652986602e-02
-1.193685007116498664e-01
-1.662749195802952495e-01
-2.252729633772498352e-01
-2.645191432395587183e-01
-2.429672735999876820e-01
-1.572531355867324565e-01
-3.740594473567662726e-02
6.997350337488598970e-02
1.152723928624080491e-01
7.877743465974300363e-02
1.063556381753380867e-03
-4.405913652763013971e-02
-1.779144595447193500e-02
5.387675625264606166e-02
1.164284086557456077e-01
1.370530961155468352e-01
1.193750210327520073e-01
8.833749129360407570e-02
6.626956841754513827e-02
4.519042727900547674e-02
-1.269721496904140795e-02
-1.189854415401118276e-01
-2.192737930905960808e-01
-2.450283149899609991e-01
-1.878721635521405087e-01
-9.373085039466752533e-02
-5.448312163071377875e-03
5.985828981204936033e-02
9.405994698375462482e-02
8.733484475263111890e-02
3.355075943318500814e-02
-5.906448637256379863e-02
-1.615079323409112921e-01
-2.344842391098534429e-01
-2.477794593203819229e-01
-1.901504249754084885e-01
-7.577828134980821306e-02
4.595730920535389535e-02
1.004311505982801445e-01
4.300835572844040333e-02
-6.426792590445767894e-02
-6.460239710062870566e-02
9.938710291285003662e-02
2.193445715296979126e-01
6.254713869818666339e-02
-2.157940509128383755e-01
-2.191489097693219978e-01
1.203577273922700613e-01
4.570759432834713976e-01
5.010128004870668672e-01
2.907263423572264971e-01
2.899646139091069386e-02
-1.487507513504946199e-01
-2.280596729844227011e-01
-2.457708299297449162e-01
-2.193864494467153980e-01
-1.372660278369685072e-01
-3.321713750861849702e-03
1.217294912255269396e-01
1.496466076185709315e-01
5.635626358475058495e-02
-7.426137508965229006e-02
-1.333916089541116179e-01
-1.076955046725812104e-01
-7.337754177111699416e-02
-7.164117694515684254e-02
-6.005254563941261892e-02
-2.531767512081358092e-03
6.935692883509436690e-02
1.095969238003417917e-01
1.218078489790904717e-01
1.421061005878703765e-01
1.671965840751120369e-01
1.384340075625500044e-01
2.712964010184699612e-02
-1.023562542344960136e-01
-1.541148610103815764e-01
-1.012173285357860775e-01
-4.232188936881859861e-03
5.454524040156086967e-02
4.611387372680450514e-02
4.373412756749489594e-03
-3.632568673164876527e-02
-8.490484837582676358e-02
-1.520598962160927825e-01
-1.963260947509849752e-01
-1.538305936568570009e-01
-2.523902491809416199e-02
8.545785242561955430e-02
5.455721570196482573e-02
-1.113486260129180616e-01
-2.590846776439350019e-01
-2.779942229948640375e-01
-2.297151675209639643e-01
-2.170269864120369097e-01
-2.237501524194917268e-01
-1.824287387938865745e-01
-1.202119229385823773e-01
-1.103136404270987775e-01
-8.992359432064511715e-02
1.021306290657712085e-01
3.895164585919713707e-01
3.778833556008722727e-01
-1.102337999837309512e-01
-6.477563292777758219e-01
-6.920893458854967539e-01
-2.113383953935093207e-01
4.274380786276218425e-01
8.563036514032654756e-01
8.526214923162462878e-01
4.574645441525833078e-01
4.487310032968344631e-03
-2.160839497798132669e-01
-2.388686927426428575e-01
-2.481153660956076090e-01
-3.035289643817410399e-01
-3.338213573513263976e-01
-2.768215217260955874e-01
-1.561342492677443849e-01
-5.149490343929377656e-02
-2.154160413466969792e-02
-6.082425269099824006e-02
-1.270574632886699029e-01
-1.928273969168010360e-01
-2.558534090111993509e-01
-3.080177423539690595e-01
-3.158221805729957699e-01
-2.401743203158512863e-01
-7.319940536643701479e-02
1.447807984813905269e-01
3.377176700301289247e-01
4.225979796277992140e-01
3.505831696700300038e-01
1.459708666608223182e-01
-9.946057737428032341e-02
-2.830772124949752500e-01
-3.456663308099214849e-01
-2.852795866203010622e-01
-1.399748987164388392e-01
3.401320724979378651e-02
1.690292130680829119e-01
2.019687187494275671e-01
1.233752094032203456e-01
-9.136527743065087082e-03
-1.330675566769530249e-01
-2.206757131594627441e-01
-2.514832408781135786e-01
-2.041458460443216216e-01
-9.108020118159955436e-02
3.532859394903754141e-02
1.211859125457791370e-01
1.425755118950471079e-01
1.059381234439005365e-01
3.733222360828682140e-02
-3.179790587358109072e-02
-9.531360931489189781e-02
-1.794951633589745021e-01
-2.567578482610434754e-01
-1.659366305273957398e-01
2.139652721463319585e-01
6.450700231940695861e-01
6.611861018615105001e-01
2.056946735756868538e-01
-1.952584331048248800e-01
-1.325820127358112444e-01
1.785523772416330868e-01
3.037525471139359001e-01
1.583570933013841442e-01
-1.907916723779696372e-02
-3.177164632126821403e-02
9.369270729326505120e-02
1.897500815128497498e-01
1.176109292054995786e-01
-1.068890294697578819e-01
-3.229018216247763751e-01
-3.891887985621507173e-01
-3.249070787906260249e-01
-2.442953111022189705e-01
-1.962950625092418633e-01
-1.366527980163461664e-01
-3.273351466701443502e-02
7.205917625953488226e-02
1.090639324824638073e-01
5.929879315172539855e-02
-3.900660151635766681e-02
-1.258096336345972954e-01
-1.446042844192423349e-01
-6.677900485207345638e-02
7.909671069580741232e-02
2.166515429866384124e-01
2.843483399325766325e-01
2.867530486705842097e-01
2.655082456688817594e-01
2.293780205038694897e-01
1.534553414519371772e-01
4.093201175473056008e-02
-7.429465414101585341e-02
-1.789906983349326131e-01
-2.600593859616934234e-01
-2.558194478236269775e-01
-1.244760759518245830e-01
6.348853550727551198e-02
1.863020289497836213e-01
1.948180083245262262e-01
1.250142877354027959e-01
2.876458071229802752e-02
-6.144694846578082487e-02
-1.172725898117711052e-01
-1.070985768771086782e-01
-2.083355427132948384e-02
1.114448369340841349e-01
2.368633252188969140e-01
3.119688326862394834e-01
3.166357456395471615e-01
2.443018085704909692e-01
9.850807021776816774e-02
-6.926047475872527948e-02
-1.320139093812706388e-01
-2.103368278021967852e-03
1.840334654824523630e-01
1.736598298559359210e-01
-1.291287537549926263e-02
-5.496733636008257345e-02
1.891404915721949243e-01
4.656806741346651846e-01
4.894580081650982684e-01
2.734951409399269395e-01
2.369840925343764254e-02
-1.141424421379145931e-01
-1.237459661685813422e-01
-4.525984119398568373e-02
6.772732571370948529e-02
1.539686528890219785e-01
1.774386880861393845e-01
1.484556560996858898e-01
9.040108176931122008e-02
1.089180682019646844e-02
-7.822765804494102859e-02
-1.411534268035958828e-01
-1.398004674884842924e-01
-6.392198664583356726e-02
6.263640355370941881e-02
1.876746802258622560e-01
2.514164032663576687e-01
2.351646444307701200e-01
1.855887050845877462e-01
1.616733759883072497e-01
1.708398604388560726e-01
1.816192067758698181e-01
1.727077053102846205e-01
1.480637235715265287e-01
1.293737498545415587e-01
1.383720353694324612e-01
1.648658939854853456e-01
1.655659512457329507e-01
1.087499035535458847e-01
3.648279836352043976e-04
-1.285519732254552239e-01
-2.331354760602076248e-01
-2.667676485749577164e-01
-2.095077903517262585e-01
-8.709678463426098749e-02
4.058508175967466547e-02
1.157472860315414132e-01
1.196916606146994494e-01
7.179917023498162687e-02
-7.482113845378985870e-03
-1.078631913541848591e-01
-1.975844193072337496e-01
-2.209364668655947328e-01
-1.539733050948579041e-01
-3.694441186182340076e-02
6.009610327913487982e-02
7.758843303135984359e-02
-3.655569860042081828e-03
-1.149990313830866057e-01
-1.232906022026616366e-01
-7.417329815581959890e-03
2.842332683257384196e-02
-1.956079869146360173e-01
-4.942751450816546543e-01
-4.957533073953264702e-01
-1.555947583938958600e-01
1.883420035797784831e-01
2.569691851198734334e-01
9.254016204915092858e-02
-1.049209102161058060e-01
-2.291873291830907600e-01
-3.094983406515549595e-01
-3.841462857688746069e-01
-4.195111084133378854e-01
-3.667490879140773985e-01
-2.424496622923173195e-01
-1.150080688519482808e-01
-3.733380422542605104e-02
-2.309937178362981083e-02
-7.013911261385016860e-02
-1.679744509989448409e-01
-2.796256062329989245e-01
-3.504748085329995044e-01
-3.497981298695029273e-01
-2.866200191910082684e-01
-1.844439503423442039e-01
-5.965787388709611200e-02
7.588355760999201949e-02
2.053824686743356831e-01
3.002006222230546584e-01
3.185983355541915363e-01
2.297568769935134647e-01
6.225147081369372670e-02
-8.885274475740594091e-02
-1.379713321754213740e-01
-8.672542260628314514e-02
-6.749579098448508369e-03
4.713508799407291339e-02
9.380209754513110787e-02
1.813504440056861178e-01
2.728310392136124585e-01
2.358712028943135697e-01
2.352389613384033018e-02
-2.079275646321421811e-01
-2.666430331125426711e-01
-1.395811533516080616e-01
3.587933709257172532e-02
1.377379825642965905e-01
1.428037924294577876e-01
9.668001928740187212e-02
4.648003260578598833e-02
7.096801001301212414e-03
-1.875609621844012004e-02
-1.963438497515198125e-02
1.156368111266153041e-03
9.483098271241663380e-03
3.556507538532947821e-05
6.039920153568174854e-02
2.748667515488718571e-01
5.140970426048011577e-01
4.743469793314641914e-01
8.620789858686600526e-02
-2.816402831065647483e-01
-2.521105620400757585e-01
8.947415036090942964e-02
3.655174147408229435e-01
3.847205867174777749e-01
2.636907840666287139e-01
1.794885458691272972e-01
1.672364704909762856e-01
1.551124945575861336e-01
8.768696151235158553e-02
-3.038478867324668348e-02
-1.549065120783229554e-01
-2.247640116722980919e-01
-1.969500238667895309e-01
-8.890017702762283147e-02
2.870322989046906678e-02
9.156949648411097376e-02
8.212593120495549626e-02
1.817502024626031776e-02
-7.252421146594294210e-02
-1.642387309262946793e-01
-2.322215068101663449e-01
-2.480102104346229019e-01
-1.884151625856991252e-01
-5.191389484436523261e-02
1.368353178182555585e-01
3.277157163075321566e-01
4.516670459959953310e-01
4.490032497392040245e-01
3.078972121105544302e-01
8.357688417495595656e-02
-1.230401760327991811e-01
-2.254477705087877815e-01
-2.047293032671896884e-01
-1.062889501503039014e-01
9.455874868913893491e-03
1.061746415793092257e-01
1.652252726314055176e-01
1.658641570554053035e-01
1.005258421445677230e-01
-3.418082252582655550e-03
-1.050737445833810901e-01
-1.776464676986541369e-01
-1.975506391753805435e-01
-1.402841344641067300e-01
-1.659488292532476650e-02
1.110801123841429899e-01
1.739205765017897976e-01
1.510628413345557475e-01
7.293203933722702814e-02
-1.459847509141468276e-02
-7.962647669399962325e-02
-1.139132636485735012e-01
-1.118518015146657552e-01
-1.177530986658772982e-02
2.533415275523178689e-01
5.221998120557868051e-01
4.374135067022623113e-01
-2.593153259165251190e-02
-3.729627973594956680e-01
-2.288985541035109261e-01
1.859214075863152571e-01
4.248143997791641313e-01
2.981088974901249244e-01
-1.050432228824608044e-01
-5.370394304362327009e-01
-6.963015308483346821e-01
-4.827120471719378303e-01
-1.321515351367117119e-01
5.726391197718316839e-02
1.382732329001779004e-02
-1.637646485975421118e-01
-3.591794739659561753e-01
-4.735674902955684384e-01
-4.629784739875100197e-01
-3.755131735761225720e-01
-2.671853821761917547e-01
-1.252320598530203832e-01
4.423132403356818537e-02
1.359521594344156870e-01
5.521490974926246409e-02
-1.485195288663260227e-01
-3.244331306221231448e-01
-3.533279224511644556e-01
-2.219768323214704187e-01
-1.558050379755822161e-02
1.522992778732872865e-01
2.180510143781249355e-01
1.870445214980466786e-01
1.035991237791403230e-01
1.389401786411226941e-02
-6.858569509357866079e-02
-1.740138904434770095e-01
-3.262831242567698076e-01
-4.644552942113219229e-01
-4.690376467214207312e-01
-3.249974273573452144e-01
-1.807321561657791731e-01
-1.542501998483747361e-01
-1.806468947985837292e-01
-1.542825281449607955e-01
-1.039743690197180298e-01
-1.151664632129237309e-01
-1.772446202245620550e-01
-2.063157477019667285e-01
-1.621907974504245564e-01
-7.895064711423040171e-02
-2.993955600318190524e-03
6.011961270241523297e-02
1.208365392330363886e-01
1.331563749670627295e-01
1.145783946838787801e-02
-1.980458472853456331e-01
-2.278494222092940780e-01
1.090715761445734955e-01
5.088900879818608614e-01
4.374421183274789238e-01
-6.812968207775284279e-02
-3.495161534680515381e-01
-5.071988832830678223e-02
4.464146634819103343e-01
6.384399481056468595e-01
4.683292420954531243e-01
1.863946466636006438e-01
-7.349274375706635332e-03
-7.084877758000664161e-02
-4.055330940855524091e-02
3.962010316091216927e-02
1.292386918469778656e-01
1.880570675565121086e-01
1.889805798153547101e-01
1.288053771969575045e-01
2.408423729426205362e-02
-8.913780046654889988e-02
-1.546598355276648240e-01
-1.251828953441607717e-01
-9.833288147003845653e-03
1.198263693647407813e-01
1.884080488589091884e-01
1.820977557709654027e-01
1.497266491556209222e-01
1.419271203178160967e-01
1.621328400190138463e-01
1.811064566137672027e-01
1.766839147271085098e-01
1.459012087079127884e-01
1.068063605602335708e-01
1.023620254404453700e-01
1.658478340288123132e-01
2.622533275688595511e-01
2.963806396103795260e-01
2.111394785400687868e-01
7.048472643277822747e-02
5.384174660569073650e-03
5.562742547038747321e-02
1.206830783358032733e-01
1.147110913702257678e-01
8.813843742788837754e-02
1.257774145458560588e-01
2.114899050893446486e-01
2.653604817668625548e-01
2.493252224837154141e-01
1.823137943459531007e-01
9.304551783072118054e-02
2.143680897369354410e-03
-6.176884628240023045e-02
-6.356406938902045556e-02
1.616122518850938994e-03
8.169144523062224494e-02
1.038409282409765433e-01
5.394843313447209715e-02
2.160205044828117024e-02
1.402360534334967657e-01
3.990886368803329143e-01
5.189482025826219758e-01
2.348291096522308052e-01
-2.490610873347390564e-01
-4.149278660157865728e-01
-1.039004425722964003e-01
3.170530218807645073e-01
4.746034866315778644e-01
3.583658550515315677e-01
1.657320388280128509e-01
2.051700376456418867e-02
-8.422722337876356602e-02
-1.783875434272034766e-01
-2.457446661189352233e-01
-2.541401762149165799e-01
-2.017042071262594716e-01
-1.184661988296988044e-01
-4.397307034798370040e-02
-8.063792725707747550e-03
-1.937729540273191303e-02
-7.005996090869051618e-02
-1.493223767922433054e-01
-2.398531675249572226e-01
-3.064508403039263862e-01
-3.109585539871584370e-01
-2.419367896064388845e-01
-1.174019332191506837e-01
3.316960904225238482e-02
1.709539693661349391e-01
2.447351554643127924e-01
2.141573196207805785e-01
8.278103347948781443e-02
-9.484568742365430405e-02
-2.398043257444145426e-01
-2.950244693839392252e-01
-2.584274861823354086e-01
-1.702180956788415522e-01
-7.384656251219873235e-02
-7.601450952440455544e-04
2.281768836700267394e-02
-1.625901126468824731e-02
-1.021418453552529887e-01
-1.963911025211155237e-01
-2.577620354048437146e-01
-2.528500398690638473e-01
-1.701374920781118516e-01
-4.257545474388729767e-02
6.305242507251661299e-02
1.019224320424636510e-01
8.401869766363780079e-02
4.088889976744106147e-02
-1.525102267706249411e-02
-8.088871918416562501e-02
-1.378389611232278267e-01
-1.764763136281746747e-01
-2.181196750395241468e-01
-2.492335140790124803e-01
-1.550678727492444675e-01
1.407373066838135400e-01
4.366674338557190449e-01
3.788143705688621354e-01
-4.173273964883742609e-02
-3.808232624208000017e-01
-3.048134907401058857e-01
1.296376716731515583e-02
2.125614436974688215e-01
2.003479158699236762e-01
1.316691881708922929e-01
1.258527700290923701e-01
1.529439095987486508e-01
1.363303132345580204e-01
5.316277242883383353e-02
-6.704341071444547273e-02
-1.801125698084336257e-01
-2.476262724605837739e-01
-2.509373199807889421e-01
-1.987812592736528661e-01
-1.128512853341250427e-01
-1.228598306848899778e-02
7.960028211440726975e-02
1.291906449863033934e-01
1.064521273384535505e-01
4.595530701528835471e-03
-1.434503314334790725e-01
-2.596838101435416934e-01
-2.542298010362311067e-01
-9.734950705667347326e-02
1.403831994366514790e-01
3.410273168900786467e-01
4.256579378790182333e-01
3.793399667334319547e-01
2.301574107795984481e-01
3.502202314918675258e-02
-1.359140263653335623e-01
-2.209480361448947217e-01
-1.864216705090051551e-01
-6.115261035675510770e-02
5.921524429485667401e-02
1.000140588037009975e-01
8.233767130023400549e-02
6.357994941237969655e-02
4.714702891401309492e-02
-3.558584699448403763e-03
-9.791488633793171692e-02
-1.974044445701878536e-01
-2.482499364696270916e-01
-2.228408064309414238e-01
-1.354605607680831325e-01
-2.773306179685060963e-02
5.837868142568385099e-02
1.009562287045766144e-01
9.985967778245614934e-02
6.142418642393288053e-02
-1.814501385820727064e-02
-1.445805584218163020e-01
-2.712579608213276927e-01
-2.651740921284549968e-01
-3.771447229948489410e-02
2.467617825446654367e-01
2.852454565411625675e-01
6.793947187190756132e-02
-6.450256741277744787e-02
7.884724292517443500e-02
2.812411884482582392e-01
2.732298176401743439e-01
8.278345517372794060e-02
-7.191250972197793523e-02
-7.027081458388330371e-02
3.047384605606925576e-02
1.221145051744344373e-01
1.559049982462151485e-01
1.365203922240784129e-01
7.337511161486041933e-02
-2.757192590237626459e-02
-1.412111308923887365e-01
-2.257710453604219181e-01
-2.546224500314188677e-01
-2.277148206278846176e-01
-1.514772753970639041e-01
-3.542588069025719849e-02
8.343490834646836996e-02
1.451141465767330219e-01
1.199838480883306524e-01
4.479261413947020765e-02
-1.038907114160086791e-02
-1.829199410475080244e-03
6.665236963731753506e-02
1.598544821537979665e-01
2.355944593053385661e-01
2.718036651577073748e-01
2.728536525303724147e-01
2.317186839831428258e-01
1.153744548854906959e-01
-6.762822766014110754e-02
-2.264648401492545537e-01
-2.775213199496774918e-01
-2.385350921621926523e-01
-1.824250283500717384e-01
-1.389977245814001394e-01
-8.710958632550290515e-02
-1.219147049888171658e-02
6.366394629213377454e-02
9.755404606173306847e-02
6.086681743513093490e-02
-3.242008073618725394e-02
-1.333562823661838814e-01
-1.974828307822826534e-01
-2.065867368511465629e-01
-1.574667198124362344e-01
-5.670027905994212691e-02
6.534042197888285941e-02
1.492183532448137784e-01
1.330201676208581374e-01
1.485898708366947298e-02
-9.615469716661749489e-02
-5.758849180275768531e-02
9.353277991907377187e-02
1.010433907012325966e-01
-1.531825639084490875e-01
-3.733555167096876404e-01
-2.058903987316355599e-01
2.498652375941743942e-01
5.630964358823540294e-01
4.923216517088789823e-01
1.750304918934932896e-01
-1.135722198144920175e-01
-2.310118424613437360e-01
-2.132896122191796917e-01
-1.555122861367298215e-01
-1.054998387656807812e-01
-5.954641113704606248e-02
-1.283538862854035137e-02
1.516031924127990427e-02
-7.633139093280423906e-04
-6.379651404316441510e-02
-1.539331078872365477e-01
-2.456294282102515492e-01
-3.091638695044353069e-01
-3.039355576837761141e-01
-2.057429342004800099e-01
-4.876738945456041141e-02
8.720550385165647123e-02
1.457895169568961535e-01
1.391345294628064944e-01
1.209965887900302378e-01
1.279730820574720429e-01
1.480594888258222330e-01
1.323376953152618218e-01
4.521877406728400106e-02
-7.753613167804203343e-02
-1.403418192513259388e-01
-8.303514140176466996e-02
5.213395714094780364e-02
1.592074696352176466e-01
1.575673353431556178e-01
4.905793598732889615e-02
-9.254038203002364071e-02
-1.853746085303744351e-01
-1.953272838653357379e-01
-1.363056439108920326e-01
-3.561668847960175466e-02
8.078072765251094467e-02
1.745425142300793819e-01
2.027768251893303786e-01
1.541201874296090624e-01
5.604424639684531251e-02
-5.123262176329378831e-02
-1.293633096200065835e-01
-1.456295606339894633e-01
-8.851290782411155855e-02
1.028969062754211267e-02
7.850611402378231130e-02
8.286378478859705854e-02
1.371839445335699958e-01
3.948287909743511404e-01
7.070488923896641742e-01
6.312893855694944323e-01
6.043796877768343317e-02
-4.552675164166601895e-01
-3.780853371582095779e-01
1.342502776960105559e-01
5.349884685798718120e-01
5.720686147914603170e-01
3.976080440161366414e-01
2.231667291027489008e-01
1.078181365507234202e-01
1.489039911627898852e-02
-8.234700802875920267e-02
-1.728312462008557149e-01
-2.242347966047903152e-01
-2.092144386567618142e-01
-1.315879452198067401e-01
-3.000751903791001873e-02
4.422981266699230196e-02
5.397153915126165491e-02
-6.232667862852784776e-03
-1.087083079398905444e-01
-2.100041734182630793e-01
-2.737896904456091907e-01
-2.811348786458673366e-01
-2.283144143405105575e-01
-1.214357883179520148e-01
2.996524976717841043e-02
2.076285980903682937e-01
3.584567774952377439e-01
3.938595726242506423e-01
2.614853701217232373e-01
2.073937650431025362e-02
-1.925787370420655731e-01
-2.851608193223131305e-01
-2.638315892440279975e-01
-1.842249700172536864e-01
-9.092106161098434391e-02
-1.911808919560172015e-02
-5.579529692925572562e-03
-6.104123422595252729e-02
-1.488846475560804683e-01
-2.136541422467143625e-01
-2.273228503273237444e-01
-2.024475202639899329e-01
-1.619485393408126028e-01
-1.046873416172953430e-01
-2.017762950021501078e-02
6.626157747319566527e-02
1.024655926905645720e-01
7.730289040467011596e-02
4.114239638672304716e-02
3.223535542513879248e-02
6.178273185296848796e-03
-1.258165276921980880e-01
-3.612616071741432400e-01
-5.045034703870543424e-01
-2.824525426490078206e-01
2.970386728184181147e-01
7.412524619968042794e-01
5.238459761719655994e-01
-1.971206260938434540e-01
-6.959682381384374450e-01
-5.872302039566574816e-01
-1.926321527595210581e-01
3.189413391647937662e-02
1.679039158126710563e-02
-5.599629240045080059e-02
-9.951929536844628110e-02
-1.466610571546904107e-01
-1.352680482262601236e-01
9.596806574048068195e-02
4.843057278705120705e-01
6.354612238148770187e-01
3.069713167679108401e-01
-1.894861515468763136e-01
-3.609173900964364745e-01
-1.341211918930437230e-01
1.532244272239846883e-01
2.227326276349893275e-01
1.047503411203147550e-01
-4.175783690771233542e-02
-1.573511050627261210e-01
-2.522385166699019909e-01
-2.836469489124899268e-01
-1.914699444288651686e-01
-7.272224174619028314e-03
1.709531592522869625e-01
2.820623095366143751e-01
3.116703812658834227e-01
2.537613849058618087e-01
1.317548433867410107e-01
8.527374816976091704e-03
-7.497185732854080853e-02
-1.307736285991785430e-01
-1.727966801303374433e-01
-1.797072157390978697e-01
-1.250120778033533830e-01
-1.671888962957322061e-02
1.009374498113570218e-01
1.776972350531927647e-01
1.898090726686712248e-01
1.430389993495042034e-01
5.710495817054743461e-02
-3.091222352956086647e-02
-6.687589170985071274e-02
-2.418431038060756683e-02
6.316212985059509177e-02
1.441662397060329004e-01
2.076253564911502147e-01
2.705889468660718777e-01
3.298676304613147869e-01
3.396236078228097033e-01
2.414956022410858494e-01
4.950776570735963833e-02
-9.003588681881696809e-02
-1.328806885063355328e-02
2.166986917848633676e-01
3.080348376417075262e-01
1.312280027596019472e-01
-5.087524064424328585e-02
4.890335717744810629e-02
3.284682930074889207e-01
4.670315209177122173e-01
3.454773277269633236e-01
1.137605763172436085e-01
-5.269549241796565864e-02
-1.094548213252501540e-01
-7.627650225906681958e-02
5.768176820861146969e-02
2.553597628858309543e-01
2.868723555979104112e-01
-1.219671756754340669e-01
-8.386561348629300028e-01
-1.265779907490539813e+00
-1.025741767836529483e+00
-4.444224153778026931e-01
-6.717143492458797771e-02
-1.053360222384113441e-02
-3.635034458251268363e-02
1.945567598627833197e-02
1.099866023513354912e-01
1.419458887967634253e-01
1.188985377536314059e-01
1.025915187813628837e-01
1.129064865959810149e-01
1.268625804138732438e-01
1.397313828604680452e-01
1.678232545954611576e-01
1.887383227466895297e-01
1.237153285073731845e-01
-4.475881467454366491e-02
-1.150271939189268788e-01
1.994252964970382180e-01
7.943098827020484975e-01
1.077125015425497434e+00
6.831340722284457989e-01
1.474902324198029691e-03
-3.591188705691774619e-01
-2.845812582215483943e-01
-6.500964187111477055e-02
7.546087271839301003e-02
1.215833713426410639e-01
1.152794149062572326e-01
5.205801005730713998e-02
-7.171875361112524383e-02
-1.979189675365763679e-01
-2.434812962741718101e-01
-1.840012356313214525e-01
-7.020266520189791248e-02
3.225744046331316395e-02
7.984846927883457179e-02
4.683247681901579751e-02
-3.500356032138014772e-02
-4.711082081534619798e-02
7.486764635945958313e-02
1.656447778551997374e-01
8.399587768677765128e-04
-3.115861820854056163e-01
-3.924428209670445256e-01
-1.139462678208449375e-01
2.388382169104411035e-01
3.676793324290085763e-01
2.562144671563444387e-01
5.303368750812557930e-02
-1.337831957196908561e-01
-2.763293343373569022e-01
-3.667164099118463416e-01
-3.864703250067432205e-01
-3.268576870958672664e-01
-2.144561540905637886e-01
-1.045369098969687882e-01
-4.611986306748057374e-02
-5.508024585160829767e-02
-1.150666081394293855e-01
-1.940822898769997418e-01
-2.636325516850954731e-01
-3.091290647064743324e-01
-3.231524031455371149e-01
-2.959371059310894059e-01
-2.191017288714550981e-01
-9.556648917722328218e-02
5.325165829170175336e-02
1.851402580641712536e-01
2.495688312286689081e-01
2.159417521685427221e-01
9.516730212775555142e-02
-6.108120473782566173e-02
-1.794386736463514931e-01
-2.004779931053767283e-01
-1.207056710590850013e-01
-1.292168416738804712e-03
8.023955506094151979e-02
8.885023008997228189e-02
3.899809183458682882e-02
-4.092873357412184221e-02
-1.313533028302279471e-01
-2.122824846067830618e-01
-2.544253480643862142e-01
-2.357606955947942340e-01
-1.623814416840106967e-01
-6.537037196888782764e-02
1.976475474655549694e-02
6.626709868757597877e-02
5.586504205130114753e-02
-1.655436471044464605e-02
-1.292720416089917501e-01
-2.337520473690541944e-01
-2.805173258287060878e-01
-2.577445504766525119e-01
-2.044142566273708661e-01
-1.552088394318262288e-01
-6.332528104444791472e-02
1.467146702832971550e-01
3.839833070480772603e-01
3.736873446507464891e-01
2.351844460662567277e-02
-3.191035602871753474e-01
-2.774535656794266947e-01
-1.757179868772367620e-02
-4.033335089623639458e-02
-4.170519030524993953e-01
-6.404931367807813469e-01
-3.627214299625072247e-01
1.242948619836329871e-01
3.524675829097396740e-01
2.432158010029492612e-01
9.779863906861918643e-03
-1.893845579252496081e-01
-3.052096668322704653e-01
-2.923200755303047016e-01
-1.343469564573164521e-01
7.912984117863632039e-02
2.182401504635198553e-01
2.373495651250164540e-01
1.813262361226016250e-01
1.013962366209619770e-01
1.046852352636831740e-02
-8.658139778948258092e-02
-1.520975995726708829e-01
-1.259448474416470509e-01
2.387566322180460429e-02
2.629397834560797120e-01
4.976691256488870452e-01
6.260688452773098822e-01
6.008429647159906350e-01
4.583084115972761996e-01
2.832083552033752838e-01
1.385120393576349529e-01
3.905720753042656035e-02
-7.851334537941987574e-03
2.210598235929898958e-02
1.274108690498670371e-01
2.485989484470812472e-01
3.157239892293531303e-01
3.111519007213684462e-01
2.609978946602430350e-01
1.856357969744835135e-01
9.250436141764895037e-02
4.367520981333973019e-03
-4.180892109208280555e-02
-2.454209336881401846e-02
4.629999826129736762e-02
1.345279394061073552e-01
1.973710440208902295e-01
2.151538853902539572e-01
2.014572741129515565e-01
1.705605719575599699e-01
1.011116942509010103e-01
-3.711408073614731046e-02
-1.998249630145302880e-01
-2.363903447086006804e-01
-3.252900544869879312e-02
2.603261638246443521e-01
3.048046733024299404e-01
4.065767925689313389e-02
-1.689351294826183514e-01
-5.065488815864956085e-02
2.043378316482973300e-01
2.611837267515913497e-01
7.725209639169046405e-02
-1.253004386524233515e-01
-1.486910301844701354e-01
1.675379405851257913e-02
2.207174813775782951e-01
2.898681707789746431e-01
1.838272758432326071e-01
1.544657843709420011e-02
-9.891164365676589909e-02
-1.497392816528220205e-01
-1.797957906871264777e-01
-1.967771297895256344e-01
-1.748140118243080299e-01
-1.038144484849614774e-01
-1.125289707263563838e-02
5.863578573954468520e-02
7.798756944396952051e-02
4.373554871177154357e-02
-3.503312224809960324e-02
-1.316294604278700486e-01
-1.852966569037156896e-01
-1.283360428569908784e-01
4.442235837383173153e-02
2.424737723468828321e-01
3.416318338034194380e-01
2.902679998892572222e-01
1.424686679915813103e-01
-1.026968702782969471e-02
-1.171550718287305559e-01
-1.854536589345687769e-01
-2.461843480408846818e-01
-3.021833957716442143e-01
-3.093955942200108389e-01
-2.285615728044150530e-01
-8.767638343109494803e-02
3.605929868293987484e-02
8.705352838658782233e-02
6.269033063636017533e-02
-4.330919711901817792e-03
-7.429390511758153515e-02
-1.264177892892951183e-01
-1.632412346274129400e-01
-1.828107894844531733e-01
-1.586811296187042031e-01
-6.264033134310485751e-02
9.083275915977237491e-02
2.241297075566893726e-01
2.269983598570968764e-01
4.029324331220553168e-02
-2.293261329940128046e-01
-2.978609577055841284e-01
8.077783887518428380e-03
3.902219178649981579e-01
3.294179469594419318e-01
-1.472520692189629166e-01
-4.013488888794147780e-01
-8.201258573805612906e-02
4.182566576916129097e-01
5.772012594304707367e-01
3.508868448997459200e-01
2.953784188602240346e-02
-1.737982809697869724e-01
-2.336053657531773908e-01
-1.895446901257709371e-01
-7.684572855101343136e-02
5.307835532786233518e-02
1.367773767418453690e-01
1.387409763842125943e-01
6.499122841890546398e-02
-5.164993468244728769e-02
-1.683376750296027846e-01
-2.509110116726358530e-01
-2.848069122515400342e-01
-2.651417331025316959e-01
-1.888628231892611753e-01
-6.985725975010557975e-02
4.894631941765832661e-02
1.188640199105957251e-01
1.232833174672109677e-01
8.276255508494698154e-02
2.970246782884103723e-02
-9.810083607154610266e-03
-2.403788934968333416e-02
-2.143560476449763580e-02
-1.768809437456470360e-02
-1.524361293062154177e-02
-8.239826351622132894e-03
-3.900658828393487043e-05
-3.847539344787622578e-03
-3.157298921734143227e-02
-8.684317651253517512e-02
-1.611612572871931603e-01
-2.266266790950433874e-01
-2.415911968382270514e-01
-1.848618404462319953e-01
-7.822536647652872377e-02
3.666853832429917137e-02
1.254817506110076364e-01
1.652337425128447834e-01
1.490401884428066981e-01
8.593107980584493988e-02
-1.055673367204006119e-02
-1.117268264886399076e-01
-1.584496839729601370e-01
-1.020656216793539295e-01
2.685896583118057776e-02
1.202604138746900808e-01
9.942114107708487081e-02
4.210379726974847192e-02
1.421294984244088067e-01
4.165512873890900303e-01
5.238650727655005390e-01
1.601786604630976163e-01
-4.001366719193419352e-01
-5.596321172271331301e-01
-1.681529235535448030e-01
3.618738250467171125e-01
6.149574742878424205e-01
4.741627661626672263e-01
1.639891026815368247e-02
-5.141263910376600021e-01
-7.528612646157898380e-01
-5.674404061926923148e-01
-2.384868311340266889e-01
-8.080018703883984355e-02
-8.861107916911771520e-02
-8.159378470407330219e-02
1.091684575541611649e-02
1.094313518782335515e-01
1.087192285166701800e-01
-2.053056764137045978e-02
-2.078944928328274877e-01
-3.336524420444918482e-01
-3.309246647906305405e-01
-2.376448536621247887e-01
-1.274582697565400380e-01
-2.082750252201948094e-02
1.073680217975285234e-01
2.618789499915019081e-01
3.937385369774628052e-01
4.275583218686145881e-01
3.271082317928811767e-01
1.413267130406690997e-01
-2.730104744488193527e-02
-1.084008658347361265e-01
-1.062779215358161250e-01
-5.800449815069438908e-02
1.460546514760154187e-02
9.121141941300286993e-02
1.326403293097246638e-01
1.107435204135114176e-01
3.813550903817246318e-02
-4.859376453190988876e-02
-1.191144432204801623e-01
-1.580144446056104268e-01
-1.564319166812269957e-01
-1.067644561457695845e-01
-1.398239478666150719e-02
9.328811105410111937e-02
1.728857404801540654e-01
1.864754468381483177e-01
1.168077106990814962e-01
-7.649141367154586174e-03
-1.169680432352807331e-01
-1.626610130251790465e-01
-1.631631189400460369e-01
-1.388437260079706803e-01
-2.477518291741605955e-02
2.321723035343503105e-01
4.648106687591408992e-01
3.831693198341353246e-01
-5.407195332944592092e-05
-2.907559260859046146e-01
-2.136907747412721548e-01
6.404153834951246960e-02
2.249975535307547903e-01
1.823641419152861598e-01
8.308100835137929852e-02
7.683128787671229809e-02
1.529536860641542151e-01
1.839740697704843608e-01
9.485296961928245396e-02
-5.935879419565517900e-02
-1.785199322805084698e-01
-2.192728488159753075e-01
-1.988468738385529289e-01
-1.431325950103233269e-01
-6.527706609583373842e-02
1.589789088866708916e-02
6.704739729718590946e-02
6.354725926178260431e-02
1.454931034898411177e-02
-5.044272029850341288e-02
-1.165828520746916286e-01
-1.803248849872991499e-01
-2.123970198245313801e-01
-1.576292249730262829e-01
6.786067112951429253e-03
2.194662729261929179e-01
3.665821998196139853e-01
3.785572716404665417e-01
2.756707356799324438e-01
1.161396580933059253e-01
-5.519074306775926392e-02
-1.941578131293492104e-01
-2.523636047613356248e-01
-2.164641632512913916e-01
-1.206934787515673013e-01
-1.322735033492569018e-02
6.816396768114378613e-02
1.007664164225642450e-01
7.979123215790066836e-02
1.244721753536693482e-02
-8.882179903331426096e-02
-1.968377535317578642e-01
-2.677899947345782072e-01
-2.673582294074329790e-01
-1.930024860917617102e-01
-7.257240935501881041e-02
4.345967149962251530e-02
1.034957152516480516e-01
9.773909303827969797e-02
6.713530776608910011e-02
2.500882492029552623e-02
-1.226886573686648413e-01
-4.600313398204198267e-01
-8.019697025327248152e-01
-7.822132977906068874e-01
-3.802171614083970641e-01
-3.025859669076615133e-02
1.366653621064796084e-02
-1.202666832573916211e-02
1.183040884912345270e-01
2.706426489868720697e-01
2.407651030617164734e-01
5.420188866524643101e-02
-1.183278712919835635e-01
-1.657880094190201381e-01
-9.476278194086232287e-02
3.023229527822314522e-02
1.413011554863428387e-01
1.859056756406292366e-01
1.419410161116828328e-01
3.123749318847338086e-02
-9.281467119350449158e-02
-1.792539629591868577e-01
-2.041182562237398301e-01
-1.698389508984550211e-01
-9.191107126245902370e-02
7.793303546468555859e-03
9.946032886903002912e-02
1.523244555022104374e-01
1.543921446208983972e-01
1.208117121998938392e-01
7.999511429671887774e-02
6.209193242037851224e-02
9.308794040795657920e-02
1.692363548671944884e-01
2.411547746307079187e-01
2.626460120185452607e-01
2.558387552983998336e-01
2.830172678542419717e-01
3.397414676398156641e-01
3.281038789865393657e-01
1.782883106529212502e-01
-4.834929297684039534e-02
-2.203502491339632552e-01
-2.554314864655811701e-01
-1.565853076072981354e-01
1.499348707540926195e-02
1.749674067979135050e-01
2.563814575588171385e-01
2.463784997900025087e-01
1.864515789680858404e-01
1.276577113343441150e-01
8.380325075112621258e-02
3.700002764653384513e-02
-1.551166272791032995e-02
-4.361256828572730032e-02
-1.611298805640274528e-02
6.432624230390895925e-02
1.463140494368191935e-01
1.509521837105788911e-01
5.680942446835416521e-02
-3.225110565236928573e-02
8.926651843023677632e-03
1.166380863402321499e-01
6.569663820774540586e-02
-1.789237830109218219e-01
-3.117965867988920503e-01
-8.385001069688627351e-02
3.256767983503598973e-01
5.399720549650848245e-01
4.297491034176311731e-01
1.618718291019867195e-01
-6.289296869538199553e-02
-1.712382104730506005e-01
-1.841057019980325005e-01
-1.461116835663716640e-01
-9.428928837746955449e-02
-4.589426630483253722e-02
-6.350216952506107515e-03
1.106859036699748416e-02
-9.036494086671393103e-03
-6.331765484316617676e-02
-1.321961063604933928e-01
-1.954180480465682046e-01
-2.344236225600960510e-01
-2.306692489119711309e-01
-1.755103029647575030e-01
-8.336603705644429763e-02
1.202127511254405881e-02
8.256882256637881889e-02
1.286298890954638285e-01
1.683615640542201475e-01
1.980453945148432648e-01
1.822812426332174052e-01
1.061490565217362569e-01
1.471341608920303558e-02
-2.960964614143897500e-02
-1.101021979159345042e-02
3.675016500936825747e-02
6.962241782463549078e-02
6.161682258840683879e-02
1.133899534062348183e-02
-6.264478277118902538e-02
-1.323964371275125618e-01
-1.731085489158915303e-01
-1.706755674243767840e-01
-1.230579490084912075e-01
-4.307689846268360212e-02
3.808259634368194035e-02
8.397490553206869712e-02
8.089259058003379910e-02
4.462335070264725201e-02
-5.769553505130512253e-03
-6.514851027273636797e-02
-1.220902629491717184e-01
-1.393762023532708061e-01
-8.388285788622272532e-02
1.948761933630276458e-02
9.323633762616170828e-02
1.063480806393438949e-01
1.535172730500361515e-01
3.260179444369958324e-01
4.696760067689350060e-01
2.917296287154496071e-01
-1.599319146272811243e-01
-4.177799846656711780e-01
-1.845358368727818277e-01
2.839214633697956791e-01
5.422020886007713480e-01
4.589096119846761135e-01
2.281637630947272455e-01
5.243035461714812967e-02
-3.431728395924874692e-02
-9.188598809337708562e-02
-1.562337920353649712e-01
-2.113052376290212309e-01
-2.182098894442464077e-01
-1.559516077804951883e-01
-4.909593568860043389e-02
4.272548473299210559e-02
6.832372869969256801e-02
2.409085140008984660e-02
-4.739793349810172973e-02
-1.027566171485801566e-01
-1.388874135218409189e-01
-1.757529036035033188e-01
-2.021100713484162981e-01
-1.673896760812375317e-01
-4.386418035128104853e-02
1.263488031583087923e-01
2.681934830019428451e-01
3.377215633370435066e-01
3.274552982061739170e-01
2.344848065038910856e-01
6.785759740455210576e-02
-1.143748283179054775e-01
-2.197090351559367050e-01
-1.959821187220048833e-01
-7.840796984349103493e-02
4.700709519174450790e-02
1.176882297360165724e-01
1.252452742045737644e-01
8.436980018512640900e-02
1.170882212463017491e-03
-1.106060921801169245e-01
-2.047306168160530349e-01
-2.270019843798554704e-01
-1.659094083534801700e-01
-6.292138937902877482e-02
2.627196310420984449e-02
6.967972527958472828e-02
6.212154950221554506e-02
1.147437202833113262e-02
-5.915404833403764551e-02
-1.081572941708893731e-01
-1.113917283388056317e-01
-1.065711819178547237e-01
-1.541836194379828939e-01
-2.107682539845565362e-01
-9.661544746236042092e-02
2.579145554586234068e-01
5.438282743003636233e-01
3.514621013205518896e-01
-2.039366948885595887e-01
-5.248713034718087700e-01
-3.102433050729246911e-01
1.066719036837085188e-01
2.839231586317519374e-01
1.816292548947367469e-01
4.258048811828269581e-02
1.343907028312026075e-02
3.948937996779244841e-02
2.342432456009651415e-02
-5.304579611858190741e-02
-1.472444531217782515e-01
-2.154600620074765271e-01
-2.441192188210339897e-01
-2.440087300342566878e-01
-2.216065947681896964e-01
-1.697459491294991685e-01
-9.305159450038616442e-02
-2.108486937154653920e-02
1.374844806253068714e-02
-3.812038186534472128e-03
-7.115936856272939148e-02
-1.651643982409803091e-01
-2.374182405220809644e-01
-2.306522723461386926e-01
-1.195097947012041667e-01
5.849490968433791044e-02
2.204431873308786705e-01
2.927704137057746125e-01
2.548545264901547758e-01
1.421360841622707205e-01
1.004186386728513763e-02
-1.073620588384676111e-01
-1.951864467568942829e-01
-2.259769412510355402e-01
-1.687415567375268877e-01
-4.369686200766815382e-02
6.572751971675903915e-02
9.034775066876975236e-02
4.564441473132241356e-02
-8.262643353678756492e-03
-4.900429289430152657e-02
-9.501161368316898836e-02
-1.507836547486102463e-01
-1.899336821869178904e-01
-1.895127577719438183e-01
-1.579324057805011339e-01
-1.229297671899435285e-01
-9.712538118394692388e-02
-5.930390549177952386e-02
1.752384466152326001e-02
1.034367954290636021e-01
9.444770265822829969e-02
-8.043007102093401028e-02
-2.945203070585569738e-01
-2.531478448131707637e-01
1.364395160696081355e-01
4.761837871038109848e-01
2.985910328854932683e-01
-2.187362899679103634e-01
-4.314322219280856685e-01
-1.335574356783089667e-01
2.347259129199887606e-01
2.745124988146236400e-01
6.209589144549060302e-02
-1.095361385885915279e-01
-1.021425025834002964e-01
1.168600831444538413e-02
1.040739090464449790e-01
1.189428553800178368e-01
7.653784089566495474e-02
1.139442665390900944e-02
-6.332068723704725732e-02
-1.394021045993966701e-01
-1.915807504779766246e-01
-1.935229139231942896e-01
-1.499162550130374028e-01
-9.010447769505208759e-02
-3.523888227605473378e-02
5.397353187618131667e-03
2.095115669704019842e-02
8.578484651321275495e-03
-1.389259437555714558e-02
-1.803630554158028310e-02
1.853960563715036786e-02
9.841352200396881467e-02
1.913104771312035823e-01
2.456667614321831894e-01
2.330859858586825095e-01
1.759606896121690967e-01
1.198798388373421425e-01
8.798205217115047383e-02
7.290440623500679673e-02
5.863475643028434603e-02
3.395186114030605828e-02
1.652085173373957737e-03
-7.392031434309600732e-03
4.964110435996677700e-02
1.687561056641055657e-01
2.721421610840399352e-01
2.808456027142811062e-01
2.046070475014621359e-01
1.184847092050052564e-01
6.542090836260361364e-02
2.309614690462870670e-02
-3.687617627819512328e-02
-9.077592211354204577e-02
-8.313793260813465147e-02
5.122972634861857472e-03
1.257829796267393163e-01
1.948707540778829850e-01
1.526531711530973445e-01
2.905024230869718282e-02
-3.507939267852338422e-02
8.127571842667559443e-02
2.598687105677411346e-01
2.033519176903427206e-01
-1.343230678525683675e-01
-3.856692504320523018e-01
-2.504424014356785855e-01
1.135712035067024811e-01
3.959034075214388215e-01
5.429492694387012541e-01
6.295089218626250815e-01
5.835422939536828446e-01
3.169108422952287007e-01
-3.163048608621386870e-02
-2.248727631877160960e-01
-2.057227785816999333e-01
-1.036477617828555353e-01
-4.482020221948784106e-02
-5.015816092517956515e-02
-7.762962093469918945e-02
-1.001335547381172059e-01
-1.299938896552154388e-01
-1.781759387350701773e-01
-2.181601700691725154e-01
-2.210096758937638017e-01
-2.014986400973765301e-01
-1.842131056325919114e-01
-1.496596840342094836e-01
-6.458106673132682496e-02
5.353052670472687596e-02
1.435244929668316183e-01
1.603713654388448651e-01
1.046808572060378695e-01
8.022945113421123264e-03
-8.751657555028928559e-02
-1.423625013909954329e-01
-1.387800736782183186e-01
-9.607647653643555663e-02
-5.303680504270531781e-02
-3.569463846287568298e-02
-5.429502409364189014e-02
-1.112400383808225673e-01
-1.829121101866259813e-01
-2.161923069035958656e-01
-1.814091408253536708e-01
-1.130749365476158980e-01
-6.531593093645352011e-02
-4.742277153361573738e-02
-3.364268834333572489e-02
-1.182987129995894705e-02
6.414051005766294167e-03
6.534247336565623433e-03
-1.677568930593975605e-02
-5.559489450966906277e-02
-8.625859396342720753e-02
-8.957885946220328632e-02
-8.563087803747707061e-02
-1.144988860585363644e-01
-1.501471820645525479e-01
-7.836722532236080341e-02
1.383666306648753119e-01
2.901058725464280008e-01
1.241216660267372152e-01
-2.341708142405047877e-01
-3.631603739457098801e-01
-1.151768730186366052e-01
2.141931458602456262e-01
3.204690798995118994e-01
2.094189289515853147e-01
5.733219299978372513e-02
-3.551337569230193086e-02
-8.500153208386146408e-02
-1.265907096029575130e-01
-1.652133928752102521e-01
-2.007425191838639045e-01
-2.427680338438822638e-01
-2.765819639474259017e-01
-2.427224759664978193e-01
-9.792410301082907220e-02
9.383458448211746961e-02
1.874138778285674156e-01
1.150253844881050369e-01
-3.521202125869390964e-02
-1.378393995492012414e-01
-1.590657103665536476e-01
-1.320322170636774317e-01
-7.179483900196928503e-02
3.723308317209012702e-02
1.940956524885719126e-01
3.522254907176469163e-01
4.375479584140024025e-01
3.965912327032521389e-01
2.460237971805051826e-01
7.211577413359751554e-02
-4.294394759849415322e-02
-8.592843240783476499e-02
-8.939214685802446270e-02
-7.621834992186556079e-02
-5.080423953557691719e-02
-1.538841896502424200e-02
2.371437043578190906e-02
5.047534678827437366e-02
4.153191897588887072e-02
-7.903880508621632939e-03
-6.623902415154447887e-02
-9.118720829975157649e-02
-6.799794858245725160e-02
-1.015486965656948667e-02
6.317617010441126113e-02
1.310927349912255346e-01
1.643886352524693284e-01
1.423036085330098843e-01
8.139155729925359739e-02
2.880980456128070383e-02
1.370465310644631771e-02
1.562769001677693712e-02
1.099950019567415109e-02
5.689816894054346152e-02
2.450707648823154117e-01
5.039689967146946392e-01
5.781686119834386073e-01
3.560833273950919642e-01
8.000635767365645024e-02
3.396671499211430245e-02
1.557018583191372429e-01
1.871423666489833715e-01
1.193275623657795020e-01
2.142498906933560932e-01
5.368792028758836432e-01
7.464135670142747481e-01
5.544733287620805529e-01
1.386222648219754272e-01
-1.401884013415294339e-01
-1.893997093857665570e-01
-1.584763413436497403e-01
-1.688290472533415520e-01
-2.179439212033201789e-01
-2.459408289356745103e-01
-2.113630670064841066e-01
-1.239420733369603622e-01
-2.689638616084933861e-02
4.440013631373576630e-02
7.162816465779009434e-02
4.162573299088795364e-02
-3.727140608586992226e-02
-1.218841081379778979e-01
-1.618311084992463122e-01
-1.231718288784090509e-01
2.622746325161181419e-03
1.696771664399040203e-01
2.814543453866123479e-01
2.709886149638222608e-01
1.629853825331714079e-01
3.712102486623405223e-02
-5.548309218523183456e-02
-1.283154218428065874e-01
-2.099941423372243821e-01
-2.750596181002415985e-01
-2.546504178448518729e-01
-1.166683437426433434e-01
6.399341097371145926e-02
9.728766465070273761e-02
-1.831859400765714629e-01
-6.600766678553539046e-01
-9.344070709217910942e-01
-7.787695741924909321e-01
-4.216363162250289509e-01
-1.999871958702389152e-01
-1.639377112716539908e-01
-1.692387611391359958e-01
-1.293233574503720451e-01
-5.763686802567551115e-02
2.024825437580240334e-03
5.626878649635236318e-04
-1.003817579456132564e-01
-2.507684668268754802e-01
-2.723728868129131064e-01
-4.782981596895725940e-02
2.137263143976260715e-01
1.522311950165450289e-01
-1.941845135722124749e-01
-3.590528988660323662e-01
-1.016953967522832292e-01
2.831772085081705748e-01
4.131506647419834199e-01
2.401938479887500422e-01
-4.435782889653298866e-02
-2.587601766775954881e-01
-2.857683938260725531e-01
-6.995630859565911408e-02
2.732588665158140473e-01
4.558914958059175904e-01
3.101813116167874140e-01
2.349628415307530860e-04
-2.053936614688533779e-01
-2.476643642885968943e-01
-2.399684001541292078e-01
-2.523581702064219279e-01
-2.552080374414947839e-01
-2.092802699912596764e-01
-1.264060646054668002e-01
-5.283038169971381037e-02
-2.564768365106587233e-02
-4.333016194977026142e-02
-7.035635971550467660e-02
-7.027187925373407085e-02
-3.291264937931049489e-02
2.425244915680155669e-02
6.947763133608794717e-02
7.560690428597902080e-02
4.340649820312994511e-02
7.245928334199524395e-03
-3.216180472337196172e-04
1.167647259347334363e-02
6.478328425103914087e-03
-3.629783009218698342e-02
-1.032991405522786094e-01
-1.492239207625950526e-01
-1.142480951202717310e-01
1.146670292012157664e-02
1.468243644624961930e-01
2.024858704029905976e-01
1.789259922163921601e-01
1.293182148266144305e-01
7.779255377828001028e-02
2.279438468027338016e-02
-2.847746242441721171e-02
-6.486445853276186224e-02
-8.263236751636139632e-02
-7.470623752051470945e-02
-2.601349219156869064e-02
5.908554157108885513e-02
1.206290382666364847e-01
7.614019008866353133e-02
-4.001148721739473252e-02
-1.662978790150121053e-02
2.630157532401585230e-01
4.995699439036145884e-01
2.820826416669268699e-01
-2.301135526139601040e-01
-4.130432963203344299e-01
-4.260400707802713960e-02
4.496016257402551952e-01
6.138528110145763383e-01
4.435422670530895228e-01
1.901150692563740030e-01
2.535699392865076868e-02
-5.096361404617015534e-02
-1.077113231181037745e-01
-1.624448047252688987e-01
-1.622551208229258413e-01
-7.682356635485800000e-02
2.649899109590879431e-02
5.190902801776037245e-02
-9.327149685291299258e-03
-9.451562917492351001e-02
-1.652751827930497852e-01
-2.236328007095420844e-01
-2.628524472978698845e-01
-2.474072221332471455e-01
-1.386746972440665859e-01
4.692494069848115318e-02
2.168614964715722682e-01
2.958653848776253703e-01
3.145128061228089078e-01
3.396491454497317930e-01
3.617898840354306644e-01
3.168620483918037634e-01
1.885365618150257050e-01
4.208349913624465088e-02
-3.984379874159402896e-02
-3.369971904242449745e-02
1.982338180183529364e-02
7.075862150801684458e-02
9.948559786832461560e-02
1.055526211953800447e-01
7.969864432636972196e-02
9.815251392269182945e-03
-7.879786833742906393e-02
-1.161263089491252759e-01
-5.299689079912738715e-02
7.558936900162124828e-02
1.849941758503752809e-01
2.355676028873567585e-01
2.547262139265963343e-01
2.610170151294574081e-01
2.225339752975079299e-01
1.240705937555472843e-01
2.840755654963038335e-02
1.531209909477745934e-02
7.171288737982080275e-02
9.527578057670450795e-02
4.657459425535193098e-02
7.404618531341752852e-02
3.547740583934234082e-01
7.308836872456431211e-01
7.376563555703012920e-01
2.409677877737458063e-01
-2.377544048907486163e-01
-2.117333239349573071e-01
4.495461582909450471e-02
-7.515637030742278180e-02
-5.610998444275503427e-01
-7.910294771792215629e-01
-4.811246943511634511e-01
-7.557579457099562747e-02
-3.051309139473482729e-02
-2.196569696690956752e-01
-2.874035002928951310e-01
-1.799357743870963755e-01
-7.479154502486302925e-02
-4.889712194516094429e-02
-3.454341050342463887e-02
1.888275605371729504e-02
8.298590228590767282e-02
1.063369996990760208e-01
6.291587347644936323e-02
-3.068811132531101479e-02
-1.143619119199079243e-01
-1.265038521809517535e-01
-6.749862942371136210e-02
7.066630368873354565e-03
6.692887342648690119e-02
1.350907326630776673e-01
2.222494331998957906e-01
2.847619409510543931e-01
2.663461090401199605e-01
1.536694865631490492e-01
-1.268047164496252655e-02
-1.666347127554525243e-01
-2.537030086460113631e-01
-2.512716909837030554e-01
-1.718797880503864228e-01
-5.670983325151498361e-02
3.543885967903809275e-02
4.870837271545409158e-02
-2.030441734796318426e-02
-9.733572717219822479e-02
-1.091558932131271864e-01
-7.191283245120788647e-02
-5.075825344418762736e-02
-6.617994282250777571e-02
-8.276941247123005552e-02
-6.251319159198960584e-02
-3.967485916853988326e-03
5.825648751061327651e-02
8.549850208231617177e-02
6.931399072677460471e-02
2.702116613717768512e-02
-2.943905996175150142e-02
-9.069213146152173277e-02
-1.141177572804631668e-01
-4.734514816912692436e-02
5.707940653582643104e-02
2.038057983843040433e-02
-2.299263853957789761e-01
-4.673494429247989634e-01
-4.037270917941649939e-01
-7.333865687362711716e-02
2.100072532120539903e-01
2.327363015202915386e-01
6.504016471730704463e-02
-9.548584158477442518e-02
-1.362001952973210528e-01
-8.000914701243196092e-02
-9.236167253749469341e-03
1.816142788942808062e-02
-1.882187538201653826e-03
-4.507383672082947157e-02
-9.496290534325488308e-02
-1.456114988076769312e-01
-1.818551433074549750e-01
-1.774498103623165512e-01
-1.251891113967824043e-01
-6.013884021114595385e-02
-2.478884902842825450e-02
-1.720761798557829403e-02
-1.077447615773985401e-02
-8.638688157507576695e-03
-2.896115574727852263e-02
-5.134077131587200249e-02
-2.717725284607332148e-02
6.269832526247312576e-02
1.888005149163967389e-01
2.980220173171109210e-01
3.360759446447713072e-01
2.554506567503329051e-01
4.328242356467896373e-02
-2.218543407447610694e-01
-3.880869631259315500e-01
-3.786850597915055183e-01
-2.769964692062497069e-01
-2.058067618232911067e-01
-1.888249979556911873e-01
-1.712149763130321467e-01
-1.136165432700683570e-01
-3.338550384443049468e-02
2.149559057380875243e-02
2.202132079908521514e-02
-2.213278319388324936e-02
-8.747350118638770600e-02
-1.586158724536831099e-01
-2.178109237729359549e-01
-2.373058656498577557e-01
-1.962436840144040628e-01
-9.917761879914241407e-02
2.035922940388962613e-02
1.072712291372324850e-01
1.051825876706375534e-01
6.967050539003479676e-03
-9.536578516478903811e-02
-7.561488619579179171e-02
4.026613343670516071e-02
4.447481215474548277e-02
-1.503210128704093318e-01
-2.992642651901509798e-01
-1.321242356498529835e-01
2.503167874667224235e-01
5.030802547014547876e-01
4.521828998489444418e-01
2.177668329439145789e-01
5.909137749187158561e-03
-8.879834375705301930e-02
-9.170969980343970929e-02
-5.601681939297128987e-02
-8.655444902773605856e-03
3.842524037208144144e-02
7.052488387847144491e-02
7.782637073725487409e-02
6.037256351814640487e-02
2.053925587864375429e-02
-3.112788313503343438e-02
-6.916875883924993029e-02
-7.388725644730628761e-02
-4.944486480456566913e-02
-8.282963380431405953e-03
4.381705845169056590e-02
9.702330816363023691e-02
1.385989586036024124e-01
1.768971685150757533e-01
2.331525218606999850e-01
2.956372815035936963e-01
3.140677659008617728e-01
2.571480352275976600e-01
1.550713755112153036e-01
7.132626598433786103e-02
4.390914455812812422e-02
6.352127610695444682e-02
9.547084469295773201e-02
1.053289250021707257e-01
7.286678919907225993e-02
5.535569722545105077e-03
-5.762024540564222863e-02
-7.525268177990417084e-02
-4.503053529982289915e-02
2.698676673824663280e-03
5.342874414554729667e-02
1.172933090542710721e-01
1.807845688164656239e-01
1.935678317259370840e-01
1.315844853319644847e-01
3.671582103198571534e-02
-3.403470959630576498e-02
-6.138448038813171248e-02
-4.791035941369915091e-02
5.980086624779237803e-04
4.965558664602574834e-02
4.111336073873288893e-02
-1.732643688561070691e-02
7.484945907587810254e-04
1.841336685357677916e-01
3.626595065510271332e-01
2.521190173381496202e-01
-9.997674893861341339e-02
-2.942316599995864479e-01
-1.114928995413464186e-01
2.288808700509433469e-01
4.108689670566398888e-01
3.614656431291799477e-01
2.072845952337284969e-01
7.665784564291530656e-02
4.987386589981300695e-03
-3.712667825509229774e-02
-7.472627151236960197e-02
-9.481436788573700813e-02
-7.442017917375789993e-02
-2.100640148117408762e-02
3.344359993868811776e-02
6.848420801285305670e-02
8.320506945279756983e-02
6.955383206040885447e-02
7.197050002061667652e-03
-9.771110852775989619e-02
-1.926759868986537561e-01
-2.227345027679677736e-01
-1.806812955687597255e-01
-9.719716789457021056e-02
3.759515399712563127e-03
1.181308391531743773e-01
2.348181646243747700e-01
3.197819636290708534e-01
3.353821144813762256e-01
2.656143305067438232e-01
1.288622508918959020e-01
-2.117773680871039288e-02
-1.182030087441728189e-01
-1.264671832359117176e-01
-6.600215485809149407e-02
8.907862574104183362e-03
5.290773285056248054e-02
5.122372791352240717e-02
1.363428006816519433e-02
-4.756840724006487775e-02
-1.355581574015018997e-01
-2.462432772080095644e-01
-3.242327334126877125e-01
-2.882497566514781173e-01
-1.343754427920185457e-01
2.770963708588006572e-02
8.709691425767285278e-02
4.231211047053523577e-02
-3.474488322646986788e-02
-9.124271383959006720e-02
-1.166359603208615980e-01
-1.297382925747799509e-01
-1.737493276000953157e-01
-2.700164338508237449e-01
-3.388435468868165601e-01
-2.344050204334375276e-01
4.061539538423959012e-02
2.150874457605891632e-01
4.833508603637546447e-02
-2.779618034066242416e-01
-3.531447535054871301e-01
-1.013434182740713674e-01
1.620810972676829387e-01
1.976850812629780130e-01
8.008485645080978821e-02
-7.488016123902686838e-03
-8.087095887317052173e-03
9.354337877910633842e-03
-2.310642570797330833e-02
-1.047530958013468266e-01
-1.930824404627980995e-01
-2.496386324055847039e-01
-2.588079184846438507e-01
-2.296663149705209239e-01
-1.841587021877042485e-01
-1.332044610112743666e-01
-7.563088565131403929e-02
-2.538526386160305445e-02
-1.044227019287413856e-02
-3.377063645450323337e-02
-6.549145932843705720e-02
-8.356415445321062341e-02
-9.121064406458527507e-02
-8.200945042711391131e-02
-2.125073095919275540e-02
1.124425772527269662e-01
2.808821006919138830e-01
3.981100454795050148e-01
3.910354436439723580e-01
2.580902140709828152e-01
7.716524579846209542e-02
-5.385728741696173272e-02
-9.894392400508184027e-02
-1.009707053413560346e-01
-1.060415065107090105e-01
-9.851633279240647190e-02
-4.598067249169944526e-02
2.695961035073971349e-02
6.154872013974847095e-02
3.349833850055698725e-02
-3.840941934732609864e-02
-1.168310680320983619e-01
-1.585100526635940255e-01
-1.499130484695835042e-01
-1.360266593314443107e-01
-1.563133891899503303e-01
-1.669118378856164209e-01
-9.826181266431646688e-02
3.616174202309618835e-02
1.561941339923864080e-01
2.005495566807586894e-01
1.421424634402762011e-01
-1.142284543166803210e-02
-1.428094538840590788e-01
-4.291970377351510268e-02
3.015549081898954431e-01
5.197120107148132107e-01
2.821105233384298971e-01
-1.504215140565549058e-01
-2.302275317326682447e-01
1.088623725378598528e-01
4.340901198848866605e-01
4.476037438132199897e-01
2.492838158112757885e-01
6.307442278761786481e-02
-1.647219555446383099e-02
-1.603557738353638198e-02
2.506863583268521128e-02
8.693234716049072497e-02
1.105537923687422014e-01
-2.841043586643494760e-03
-2.466676012967366216e-01
-4.338218843690759829e-01
-3.952606762302640631e-01
-1.923590371548484501e-01
-2.095072128804835454e-02
2.388859273520961557e-02
2.098602232673565070e-03
1.013852044648891337e-03
3.037092005706410955e-02
5.647729569545939521e-02
8.491008323617374454e-02
1.434618347778401359e-01
1.952362771880631898e-01
1.519473113179304891e-01
1.622458096715323483e-02
-7.023607946927069856e-02
-3.645067215098177216e-03
1.372920592257841077e-01
2.085069860254621932e-01
1.681395043275022427e-01
6.132363782478621184e-02
-6.160300440038596337e-02
-1.544014226345443441e-01
-1.744139737496131493e-01
-1.179899410181223240e-01
-2.879220266473719175e-02
4.424979122927179265e-02
8.552102874442567282e-02
1.052791284316712539e-01
1.077860587918342827e-01
8.805476652654442571e-02
5.113527406790601554e-02
8.957257033443969535e-03
-3.179082479290276653e-02
-6.292190243523707038e-02
-6.700639671596059221e-02
-2.238162031298945864e-02
7.548653658091436514e-02
1.771098132744755582e-01
1.845863117367351480e-01
6.132414241386510700e-02
-4.914237272642019150e-02
6.736125108865541333e-02
3.516606254561749356e-01
4.019926009869907446e-01
1.362793569004593780e-02
-4.049752688672273448e-01
-3.336259424505147453e-01
1.446113442806633842e-01
5.110919751938236555e-01
4.886672500811582442e-01
2.277053068407139946e-01
-2.315023706126151382e-02
-1.650400204398249360e-01
-2.157865444097868957e-01
-2.084470603438847158e-01
-1.667019573080774919e-01
-1.125841029214976335e-01
-5.811012709036544877e-02
-8.581381987283030408e-03
