-1.357168551194023465e-01
3.927262869162364001e-01
5.221145233877937386e-01
3.962284850358870347e-01
3.672725214797498139e-01
4.475654034525929914e-01
3.691718393530406539e-01
5.026356849427642687e-02
-2.933053955185170869e-01
-4.239108572475043246e-01
-2.735416010895571071e-01
8.388418061015873173e-02
5.073931782656883049e-01
8.365219753471487829e-01
9.415650642504547196e-01
7.673745661096070814e-01
3.514487417562677241e-01
-1.738005126280486312e-01
-6.104564445710766174e-01
-7.800825824089382410e-01
-6.201918146521054886e-01
-2.174694124556022512e-01
2.460543777010223976e-01
5.939186989008322648e-01
7.267018738657695653e-01
6.215473044805531755e-01
3.062318463289876447e-01
-1.313730582434403105e-01
-5.282288896934073108e-01
-7.007201111043686037e-01
-5.597536405725825892e-01
-1.801164974538676522e-01
2.526183441373309191e-01
5.664012175567650909e-01
6.817067140584032181e-01
6.041083295748617132e-01
3.808401184004732154e-01
6.822664454155266678e-02
-2.738850472272998382e-01
-5.578897343195539094e-01
-6.614156052354865922e-01
-4.989038441952196035e-01
-1.126984764466267969e-01
3.428955926435027224e-01
7.013590144263089909e-01
8.364499444444963849e-01
6.709198404755842837e-01
2.333072215702539642e-01
-2.980369028629026862e-01
-6.849811775468108710e-01
-7.786973141317108382e-01
-5.728791372409145488e-01
-1.655820390154355282e-01
2.889178951941740459e-01
6.271163932705272614e-01
7.284867133274505191e-01
5.523092073917600375e-01
1.558244601017303999e-01
-3.116485741395551567e-01
-6.694226868397150643e-01
-8.025623041942723246e-01
-6.992097767303977474e-01
-3.849184440578679034e-01
1.310450060341107337e-01
7.638652786736278566e-01
1.215620096273334783e+00
1.103224996870418639e+00
3.833443956397469821e-01
-4.783308764028393889e-01
-9.525740483490788835e-01
-9.241986158017133635e-01
-5.905389938548151196e-01
-1.194355875309665443e-01
4.071545233958995813e-01
8.561260631004969923e-01
1.008913463256714271e+00
7.083929338688859101e-01
6.738600579083001141e-02
-5.470952127848900393e-01
-8.480666251339553652e-01
-8.569280870190567612e-01
-7.219957629106651398e-01
-4.859729390197185528e-01
-1.351927073973794857e-01
2.613841315545797905e-01
5.528350317464902908e-01
6.004032626350227497e-01
3.555900251098972897e-01
-1.044125060593462939e-01
-5.921179016827979869e-01
-8.969741022121199281e-01
-9.018810958695320235e-01
-6.291160029122253583e-01
-1.841389711692894005e-01
3.180975695513015844e-01
7.579380174927944358e-01
9.852273171000933694e-01
8.673101844936936811e-01
4.078451867427346222e-01
-1.973098933094204477e-01
-6.641733653264974002e-01
-8.040476720154852153e-01
-6.135156568984629910e-01
-2.218468314348240877e-01
2.065927873346288524e-01
5.330456001080736694e-01
6.622452731522600056e-01
5.446967040878867294e-01
1.971688447829987589e-01
-2.675406930272466455e-01
-6.649779150519440352e-01
-8.315197612617192258e-01
-7.073743995412223873e-01
-3.500773303443147078e-01
1.051822513224150574e-01
4.999801932906480784e-01
6.988775610859050413e-01
6.252075936210080842e-01
2.932925637595376056e-01
-1.815719185658006551e-01
-6.236596860568249800e-01
-8.707301910179887638e-01
-8.341725050970275612e-01
-5.256576851686503016e-01
-5.770815869630934597e-02
3.856005865618534201e-01
6.228446414559400957e-01
5.747430739798051746e-01
3.100637730602596731e-01
-3.670870419229260717e-02
-4.085106416499255655e-01
-8.096816606345489387e-01
-1.106790629489354139e+00
-1.014074822334074089e+00
-4.071614335335267398e-01
4.780118679733447173e-01
1.216827854512677165e+00
1.468797539003554364e+00
1.154674179375036802e+00
4.908544179920916184e-01
-1.797499300319454485e-01
-6.111903743929431032e-01
-7.176778825795259165e-01
-5.181066712122439633e-01
-1.036799478114120709e-01
3.660293753886086354e-01
7.107156735571739103e-01
8.103586875300790027e-01
6.403946674976416231e-01
2.547168228514357091e-01
-2.268156679015889410e-01
-6.304355581339095016e-01
-7.916704895895559924e-01
-6.512326142870283885e-01
-2.858741966464571349e-01
1.593220495435544171e-01
5.420900981720024880e-01
7.373283104466635818e-01
6.653032788499587680e-01
3.627898257240796398e-01
-9.416823729699680401e-03
-2.789104639134272756e-01
-3.782459335897171426e-01
-3.380007512418450322e-01
-1.935742222610353225e-01
5.384596868535124203e-02
3.708329064270206588e-01
6.269476679170080669e-01
6.530344105164310742e-01
3.817764196595156978e-01
-8.411947097484143154e-02
-5.377847345761816999e-01
-7.877178939996549722e-01
-7.450952870304430320e-01
-4.506511912380735119e-01
-3.218694494745945323e-02
3.748208758211581948e-01
6.665317218333169924e-01
7.575986959982504709e-01
5.868665708817192295e-01
1.735884739458609660e-01
-3.368987127427368056e-01
-7.217931885621037269e-01
-8.148737204748663920e-01
-6.012320018212266026e-01
-1.946092570807237410e-01
2.408979103873322980e-01
5.537579587244056967e-01
6.462620904767457652e-01
4.924598404671570728e-01
1.314364849357385345e-01
-3.421079824916309908e-01
-7.771012322581348775e-01
-9.746654243835258802e-01
-7.541268372840130851e-01
-1.142735079613590443e-01
6.230815707690887661e-01
9.709400500472257223e-01
7.469842214917736811e-01
2.776083363768801493e-01
-3.733286244643242019e-02
-1.765478361148388742e-01
-3.192710668408427210e-01
-4.552631003197798454e-01
-4.057214893471620121e-01
-9.433525390040266301e-02
3.546801385983943122e-01
7.308907655896744737e-01
8.796287368858807243e-01
7.615956583944993863e-01
4.293917051279192987e-01
-2.171359981570877146e-02
-4.689883868414463364e-01
-7.577149455779780274e-01
-7.498979499651551306e-01
-4.285942671546382199e-01
5.579007703693168035e-02
4.792687332889280505e-01
6.888683719256079030e-01
6.517108697579719889e-01
4.066464660448655399e-01
2.280700040647612448e-02
-3.939419111909893689e-01
-6.933626941075745620e-01
-7.227496320089685788e-01
-4.202254707685514346e-01
1.099313459625977235e-01
6.365275072781299004e-01
9.455084511965442529e-01
9.513885679092120018e-01
6.851678709714582594e-01
2.279280970684011143e-01
-2.996168713264647510e-01
-7.178500490347609064e-01
-8.503591676263853039e-01
-6.465968126598868881e-01
-2.165122350511547167e-01
2.567786270105304469e-01
6.058762736114002845e-01
7.175877819756094622e-01
5.650220882457740457e-01
2.160570189761265580e-01
-2.067361076588453139e-01
-5.654385990169813470e-01
-7.330615519065921681e-01
-6.413212460595096864e-01
-3.237914179415730676e-01
9.530913545368517592e-02
4.543380211427134885e-01
6.085269993181087189e-01
4.777427631182373791e-01
9.323177225912705757e-02
-3.977617918436733291e-01
-8.066831390476372210e-01
-9.880001364766469729e-01
-8.718670445442292527e-01
-5.011382261098575874e-01
-4.725631552759114451e-02
3.081042173090309810e-01
5.193262491447293572e-01
6.160830165814470405e-01
5.047779530589198149e-01
1.123593251201010501e-02
-7.554766838509102689e-01
-1.289270411354040968e+00
-1.179227553041475307e+00
-5.506676645170699436e-01
1.680903204307620802e-01
6.999861622177293574e-01
9.856600323206441416e-01
1.010429601491042328e+00
7.567337614022154879e-01
2.821698252561510856e-01
-2.534467276992999896e-01
-6.501713070617387569e-01
-7.524755381515273456e-01
-5.301648806542852421e-01
-1.052949068437883939e-01
3.384896021440574332e-01
6.623787555876644584e-01
7.722979808868376539e-01
6.045299886623115571e-01
1.883456614826899411e-01
-3.160817780242443087e-01
-6.925176996948806396e-01
-7.962271343160028936e-01
-6.260654077840411835e-01
-2.865552535729109507e-01
1.078248530386133885e-01
4.792239495006252459e-01
7.526561249448603386e-01
8.174603908468418556e-01
5.758756271601543908e-01
6.163423932682043915e-02
-5.143642193210590241e-01
-8.806145700191991832e-01
-8.826799943575066587e-01
-5.593549204927358298e-01
-8.096669441020949709e-02
3.642126771496304039e-01
6.411614360678044022e-01
6.735919503501777150e-01
4.402878253583644708e-01
6.369174693118914710e-03
-4.646826427976995522e-01
-7.805759011157968885e-01
-8.211114512324744208e-01
-5.800423337935900481e-01
-1.462671110043278211e-01
3.249383417499726590e-01
6.515414933843338696e-01
6.996450664853782753e-01
4.550900566477457110e-01
2.091935054735890448e-02
-4.515395255040693945e-01
-8.133559786875240727e-01
-9.353741708795680898e-01
-7.558353959764265717e-01
-3.349721352514645201e-01
1.649740718526973571e-01
5.541496669650962659e-01
6.769947176631705421e-01
4.728173129692191945e-01
5.714200787441064966e-02
-2.818648116698822537e-01
-3.107413074354855032e-01
-1.308211983862272165e-01
-6.405854439061854644e-02
-1.686358168499088594e-01
-1.158518061341905075e-01
2.962227909788900382e-01
7.906229851256472152e-01
9.548007443334152189e-01
6.954115532802020994e-01
2.257309017774919990e-01
-1.997342834352577867e-01
-4.324470644386849694e-01
-4.305813817719346126e-01
-2.241056878856358403e-01
1.135928496221109973e-01
4.938101711720052633e-01
8.156314171250537148e-01
9.316459556877779713e-01
6.949399143614541918e-01
1.445406033456864137e-01
-4.312949551547601290e-01
-7.407928399859775581e-01
-7.387154686882495547e-01
-5.553846734821117348e-01
-2.727768158255168274e-01
1.055301213594437015e-01
4.931249522738228586e-01
6.853441398654662731e-01
5.566123599277125189e-01
2.039243082158289366e-01
-1.580602512658311198e-01
-3.782571786723434304e-01
-4.199274774281928080e-01
-2.994117852388571421e-01
-4.002541038743472057e-02
3.053394557899160033e-01
6.177606295378722523e-01
7.407165973081917265e-01
5.812380275436467292e-01
1.922125126054218813e-01
-2.631660160227958234e-01
-6.243613178602012148e-01
-7.895725195123365348e-01
-6.996574025940258679e-01
-3.553047354969891547e-01
1.263578105604483415e-01
5.361111919135690407e-01
7.002127146318457562e-01
5.753038944792273623e-01
2.333296049439626541e-01
-1.947200026683191254e-01
-5.584721042186879814e-01
-7.303619946645544259e-01
-6.562205080037250005e-01
-3.768229945246910906e-01
3.596272503407327292e-03
3.696011798197870735e-01
6.156550894417803788e-01
6.473620524412863064e-01
4.114060934154841198e-01
-5.432625467282953258e-02
-5.945989970110260314e-01
-9.649319934865994153e-01
-9.391877721203147900e-01
-4.819770220647147108e-01
1.405893526120801651e-01
5.172638106136782099e-01
4.791594164758569696e-01
2.433996566116228277e-01
6.563907121806603073e-02
-6.849483380465082316e-02
-2.721537066288052809e-01
-4.860816859822499336e-01
-5.319492741648054190e-01
-3.201476002654293218e-01
7.911667454951551437e-02
5.038416946186871082e-01
7.916599219246923669e-01
8.425408266872635998e-01
6.405444409189564592e-01
2.432547292096025326e-01
-2.289960090231850653e-01
-6.088378673354580828e-01
-7.416935309322238989e-01
-5.704493720775873911e-01
-1.725460786788342582e-01
2.803992244267801137e-01
6.073245440358713276e-01
6.954179945702763099e-01
5.310153594878919137e-01
1.793544984263081288e-01
-2.507226160418893901e-01
-6.253746865959750600e-01
-8.009565854314443234e-01
-6.709526486814044732e-01
-2.423105985524263428e-01
3.246748835989727855e-01
7.844272973808947835e-01
9.523738823216721938e-01
7.939838954415817662e-01
3.863531821831335256e-01
-1.464529508385489232e-01
-6.362229400746373109e-01
-8.958304759808153328e-01
-8.262116564751583736e-01
-4.839986328290813988e-01
-2.411580563634609098e-02
3.936711213381425267e-01
6.456614501317679000e-01
6.529505172168453830e-01
4.027319970649950176e-01
-2.363920366337152884e-02
-4.627745203790624151e-01
-7.413647474183837627e-01
-7.569187884942956135e-01
-5.085511342866197992e-01
-8.476974243246937490e-02
3.655553855043410794e-01
6.801853718192100162e-01
7.344486473830960094e-01
4.794123029960962734e-01
-1.980223792951616574e-02
-5.726889541941949657e-01
-9.387490805100424662e-01
-9.592120774613213108e-01
-6.472136416776694823e-01
-1.787703743561054881e-01
2.391997912936012771e-01
5.448676684173645590e-01
7.957999177500539867e-01
9.069711865770246906e-01
6.045557619729282628e-01
-1.582408476775815920e-01
-9.234771596613567946e-01
-1.147267515771632551e+00
-7.684752988280824093e-01
-1.397456334414524104e-01
4.270221564416459836e-01
8.241380445629672424e-01
1.010181205951580230e+00
9.318647437496635488e-01
5.834531584276942962e-01
6.819958911708680349e-02
-4.167839295361778218e-01
-6.723080800802837542e-01
-6.108650436108603587e-01
-2.964097704770896624e-01
1.202123341842059184e-01
4.899623866440879771e-01
7.019587129817468352e-01
6.828466465553638676e-01
4.179266483019025702e-01
-9.995625764763420296e-03
-4.358511784695530689e-01
-6.923709121777961162e-01
-6.806564502510684678e-01
-4.082888420600220281e-01
-1.833119470237767196e-02
2.666675117061548250e-01
3.427627269537641963e-01
3.304227636670152846e-01
3.570560509689781892e-01
3.250580281137993577e-01
7.157195536139376868e-02
-3.299033209880339323e-01
-5.960710106379123463e-01
-5.222780641982025518e-01
-1.534951671031082321e-01
2.968212579781460692e-01
6.206186289533185407e-01
7.088717345014042825e-01
5.478781095145174307e-01
1.925904858301821787e-01
-2.446039668878925710e-01
-6.115172980368691613e-01
-7.631809297988351171e-01
-6.299981885605474563e-01
-2.725883085655131377e-01
1.402648038114541196e-01
4.492761330945834186e-01
5.929520393728762162e-01
5.574366458277909553e-01
3.167965210758159622e-01
-8.978304613077194019e-02
-4.870770787792153556e-01
-6.787773236477803174e-01
-6.096251994065553514e-01
-3.532445097883309959e-01
1.240356386379211362e-03
3.670513929717867385e-01
6.110584224369459694e-01
5.879761770345189875e-01
2.539732484702986182e-01
-2.602854731736868321e-01
-6.961782545583417026e-01
-8.404312934748650044e-01
-7.129946802939005623e-01
-5.206669481313120906e-01
-3.545483094075412289e-01
-8.429061862361192370e-02
3.324016024652099444e-01
6.564403583872043813e-01
6.385414657149326434e-01
3.017930551091102531e-01
-1.335585365857115958e-01
-4.541162604107348844e-01
-5.398305921008621500e-01
-3.689024643399591019e-01
-1.122769185438076550e-02
3.958536761215977196e-01
6.974973594127935606e-01
7.782256405581700065e-01
6.010732410324315378e-01
2.166156558725629566e-01
-2.502317306985130108e-01
-6.307438142091246203e-01
-7.759999668417332241e-01
-6.347843437000102451e-01
-2.745085416537921263e-01
1.729904795566758469e-01
5.670622711377332203e-01
7.710678845614060695e-01
6.768953823664797254e-01
2.901889347428351917e-01
-2.039297883532893985e-01
-5.304361719691792487e-01
-5.315212538027892508e-01
-2.719988231028871439e-01
6.550842541750762082e-02
3.538971538638764347e-01
5.691219494775708876e-01
6.983116204593160514e-01
6.715929087895844418e-01
4.218450732550403925e-01
-1.710542140514527409e-02
-4.930103576079701289e-01
-8.044949612982895681e-01
-8.081349967951328983e-01
-5.030376040978152830e-01
-3.032634326138947123e-02
4.153306603611681136e-01
6.850773040230947464e-01
7.067409326401865588e-01
4.660229092786082883e-01
2.281391138073177866e-02
-4.574522705285441471e-01
-7.696578961948223885e-01
-8.007850293475025083e-01
-5.693902579778500339e-01
-1.609216185742905481e-01
3.093495822496243330e-01
6.786366758694527546e-01
7.729516120082843278e-01
5.281959630389058136e-01
5.681248636988543710e-02
-4.338176309886577209e-01
-7.620888714897952054e-01
-8.229068898870539606e-01
-5.912984539351067159e-01
-9.108823971916624185e-02
6.050421938027887858e-01
1.234321817682817235e+00
1.348474523125586799e+00
7.755808192358029096e-01
-5.765794480354519136e-02
-5.867739990343494583e-01
-6.977903968525002165e-01
-6.036089059893635644e-01
-4.096675656969377410e-01
-7.682012391903025872e-02
3.506044170019796957e-01
7.031641424844089494e-01
8.379152033475425476e-01
7.233038223474538286e-01
3.986951114727745882e-01
-5.940310007967423284e-02
-5.178064482232809240e-01
-8.019900826804808869e-01
-7.907501120254727400e-01
-4.986241166354771770e-01
-5.819344434694748158e-02
3.571759586694304156e-01
5.960795033376126151e-01
5.712681477131837937e-01
2.914708264699044094e-01
-1.378422523746492823e-01
-5.559753931802571270e-01
-8.058299943078557348e-01
-7.805367282005812868e-01
-4.567443354054081528e-01
7.399516961474425503e-02
6.033194835756335861e-01
8.951206250205376858e-01
8.374312179860952110e-01
5.024803514456454012e-01
4.979159072416733389e-02
-3.843699523106383631e-01
-6.912797574916021981e-01
-7.662374424677603768e-01
-5.588567720691756113e-01
-1.406768194630095559e-01
3.171765985850240610e-01
6.432046705343642534e-01
7.409944975572233528e-01
5.955222310738162994e-01
2.519985633437093475e-01
-1.954001370629871170e-01
-6.114656717146950138e-01
-8.336498077791514305e-01
-7.239645435545686292e-01
-2.944397365404227696e-01
2.089271279841429518e-01
4.579671011927871072e-01
3.494860747858198335e-01
8.191144825027857346e-02
-1.362277929167168278e-01
-3.193187037041453347e-01
-5.482254692541416174e-01
-7.431328588425307746e-01
-7.309933870075421281e-01
-4.563909502576317667e-01
-3.750598972823836891e-02
3.590492507572751735e-01
6.430917714723799472e-01
7.733024306409462811e-01
6.408202294370443086e-01
1.269604897693397683e-01
-6.182770925587169897e-01
-1.122143820991677865e+00
-1.006296516163286636e+00
-3.484929423707875951e-01
4.433089808330240578e-01
9.236770442594649522e-01
8.113654396118329393e-01
2.245628530452880856e-01
-3.210374943490430510e-01
-4.554400543093669596e-01
-3.578300270567075225e-01
-3.692575103425781435e-01
-4.753493179921815526e-01
-4.141615311188500681e-01
-7.428206222229098710e-02
3.838107710123550564e-01
6.931740540866999645e-01
6.829925465791162331e-01
3.782207091420638490e-01
-3.916129946548127516e-02
-3.828244517801832614e-01
-5.774736298596364614e-01
-6.157032033539570071e-01
-4.799316832259415966e-01
-1.703270066678978789e-01
2.403629252440788733e-01
6.271858868707052004e-01
8.696626446558802792e-01
8.820671308050850312e-01
6.287837598819836504e-01
1.637432576652913807e-01
-3.363196960097752930e-01
-6.379363034998699611e-01
-6.060475269556957478e-01
-2.922990481270620888e-01
1.291918265335978144e-01
4.865975462794426831e-01
6.736622871978725779e-01
6.351798253229898883e-01
3.567882363652382649e-01
-8.865706206186149685e-02
-5.215441546791150795e-01
-7.469778438542779009e-01
-6.750356477322779769e-01
-3.507866482793539076e-01
9.481356912048505281e-02
5.037471890532211338e-01
7.346444819366476642e-01
7.031990994546359897e-01
4.207245860917896429e-01
-1.878021218938437376e-03
-4.050193952018331656e-01
-6.510925183478559752e-01
-6.701536799070005879e-01
-4.692291079014270228e-01
-1.154952685219967773e-01
2.851626004307821205e-01
5.980870086902164706e-01
6.810528920095151317e-01
4.631660990735468331e-01
5.672667376370742892e-02
-2.548249525904557888e-01
-2.671835974179646578e-01
-1.064767127423866117e-01
-6.960087301598144593e-02
-1.931860750474238553e-01
-2.099058399042239009e-01
3.991053437413870364e-02
4.029418912473310965e-01
6.248570474336591074e-01
5.672179600010969214e-01
2.462692871538016415e-01
-1.899877002928866410e-01
-5.200871574708588740e-01
-5.634961962911479993e-01
-2.929767420985535664e-01
1.431565944098500409e-01
5.233808088277773773e-01
6.934105995663703004e-01
6.100857474518022183e-01
3.005864406985302995e-01
-1.497969278059235188e-01
-5.896848302641776174e-01
-8.480738927763624702e-01
-8.149660372992653112e-01
-4.992208637593019693e-01
-3.077606464304771805e-02
4.081492789664513676e-01
6.721055960796319395e-01
6.856008151131206541e-01
4.425236495379010759e-01
3.280111317382208153e-02
-3.576807890122288280e-01
-5.512586822074350135e-01
-4.975829959354875487e-01
-2.650900592133358935e-01
5.339195321387079501e-02
3.780064017108635266e-01
6.181889803468239020e-01
6.793634517684052909e-01
5.097847952308460773e-01
1.410436647081164396e-01
-3.038766600200846213e-01
-6.514491637786604672e-01
-7.558714796734050667e-01
-5.681633948511608523e-01
-1.621218770916503238e-01
2.954267368403955540e-01
6.235498085461339546e-01
7.080337023025797816e-01
5.324382739260387076e-01
1.618819355168440166e-01
-2.853590113702904607e-01
-6.655848671367402547e-01
-8.480684481252295237e-01
-7.631029898463280725e-01
-4.361999751441427153e-01
1.113281502298580500e-02
4.006262345892724897e-01
5.737209427780203264e-01
4.693638897413192068e-01
1.442765646277279767e-01
-2.754319023795465671e-01
-6.558587010673300188e-01
-8.763366512405121878e-01
-8.269564748827016309e-01
-4.643890387745892578e-01
6.542452529399984951e-02
4.361191715025523608e-01
4.325261661885668185e-01
1.975559991850755481e-01
1.313882091057459733e-02
-7.243597199589099644e-02
-1.844318564256389736e-01
-3.193090204196591952e-01
-3.310024079849119838e-01
-1.395576549225103213e-01
1.916210106352394527e-01
5.349970502367422664e-01
7.698238331853466399e-01
8.004425021147707486e-01
5.783307908858804636e-01
1.471693722149250427e-01
-3.447431761384710525e-01
-7.093607099231858948e-01
-8.101103359158868811e-01
-6.104110196023782020e-01
-1.869019091492570839e-01
2.887123117631598124e-01
6.287004469582155863e-01
7.241749500269061279e-01
5.702363446088335452e-01
2.266588842254997904e-01
-2.103742913337504905e-01
-5.993776365631675596e-01
-7.640605893767690171e-01
-5.730265166956841627e-01
-5.241868914467995300e-02
5.824236001634098825e-01
1.050763420899927691e+00
1.176831876507248076e+00
9.460965373226922770e-01
4.650628690994046965e-01
-9.066522454356290561e-02
-5.368090969657107747e-01
-7.452188564800392712e-01
-6.791700876305607482e-01
-3.893149948387101822e-01
1.634321906082654430e-02
4.055314644121515433e-01
6.441504538968116922e-01
6.296313490770422128e-01
3.496289095084866294e-01
-8.900285296699289583e-02
-5.143705613799428589e-01
-7.752548110758545885e-01
-7.853347177002527602e-01
-5.405082527971748485e-01
-1.285577921743313590e-01
2.976951200834541122e-01
5.740045535237299212e-01
5.760038152897593022e-01
2.897138459792684140e-01
-1.192103077804888278e-01
-3.791115515447000539e-01
-3.676795911170689934e-01
-2.323946246051105113e-01
-1.392174437130301312e-01
-4.612175184169079595e-02
1.318502449844194957e-01
3.418266414601515701e-01
5.162425513655796161e-01
6.508303481328923112e-01
6.294548278582794421e-01
2.216270524483464621e-01
-5.209645447350246261e-01
-1.079144118878282876e+00
-9.728213524976112581e-01
-3.025745972009498130e-01
4.369533848159949385e-01
8.902797650844034294e-01
1.000661269096133399e+00
8.280449565423573244e-01
4.319925207154419189e-01
-8.046974577828791553e-02
-5.254181505578711109e-01
-7.340032398072636743e-01
-6.541660466457426271e-01
-3.522986735673590553e-01
4.614826509287866391e-02
4.056141163405471151e-01
6.056287214885850423e-01
5.645313547695369749e-01
2.780652894833632316e-01
-1.567774138307053144e-01
-5.753836288015971023e-01
-8.185887424853163230e-01
-7.933192117599389137e-01
-5.061221661914179215e-01
-6.747530014512122254e-02
3.617083581076365184e-01
6.614881476777302316e-01
7.811263629412644738e-01
6.825944642181828170e-01
3.339968397213369244e-01
-1.865426920243537789e-01
-6.432102463699663764e-01
-7.864933662044095719e-01
-5.498771672759451556e-01
-8.605353877066712620e-02
3.665644688897341519e-01
6.369325586419460894e-01
6.715995509276034836e-01
4.884498299726365289e-01
1.336653105947682718e-01
-3.054673740070580346e-01
-6.853944865063994474e-01
-8.496599680123554377e-01
-7.141729176053137618e-01
-3.290432717912931126e-01
1.381704758130663235e-01
4.974900491196319052e-01
6.331934350069656769e-01
5.253527729505100829e-01
2.100454560789494218e-01
-2.518524382502203562e-01
-7.525920192100039596e-01
-1.098986172096300340e+00
-1.080563480301568013e+00
-6.623528896911139441e-01
-6.434729039464122391e-02
4.186981331244417626e-01
6.169962222722719103e-01
4.944528108348072992e-01
1.084342611556130959e-01
-3.537179646793013887e-01
-6.198346891019201887e-01
-5.757357332382537773e-01
-4.171192762701281809e-01
-3.683179485273412324e-01
-3.125408744989089382e-01
1.834305320456726743e-02
5.538973016135261274e-01
9.009521115312896233e-01
8.046673562975409366e-01
3.645502388911542324e-01
-1.442203609116091134e-01
-4.896313356889294144e-01
-5.542098880102579450e-01
-3.341581967756115934e-01
6.342685751024984553e-02
4.608062703503855162e-01
7.057314593720647178e-01
7.356380459315067233e-01
5.496757611685174627e-01
1.768547689300370152e-01
-2.878278818776207615e-01
-6.696985411811270383e-01
-8.004426515568141554e-01
-6.225946903067056670e-01
-2.143334016899715588e-01
2.563229660206577387e-01
6.022553615177358433e-01
6.953136676448983255e-01
5.236348026911726850e-01
1.875610369473109384e-01
-1.613991589328050424e-01
-3.959212775549147412e-01
-4.584966012675465441e-01
-3.503316300155984164e-01
-9.847374895573113296e-02
2.389640644909326594e-01
5.508023449437654540e-01
6.988818509248838629e-01
5.932268711733499345e-01
2.545012440394454623e-01
-1.916716149485270526e-01
-5.804985621232464643e-01
-7.746097713897303061e-01
-6.990313272191986949e-01
-3.691000251310018188e-01
8.321850279602838185e-02
4.522198142873513071e-01
5.944617803396667899e-01
5.178609850814022142e-01
3.053197514177762861e-01
6.794837531783306378e-03
-3.345048612561741241e-01
-6.104872126548899214e-01
-6.773192039939743836e-01
-4.534552222659933296e-01
8.935178183850298050e-03
5.081425769959382333e-01
7.457964605047309181e-01
5.055157751152108414e-01
-1.012192401144690196e-01
-6.587680235522338501e-01
-8.723145480991069123e-01
-8.336709217835387431e-01
-7.095030947889955364e-01
-4.017409753172692666e-01
2.308002780733986181e-01
9.544683386067203124e-01
1.255910963913258183e+00
9.212679397616647670e-01
3.002179224309051708e-01
-1.417708404500421793e-01
-3.056458549027558647e-01
-3.446203761359254991e-01
-3.212113488057060096e-01
-1.681712873366353334e-01
1.423058099591283376e-01
5.169355681775780198e-01
7.996300056097089826e-01
8.721445656562477611e-01
7.053579028092568093e-01
3.445818403247649098e-01
-1.147778612361990969e-01
-5.320452076569275324e-01
-7.521818280842291760e-01
-6.807400594052840370e-01
-3.399621928529638071e-01
1.326421761629434093e-01
5.222215591581634841e-01
6.288857086137834562e-01
4.179995700875813180e-01
6.060681958480622356e-02
-2.531311198981694432e-01
-4.765799901608971378e-01
-6.073946176816483744e-01
-5.506602410518491864e-01
-2.123837870966776009e-01
3.233250857252653598e-01
8.052698930297228497e-01
1.007901050312290936e+00
8.788243995799019936e-01
5.154280747519964789e-01
6.437128189693315516e-02
-3.405345464460689531e-01
-5.994789620589493495e-01
-6.551751321740643119e-01
-4.942795770472124817e-01
-1.531137884680192074e-01
2.703468206167416454e-01
6.259716996562209035e-01
7.616988166618727796e-01
5.982264094797762333e-01
1.868039937566442765e-01
-3.005088492587811855e-01
-6.595146941046085010e-01
-7.570782672516058742e-01
-5.767474049868113184e-01
-2.032496977912781611e-01
2.220196242383764007e-01
5.533229216157312669e-01
6.821053462022143021e-01
5.589182357274278257e-01
2.078880257702195311e-01
-2.673092572938747802e-01
-7.035920677778293442e-01
-9.217419570884661795e-01
-8.010625809058926627e-01
-3.855122710574384048e-01
1.048699498047979684e-01
4.500403606772246379e-01
5.795630956472139772e-01
4.777309532424225957e-01
8.766150840097608476e-02
-5.051521485932403133e-01
-9.567887161474405433e-01
-9.785841320452267622e-01
-6.323588541189676393e-01
-1.538245167024538396e-01
3.184327098930712641e-01
7.105668994992926368e-01
9.104204287219228586e-01
8.357443692405819302e-01
5.236516343677364294e-01
9.487290893521856117e-02
-3.241951568643622328e-01
-6.248301429051978939e-01
-7.123033506896480072e-01
-5.369468085631439180e-01
-1.481879555135299509e-01
2.999110234167137734e-01
6.169240830724175284e-01
6.688443549074671868e-01
4.473269129201962180e-01
7.799573644196930444e-02
-2.789630918932941572e-01
-5.820071895518932337e-01
-8.938395026954548683e-01
-1.132343716728567040e+00
-1.003479957414101786e+00
-3.923868660310796397e-01
3.662579749744182545e-01
8.292379862585881334e-01
8.602963618237661203e-01
5.804195152632555255e-01
1.379617849625909831e-01
-3.309077812036093080e-01
-6.438954935183672790e-01
-6.337688621625856555e-01
-2.959474281552502695e-01
1.817746926916787575e-01
5.569933831859474882e-01
6.831966951921222275e-01
5.516773109473407377e-01
2.429044863222070971e-01
-1.364925811709452319e-01
-4.798290652053795458e-01
-6.779095543017213954e-01
-6.380833162854939733e-01
-3.451599318922430326e-01
9.273982417456483329e-02
4.846738251510189222e-01
6.656257925633388695e-01
5.800498229414144946e-01
2.812724811612730136e-01
-1.230625060974737395e-01
-5.111312323972451166e-01
-7.580934667641543445e-01
-7.658826359961098396e-01
-5.198493392889479425e-01
-1.099523511988185209e-01
3.104817432085665851e-01
5.800834265656907851e-01
5.745851904928296339e-01
2.803166905268383857e-01
-1.288989637230352481e-01
-3.692303939514754996e-01
-3.280356247909250733e-01
-2.183819610551228918e-01
-2.718754933649449312e-01
-3.465983885233182016e-01
-1.228492994813692452e-01
3.727051230122956360e-01
7.577882321175346547e-01
7.589513731753495529e-01
4.303777139292848108e-01
-1.658439836467147377e-02
-3.919515310428212662e-01
-5.647321526255083546e-01
-4.714865853064074686e-01
-1.462195134820937770e-01
2.738466956077705294e-01
6.056165634315369140e-01
7.159532815880808032e-01
5.766252538084337687e-01
2.450270242970209456e-01
-1.716912113646155424e-01
-5.318392519639959515e-01
-6.952707572122935886e-01
-5.945489854017976805e-01
-2.764694619496671502e-01
1.284686347625424441e-01
4.731944582563183954e-01
6.466028433982021761e-01
5.949786518699643478e-01
3.303986137736156237e-01
-5.310807661895345505e-02
-3.819804966239919719e-01
-4.773595261694293379e-01
-2.777478177867023224e-01
1.067759425421155178e-01
4.783143585849359281e-01
6.942438809718152193e-01
7.315803582123285853e-01
6.309690711346187530e-01
4.133870414833658025e-01
8.303163276016750638e-02
-2.969662083028443700e-01
-5.827327047837265184e-01
-6.351202402247316803e-01
-4.173081035799408589e-01
-1.298575670338351917e-02
4.181264540841864719e-01
7.027787918545199686e-01
7.263451783897831859e-01
4.892592368135847969e-01
9.794023048596238457e-02
-3.007842918330849713e-01
-5.807262828828617662e-01
-6.649073475681532841e-01
-5.309680913871190899e-01
-2.119191554470732652e-01
1.931132231602407101e-01
5.272104647019522083e-01
6.474166661270015499e-01
5.150052888419279773e-01
1.943959166283802109e-01
-2.406458359511900458e-01
-7.336572203763300770e-01
-1.129476547977738221e+00
-1.148929606399357706e+00
-6.513803058382411360e-01
1.109452128882905397e-01
6.382743681490976595e-01
6.165834318000815717e-01
1.944787780568045243e-01
-2.111842236153050056e-01
-3.800508506549309939e-01
-4.144055047039471029e-01
-4.182990147954342985e-01
-3.111489141017221849e-01
-1.532803532983543701e-02
3.766142953994418008e-01
6.917650105197605814e-01
8.248176941280778163e-01
7.618981786783541876e-01
5.320516572797387989e-01
1.840372981622198367e-01
-1.944082079296675925e-01
-4.641592928946782215e-01
-4.983037481745361541e-01
-2.851241716641779722e-01
6.406981452363769147e-02
4.066552920935221915e-01
6.288183782972800451e-01
6.479488301210193368e-01
4.383832865711746463e-01
7.326674139192890234e-02
-3.043135681244010793e-01
-5.649619767398497139e-01
-6.242212609015256319e-01
-4.275390783072621215e-01
1.169137200943864280e-02
5.475670479231199428e-01
9.416023311323800105e-01
1.015684528102429596e+00
7.622094409529013292e-01
3.055283440620953916e-01
-1.997851675285594875e-01
-6.095294401978083032e-01
-7.901903301766747267e-01
-6.693434008783808453e-01
-3.084773425085305942e-01
1.187925570960307597e-01
4.392480280345202326e-01
5.579973983290587025e-01
4.576216362903313684e-01
1.762924797777150610e-01
-2.034143556661228980e-01
-5.669996451556065242e-01
-7.895744021835043869e-01
-7.704013836923223613e-01
-4.834243960345394608e-01
-1.989331803125498482e-02
4.196596502774338489e-01
6.018568819836257466e-01
3.985763271778058336e-01
-8.667476996455900085e-02
-5.981530151293071862e-01
-9.893060193818762338e-01
-1.248390725197548123e+00
-1.269501732963057572e+00
-9.206827644684235645e-01
-3.474183310981789896e-01
1.241126752154591562e-01
3.928330317708244035e-01
6.277841274282910389e-01
8.563348259154796027e-01
7.445088559305395037e-01
4.880587458780272225e-02
-8.334671902150706524e-01
-1.169789011302845294e+00
-7.342382555653167442e-01
3.502223752561314796e-02
6.530620041649344287e-01
9.723224440898682319e-01
9.912590827864327103e-01
6.648934629077881686e-01
5.433402549326241116e-02
-5.445554973947465127e-01
-8.283838966933114722e-01
-7.590789227394644234e-01
-4.887603533663623656e-01
-1.443963529918404765e-01
1.959038821290287891e-01
4.355692074279936543e-01
4.868323542777737156e-01
3.341382175436768964e-01
3.566335261089924324e-02
-3.141669426188330450e-01
-6.101665389411224938e-01
-7.496975897198961958e-01
-6.615876460253434788e-01
-3.510446231979846288e-01
8.755045986567250305e-02
5.155560310357364395e-01
8.018919493611973426e-01
8.466934586902693516e-01
6.170886105801272059e-01
1.969479444046878247e-01
-2.309147123551155978e-01
-4.876871512459638458e-01
-4.900748264405970223e-01
-2.648250799898012042e-01
8.863741859435726733e-02
4.436015129960849679e-01
6.739349229869584512e-01
6.791465224814485779e-01
4.361799959250441949e-01
3.444659482151390256e-02
-3.627997806345819587e-01
-5.923200731368212235e-01
-5.574201962187148585e-01
-2.828263885733507399e-01
1.003522884640901391e-01
4.522702985273292509e-01
6.840614704879990349e-01
7.314925744579479083e-01
5.501285400124764635e-01
1.770363449021210012e-01
-2.429561124567092834e-01
-5.344422673999813522e-01
-5.941526754177736125e-01
-4.202333489965328628e-01
-8.456965514301122144e-02
2.885324219487150343e-01
5.475346600813284503e-01
5.796380039300969012e-01
3.847804214472817508e-01
8.371082641853946904e-02
-1.772874537765797287e-01
-3.608921132052079206e-01
-5.310486869296791035e-01
-6.566757955249018508e-01
-5.449226993750144743e-01
-1.029722568400345262e-01
4.610567353341780139e-01
8.305673051728582612e-01
8.586691920605313832e-01
5.910050374194828482e-01
1.580748160310783967e-01
-2.742207067236995810e-01
-5.372742127793568301e-01
-5.318533005425237770e-01
-2.814471495808487100e-01
8.785010611348037513e-02
4.172460608361338585e-01
5.784936692642975720e-01
5.077309593858455594e-01
2.287740950580104404e-01
-1.414890313794834598e-01
-4.553389458658098632e-01
-6.383001951701735566e-01
-7.017777991020724970e-01
-6.356642055647575562e-01
-3.773755030390015808e-01
4.136008216468848447e-02
4.206325218573523372e-01
5.651982534789341539e-01
4.478348553828583878e-01
1.551425082425454960e-01
-2.004268500859958113e-01
-4.677818507247040736e-01
-4.981716449937728108e-01
-2.767249949818865185e-01
6.030293812274085952e-02
3.624830382736802248e-01
5.552025832251759052e-01
6.009533027138289629e-01
4.612115659402409307e-01
1.423114997037933649e-01
-2.533378828808803274e-01
-5.616605389912936452e-01
-6.535799590770665635e-01
-5.040830754340894782e-01
-1.847081402733107003e-01
1.914557814995138385e-01
5.109430355934811985e-01
6.670215241783108429e-01
5.776658975911622695e-01
2.447075141682145683e-01
-2.065219521417035464e-01
-5.804766589904790663e-01
-7.246532808322448949e-01
-6.021859262139608315e-01
-2.832113353779454057e-01
1.032056347930056239e-01
4.174430398397538933e-01
5.561854143684602514e-01
4.859930709279692840e-01
2.364383909461025834e-01
-1.312206217091195504e-01
-5.205331878818414415e-01
-7.580708153094165569e-01
-6.304705196811828394e-01
-9.617143176633521917e-02
5.262272721723059155e-01
7.730008626530306959e-01
5.416608355625017746e-01
1.845554811959377317e-01
6.581396929470548912e-03
-6.292559659598134791e-02
-1.956523038296959782e-01
-3.451977857714897402e-01
-3.387257314709115064e-01
-1.148243381587381873e-01
2.275763115035411011e-01
5.367719909350188168e-01
7.039517825771327564e-01
6.787602371512913013e-01
4.529629698208916810e-01
7.506294255906220680e-02
-3.342426442398305220e-01
-6.229420823078410940e-01
-6.775872244729145288e-01
-4.741805268059647860e-01
-9.699056726869449696e-02
2.935817481754888769e-01
5.419547925406198452e-01
5.717372505237470204e-01
4.001438621583159327e-01
9.829911944517435995e-02
-2.462489492362321120e-01
-5.282620931917807461e-01
-6.170617463916820977e-01
-4.027329449988075738e-01
9.619648363676669423e-02
6.630043251419007744e-01
9.899480830850591051e-01
9.176947122852086025e-01
5.419556550617509183e-01
7.187085440890583765e-02
-3.411320232119016693e-01
-6.157787824373373020e-01
-6.872604724050732639e-01
-5.263247074279427951e-01
-1.935402501397325836e-01
1.787251175685617977e-01
4.631774173169430631e-01
5.749348507955941434e-01
4.661923822881239854e-01
1.518426400182406599e-01
-2.558957909278189446e-01
-5.867703922827542939e-01
-7.075113996929663918e-01
-5.845688928430311515e-01
-2.828225313452331635e-01
7.329626597914352948e-02
3.491346888565418638e-01
4.393452719765417180e-01
2.882520726583609472e-01
-7.566822997974434473e-02
-4.782769219167741226e-01
-6.460692987145389976e-01
-4.664644284603090552e-01
-1.589423032499487076e-01
-2.136234906788228582e-03
1.820692707716149716e-02
9.297183558027946604e-02
2.582521697476976574e-01
3.355723820735989626e-01
1.196931351724266485e-01
-3.775366869797309177e-01
-8.356815801054751081e-01
-9.013198234739293602e-01
-5.581814735752703704e-01
-7.989631499241652002e-02
3.053513551961526407e-01
5.345063332800366052e-01
5.936155373317280048e-01
4.679385147432708614e-01
2.025728817705448326e-01
-8.181100289957386751e-02
-2.593987424880938031e-01
-2.731136529477835584e-01
-1.519450417007381371e-01
2.284512283465453542e-02
1.670422202147451018e-01
2.267753487354075281e-01
1.865137700760322592e-01
6.012541441702434764e-02
-1.135812587617630876e-01
-2.630480079597372622e-01
-3.062608013096967952e-01
-2.166576989718712876e-01
-4.734409050422394571e-02
1.241897095681694096e-01
2.409438314000359183e-01
2.619156670844760004e-01
1.769369088760809061e-01
4.782044624270578859e-02
-1.458393130440601912e-02
4.275652729710238686e-02
1.556013003738463407e-01
2.286748644872214353e-01
2.497544936302443785e-01
2.672733595650089167e-01
2.863063532382694176e-01
2.516622938786495789e-01
1.252634480522983595e-01
-6.579716900577518846e-02
-2.509625371563356522e-01
-3.572779365756832970e-01
-3.428354315871013913e-01
-2.143168894235449318e-01
-1.447280420316018196e-02
1.966563737077111351e-01
3.393951106070736690e-01
3.343581103100644603e-01
1.701060321671452324e-01
-7.019257450862231851e-02
-2.819228537755558706e-01
-4.152651028818639678e-01
-4.629148303986315161e-01
-4.133996643910013424e-01
-2.511601351161010798e-01
-6.690329027962162167e-04
2.409766636220349312e-01
3.471055240889097671e-01
2.664148474764295171e-01
5.834627651911600266e-02
-1.952614007150652586e-01
-4.548538544849807241e-01
-6.533517855205500657e-01
-6.259121691850360047e-01
-2.363611634619268431e-01
3.721146857349433845e-01
7.712780112670194477e-01
6.599482754342257396e-01
2.179501156437461951e-01
-1.403028746287775241e-01
-2.630809790261628422e-01
-2.891695837002303815e-01
-3.114045101352386213e-01
-2.572193420769681160e-01
-4.739720964034910278e-02
2.764740434533360935e-01
5.745482413749319894e-01
7.055015683873250287e-01
6.081176050259657906e-01
3.208199955793755720e-01
-4.905992889599802148e-02
-3.737817542587492103e-01
-5.549089817698104055e-01
-5.479246055096756995e-01
-3.563380259988426779e-01
-3.499649569136090849e-02
3.020145946565068740e-01
5.174963626418365159e-01
5.191931951479132890e-01
3.046806139533892455e-01
-4.287832893350811136e-02
-3.974429694563664239e-01
-6.311857997637219109e-01
-6.339553077278493598e-01
-3.516304989049625074e-01
1.434759517714472576e-01
6.384054927895933540e-01
8.949197731168522241e-01
8.079215137261706037e-01
4.539685215477244351e-01
8.431545828053395308e-03
-3.681444862707074495e-01
-5.848853048614486294e-01
-6.072467722579409921e-01
-4.353992583364302282e-01
-1.115989736743687732e-01
2.680913240523747909e-01
5.630662107778066083e-01
6.307915745469752089e-01
4.042026971912826561e-01
-2.974179042557049263e-02
-4.187017853258526157e-01
-4.931783688904566310e-01
-2.317732143695947489e-01
8.814840460793046950e-02
2.266976833688837123e-01
2.496828486632159949e-01
3.288034746231783267e-01
4.367240577872755214e-01
3.903337318722102656e-01
9.817357615569605178e-02
-3.302271949412706742e-01
-6.834776070151910021e-01
-8.140116401954052838e-01
-7.252454801159248232e-01
-5.282633856001455186e-01
-2.971789911376274129e-01
4.526362537466355196e-02
5.872451593413622328e-01
1.078466185546791856e+00
9.688529546032179640e-01
1.063470969015058165e-01
-8.683274883120737364e-01
-1.211518968521444251e+00
-8.797082825384506810e-01
-3.308206748788435347e-01
1.291173952783484236e-01
4.861519439933582598e-01
7.404646464185953292e-01
7.827464225680322851e-01
5.346648951298080821e-01
7.962570644092831218e-02
-3.815174569228643731e-01
-6.675329623696645287e-01
-7.033882270645188672e-01
-5.106402988331825155e-01
-1.616961548588847219e-01
2.346660489608847766e-01
5.339466032876307722e-01
5.998020663166698796e-01
3.848129852915553317e-01
-2.226755078483326489e-02
-4.392249640759741669e-01
-6.979919976834735307e-01
-7.219749002383809566e-01
-5.186338123371423414e-01
-1.371703836965723622e-01
3.414168221133173087e-01
7.850887529654800856e-01
1.016873610733576294e+00
8.934020595847940172e-01
4.267916136879541522e-01
-1.739369610925670939e-01
-6.244848489083238974e-01
-7.499711505358636066e-01
-5.567616382202006386e-01
-1.627130112479449886e-01
2.933669782158386807e-01
6.752047032814009198e-01
8.384461761578055894e-01
6.727934005216741342e-01
2.046621156646658279e-01
-3.626037554303673804e-01
-7.642462651342131208e-01
-8.486760415339658081e-01
-6.391849475930193591e-01
-2.544215778115586635e-01
1.880617601270857531e-01
5.857254514642166177e-01
8.179643844436960132e-01
7.636793273281351491e-01
3.879897517841819909e-01
-1.876154242244419679e-01
-7.154646096287489154e-01
-9.546038380802921441e-01
-8.157885296248165163e-01
-3.925607702834116863e-01
1.331091430297701439e-01
5.805053450576880270e-01
7.901559736728906991e-01
6.699245402660086723e-01
3.037052171413410773e-01
-5.981529013276671441e-02
-2.573078420607632366e-01
-3.931276832053663406e-01
-5.922076640665191460e-01
-6.684365236310592095e-01
-3.353908786760925187e-01
3.207673765788546238e-01
8.781579599544208081e-01
1.029950336655961474e+00
7.816829024205433907e-01
2.924264963826180841e-01
-2.692490291104952527e-01
-7.191636134286087945e-01
-8.696581066544667449e-01
-6.395306499459965099e-01
-1.264687735786099720e-01
4.507553491405225099e-01
8.594040132499444207e-01
9.292148991105275702e-01
6.113117012552072849e-01
1.786130649340784970e-02
-6.073338757378377029e-01
-1.002346932749142328e+00
-1.027527876789432693e+00
-7.249090313965868004e-01
-2.421545106810140124e-01
2.702231612536291627e-01
6.701895113292265505e-01
8.177805675160007004e-01
6.495678183139986794e-01
2.483278490301884800e-01
-2.073898395444993270e-01
-5.552960906118737938e-01
-6.970517517108714145e-01
-5.848719578855434698e-01
-2.295308477132566305e-01
2.682668316516245710e-01
7.259135265627338907e-01
9.497661220140911631e-01
8.302034363930176353e-01
3.960877252440569984e-01
-1.982262343536833615e-01
-7.260520765168717583e-01
-9.713846906678893500e-01
-8.351244476836711117e-01
-3.863977990466497259e-01
1.958629594572031674e-01
7.154662200271210137e-01
1.004843527510512757e+00
9.537189791429513397e-01
5.582426355151973718e-01
-5.093915385877115232e-02
-6.500320482378136866e-01
-1.018081023185431588e+00
-1.030672986310861239e+00
-6.998054394313144577e-01
-1.508313634245916912e-01
4.270215979358485403e-01
8.249388966629915831e-01
8.729161737082133943e-01
5.251934803446643985e-01
-9.704915487241087824e-02
-7.560500160227291433e-01
-1.180623699440665364e+00
-1.163995572336151030e+00
-7.203887726456862373e-01
-1.443620707196684450e-01
2.469882343450763296e-01
4.229058542300124235e-01
5.175068684434698252e-01
4.998402748784119831e-01
2.245816775949928124e-01
-2.670098683277053464e-01
-7.171112328584312579e-01
-8.812529322026937395e-01
-6.875683697086336643e-01
-2.275182596017561454e-01
3.280498190688074245e-01
7.936627363561641335e-01
9.960989268751365699e-01
8.261430309685127149e-01
3.225819363887988955e-01
-3.136180415069307892e-01
-8.234056101126306926e-01
-1.041964445753648771e+00
-9.764480143127387546e-01
-6.968638314912453113e-01
-1.381282301114101774e-01
8.044637491577902866e-01
1.823672870038487437e+00
2.159499172115961318e+00
1.406873351346991319e+00
8.682365254979726443e-02
-9.293863888303145471e-01
-1.218563969888537546e+00
-8.524900507821108198e-01
-1.162814644807369235e-01
6.231259102304459452e-01
1.070755738877158025e+00
1.160633920973421551e+00
9.803875806781968683e-01
5.994439741173315239e-01
6.025691627215918472e-02
-5.224268865387644567e-01
-9.459535024389851277e-01
-1.028426089648977415e+00
-7.292353910182866050e-01
-1.734368977509709309e-01
4.192185312405634634e-01
8.317977633317521491e-01
9.218732412214272198e-01
6.585256944785122801e-01
1.324275025739666822e-01
-4.651411880688666178e-01
-9.066889720556327026e-01
-1.025094337995110960e+00
-7.862887618305562931e-01
-2.893674992158203896e-01
2.841167854976913154e-01
7.263739408873574055e-01
8.631961376715165946e-01
6.251674107789315649e-01
9.510973030231904823e-02
-5.186240530939218996e-01
-9.792923002039041203e-01
-1.129425525469548885e+00
-9.522519846539715394e-01
-5.454204076293275305e-01
-9.334599196512582964e-03
6.077832851258845315e-01
1.163940765586436221e+00
1.299393002686713761e+00
7.312226039863148896e-01
-2.818730859305964009e-01
-1.067625545409915722e+00
-1.212662714802499542e+00
-8.484659489745463024e-01
-2.892693707191555941e-01
2.905895677340636918e-01
7.946223810776363861e-01
1.088322547479811497e+00
1.054667982908441326e+00
6.878160032647111510e-01
1.021061725837827394e-01
-5.106941840193814919e-01
-9.375764553955000524e-01
-1.023067587954611390e+00
-7.430522567042135984e-01
-2.092185381343303896e-01
3.930850330165085449e-01
8.599985205219609075e-01
1.008899138675923179e+00
7.580257361130028348e-01
1.992683790677463040e-01
-4.374427146193395899e-01
-9.004774322127581110e-01
-1.022282237591477294e+00
-7.819658615745962438e-01
-2.951077430902409593e-01
2.801451718020966375e-01
8.160701942678370013e-01
1.176089105421090908e+00
1.179002069197187863e+00
7.226039138884146062e-01
-4.332592791275069466e-02
-7.485798376507851737e-01
-1.047014846401078447e+00
-8.345941665574587720e-01
-2.814496294766732909e-01
3.122248083715105649e-01
7.264380320383546641e-01
9.038049014793717584e-01
8.438239375719425173e-01
5.247132958939467740e-01
-6.318958186857431825e-03
-5.546723355263099009e-01
-8.831160721090269838e-01
-8.774874115819037979e-01
-5.837154130521905460e-01
-1.304342135005773506e-01
3.366198551433396413e-01
6.686607717593320288e-01
7.384218568295707330e-01
5.162560248850567302e-01
1.210257619062613393e-01
-2.607116512200300384e-01
-5.202051851204720911e-01
-6.409040914629472452e-01
-5.888548375298328086e-01
-3.105652685099412613e-01
1.285772885816142963e-01
5.051461834458514932e-01
6.049493913133996426e-01
4.148137495652023943e-01
9.545848766059632229e-02
-2.562150337693109292e-01
-6.959039463382213908e-01
-1.161238699725049894e+00
-1.300415210617593909e+00
-8.433381400703003905e-01
-5.031921757117960303e-03
7.291223438959525405e-01
1.071669609870470996e+00
1.018062046797715503e+00
6.604585115492479508e-01
1.182822471948457299e-01
-4.214784429991429437e-01
-7.466337063463305279e-01
-7.381632861692777325e-01
-4.239991953916052436e-01
6.270266111783015517e-02
5.415661301321826882e-01
8.294485087626451980e-01
8.006866737271632894e-01
4.486494449232544257e-01
-1.003433813523232354e-01
-6.310031563386228060e-01
-9.255047528653818079e-01
-8.728680511309997447e-01
-5.326739973689743612e-01
-7.709827194807367112e-02
3.336653342153473312e-01
6.122562917455698361e-01
7.250556131646269664e-01
6.567434723836155230e-01
3.927380696511614810e-01
-4.202288553596880000e-02
-5.022163661250262923e-01
-7.461511373522381474e-01
-6.268423613323397259e-01
-2.342565082066356552e-01
2.095203355827674752e-01
5.395716376164806372e-01
6.722828143864469919e-01
5.415994181505885408e-01
1.376207482948135219e-01
-4.078290828899353571e-01
-8.512068206287483063e-01
-9.906458184333830630e-01
-8.022816306204577641e-01
-4.274874211217123965e-01
-2.893897470251340781e-02
3.128642975721068753e-01
5.512393432017927974e-01
5.957234753098556990e-01
3.573087087275432783e-01
-1.395249752495751894e-01
-7.036952551153076163e-01
-1.032771450516811962e+00
-8.973227811900627016e-01
-3.591878501556167724e-01
2.456858473170053792e-01
6.192426841989366881e-01
7.204158546308816469e-01
6.262055422468802979e-01
3.258054183762475464e-01
-2.021715661028166133e-01
-7.505350952578930812e-01
-9.089221493139270081e-01
-4.973215936290458772e-01
1.075862725917790391e-01
3.533278626762200725e-01
2.096969042431110763e-01
1.409865972712254223e-01
3.699261517678192890e-01
5.828765375974467311e-01
4.311229420376453958e-01
-2.908408021112057068e-02
-4.764313592542417930e-01
-6.688872643446899247e-01
-5.664654044713051118e-01
-2.453968119423245442e-01
1.815757828621215320e-01
5.519923759270140007e-01
6.657535533821898888e-01
4.361518296348291246e-01
5.102166057013299977e-02
-1.459726966289155159e-01
-5.792361463851508629e-02
1.773352019262652846e-02
-1.628496028874925894e-01
-3.769031505072588106e-01
-2.002613873611354123e-01
4.525733178386618372e-01
1.164986740808322097e+00
1.354159567779237072e+00
8.340106868824312958e-01
8.417745363263021141e-03
-5.751655773029509255e-01
-7.056269357286495403e-01
-4.963385523484602491e-01
-1.359331268667827164e-01
2.416407115694111096e-01
5.567239505399114163e-01
7.434855212233386634e-01
7.310424525638503646e-01
4.865506451937023358e-01
7.912749425955459270e-02
-3.284332887668824363e-01
-5.705463722145042160e-01
-5.627711832048000185e-01
-3.195214170340952009e-01
6.867570910246906246e-02
4.676794115256089901e-01
7.398539224634326228e-01
7.809363981814904099e-01
5.506919007468538130e-01
1.112802670333781774e-01
-3.599429899712220937e-01
-6.521626929367578818e-01
-6.605098002289871983e-01
-4.259441790747395817e-01
-4.516107862685685148e-02
3.806777544302457628e-01
7.105264773383230814e-01
7.934910082167480061e-01
5.799183892628043679e-01
1.625103509146045289e-01
-2.856031851583729075e-01
-5.993300176376247235e-01
-6.884031310748075505e-01
-5.328175227351270582e-01
-1.303742926677928515e-01
4.425995024569555625e-01
8.957284688777651382e-01
8.801718045895903231e-01
4.064058321655015238e-01
-1.339503775542795760e-01
-4.517204729021772058e-01
-5.765226831245452432e-01
-5.714596197291607060e-01
-3.730666259767649873e-01
2.820455967923848895e-02
4.818013545852247725e-01
8.009065046757086748e-01
8.810453072554584875e-01
6.998665105448647061e-01
2.979571198843667945e-01
-2.093399612472501559e-01
-6.538490977647545277e-01
-8.944171812234508190e-01
-8.776014349086316280e-01
-6.247526496098110282e-01
-2.003230252290621460e-01
2.745821907973697851e-01
6.162196999755136240e-01
6.669737457899167499e-01
4.152890267125618484e-01
-6.657043456057346043e-04
-3.991061006320761329e-01
-6.358570543436549150e-01
-6.179392861851695784e-01
-3.168244490880605113e-01
1.894060079683606845e-01
7.032041649244716863e-01
9.900525577321419579e-01
9.255253247941717110e-01
5.708438914974834910e-01
9.603616462287803413e-02
-3.451763283485228540e-01
-6.510613945918397594e-01
-7.502558681293317600e-01
-6.180830888640675980e-01
-3.057705747192104861e-01
7.661613267522626725e-02
3.991164582348811218e-01
5.447770057600139770e-01
4.522577523225207452e-01
1.528002318595837739e-01
-2.387561109760457101e-01
-5.744553173702581228e-01
-7.337696227310540609e-01
-6.736276101708713604e-01
-4.406814283135425114e-01
-1.300630018016364908e-01
1.660760536536849963e-01
3.689048608357676784e-01
4.059834418005871526e-01
2.391474763099229461e-01
-8.823401389027596409e-02
-4.478807416366107352e-01
-6.921381646512595465e-01
-7.447789722705154825e-01
-6.375369773472625567e-01
-4.460528429839119013e-01
-1.813647782706583889e-01
2.120927131869095317e-01
6.711865755109466258e-01
8.709731340668046551e-01
4.885084089313477262e-01
-3.242013243152718216e-01
-9.862825254777535244e-01
-1.100245565349028842e+00
-7.693993148086951672e-01
-2.915490703692225072e-01
1.554779783003427951e-01
4.785196879266161440e-01
5.741405610709551244e-01
3.851813328022131722e-01
-1.923548837611900597e-02
-4.696308516263982824e-01
-7.970584685784455337e-01
-9.186852858212057882e-01
-8.486802516528091367e-01
-6.434375850220308557e-01
-3.541915802821165027e-01
-4.122842895683380415e-02
1.872563220185552435e-01
1.986201040592318612e-01
-5.991487315767160537e-02
-4.828590583116316726e-01
-8.619839045853777693e-01
-1.028135079265500851e+00
-9.398589271111634780e-01
-6.635730998770150713e-01
-3.016621547388581570e-01
5.510133985241018328e-02
3.205608586268113291e-01
3.944765715038960341e-01
2.048297136321262091e-01
-2.085268193057865926e-01
-6.799750089810138176e-01
-1.006507729334970458e+00
-1.052265644035005554e+00
-8.041405097948157721e-01
-3.734059121931992964e-01
5.626141828258587885e-02
3.067560656821732290e-01
2.604925476375774540e-01
-9.750265445252251362e-02
-6.333464787245350891e-01
-1.113507461888020966e+00
-1.375981546211023421e+00
-1.391322109057306244e+00
-1.154107487247603370e+00
-6.886033067293403365e-01
-1.621335515801804461e-01
1.821122801844219929e-01
2.046780924651697975e-01
-7.668303160986436606e-02
-5.356639414063634197e-01
-9.932509785731457042e-01
-1.282413677301529775e+00
-1.309424385476127828e+00
-1.077710468673841238e+00
-6.777806000318830071e-01
-2.589137842209491280e-01
1.973162127207272326e-02
6.174282535605723349e-02
-1.000858934834170377e-01
-3.218961464731596167e-01
-4.920497345713541471e-01
-6.538563414926854556e-01
-8.682224785453532823e-01
-9.317124339004245748e-01
-4.663286757522629999e-01
5.889334977104131452e-01
1.830374136748139868e+00
2.855675589283544369e+00
3.630883841320605931e+00
4.319303379581151070e+00
4.998738975858205258e+00
5.680995145437768734e+00
6.459477269159533463e+00
7.412852187426720363e+00
8.325019101411212930e+00
8.716647842366729293e+00
8.305724756357628635e+00
7.269069860580271047e+00
5.864029608147547812e+00
3.975940396000918309e+00
1.368172330578673046e+00
-1.665046746825060930e+00
-4.236238774940792595e+00
-5.536287728537355513e+00
-5.394529675054724471e+00
-4.254043833090022098e+00
-2.854820511456325427e+00
-1.871241885818001549e+00
-1.575881588729464600e+00
-1.757827882120009289e+00
-1.976803855144180444e+00
-1.893920145503282804e+00
-1.445313790709722657e+00
-8.114738147856759287e-01
-2.224583049878331997e-01
2.284987619956314886e-01
5.535954297542293734e-01
7.048683251168055275e-01
5.683069750295755007e-01
1.286374925556640347e-01
-4.659235384646658873e-01
-1.008842536328252715e+00
-1.340758578830545389e+00
-1.383997818639969068e+00
-1.152839455251332801e+00
-7.430528071530483336e-01
-2.887722868027033929e-01
7.700251911269563598e-02
2.324010633344485710e-01
8.560352002705608199e-02
-3.653678390471662429e-01
-9.862174541652858339e-01
-1.548705708517024382e+00
-1.849110855044798551e+00
-1.808032144132090790e+00
-1.485605981965695932e+00
-1.042997893015752853e+00
-6.878816438883187390e-01
-5.866972810096673374e-01
-7.738375757098024943e-01
-1.146725328755316742e+00
-1.560708232428509756e+00
-1.912143806410276037e+00
-2.086810165202648726e+00
-1.869956642913080946e+00
-1.109222886578113298e+00
-8.490067142932891664e-02
5.187388307617815109e-01
3.054286449663007330e-01
-3.341849205803422151e-01
-7.251319546665389026e-01
-7.008035957196543375e-01
-5.658208627585393780e-01
-5.102185489814429209e-01
-4.293194978490252334e-01
-2.105719803863068396e-01
8.731953928967754741e-02
3.450998305063899818e-01
5.027190447579816812e-01
5.168762851240713552e-01
3.126361325429125593e-01
-1.190828916879175248e-01
-6.205120024545106583e-01
-9.552283762106988929e-01
-9.850282149208798854e-01
-7.266427399986330471e-01
-2.953860135316466184e-01
1.481598292290722818e-01
4.401936184276514785e-01
4.834004588578921791e-01
2.974051353207126658e-01
-1.847841009620022901e-02
-3.537911561482017797e-01
-5.844639744055143415e-01
-5.577783239500649914e-01
-1.889971103261942065e-01
4.101079051022734623e-01
9.691364183926335363e-01
1.254146049403956242e+00
1.199889275364826036e+00
8.717034794182001445e-01
3.825555977726597945e-01
-1.226710557906291466e-01
-4.770369617914980709e-01
-5.648940171077242445e-01
-3.906718292620908195e-01
-5.121184334931441068e-02
3.424689689227381484e-01
6.804329927426537861e-01
8.295371702699160243e-01
6.840229947374015795e-01
2.660340750145898103e-01
-2.560899283573158658e-01
-6.604472784484668457e-01
-7.883278921659931937e-01
-6.055354183139364244e-01
-1.909205164447094205e-01
3.089487052905998676e-01
7.170547812750186489e-01
8.692854709532058521e-01
6.840652966776662458e-01
2.159860920706765386e-01
-3.547938061817156874e-01
-7.934688862654215580e-01
-9.122910147038042483e-01
-6.688981812603820298e-01
-1.999774270469819037e-01
2.895082012233097246e-01
7.179540171916851676e-01
1.122466456193884188e+00
1.384196820366660585e+00
1.149439436155246241e+00
2.862697351150014780e-01
-7.228024436651055984e-01
-1.181610877043003827e+00
-8.853600340583908102e-01
-1.719913164094087343e-01
5.536536514082286420e-01
1.083318818308441012e+00
1.326768356610134036e+00
1.225120476811146553e+00
7.941634600042329906e-01
1.809297763727050201e-01
-3.852924288536208053e-01
-7.162128419299589321e-01
-7.359686665506091074e-01
-4.555336287080986590e-01
7.033288100852586044e-02
7.206610632547544304e-01
1.249993166546941037e+00
1.352473584843067345e+00
9.060591207987338525e-01
1.271543482990322715e-01
-5.973832423726832541e-01
-9.861363779953817854e-01
-9.584914800412362990e-01
-5.839688425897793245e-01
-1.053267570225094318e-02
5.978184548920382202e-01
1.084868960308022823e+00
1.291005518357932091e+00
1.089256322345779626e+00
4.877527403506873860e-01
-3.067402094048194972e-01
-9.504804498164753923e-01
-1.125300161713886915e+00
-7.228572016095642372e-01
5.256392811204078919e-02
7.906420163463167006e-01
1.164212305164793682e+00
1.108289937945377224e+00
7.262792420703493290e-01
1.475988606932579772e-01
-4.842121843835535122e-01
-9.901920441737337431e-01
-1.189805233477658319e+00
-9.793175510202601908e-01
-4.180495995300355094e-01
2.659333593587731581e-01
7.984715603089975744e-01
1.005205985323811779e+00
8.505518897255022193e-01
3.890273446719187400e-01
-2.544174927751916560e-01
-8.569187612476134586e-01
-1.146343817972170998e+00
-9.729007357553830504e-01
-4.265447656063882098e-01
2.507510824091240820e-01
8.188325039802686334e-01
1.083651001710504547e+00
9.282680120446676897e-01
4.463491404695223430e-01
-1.514661126406779273e-02
-1.444223460446128482e-01
-2.981920073604094751e-02
-1.959455343627045099e-02
-1.606226605397117480e-01
-8.404255809227859086e-02
4.261080308535210026e-01
1.059882925992436498e+00
1.319984500921018267e+00
1.010197213706688357e+00
3.072538079070045169e-01
-4.611885198708300937e-01
-9.989680645029774819e-01
-1.114057182740055385e+00
-7.720517892885158107e-01
-1.272704137209848541e-01
5.408649486573892107e-01
9.641124173525352781e-01
9.947389499671716040e-01
6.338792924347708135e-01
4.327618026072878321e-03
-6.895152800244450653e-01
-1.216457418096837495e+00
-1.402036432396883248e+00
-1.200871299143952298e+00
-7.013327756137045510e-01
-8.411232717873463882e-02
4.086106426492754906e-01
5.387031282167854540e-01
2.149777373764078514e-01
-4.263409585061678775e-01
-1.119042058118484784e+00
-1.622167975360923053e+00
-1.787952514017458139e+00
-1.562726509324045221e+00
-1.004272501015055719e+00
-3.101663705760773770e-01
2.402426593568177948e-01
4.449050016243247807e-01
2.907417077103556791e-01
-9.064282752490698813e-02
-5.410485409101410958e-01
-9.300790710622621749e-01
-1.129151732272333009e+00
-1.006179745037074857e+00
-5.104817645300908646e-01
2.338784499985573917e-01
9.613217584429241125e-01
1.403273104651708847e+00
1.392747795189377635e+00
9.085688030176332086e-01
1.149017107310963959e-01
-6.630051994420923522e-01
-1.098073484623214746e+00
-1.041086332722566565e+00
-5.600729780322987184e-01
1.490792729132940642e-01
8.659536103369356308e-01
1.395095107077377605e+00
1.565010667814680900e+00
1.250084025967553192e+00
4.695132550955731232e-01
-5.245537890440792328e-01
-1.275675034662771434e+00
-1.299296353772868784e+00
-4.392689276326470216e-01
8.270220105110079878e-01
1.686942003141204793e+00
1.785291345865027024e+00
1.459445154758052254e+00
1.095473657221015751e+00
6.685424424472785621e-01
5.307172090603569370e-02
-6.092065528673593633e-01
-1.012131623409562531e+00
-9.401462665835069732e-01
-3.800762437956426432e-01
4.549210977284903201e-01
1.192268462759124237e+00
1.495871252703040888e+00
1.243229048884470833e+00
5.502597352557354604e-01
-3.133436044571379919e-01
-1.039930446916570439e+00
-1.386937166390829201e+00
-1.242660606548491309e+00
-6.624731021891818727e-01
1.383883169226428622e-01
8.693239283772589143e-01
1.274853354147228002e+00
1.197154829364883932e+00
6.267553232611224878e-01
-2.413406896317004668e-01
-1.054772412667532633e+00
-1.476427022090888164e+00
-1.335871041005015858e+00
-6.782321533349509046e-01
2.539020007897868636e-01
1.101564456453083096e+00
1.534163775046585521e+00
1.392902799201432007e+00
7.563067236827899498e-01
-1.142086742700546415e-01
-9.134046079372019067e-01
-1.401850173335690064e+00
-1.438469490063467138e+00
-1.005434815819399086e+00
-2.445512742025944541e-01
5.715094757037345596e-01
1.145557972944631242e+00
1.260179714339789037e+00
8.485549643296376177e-01
4.789453574063014252e-02
-8.207299888305569224e-01
-1.401724404782061617e+00
-1.486815172288915132e+00
-1.085100614889513038e+00
-3.684538719516032290e-01
4.204665715592273978e-01
1.026659295987890186e+00
1.223513118753152717e+00
9.003234812871743209e-01
1.584892840688198468e-01
-7.087852462545395360e-01
-1.360494927955596456e+00
-1.559314598262796281e+00
-1.257799694472246710e+00
-6.040912517482279753e-01
1.592422559237782198e-01
8.677041721013215581e-01
1.474085379269265417e+00
1.820371807051057944e+00
1.510271073324950919e+00
3.483078488379295345e-01
-1.131448697876622278e+00
-1.992490752565135192e+00
-1.785904713801395483e+00
-8.211785849550697902e-01
3.198641025903682933e-01
1.199473940009064377e+00
1.567483763213626258e+00
1.345534096512449151e+00
6.619195599558174159e-01
-2.117394596065175216e-01
-9.848970162043636511e-01
-1.401835847804614010e+00
-1.308243016473579656e+00
-7.703214461375291755e-01
-4.933642535196662571e-02
5.944831516676991612e-01
1.021837202862841298e+00
1.160067735423790491e+00
9.231721712522059642e-01
2.637181014124656553e-01
-6.592229992918204884e-01
-1.439828533643938924e+00
-1.674795003987877173e+00
-1.267334685234837055e+00
-4.614622215549193385e-01
3.902539672142644189e-01
1.058877578660637697e+00
1.443574191449251254e+00
1.419385924872488269e+00
8.523965134987887549e-01
-1.396749842785687257e-01
-1.090781781789828653e+00
-1.508221808995108049e+00
-1.240495052646805263e+00
-4.990405596875531757e-01
3.591153074155590263e-01
1.020106120552265239e+00
1.285537313875680265e+00
1.078320158696299602e+00
4.570834608764934859e-01
-3.656614545805541017e-01
-1.078714496194583372e+00
-1.403126575564842327e+00
-1.214464036620717113e+00
-5.998757270461801960e-01
1.819417275032323422e-01
8.398000656664470487e-01
1.173856529171168450e+00
1.087322992739853778e+00
5.798596859403061243e-01
-2.001101967428908779e-01
-9.581049416319227241e-01
-1.384999301639965541e+00
-1.311286427362693185e+00
-7.717305602219410865e-01
2.996039498213369512e-02
8.066429906462407873e-01
1.270755817356149953e+00
1.225107379826668730e+00
6.925415979251442478e-01
-2.968265958531185467e-02
-5.747568135603394746e-01
-8.374019487121627803e-01
-9.676312495221108811e-01
-9.754869837833994861e-01
-6.137461347389838728e-01
1.809457457822239990e-01
1.016115949881615688e+00
1.398846408824113041e+00
1.163953816045264045e+00
4.876075732095583870e-01
-3.185728989399614353e-01
-9.563849809667289703e-01
-1.209667032208376236e+00
-9.829440542177640960e-01
-3.337135288201090177e-01
5.183942268073380433e-01
1.247965217730029996e+00
1.542650169337814292e+00
1.236968161592920445e+00
4.333570538316111609e-01
-4.493801612900519826e-01
-8.849311266213774063e-01
-7.068653954395098804e-01
-2.656198918479643067e-01
8.782943245871199789e-02
4.250223309735474686e-01
8.934385526950079370e-01
1.284618292652783156e+00
1.237509693304990499e+00
6.653934265306050699e-01
-1.758542004952512450e-01
-9.138130603457407242e-01
-1.263573822246027989e+00
-1.108063315701046214e+00
-5.194899077336899706e-01
2.695339184628929297e-01
9.718710098082889992e-01
1.359302526139615219e+00
1.305091067826519291e+00
7.955346531499286611e-01
-3.556414813799360641e-02
-9.044140781110716620e-01
-1.474120503036788543e+00
-1.511449145725751730e+00
-1.003867623577171742e+00
-1.626948822309299270e-01
6.890949464954490011e-01
1.257192871074974905e+00
1.357755360789276722e+00
9.489973374269569106e-01
1.539853112446842864e-01
-7.466136063366358711e-01
-1.402644178624824933e+00
-1.548367616599523489e+00
-1.130876189760470218e+00
-3.297040668123562002e-01
5.412938928305979225e-01
1.179674329639159858e+00
1.392281574475908057e+00
1.119818329608243568e+00
4.407169526551303895e-01
-4.315199194340177957e-01
-1.208742574855059093e+00
-1.626645997032199364e+00
-1.485316486352167509e+00
-6.755808813127825996e-01
6.436480086473622686e-01
1.862103901222883273e+00
2.214920055533516674e+00
1.498312962356890266e+00
2.903523156156473939e-01
-6.919391241276825477e-01
-1.185306829691844532e+00
-1.250611786086511579e+00
-9.370428017952436850e-01
-2.844727922920929353e-01
5.373964829107408248e-01
1.255483792059882475e+00
1.621876494351270237e+00
1.495202969039670204e+00
8.792029257304736500e-01
-4.904809666307868854e-02
-9.684168235441792394e-01
-1.529458482894164195e+00
-1.509902820615760533e+00
-9.303129074974287871e-01
-4.356918903928339026e-02
8.059626248253159986e-01
1.327773114330727644e+00
1.355398780339189146e+00
8.871203509771231621e-01
9.259198544492037997e-02
-7.697737699637536846e-01
-1.443098178787287189e+00
-1.671701945290477331e+00
-1.252888067199153133e+00
-2.540290714589066301e-01
8.919188609694705949e-01
1.654498831542988713e+00
1.751285451381204394e+00
1.224624240831216238e+00
3.208096599076769029e-01
-6.275631179551425243e-01
-1.296023101550882073e+00
-1.474373441011897157e+00
-1.136001295391092958e+00
-4.198432281098489205e-01
4.378747700722676606e-01
1.158721478149603135e+00
1.481177260466288281e+00
1.261565466158658166e+00
5.592628085168054319e-01
-3.691438783124256218e-01
-1.168506252883096730e+00
-1.534598240835632899e+00
-1.338965024577291718e+00
-6.619633187979617750e-01
2.562043729186814778e-01
1.099185649967472145e+00
1.566122456183171474e+00
1.461707167315770439e+00
7.799041396847059548e-01
-2.554009710199921512e-01
-1.254874103693757403e+00
-1.821187775069853743e+00
-1.723743047551985930e+00
-1.025483859425303734e+00
-5.757056474640775967e-02
8.026284688488605212e-01
1.353903814680251561e+00
1.551316914567617111e+00
1.303693594711589965e+00
4.656574910610830065e-01
-8.038954063966070596e-01
-1.849520870985121856e+00
-2.010012139349961480e+00
-1.247059833500862025e+00
-8.274258673271725484e-02
9.385631591748233582e-01
1.536950829901278404e+00
1.620247785470616764e+00
1.186071460029341162e+00
3.489001375757068701e-01
-6.260582989080986094e-01
-1.389467118317639915e+00
-1.649396709788724991e+00
-1.304096551448367780e+00
-4.952612642343333649e-01
4.514694626734540028e-01
1.168583335564606474e+00
1.392307688543131139e+00
1.047414740079171791e+00
2.593336556304225438e-01
-6.909083329899075032e-01
-1.458841066105057260e+00
-1.761304307879848929e+00
-1.487296645079442037e+00
-7.333742828505396272e-01
2.462424247342600570e-01
1.126720343522767065e+00
1.606184106247888099e+00
1.507297510738544899e+00
8.594314710567163562e-01
-9.709912677308796258e-02
-1.003002930731025755e+00
-1.521239895111140328e+00
-1.464336692216381630e+00
-8.637033316495499324e-01
4.606330424980054072e-02
9.237886871217386719e-01
1.446594828662323806e+00
1.416269992542864120e+00
8.417557845667823502e-01
-4.584036750571589269e-02
-9.099963897361831311e-01
-1.488833577525929597e+00
-1.663064035677140673e+00
-1.378115035567679669e+00
-6.362911441702502335e-01
3.420967474607783942e-01
1.104614004470299227e+00
1.271691753665151081e+00
7.913760247146381932e-01
-9.598125325771522665e-02
-9.935817781457190190e-01
-1.504748344388766368e+00
-1.456290746105916689e+00
-9.858727588987470369e-01
-3.328041837314178464e-01
3.641932470200933136e-01
9.657267927515456041e-01
1.188767583821339402e+00
7.727092061356657382e-01
-1.815357219411466161e-01
-1.121167879866785899e+00
-1.456394732137978432e+00
-1.163035505010817205e+00
-7.583469465961740763e-01
-5.405205574668818791e-01
-2.303561210125107117e-01
4.083204268024980266e-01
1.042662948646030818e+00
1.151638281221728954e+00
6.155704065996940866e-01
-2.547814741005662298e-01
-1.052777135945870413e+00
-1.502231374099797012e+00
-1.479956000587011822e+00
-9.932182273540027806e-01
-1.996782106237545984e-01
6.029164422378413546e-01
1.076685138581863654e+00
9.799264077582586774e-01
2.820110601753715862e-01
-7.697176294149399300e-01
-1.701853151130871877e+00
-2.047679783283654853e+00
-1.646688807966291357e+00
-7.379741599457442236e-01
2.606429749436487975e-01
1.037239630689675618e+00
1.452735782387483798e+00
1.450051495001977386e+00
1.018720489442420218e+00
2.287045216428184591e-01
-7.391381621942596514e-01
-1.554481816680829631e+00
-1.805596276720880633e+00
-1.292137938535802499e+00
-2.330768880922740038e-01
9.151815411376829079e-01
1.742509831842997903e+00
1.968502754593808080e+00
1.502844142178529019e+00
5.798994745542066509e-01
-2.979198690056795162e-01
-6.953204782853988908e-01
-5.101053236138223257e-01
9.690535749800657794e-02
9.171521871752502664e-01
1.767621606408916302e+00
2.431128273797839690e+00
2.650524725214117083e+00
2.266177318408274743e+00
1.379196582186007047e+00
3.377077357534566948e-01
-4.653923582817023896e-01
-7.711201516907395526e-01
-5.011044357302756325e-01
2.357631175865477213e-01
1.154140957026029035e+00
1.900393551842535000e+00
2.217520647331276074e+00
2.014871472874594893e+00
1.321471900581343339e+00
2.783270424015510947e-01
-7.784212043546329118e-01
-1.335033797548085932e+00
-1.001457139195277346e+00
7.215557912936462759e-02
1.202694941740366952e+00
1.799764338237598960e+00
1.850798618828986664e+00
1.607427241404536522e+00
1.099055751690474647e+00
2.588110816346601561e-01
-7.111521393982348505e-01
-1.374942262238017854e+00
-1.391320517429016856e+00
-7.433243760687291424e-01
2.708152486386180557e-01
1.230033320113832707e+00
1.797331745357764854e+00
1.794002145313260632e+00
1.198643426710567006e+00
1.765354101175305446e-01
-9.279259599039876294e-01
-1.720799035516985542e+00
-1.929490360479326760e+00
-1.497464753327312659e+00
-5.937978879760367201e-01
4.364312774575944687e-01
1.193829852378560430e+00
1.389419630812177120e+00
9.534837615846348813e-01
4.634461430981198782e-02
-9.934766702844527453e-01
-1.767241120097072349e+00
-1.991377732718050630e+00
-1.612970366226980312e+00
-7.892743839643283632e-01
1.989641669271239866e-01
1.029725646412738449e+00
1.419908173111363192e+00
1.205453640759702294e+00
4.084217985443990839e-01
-7.276339544721234232e-01
-1.784344985199090239e+00
-2.329464524449035512e+00
-2.124882954985714001e+00
-1.251052853005330867e+00
-6.502721244267353762e-02
9.755158066211770951e-01
1.505985018044282420e+00
1.368770257107894794e+00
6.342937925305047742e-01
-4.364682065427166746e-01
-1.472990358135392031e+00
-2.111440285742196998e+00
-2.111702191085544911e+00
-1.448222900176082684e+00
-3.524487491280161588e-01
7.491576625136396883e-01
1.417670961726700707e+00
1.404146104712272747e+00
7.452407221053896080e-01
-2.870998907965790492e-01
-1.334898743875945204e+00
-2.095330880173688737e+00
-2.345277049003659187e+00
-1.887281070051621157e+00
-6.354455199688099354e-01
1.070171087894247863e+00
2.342308665514487132e+00
2.348344778278160128e+00
1.165313037364056115e+00
-3.058917123333826371e-01
-1.319436808943055928e+00
-1.775158479526222965e+00
-1.800429331142478162e+00
-1.378497971449816673e+00
-5.113430073189237923e-01
5.532654188212818847e-01
1.401901471912518016e+00
1.695214768851538656e+00
1.321569953574053935e+00
4.097219180678198236e-01
-7.423917141452861523e-01
-1.761242687953064712e+00
-2.280451496028614855e+00
-2.058125124478260126e+00
-1.144850113451677087e+00
7.862880012048092948e-02
1.118150622592305021e+00
1.622280746575421206e+00
1.459554472710193229e+00
7.005830405720134824e-01
-3.926388663357121001e-01
-1.426777666962349755e+00
-2.002542659070358777e+00
-1.858417199477596204e+00
-1.010902462241466182e+00
2.037290290814952054e-01
1.291687977178825220e+00
1.857630417834667647e+00
1.745414362058596680e+00
1.034732108206368295e+00
-1.582941366006834771e-02
-1.050616339499392815e+00
-1.720002372120504219e+00
-1.781555566188206763e+00
-1.196081284864518590e+00
-1.734380609814548113e-01
9.129324572394559301e-01
1.691932249274485045e+00
1.904698192570023707e+00
1.453037714886191489e+00
4.552915336217721043e-01
-7.296670683869592722e-01
-1.605486051575095274e+00
-1.777049160715721943e+00
-1.196339593489816666e+00
-1.908354381284295964e-01
7.980430763531843885e-01
1.479821239602056915e+00
1.711556203181793911e+00
1.401571208562519599e+00
5.773495099301645395e-01
-5.009334542417426261e-01
-1.401655664895941067e+00
-1.738505595499191925e+00
-1.386648620681434796e+00
-5.455072274192596105e-01
4.395861514119903113e-01
1.346664128792841364e+00
2.075298697126779057e+00
2.349888595464478147e+00
1.732623428583664138e+00
2.278067872986462017e-01
-1.379591148931844202e+00
-2.154406082937782685e+00
-1.825803850824391228e+00
-7.945546459816350549e-01
3.922729755967919729e-01
1.353191843790383153e+00
1.847717610163639446e+00
1.721947503610307351e+00
9.897326826161333413e-01
-8.883621571446394249e-02
-1.101223527219228560e+00
-1.677438764221458989e+00
-1.631408709130599988e+00
-1.013726682573758087e+00
-7.482592694767936647e-02
8.495516556542643816e-01
1.452736091910343585e+00
1.530805554346712949e+00
1.042771715079614969e+00
1.459576591675235124e-01
-8.392429712420846899e-01
-1.541309277650083853e+00
-1.689664159084603767e+00
-1.235088595165215075e+00
-3.511491861967833694e-01
6.744475276315783363e-01
1.530342947066753334e+00
1.915280530187311703e+00
1.632943010843981080e+00
7.514140633806735137e-01
-3.671656096917187417e-01
-1.253575357872082296e+00
-1.573831636605147910e+00
-1.249528416101435058e+00
-4.418886685356091526e-01
5.339325157412990741e-01
1.327168050294285750e+00
1.671117857691470476e+00
1.455398558904809736e+00
7.477406206272423361e-01
-2.072750586189595901e-01
-1.046610906106889338e+00
-1.440592256146279171e+00
-1.259896322451303563e+00
-6.241294821848069052e-01
2.034202717047787212e-01
9.551995467259692951e-01
1.407428688787416338e+00
1.391491433651976140e+00
8.736012574988752943e-01
2.651658692377664717e-02
-8.317746967750050402e-01
-1.383056932307140219e+00
-1.419027741737186155e+00
-9.038888914774508843e-01
-1.587615897871970383e-02
8.771189949650164408e-01
1.373005441645100522e+00
1.301097701382962324e+00
8.920441187191165966e-01
5.439225853728690829e-01
3.142600041648657694e-01
-1.113588971906475239e-01
-7.601047921732908552e-01
-1.059856863746518885e+00
-5.151693726961878994e-01
6.256903658707664295e-01
1.644248923242422666e+00
2.015534572147098302e+00
1.657433074653412497e+00
8.045759531516443186e-01
-1.767482890993138378e-01
-9.419993748440641523e-01
-1.258700085271218683e+00
-1.031964482213882706e+00
-3.385690677671590043e-01
5.567789874664695882e-01
1.304116539139410280e+00
1.631765823260485471e+00
1.429046607166612359e+00
7.514507997921955340e-01
-1.804327367023461637e-01
-1.022578306738520570e+00
-1.440588849436766017e+00
-1.264058666715455859e+00
-5.607602097542410124e-01
3.946181861615365438e-01
1.239682469313429625e+00
1.680828453088201835e+00
1.600660036773282613e+00
1.069764113817122553e+00
2.870385923702929443e-01
-4.958754096812488799e-01
-1.025515730765431233e+00
-1.098800256897279670e+00
-6.557719863010507133e-01
1.509034240797731408e-01
1.001889125983451700e+00
1.549036858072258660e+00
1.562040926647410011e+00
1.028560776767056151e+00
1.571674552406467362e-01
-7.292711583442136325e-01
-1.330067887929862858e+00
-1.454224427697381028e+00
-1.069213480822587492e+00
-3.247811562066118540e-01
4.925812019518640006e-01
1.079370398840722389e+00
1.230588719319964275e+00
8.869613156258649989e-01
1.327841939594850140e-01
-7.957595729763921044e-01
-1.514108083192505783e+00
-1.647718487610072780e+00
-1.137361280240804851e+00
-3.360285182600643572e-01
3.139278347005679537e-01
6.293553747003659549e-01
6.389445059023118878e-01
3.423641118662230087e-01
-3.132432467367277651e-01
-1.228421572965409103e+00
-2.016353873793069074e+00
-2.182900194627171331e+00
-1.577710745937420889e+00
-6.636297446375776232e-01
-1.148366934715480681e-01
-1.008648241467803575e-01
-2.548876987428475571e-01
-3.357317911944919797e-01
-5.084041046515487272e-01
-9.496066908328446576e-01
-1.530578003872093085e+00
-1.925182709557345495e+00
-1.863631218723312832e+00
-1.323750748648496067e+00
-5.555508604581985699e-01
1.095897358229382251e-01
4.644337567904757713e-01
4.481219441769056511e-01
8.826633252935120466e-02
-4.910601706061424876e-01
-1.062911751833892193e+00
-1.389365847196402770e+00
-1.342667517870899330e+00
-9.447108536279311686e-01
-3.321625533063956581e-01
2.937266721054330176e-01
7.261092316671935443e-01
8.268282279314971284e-01
5.809269321006400588e-01
9.665182096129482092e-02
