3.401533843383270361e-01
3.425588790538273698e-01
3.150019196850083469e-01
2.583949592477733925e-01
1.841296934001554475e-01
1.257902886716985857e-01
1.078219246305594792e-01
1.043074881146778821e-01
7.436213155326319713e-02
5.068168869840548180e-02
1.452905007120576519e-01
3.841953274639635652e-01
4.983086912540436453e-01
2.148948672521183365e-02
-1.136073191680741168e+00
-2.241574536339154378e+00
-2.337064672019745881e+00
-1.429289930847801315e+00
-5.304951858603754733e-01
-3.546272790327272828e-01
-5.969591042229854816e-01
-6.374592717416260879e-01
-3.492229196119368551e-01
-2.198563315548613187e-02
1.182159207705939102e-01
1.007275111144039226e-01
6.989516976587070718e-02
1.057285420270892146e-01
1.850874280365869262e-01
2.556476076011698906e-01
3.010939100997680473e-01
3.283390958482561572e-01
3.312028790096288033e-01
3.052246957009354666e-01
2.700355467480272664e-01
2.368003003389594352e-01
1.871081274584264764e-01
1.226124589112005808e-01
9.444979267747601048e-02
1.385362786638931754e-01
2.186503461794383485e-01
2.824088386996835287e-01
3.350695041435551857e-01
3.979212131417030340e-01
4.326803135984260140e-01
3.754081878306829712e-01
2.162272865478838124e-01
7.148253406765888579e-03
-1.641868447376914342e-01
-2.025203425333702567e-01
-7.555370387236273744e-02
1.328065236284074191e-01
2.860796075699916785e-01
3.193932935175779475e-01
2.767591240950904030e-01
2.302264570736418658e-01
2.005064172781507170e-01
1.702058103869908134e-01
1.358700961659955186e-01
1.182640114574067397e-01
1.375497042966500882e-01
1.889918193872643093e-01
2.331459304961647494e-01
2.200909163312918249e-01
1.530071210210758592e-01
1.274852947886393473e-01
2.374367199238223147e-01
3.490183588718628882e-01
3.452163505276357319e-02
-9.785912594761554395e-01
-2.181302609545847648e+00
-2.533356854635532951e+00
-1.687000752522342273e+00
-5.202267827168283176e-01
-4.202347247173962574e-02
-2.563111092353140830e-01
-5.098085339523369397e-01
-4.576412539552660030e-01
-2.477663881508305188e-01
-7.859524234145713606e-02
3.677817316195326064e-02
1.587220250467511751e-01
2.943305597331484225e-01
3.985083193486397279e-01
4.336125713693217976e-01
4.082431935227570086e-01
3.581605490860296781e-01
3.005598894703622737e-01
2.320193748022361946e-01
1.658291365318866062e-01
1.404238219283308886e-01
1.957575025189178808e-01
3.479758454528342759e-01
5.414449948322842543e-01
6.380037325491116906e-01
5.484687260248131135e-01
3.552094545655420932e-01
2.126303108990332258e-01
1.776979322742086587e-01
2.080286130257597010e-01
2.465873009867272925e-01
2.437313854509698396e-01
1.668898023916402518e-01
5.095940061187023695e-02
-4.106564641833459692e-03
6.307317953652480380e-02
1.961893928107221741e-01
2.800857717211471809e-01
2.632868191593150109e-01
1.973145232457357012e-01
1.661490041164159492e-01
1.994236379237598333e-01
2.565260172729076360e-01
2.843197169405276559e-01
2.776306109639395947e-01
2.704147693322298540e-01
2.704722546894831603e-01
2.276482071215147340e-01
9.071155974376493569e-02
-9.408826339074849443e-02
-1.646783865207211428e-01
7.485814043911881432e-03
2.925274100926886223e-01
2.616914330934738686e-01
-4.490999676187548140e-01
-1.567480322508158386e+00
-2.192681819177248581e+00
-1.761251283411926050e+00
-8.059448567751960057e-01
-2.851632069393476021e-01
-4.106123531582583364e-01
-6.332047345048000819e-01
-5.217914837989812149e-01
-1.712727242168058661e-01
1.230518263080321306e-01
2.310298515569386979e-01
2.123510732467454032e-01
1.681642838299634846e-01
1.485214713705376721e-01
1.508039896350188147e-01
1.567692039242039592e-01
1.711868630638102851e-01
2.188918226315549886e-01
2.967968926054446177e-01
3.564836818811576435e-01
3.513388959692916869e-01
2.847907297211459410e-01
2.087215694664915078e-01
1.792211871473075868e-01
2.044609396087586073e-01
2.369358817659385497e-01
2.216636120153980261e-01
1.525223287689040919e-01
9.719241674794357189e-02
1.477998598945354236e-01
2.985772362994530971e-01
4.060041002171204672e-01
3.304209172509979808e-01
9.349191912599996712e-02
-1.325661685605502016e-01
-1.791813793786329878e-01
-2.700219329930181322e-02
1.908805956968114004e-01
3.208715170001969486e-01
3.120741165296311292e-01
2.202856318427495741e-01
1.252690479674598012e-01
6.630866996807477376e-02
4.289412797230102853e-02
4.202535118656389873e-02
5.441774831713538929e-02
8.222127278357999058e-02
1.323364460683914001e-01
1.895448030867975253e-01
2.200151149270372641e-01
2.368056102508574179e-01
3.182142945542860701e-01
4.544758514069089372e-01
3.700901275133585688e-01
-2.976607282547995559e-01
-1.431929486222621950e+00
-2.225967514928121727e+00
-1.970401107631930770e+00
-9.881184692780071721e-01
-2.754480307949654927e-01
-2.652350227212325606e-01
-4.949158469556124151e-01
-4.452401809105702712e-01
-1.493383736314721211e-01
8.398128295721232761e-02
1.204751657750165600e-01
3.508927021788122574e-02
-3.320059756221595271e-02
8.596601455795196967e-02
5.084783946138644595e-01
1.057604345632345622e+00
1.288454677607313803e+00
9.829328378857447035e-01
4.407304535412057134e-01
9.499563198009525200e-02
8.348775544590424091e-02
2.914603239571992854e-01
5.242900866942248328e-01
5.935778759718864928e-01
4.617110525479996008e-01
2.897134892656194616e-01
2.217089499960792076e-01
2.111358847124687743e-01
1.364322235246195614e-01
-9.455246555158874217e-03
-1.190241075198908566e-01
-1.215838791230355043e-01
-7.064158341475576530e-02
-6.429851044085922729e-02
-1.147773681111549926e-01
-1.301882968624822334e-01
-2.964864848463318742e-02
1.482652875880857146e-01
2.802526130214204048e-01
2.883604551872094302e-01
2.078672776221119345e-01
1.344591563550854296e-01
1.273816195277120700e-01
1.690150898645373378e-01
2.097635834064595362e-01
2.321985736217110352e-01
2.519489917401729340e-01
2.682907689371171189e-01
2.457782456442501040e-01
1.593038278404241004e-01
5.637054682740706701e-02
5.194175279161969416e-02
1.932174936656368691e-01
2.705284958772956605e-01
-1.340734034584237511e-01
-1.151015794679398629e+00
-2.163812704710205814e+00
-2.280693504559280438e+00
-1.448380474017204822e+00
-5.857672408726652957e-01
-3.940743360248952221e-01
-6.140113101697396436e-01
-6.556906172910663688e-01
-3.869227964238102779e-01
-6.817882550271363307e-02
9.837597374101397785e-02
1.161955637686241521e-01
6.584420316201046453e-02
2.044236367694240997e-02
4.222837731670190525e-02
1.303185339597495163e-01
1.788398759038375141e-01
8.161739388624333902e-02
-1.067304560531290442e-01
-1.864396462920419884e-01
-3.830980971925901368e-02
2.200460972355970657e-01
3.713081647965195131e-01
3.424102032573890231e-01
2.380838866852819091e-01
1.755361742392945734e-01
1.734038361036776277e-01
1.965340361810327674e-01
2.319178338095939929e-01
2.871792651881194813e-01
3.483081633655457643e-01
3.700017431156051861e-01
3.000645888459665955e-01
1.237117740235388064e-01
-7.671864651924220624e-02
-1.432953172950232612e-01
-9.855002744600677850e-03
1.897604240438052203e-01
2.761682809553558382e-01
2.365518190553578259e-01
1.971602278974907974e-01
2.440995605934315194e-01
3.416160813015485243e-01
3.980000732349330272e-01
3.709239530195546641e-01
2.918599698528903663e-01
2.055559341828765152e-01
1.345112945171748897e-01
9.413247884923398034e-02
8.901812548210051579e-02
1.076289128749386287e-01
1.694727985143666404e-01
3.225526872501346398e-01
4.630362998991089940e-01
2.046660457314931625e-01
-7.600171855201743876e-01
-2.014687524503074645e+00
-2.536726097210935560e+00
-1.859486959215625790e+00
-7.404517388625483365e-01
-2.072293357152409088e-01
-3.580627430920748089e-01
-5.618321929065576148e-01
-4.205328619736423690e-01
-7.910536471254918378e-02
1.703827739216411397e-01
2.313234145165213584e-01
1.951541003438608535e-01
1.836339918188113207e-01
2.384233419462157555e-01
3.158517756109580077e-01
3.630480405370369312e-01
3.811947064680555330e-01
3.985118965252057444e-01
4.072342936940365754e-01
3.704063709586659092e-01
2.853846087021591482e-01
2.028118196390132355e-01
1.761133889443097233e-01
2.099307917692763703e-01
2.619130927938534414e-01
2.893931965058805234e-01
2.892283708109385509e-01
2.891181058245188007e-01
3.100959871819463087e-01
3.461987553684775509e-01
3.669869489499534843e-01
3.289537998836482569e-01
2.042287936138457438e-01
2.487003028914757524e-02
-1.072980749193251787e-01
-9.010717668785951651e-02
8.026201603166432941e-02
2.939922091929920711e-01
4.220332929491972807e-01
4.148978579412319068e-01
3.123815598503114077e-01
1.922546297065750309e-01
1.242557880468648235e-01
1.368026237660993905e-01
1.988070817005505031e-01
2.524792799857207282e-01
2.735957492485184828e-01
2.741913711037869406e-01
2.533119589241246139e-01
1.947729995734172603e-01
1.293688846148885185e-01
1.518138609599754552e-01
2.831957079612426598e-01
2.714043608477249570e-01
-2.962102959709781436e-01
-1.408547775245104550e+00
-2.284225931830161205e+00
-2.100436308744123792e+00
-1.075349091855508199e+00
-2.584610441723500518e-01
-2.239761954288064238e-01
-5.601175487646795625e-01
-6.464847517590042170e-01
-3.778509227754255351e-01
-4.292676668190084643e-02
1.321249225813302119e-01
1.596918413711115869e-01
1.642439354850922517e-01
2.217226191670920166e-01
3.126659917705798541e-01
3.713385933539142814e-01
3.624717603800708399e-01
3.137037835747107928e-01
2.707669783867377999e-01
2.394702556200307697e-01
2.045959780627692737e-01
1.851212624080227631e-01
2.135379225835891404e-01
2.741773516092173568e-01
3.179052411453123228e-01
3.247781167962623394e-01
3.113442041706597774e-01
2.853705628600974320e-01
2.238472759092841324e-01
1.183169146716427644e-01
3.229935802195654793e-02
4.498132432122774194e-02
1.161397372008317608e-01
1.119029392082764862e-01
5.886347879258249649e-03
-6.592477884378614150e-02
4.837745391122437455e-03
1.605124840168688505e-01
2.669407447166629588e-01
2.667808672745048959e-01
2.151796333529593375e-01
2.066922431652265246e-01
2.760437687091525927e-01
3.426527577887559795e-01
2.797657181848361985e-01
8.874196532404124427e-02
-5.457526759521248716e-02
-1.799418568035101793e-02
1.022206008244189168e-01
1.284184261161372409e-01
5.889228765705369073e-02
7.311043627732927153e-02
2.779608587425840827e-01
4.479838580867663289e-01
9.352512551113956185e-02
-9.724561736630099595e-01
-2.099981785989891048e+00
-2.279231999947131992e+00
-1.383195269366095603e+00
-4.063636732114926930e-01
-1.892940197074224895e-01
-4.964905366964199041e-01
-6.110577126056059294e-01
-2.844731665137050225e-01
1.704910809254227000e-01
3.922636739484209323e-01
3.344543260213195812e-01
1.939838927555501136e-01
1.287363648878805666e-01
1.368268383318126669e-01
1.644064174446401572e-01
2.000299038007172236e-01
2.467114278989837317e-01
2.906142823392053876e-01
3.174253208194406373e-01
3.198100921697210053e-01
2.945221834486173584e-01
2.517645041682848861e-01
2.120320554506027189e-01
1.807632095294617602e-01
1.360692435928454735e-01
6.048995613365459878e-02
-1.214707330106125360e-02
-1.266464162248480234e-02
8.533792234158946166e-02
2.305154014722130829e-01
3.362966475079751660e-01
3.285611485134758425e-01
1.780447974641767017e-01
-5.534928185391602140e-02
-2.235830514251024304e-01
-2.007338831768704090e-01
-3.237315261630631380e-03
2.306882389591214944e-01
3.734106930316345441e-01
3.990439763093959757e-01
3.656301551318333343e-01
3.311621298909157018e-01
2.803178821657730246e-01
1.508072938141507557e-01
-3.987622841298328613e-02
-1.517973680957510063e-01
-7.977337600482350966e-02
1.050271231233109170e-01
2.428930493395410894e-01
2.625481184979089888e-01
2.321430028622376018e-01
2.697020155879908399e-01
3.781648102949110024e-01
3.168423483409633090e-01
-2.410118870733328478e-01
-1.194621542666361336e+00
-1.810147645814930595e+00
-1.498505104581117964e+00
-6.646697843834320496e-01
-1.993443926978125946e-01
-3.257368586689114442e-01
-5.350576969634559532e-01
-4.307098304853958504e-01
-1.199677411955007850e-01
1.126131232007289013e-01
1.631684326140535324e-01
1.227269553057878798e-01
1.151147939188566227e-01
1.803879224303450157e-01
2.429732621598289233e-01
1.728695347021193540e-01
-4.961552247945594935e-02
-2.460484995725303881e-01
-2.242361706468711247e-01
-1.600573759490226539e-02
1.855107585802575620e-01
2.677415603143209477e-01
2.678261127472250092e-01
2.616527366333166738e-01
2.818956134022224669e-01
3.155882114497380875e-01
3.228497572297264750e-01
2.760121705839575501e-01
2.042313684078661262e-01
1.713417467977270403e-01
1.923603530473897705e-01
1.977926777099434930e-01
1.101317551512231013e-01
-4.325156134572563649e-02
-1.282313072837325540e-01
-4.691565957286117361e-02
1.417847041890649973e-01
2.857689591217474900e-01
3.026532659916586487e-01
2.366237580454907397e-01
1.757996460538912564e-01
1.563681207503858084e-01
1.436255148431030138e-01
1.081306110615455895e-01
1.326644583262129862e-01
3.626835764212268942e-01
7.501972566313968027e-01
9.670328776102741219e-01
7.683086367584169851e-01
3.282987351735639492e-01
3.491455356945992461e-02
7.279188880403668349e-02
2.670234933594108906e-01
1.825962569402611035e-01
-5.151322032991024757e-01
-1.542679026257979258e+00
-2.046395450740123412e+00
-1.552114391990010667e+00
-6.368236136099986178e-01
-2.137163924545565918e-01
-4.238948735142351598e-01
-6.922773385956523251e-01
-5.976132807535007307e-01
-2.379266962155242304e-01
9.094252299934993400e-02
2.034109856518921400e-01
6.209404838400685994e-02
-2.058672251783040252e-01
-3.299518547565643001e-01
-1.572187083803281149e-01
1.303950928880567572e-01
2.386432390994646380e-01
1.315684528630237660e-01
1.972786479686755579e-02
4.808478011155379456e-02
1.551049017492359960e-01
2.238798673055839572e-01
2.317512899661458015e-01
2.206830247674715362e-01
2.128695440029922115e-01
2.017318400556730729e-01
1.891802362827910700e-01
1.943665522171298121e-01
2.287688390554594997e-01
2.834440192544939729e-01
3.367812079817248949e-01
3.498022443518888358e-01
2.684256078761823039e-01
8.323660448189462713e-02
-1.130498892984558024e-01
-1.862146543054901959e-01
-9.421230759073490058e-02
7.694659507215677319e-02
2.136894679644220085e-01
2.753441996624049759e-01
2.942624660119206315e-01
3.130812979404292151e-01
3.369236576649980441e-01
3.376204905097584530e-01
2.975305106684535961e-01
2.379621964998734351e-01
1.942585033805699635e-01
1.722707828111642858e-01
1.444000975829389799e-01
9.818675810325129538e-02
9.132550300444265690e-02
2.175702797394300780e-01
4.294461702102847500e-01
3.896098439470858099e-01
-2.907407967888565592e-01
-1.451279391443127453e+00
-2.230065816019913161e+00
-1.941519666586605686e+00
-9.790846377691464486e-01
-3.342272172980846889e-01
-3.603899468902945213e-01
-5.627853364153381222e-01
-4.637428691242359013e-01
-1.377667539971762778e-01
8.789929048320817284e-02
9.252499040912522121e-02
1.976063933424423297e-02
2.190000243245714823e-02
8.671618328131022735e-02
1.317110970613462606e-01
1.531488338739441235e-01
2.012385413288537428e-01
2.750312235166807451e-01
3.219226995754321252e-01
3.144488718597778787e-01
2.729655362589742396e-01
2.241661077231299204e-01
1.790052398467373851e-01
1.498651929341855704e-01
1.551508683383117093e-01
1.978705956421422663e-01
2.566045355908640468e-01
3.015935771743060712e-01
3.149691834125141199e-01
3.029793245162401005e-01
2.868542617605311373e-01
2.627473985126623779e-01
1.853065978911306311e-01
3.691296492852895461e-02
-9.807744946165961042e-02
-9.513529658037077341e-02
6.571675463140252971e-02
2.710110020315786294e-01
3.945129867230714460e-01
4.046171072705345151e-01
3.544194084156409574e-01
3.030618597211957033e-01
2.639550201277038322e-01
2.235538413159184334e-01
1.864782811293856368e-01
1.798529168381348409e-01
2.166249937488094468e-01
2.688625562821873038e-01
2.845071046562112071e-01
2.363600530167816460e-01
1.685972012190153635e-01
1.840528131220374175e-01
3.033692853190115279e-01
2.810645195870394297e-01
-2.841247933216627941e-01
-1.396368872928982485e+00
-2.304965559940545194e+00
-2.167619125441158090e+00
-1.141305121539381684e+00
-2.654993783718752054e-01
-1.711009259560153373e-01
-4.914550879696434893e-01
-6.049960991433437352e-01
-3.836350420232349512e-01
-8.587271952723096735e-02
8.549348011383842150e-02
1.364586062070159422e-01
1.659419234800516563e-01
2.350565756759789293e-01
3.251345596597987053e-01
3.778453560442001091e-01
3.644127547887970331e-01
3.110485262725882771e-01
2.646216672979796458e-01
2.486017762184435931e-01
2.580667509053060082e-01
2.857388991043806059e-01
3.280292972912119964e-01
3.667180230536446484e-01
3.751904394122970166e-01
3.455862299249907732e-01
2.885282308276739260e-01
2.156570934118580973e-01
1.488883842555845105e-01
1.322139553018779057e-01
1.876224363883495505e-01
2.540315812502483839e-01
2.217008462431813987e-01
6.309311292116617786e-02
-1.006697524506990071e-01
-1.161752892228447437e-01
2.605643982616701396e-02
1.845423355600723236e-01
2.339263676948075410e-01
1.847663444734279903e-01
1.352780799189504946e-01
1.523869169165316673e-01
2.171876529771077369e-01
2.683840171310831191e-01
2.764635061238605029e-01
2.627277600706265370e-01
2.551378059035135371e-01
2.451211282689499948e-01
1.948401647058763397e-01
8.957719287912174755e-02
-4.578859614019346012e-03
5.321750026869812022e-02
3.211643873658884263e-01
5.223173927171604891e-01
8.398804226133926853e-02
-1.194333069945881176e+00
-2.476396901985675303e+00
-2.521659077284424288e+00
-1.271254216455125263e+00
-5.956634636191618370e-02
9.462266376304973026e-02
-4.145239889066901218e-01
-6.650240568779057782e-01
-3.908612057701219000e-01
2.411537643417897142e-02
2.090431098281169131e-01
1.464083960624270875e-01
3.197607730544752003e-02
8.211868960481961965e-03
6.295983548372706406e-02
1.232037001196317760e-01
1.682228399877584157e-01
2.223816381833547962e-01
2.897475983266690758e-01
3.458924694271632294e-01
3.744255562004072391e-01
3.759746350482112698e-01
3.478602310746307658e-01
2.848461279509932886e-01
2.096458301935535673e-01
1.747994067728339818e-01
2.075605013042366165e-01
2.734482574388285014e-01
3.116178578368669072e-01
2.849674458166355784e-01
2.045678130949521167e-01
1.267679804686142331e-01
9.655079059850105172e-02
8.693015771260018121e-02
3.600921417348217773e-02
-7.416158985677186177e-02
-2.121646396883901109e-01
-3.117639245742959142e-01
-2.771164581788768122e-01
-7.563518825289695935e-02
1.818299347934795029e-01
3.464490008590095371e-01
3.744554345905583004e-01
3.153566143725823889e-01
2.301964166715707583e-01
1.602745738307894130e-01
1.296838442227341015e-01
1.418256145447158445e-01
1.674110547727378495e-01
1.494340646819443674e-01
6.854701965869343383e-02
2.523877975860945241e-02
1.467274004267823395e-01
2.898990363377933477e-01
-1.788152339918931688e-02
-1.019467454383363059e+00
-2.120625375628494957e+00
-2.314378720087362673e+00
-1.412716645407165794e+00
-3.536028947031872871e-01
-1.903232186680357818e-02
-2.852109519878680555e-01
-4.946255196624742556e-01
-3.427727565160240686e-01
-1.060790668505985287e-02
2.402049309123322485e-01
3.281877261806825929e-01
3.191781653322551815e-01
3.027506207837858399e-01
3.178085931076065074e-01
3.489753426011303894e-01
3.658079184329922628e-01
3.577482765739530834e-01
3.329231634398489570e-01
2.950191000805551522e-01
2.384081700265164305e-01
1.721957082707689934e-01
1.338252200019597327e-01
1.551567086787848659e-01
2.210903377245838630e-01
2.911470436594604805e-01
3.516642796396330928e-01
4.041173057168820359e-01
4.086733769992030862e-01
3.073251913821924419e-01
1.353628758760042072e-01
2.769828017193783076e-02
4.017941445999671790e-02
6.371855056887493207e-02
1.115687979241138279e-02
-3.021451715356806081e-02
5.953926068307942299e-02
2.368030218722927405e-01
3.447071645603502765e-01
3.185231084672060509e-01
2.468679164574263396e-01
2.166785179405598949e-01
1.997749062348199434e-01
1.568303720671993806e-01
1.456143239578496507e-01
2.170943208291326310e-01
2.846269549958629907e-01
2.185402552103900831e-01
4.006235514790963681e-02
-8.765302971212445005e-02
-5.934277064281302805e-02
9.235084328372672458e-02
2.801534061756855709e-01
3.326627978475051872e-01
-5.602333436778783593e-02
-9.936751474633456205e-01
-1.944797073641184149e+00
-2.067930706336275737e+00
-1.245700098712887005e+00
-3.393641903120913073e-01
-1.296987315150750775e-01
-4.598247799047805451e-01
-6.869087598981740150e-01
-5.319249386314647277e-01
-1.963736039792545740e-01
7.131666599887077906e-02
2.340862835436230971e-01
3.504765117543795494e-01
4.093528666583683417e-01
3.710316520325083189e-01
2.780019743589018932e-01
2.174326156289651535e-01
2.099223552606390708e-01
2.075796334409437116e-01
1.831631468657883288e-01
1.730418274372621523e-01
2.258263417706931064e-01
3.260351025671284209e-01
3.913112925354153560e-01
3.577997708721606385e-01
2.479648615514770393e-01
1.386889771674655880e-01
9.269443846775141105e-02
1.319022251248062327e-01
2.317816942279206094e-01
3.280129034930138743e-01
3.632483706054776551e-01
3.222497223022407487e-01
2.135508271166726146e-01
6.864824147070833216e-02
-3.602533218763474127e-02
-3.006095835875575994e-02
6.722928748825028611e-02
1.681873440481755355e-01
2.165453123123961265e-01
2.239707329836552463e-01
2.254362666517792102e-01
2.456341202125932599e-01
3.006228152143035071e-01
3.799243572881610409e-01
4.217261918492075101e-01
3.651088015120062535e-01
2.404660879281132480e-01
1.431737972219681299e-01
1.123840746196275997e-01
1.222549697285399972e-01
1.942531157261774000e-01
3.719680786715711673e-01
4.923859981903666028e-01
1.352811197883096728e-01
-9.062304719156364374e-01
-2.075614716849481844e+00
-2.397029535062735750e+00
-1.626960866302505693e+00
-6.223156528759330453e-01
-2.450576097154995026e-01
-3.975089532420464367e-01
-4.680032579591557607e-01
-2.340987965163744411e-01
4.734236348842552067e-02
1.359064443808743194e-01
5.725427740243746455e-02
-4.622204050708865475e-02
-9.268200044219368494e-02
-7.607621642481499080e-02
-1.660526159366407933e-02
6.556300660999296592e-02
1.548651930264384191e-01
2.362257981203662871e-01
2.951530655062794550e-01
3.219039302321063389e-01
3.110762270540707863e-01
2.644166472836833037e-01
1.969792395592079859e-01
1.378720616936373877e-01
1.212122884892790353e-01
1.620406015859431892e-01
2.393215918487637262e-01
3.167815061293486334e-01
3.740866783028829468e-01
4.018106522289157101e-01
3.740473178214832606e-01
2.532851180289943938e-01
4.892269039256420121e-02
-1.403764858742035937e-01
-1.920762977016708672e-01
-7.499006392250642805e-02
1.319606709242910347e-01
3.162924746853456592e-01
4.017714270746471916e-01
3.817805845691659705e-01
3.087882113576005394e-01
2.356699527322927423e-01
1.789112338668918945e-01
1.420688484165561483e-01
1.358299983408388090e-01
1.638411862203267844e-01
2.102635860289770731e-01
2.399635469498509477e-01
2.174590484807503443e-01
1.635164559841191523e-01
1.788922220941372709e-01
3.091942299099392222e-01
3.301828796844785696e-01
-1.826015994200483050e-01
-1.314818023105560618e+00
-2.371251746951988704e+00
-2.403708873881370778e+00
-1.371897828308635603e+00
-3.041882846128181050e-01
-4.888775557181570391e-02
-3.857885109468888740e-01
-6.084560681334532095e-01
-4.517347954893793371e-01
-1.555856553683322707e-01
3.141640304107268938e-02
1.051622597035821033e-01
1.720956300116842919e-01
2.699655396824341413e-01
3.476442611919155490e-01
3.440516854826319859e-01
2.632647682954652457e-01
1.836103528533818141e-01
1.760471162805459233e-01
2.222028797836082814e-01
2.511703675593558449e-01
2.393107808013118509e-01
2.272455499685610003e-01
2.496273526922379027e-01
2.938732771570705671e-01
3.300471182725678299e-01
3.401382663199903345e-01
3.141888690170985821e-01
2.571139672226477324e-01
2.002671143758570360e-01
1.772255809562090223e-01
1.869876549690848988e-01
1.890861751380000788e-01
1.410853397577871149e-01
5.416254542719525777e-02
2.049315191518435997e-03
4.864487221081597451e-02
1.707089193700180307e-01
2.767294237473263974e-01
3.019699295246743853e-01
2.647902039295353949e-01
2.288439098887564693e-01
2.298202733155206567e-01
2.503540638610465829e-01
2.604870054301510751e-01
2.630631011959183585e-01
2.797787377860265212e-01
3.007930062575289720e-01
2.783931233699077357e-01
1.851714250438817322e-01
7.024614604276177565e-02
4.492121087121873219e-02
1.797346375372213534e-01
3.411400256473013926e-01
1.358856402797472551e-01
-7.401123049533387954e-01
-1.911308063790043921e+00
-2.422743666403026630e+00
-1.829751925701969872e+00
-8.210824101354792237e-01
-3.148445624266066334e-01
-3.921278466256100659e-01
-5.357835258090350994e-01
-4.297292923571057188e-01
-1.423798423914951206e-01
1.493160037232823534e-01
3.392044136174056090e-01
4.088718621396063568e-01
3.938286417156662833e-01
3.398613643087243230e-01
2.822732960732829421e-01
2.486137298011561469e-01
2.548989544618775471e-01
2.938728977541221754e-01
3.245335466682023329e-01
2.898782051679426042e-01
1.910551003447208962e-01
1.197178852218311884e-01
1.414937425907442092e-01
1.938283616297148682e-01
1.873971951514612766e-01
1.394126520589369644e-01
1.222039836087390058e-01
1.514831354326495461e-01
1.955970969498493361e-01
2.407151492284340943e-01
2.869403538581168367e-01
3.004427575350380186e-01
2.204069990977554072e-01
4.213423705856925855e-02
-1.278846564026004939e-01
-1.537682900412543630e-01
-1.343572726875987347e-02
1.802398422604542250e-01
3.011315681545078116e-01
3.222327635141911117e-01
3.046632769938099616e-01
2.983197751404572107e-01
2.876216272219643821e-01
2.426483383291700435e-01
1.763086486581170176e-01
1.254918062373575893e-01
1.144849281485542519e-01
1.465249215542883399e-01
1.940759627912468643e-01
2.137673052075292901e-01
2.207618591055487134e-01
3.046203446211228072e-01
4.469329353488848966e-01
3.262671862301407821e-01
-4.315075751868648890e-01
-1.601825641395365096e+00
-2.271470776313801121e+00
-1.840209356973109278e+00
-8.466698099899307994e-01
-2.835038835118007805e-01
-3.816186063910929072e-01
-5.931882533007489799e-01
-4.917802604758723661e-01
-1.812148088565936344e-01
5.555376404712777244e-02
1.240589644780058232e-01
1.048689498863754621e-01
8.852345142450424031e-02
1.103393054214206193e-01
1.669139149109213349e-01
2.347563909434889906e-01
2.867975839681087824e-01
3.080463036669405796e-01
2.959568801285319406e-01
2.541167680893363645e-01
1.959710392801327916e-01
1.467228669232061578e-01
1.260983905562279295e-01
1.336140917081891089e-01
1.610309147804317165e-01
2.069628387562823524e-01
2.642119246060834481e-01
3.050496964833424030e-01
3.044370757558520491e-01
2.790755071707546331e-01
2.705576830414045952e-01
2.659215167079445608e-01
1.672213380573334685e-01
-9.453833178286329131e-02
-4.012177331461353469e-01
-4.937936837531770040e-01
-2.577367108033714604e-01
1.163977803823030011e-01
3.457661521811935534e-01
3.453161660719238357e-01
2.362336420715057672e-01
1.558354943344740784e-01
1.422402807187832519e-01
1.656416661490061060e-01
1.920697605373835326e-01
2.035875448438191071e-01
2.018426718398416975e-01
2.058578352818524748e-01
2.189494446823315732e-01
2.079127327445451368e-01
1.617888367773245017e-01
1.544907147277746196e-01
2.382783256329034094e-01
2.175719163801885514e-01
-2.943638181169920820e-01
-1.329840856618263567e+00
-2.188631547017403367e+00
-2.064804006298173178e+00
-1.091351975400519869e+00
-2.432416934642961936e-01
-1.272999550377619249e-01
-4.115360892105251467e-01
-5.127046152989976902e-01
-3.063797144857860477e-01
-2.386414058148717682e-02
1.594132866388334180e-01
2.416140559615594097e-01
2.800020633750456289e-01
3.080603434548057074e-01
3.313997160008861353e-01
3.370386923599599238e-01
3.020826830301168164e-01
2.263865401079659112e-01
1.592522444191267761e-01
1.591551542602753777e-01
2.261187411900003330e-01
3.022631898683700857e-01
3.361458896419622366e-01
3.290433582926227118e-01
3.142035812890134894e-01
3.011472545126183675e-01
2.700566222272118844e-01
2.250183733301693578e-01
2.082797431181444836e-01
2.481275235970695769e-01
3.238867759126223822e-01
3.786907685392245093e-01
3.488953171834919265e-01
2.152578977673723082e-01
4.916801861352906866e-02
-3.379686039244404749e-02
1.098274347558739553e-02
1.200870188164630675e-01
2.057940560815972042e-01
2.448040202044689528e-01
2.729612682902655130e-01
3.177858816235581418e-01
3.637475693644011687e-01
3.778996241457858174e-01
3.474531841366542695e-01
2.911138621650235514e-01
2.400987747784180948e-01
2.060625518710298976e-01
1.714622891495234946e-01
1.174705160458114489e-01
6.690375876390819432e-02
1.006040837511651270e-01
2.749615759237535872e-01
4.347949053839924582e-01
1.759508604503895179e-01
-7.416823249490710479e-01
-1.855799598039307163e+00
-2.242961013002710668e+00
-1.587205601990534287e+00
-6.376567543290467821e-01
-2.547910236864787126e-01
-4.198161385023281844e-01
-5.450308162104101628e-01
-3.451657210994017455e-01
-2.083987676799711058e-02
1.707138771025099311e-01
2.015441036527019780e-01
1.767396987951958820e-01
1.565484318980569500e-01
1.409461749661714558e-01
1.390014108479591948e-01
1.705752901689653322e-01
2.275602099823196278e-01
2.819814849842660065e-01
3.143359605057691186e-01
3.149362432657301647e-01
2.818211636398317288e-01
2.263417042840908389e-01
1.671689354512722325e-01
1.210485522914609841e-01
9.965371564645764124e-02
1.054129054855708764e-01
1.336824420308345140e-01
1.823746271550287512e-01
2.503584699108631351e-01
3.232841707456601821e-01
3.628748719364188746e-01
3.146851456086367516e-01
1.531437791259604997e-01
-5.879560512748330942e-02
-1.841862076561475436e-01
-1.256001211067435952e-01
7.772797477773618624e-02
2.742552528500742937e-01
3.253489850062538657e-01
2.284613066073331589e-01
1.074437865923960206e-01
5.572607885921323362e-02
4.727968748034303698e-02
3.894866668907012719e-02
5.351905460971861234e-02
1.126996931759203791e-01
1.858924676453359293e-01
2.343424394770588781e-01
2.427133627222742562e-01
2.093723944795919945e-01
1.657292854934451221e-01
1.966077975769525421e-01
3.258000575921594644e-01
3.145640722055549343e-01
-2.464571040184374007e-01
-1.366475232601104262e+00
-2.284405316552084120e+00
-2.156400439131958002e+00
-1.153219081513211286e+00
-3.113463949499231109e-01
-2.339393684135858131e-01
-5.349294745691881570e-01
-6.063420561386040353e-01
-3.579587176635965484e-01
-7.612361687458410464e-02
5.101523670584701131e-02
6.990132596946989352e-02
8.918287246832937165e-02
1.411307815674388288e-01
1.970552511036287868e-01
2.297362290273643748e-01
2.325930603097353666e-01
2.057625302274350143e-01
1.552631706824205704e-01
1.156683437671073289e-01
1.423287853639059186e-01
2.409220152288781558e-01
3.334880660339982206e-01
3.482437938902593344e-01
3.073433953029769405e-01
2.750517709369073582e-01
2.681025011072734610e-01
2.614112181763811882e-01
2.396033327581973682e-01
2.090793752062193589e-01
1.753289120627399278e-01
1.260245051334897837e-01
4.737952167086371957e-02
-4.214426423750326084e-02
-9.486352840633888173e-02
-7.726449947610096458e-02
3.177992936824355213e-03
1.062050653478976148e-01
1.825838578482470165e-01
2.087618372853952409e-01
2.055952059018182621e-01
2.058441016840140969e-01
2.128635869767628308e-01
2.133208912106605570e-01
2.075859931395279134e-01
2.000681561433996503e-01
1.838951747227703104e-01
1.574007266909072944e-01
1.294638707936528188e-01
8.924399037082024477e-02
9.266932368191890465e-03
-7.413504542806886866e-02
-2.713641411591664887e-02
2.065531013044922815e-01
3.568722890504373302e-01
-6.159023087872691343e-02
-1.136624547336514413e+00
-2.133272733513307706e+00
-2.131163455877229218e+00
-1.185916528054999253e+00
-3.174434077822122502e-01
-2.059562308837677991e-01
-5.038575649252836630e-01
-5.639503660035832810e-01
-2.587975770943894416e-01
1.055055423100069445e-01
2.883495271459775022e-01
3.058697495514210440e-01
2.843582788291099117e-01
2.935626041331132474e-01
3.191211376714657710e-01
3.302486694556500124e-01
3.384830467221769390e-01
3.779908203392526866e-01
4.431687256383525786e-01
4.817964377200580905e-01
4.571601088772835331e-01
3.899197642485079940e-01
3.280434124186724087e-01
2.973920317496203669e-01
2.913757024779963234e-01
2.896777662959234556e-01
2.814404864968048092e-01
2.794173170907262582e-01
3.057981693200345075e-01
3.620683964952572942e-01
4.211669519516719196e-01
4.428194753389642080e-01
3.874164680979232944e-01
2.335334288381730738e-01
1.575708295505139078e-02
-1.554001187717557464e-01
-1.591871876623790205e-01
1.564001063179303735e-02
2.425589978970740523e-01
3.821886625715445462e-01
4.102765938855316152e-01
3.909628757414615463e-01
3.672366729721001644e-01
3.288260817294325067e-01
2.626990071569325624e-01
1.921343798915083889e-01
1.609955254490258725e-01
1.880763397791974656e-01
2.414524512911684351e-01
2.583218004955714631e-01
2.025868336529416391e-01
1.287208411699133914e-01
1.630390141201426835e-01
3.152166436431919072e-01
2.686190646034477547e-01
-4.270798256592984177e-01
-1.681027601198522570e+00
-2.571242939516455994e+00
-2.247504111543832117e+00
-1.053094709446473320e+00
-1.609327983669778250e-01
-1.603872382396472340e-01
-5.833153045739015718e-01
-7.438634758472260078e-01
-5.031357821646008643e-01
-1.547070687468081185e-01
6.629287897061390822e-02
1.630201022792021059e-01
2.195206639205738441e-01
2.645209664438539776e-01
2.920745532773908471e-01
3.085787019414842347e-01
3.185537698817594299e-01
3.030420535093083512e-01
2.464073500635556857e-01
1.716568751036318119e-01
1.255518542525092263e-01
1.341230174743161807e-01
1.858540170887983678e-01
2.501644625224466734e-01
2.996937056206419592e-01
3.186503124659142427e-01
3.018872766555248943e-01
2.535055793977859517e-01
1.892221792322683616e-01
1.395076338221565848e-01
1.371212248774223430e-01
1.763073931105383629e-01
1.867628960150007345e-01
9.967289780046888203e-02
-3.846260123460204516e-02
-8.390142563105484896e-02
2.791695884333401934e-02
1.845503286748817751e-01
2.255574256045923265e-01
1.282200271322106178e-01
2.632002250787449094e-02
6.294406933154071682e-02
2.309470166089812315e-01
3.361187116475450876e-01
1.650497384513425203e-01
-2.201311281801280884e-01
-4.489287248084107285e-01
-2.765838069596970872e-01
8.481320021789787167e-02
2.576898562521664493e-01
1.540801665900745077e-01
2.913839189238882910e-03
5.715850595556402208e-02
2.928375616215041499e-01
3.052051130388800937e-01
-3.499355405297388533e-01
-1.497834865102803281e+00
-2.234688013081656432e+00
-1.885101514458980221e+00
-8.959344630314123314e-01
-2.609599451581344765e-01
-2.698128733966995152e-01
-4.158876925728846041e-01
-3.055886465103325733e-01
-4.588262825720465510e-02
1.445650457573098846e-01
2.310872142614413538e-01
2.669121563746270076e-01
2.675409801963366530e-01
2.351513378263745124e-01
1.992566153546175556e-01
1.868012922189356828e-01
1.927167535498900963e-01
2.040122919897580933e-01
2.249246774570289320e-01
2.616442572692833091e-01
3.017728560790310377e-01
3.247786347524473372e-01
3.261893581407286913e-01
3.147773063022601403e-01
2.831873984152385448e-01
2.116592943140083727e-01
1.238365959320476828e-01
9.852224129350982407e-02
1.844428505653435135e-01
3.360008343972152312e-01
4.567616587341029599e-01
4.702037614298325008e-01
3.484142292198694757e-01
1.257484330338851375e-01
-9.551414222491250161e-02
-1.915954453533310342e-01
-1.122862331587379803e-01
6.959413388213367413e-02
2.273022217681713308e-01
2.982777060551546344e-01
3.120617315798978608e-01
3.128252357666219674e-01
3.018436729163734844e-01
2.644546557629957051e-01
2.078235281993750239e-01
1.525674920102023657e-01
1.141217120912423194e-01
1.008185470463305450e-01
1.084123938633582696e-01
1.193148915203186833e-01
1.349571959500262541e-01
2.013726392648266250e-01
3.499892381759972526e-01
4.591222646840875110e-01
2.038507965169802094e-01
-6.516496929490996903e-01
-1.750741495266237457e+00
-2.218004641159419865e+00
-1.620551019987737540e+00
-5.871013195450547340e-01
-2.728180409491401393e-02
-6.044321899072629262e-02
-1.743489730627044987e-01
-8.804937977778312663e-02
4.057287250265188133e-02
5.346321645134544109e-02
1.694602232730631902e-02
4.490734595081170150e-02
1.375227975476268072e-01
2.284000997584459958e-01
2.869949154371718714e-01
3.244035992132155988e-01
3.385020307630984826e-01
3.032079628060338483e-01
2.078903262431335830e-01
9.127469189916161130e-02
3.133820521358031408e-02
7.655322566137078011e-02
1.748409322361452745e-01
2.105967240987453581e-01
1.400472377851582906e-01
4.992973660624046295e-02
4.677581537792297600e-02
1.243398025414257507e-01
1.846574323036823673e-01
1.706950413431272406e-01
1.253283432050875945e-01
1.041320872637108569e-01
7.889260168723492839e-02
-1.113513266267969481e-02
-1.281157240866255542e-01
-1.451788798761765586e-01
-1.766327477138483759e-02
1.350904083287171598e-01
1.747815713653432246e-01
1.101786939681584643e-01
5.469678266188479632e-02
6.896650983687681313e-02
1.171355584545449441e-01
1.493123483869266688e-01
1.633141996751582559e-01
1.874225461938910375e-01
2.393173446338126842e-01
3.042207230761744263e-01
3.294874892903043584e-01
2.566571793508740651e-01
1.075975537848323366e-01
2.370537625308643051e-02
1.223863569463762568e-01
2.517288893966473373e-01
-8.473403452408982683e-03
-8.669411232079540230e-01
-1.816276957600239550e+00
-1.991362116742041222e+00
-1.242373843234443553e+00
-4.062507770392855266e-01
-2.338764872251563598e-01
-5.404605790786238817e-01
-6.924610590313550196e-01
-4.547477449487682954e-01
-6.505256604179858460e-02
2.052412714138318883e-01
2.917580814971070802e-01
2.655659764731567174e-01
2.094109814499011402e-01
1.694564133815520401e-01
1.542801279460078168e-01
1.514769156709768749e-01
1.494223534631651251e-01
1.508800573327106487e-01
1.754938380670152120e-01
2.432489470733735226e-01
3.360775129457489463e-01
3.894018413344078056e-01
3.566080457770301471e-01
2.672236728977114839e-01
1.869462586837890017e-01
1.427271737051606648e-01
1.215996199429724423e-01
1.242903480538830735e-01
1.787049862822267521e-01
2.878791193272055016e-01
3.865081613402765459e-01
3.756751879052465659e-01
2.157695526993194668e-01
-1.213628136665225593e-02
-1.588591158535975767e-01
-1.391918905500092174e-01
2.616384464988078667e-03
1.578688075547020064e-01
2.537737718727776093e-01
2.901886837269462283e-01
3.080454019800918930e-01
3.362579937968516175e-01
3.681321218887033675e-01
3.812382691605382679e-01
3.637860267227314148e-01
3.198219033688020074e-01
2.625821417819939052e-01
2.038173349019694325e-01
1.462941339976005506e-01
1.005597745395365172e-01
1.175183615081799582e-01
2.591633957454195225e-01
4.445282924944854441e-01
3.270373311578603781e-01
-4.473723866276922978e-01
-1.647920511133885046e+00
-2.368756918254145916e+00
-1.972546433374705810e+00
-9.537535277755285756e-01
-3.422539860861820715e-01
-4.319138601028907343e-01
-6.401769865590514197e-01
-4.499127891629172149e-01
1.959843707696957288e-02
3.418600582821554323e-01
3.352189997264982124e-01
1.764770217373041739e-01
9.773182734195215438e-02
1.264717795519203491e-01
1.479124017261093382e-01
1.133358923853950706e-01
9.208186445086342931e-02
1.430772197779240917e-01
2.235133258615268903e-01
2.525734389243110556e-01
2.168895446527356607e-01
1.772649046798807082e-01
1.870754429237578842e-01
2.365849068963356838e-01
2.822879578220531815e-01
3.014050934798729320e-01
3.019523336335143138e-01
2.964141044141360148e-01
2.857625036642672534e-01
2.737539628590812124e-01
2.733835374955298492e-01
2.726977128073875822e-01
2.158855377227239802e-01
6.794216709959913225e-02
-9.979685811503397064e-02
-1.479374665013094559e-01
-2.234764939104575895e-02
1.803838935293832768e-01
3.247989696716408470e-01
3.598280024409138966e-01
3.155911507881279388e-01
2.426436185609057439e-01
1.856579374816913763e-01
1.721270508264144128e-01
1.941046872782102584e-01
2.201966769040825389e-01
2.329711973500447619e-01
2.349920830729664012e-01
2.272954815987072441e-01
2.114308562606694586e-01
2.114068333334373773e-01
2.715907100351958037e-01
3.988160384494487953e-01
4.364925758163107905e-01
2.663560550336922447e-02
-1.018718952113670806e+00
-2.165224835427108641e+00
-2.427000070273424903e+00
-1.554897584591462323e+00
-4.693310178463672711e-01
-1.113444775111634005e-01
-3.930578033027459228e-01
-6.342702522983334479e-01
-5.121630183952531334e-01
-2.248197048896879713e-01
-4.100268216138135829e-02
3.557215399323243599e-03
3.305932263126946935e-02
1.243989400178351079e-01
2.356594368890134461e-01
3.012571377817203633e-01
3.144432999883250979e-01
3.001809354513588768e-01
2.745121707286342083e-01
2.520168816240109244e-01
2.443641133866076287e-01
2.427712226858259048e-01
2.377584171089452136e-01
2.454029915797529549e-01
2.775533153924273355e-01
3.061481493302404822e-01
2.934500997091314400e-01
2.424172784021242366e-01
1.950526552416511905e-01
1.922321406418991130e-01
2.431397506323942914e-01
3.225479866252937700e-01
3.879276289511217612e-01
3.973893489434268678e-01
3.246320610947139307e-01
1.926728928513022909e-01
9.414827478878204370e-02
1.110943657752220537e-01
2.028257028983899979e-01
2.534056837917446625e-01
2.267856522366867855e-01
1.902521042041322719e-01
2.006882402995339709e-01
2.513711530632937174e-01
3.232443100427510596e-01
3.921327846644133142e-01
3.509462905413619493e-01
5.892285299677142013e-02
-4.025274587838701401e-01
-6.776141901993165684e-01
-5.366188561174141114e-01
-1.432471855700497287e-01
2.415508614747327309e-01
5.057540395563858704e-01
4.479144971255998864e-01
-2.725965790061244398e-01
-1.536470797455292248e+00
-2.437928636984106667e+00
-2.167625275774751170e+00
-1.091566494707518542e+00
-3.173263172720643954e-01
-3.057410830440387972e-01
-5.483023003968711118e-01
-4.866458426242054602e-01
-1.402618744412883478e-01
1.688602322589629612e-01
2.784293635672558942e-01
2.563236764371398246e-01
2.175947492340186418e-01
2.094699801050161070e-01
2.254595872304344106e-01
2.469267899192758298e-01
2.636167824805190074e-01
2.795028379882436020e-01
3.032377246031511819e-01
3.301935849661001288e-01
3.400299104952001494e-01
3.150079690337099780e-01
2.573810491855279547e-01
1.907967431144304560e-01
1.473444881748512680e-01
1.468195257595349690e-01
1.839949648383538416e-01
2.380778388431404602e-01
2.913900118017556107e-01
3.358083701790403608e-01
3.630658755096961010e-01
3.447614306324501277e-01
2.332175864233144713e-01
2.343005320857990612e-02
-1.814717917085608700e-01
-2.314725769606361949e-01
-8.712772662678926194e-02
1.354870767364755868e-01
2.951793273744846013e-01
3.482958798983208371e-01
3.327952426450742074e-01
2.920290564309478976e-01
2.469924958295736384e-01
2.086593364062139799e-01
1.804256078502780858e-01
1.606201513951335813e-01
1.597974698623799150e-01
1.910580523508013662e-01
2.299227116738806753e-01
2.230425810922438690e-01
1.711288861608933343e-01
1.736831119408741575e-01
2.997719038351116527e-01
3.519372550460979632e-01
-1.070737206032027766e-01
-1.203832840242585078e+00
-2.245502830890262036e+00
-2.262163273235085370e+00
-1.241726854177363615e+00
-2.443559302193631100e-01
-6.482351115631984628e-02
-4.109430917003728534e-01
-5.914633347031901245e-01
-4.020182076360486745e-01
-1.021216392350569602e-01
7.604255540111620748e-02
1.415930119276911370e-01
2.043333754972088689e-01
2.966238418935929766e-01
3.610581687418853991e-01
3.496653600867516420e-01
2.854720204366635317e-01
2.306903565792327304e-01
2.171747185895248899e-01
2.226917868962970393e-01
2.171577530036381543e-01
2.085119171226711143e-01
2.242835952159429602e-01
2.707447465098711259e-01
3.274323850221159127e-01
3.596521273538447749e-01
3.334735026370561628e-01
2.513825006921527327e-01
1.766057720319902657e-01
1.856183682655220823e-01
2.767931449187998050e-01
3.493062112543501296e-01
3.012206004058674558e-01
1.389838836050720228e-01
-2.717484457488354016e-02
-8.345550036103638325e-02
-4.925118751650341825e-03
1.335557620885383656e-01
2.337271201177235913e-01
2.573702065376554105e-01
2.311550103433027414e-01
1.939084199777900142e-01
1.591767355530239458e-01
1.213439261274870395e-01
8.439216916852135264e-02
6.840912162431718457e-02
8.551992595966964594e-02
1.232061623406788126e-01
1.477688386347303096e-01
1.281756946534024777e-01
8.536040647816861560e-02
1.069796977173202018e-01
2.387008696210705383e-01
3.076535505561840411e-01
-5.597103429199161428e-02
-1.004162605373403405e+00
-2.026600102864134723e+00
-2.255101309485577410e+00
-1.476221701230078676e+00
-4.989898263603672612e-01
-1.796715766780246915e-01
-4.581150403202348675e-01
-6.854025435289661239e-01
-5.141671640846148250e-01
-1.253570314172305633e-01
1.770421539513917231e-01
2.906986933225079728e-01
2.871099532494705286e-01
2.527199397423539606e-01
2.183902546511166665e-01
1.848194016634171766e-01
1.610254126519963247e-01
1.665247512264707574e-01
2.063767503136374470e-01
2.622184708711345902e-01
3.101533331236837610e-01
3.320648311523167751e-01
3.163098279181555395e-01
2.700363167447254464e-01
2.252692440649132766e-01
2.120107818883644468e-01
2.248439640868697131e-01
2.299275442057943653e-01
2.107838639161242755e-01
1.973969312259540587e-01
2.342485619104815175e-01
3.126052117610255143e-01
3.455159688678817731e-01
2.418694542024263372e-01
2.392489033176488714e-02
-1.638175221768817524e-01
-1.952792053803636685e-01
-8.050028571936024280e-02
7.884169414084886418e-02
2.037435324246286705e-01
2.756915978769148290e-01
3.036677976634798992e-01
3.002219961156249450e-01
2.793822064470831701e-01
2.486156334647643962e-01
2.056241061296492645e-01
1.592887329764259008e-01
1.366414981717875843e-01
1.431774609074869808e-01
1.413045685701781740e-01
1.123691605426315743e-01
1.251564904995814131e-01
2.639317194371380015e-01
4.207293306351624906e-01
2.238514695711173452e-01
-6.042031650392882813e-01
-1.709606512460275507e+00
-2.217201442019657076e+00
-1.689702028762827934e+00
-7.212841892336506744e-01
-2.047373020937117150e-01
-2.923739693153074026e-01
-4.690072667734715428e-01
-3.668468820292453136e-01
-9.913822096736581158e-02
7.801290561105730936e-02
1.045556132802936966e-01
8.692906750491524726e-02
1.089385638604104256e-01
1.635478429520228205e-01
2.148654314950944610e-01
2.517033258561978681e-01
2.752331962690063305e-01
2.768320624551575126e-01
2.535096269366298172e-01
2.267410931798637952e-01
2.235605814547219072e-01
2.444420403946621356e-01
2.646612646168693406e-01
2.695688557852634615e-01
2.732098049681779273e-01
2.922582898037411336e-01
3.175664125288330530e-01
3.254690285417478623e-01
3.106378200049621507e-01
2.956707555128762488e-01
2.961674173568224488e-01
2.787034876885834955e-01
1.845430818418107022e-01
1.760915567956699082e-02
-1.163769778890325346e-01
-9.748638198122100418e-02
7.957303371088364496e-02
2.872752772234672403e-01
3.858805561735129119e-01
3.506554895212816159e-01
2.675498543772734661e-01
2.198952103504894229e-01
2.151232305528081312e-01
2.203197421711815263e-01
2.234214925059027634e-01
2.408318439292360669e-01
2.863572248321798464e-01
3.407840243020048843e-01
3.529378436118325579e-01
2.915038311480346311e-01
2.083764339032601332e-01
2.191060986292895918e-01
3.410913301020396249e-01
3.149994279571093903e-01
-2.499702316800656021e-01
-1.310796301541004016e+00
-2.099111127061406012e+00
-1.858066589381676570e+00
-8.636820347287591515e-01
-1.537505557760826813e-01
-2.265484336166704860e-01
-6.040419833751632384e-01
-6.763769388272216077e-01
-3.982570844792628351e-01
-8.000008573710767901e-02
9.260036091292014881e-02
1.648524530799002630e-01
2.211559173348432716e-01
2.572622631113780645e-01
2.403502029827997710e-01
1.941193622892240789e-01
1.664468033037100336e-01
1.585893173379678278e-01
1.424649967959436825e-01
1.197093237619275691e-01
1.176384753761899049e-01
1.455348907965375860e-01
1.857101089924814430e-01
2.140894014550874525e-01
2.134045730720557921e-01
1.800316936117221378e-01
1.273674844766154446e-01
7.804506330935925829e-02
5.726072007856573137e-02
8.754329060441543020e-02
1.632091376011041706e-01
2.248705049703601244e-01
1.897949061767061907e-01
3.783075204173322326e-02
-1.380338809741787076e-01
-2.030238317131990988e-01
-1.164837208133859270e-01
3.006390721891875895e-02
1.192683741350270832e-01
1.232886014404293989e-01
1.039242873614742574e-01
1.277214643983327902e-01
1.986655105967013446e-01
2.574510002318071700e-01
2.353464596756700278e-01
1.298833414311920398e-01
4.417660380617263044e-02
1.078913338816608336e-01
3.001257874624491673e-01
4.122268954145871245e-01
3.037155323213444613e-01
1.324387231800953357e-01
1.592077458465233630e-01
3.019171983560184347e-01
4.923055786231745473e-02
-9.319719736612311900e-01
-2.097429554094815352e+00
-2.400512357214193759e+00
-1.593172474153677243e+00
-5.932470751246730067e-01
-2.685501604983300816e-01
-4.755914996370345649e-01
-5.836588428265809814e-01
-3.634840542698076216e-01
-4.443727807233244925e-02
1.403711556877547395e-01
1.805531662625942946e-01
1.798529680472157333e-01
1.960231243936349510e-01
2.112534269826719935e-01
2.062654461211260448e-01
2.107189783523852888e-01
2.635873712783932676e-01
3.517957239096901056e-01
4.184559057487643452e-01
4.228937469911535074e-01
3.711225442918323347e-01
2.985852308555836387e-01
2.462386226438091352e-01
2.438417585453279135e-01
2.853356963882757169e-01
3.118146287564694252e-01
2.569647455340406395e-01
1.488296721471577266e-01
1.203497261714321781e-01
2.469397484538988496e-01
4.160958067392302451e-01
4.330354916258751241e-01
2.311432464581617552e-01
-6.079309319211913254e-02
-2.417320785390549565e-01
-2.064100124735097352e-01
-1.953121741274044254e-03
2.387342851444208269e-01
3.910670795450406634e-01
3.967550472769337810e-01
2.779840965133004160e-01
1.141950051379126557e-01
-3.588808280318945328e-03
-2.065441366214647301e-02
5.123661765083013797e-02
1.532678712046652292e-01
2.405595604739785009e-01
3.010712133332895668e-01
3.167484948936264977e-01
2.760692911671299155e-01
2.488721344721548934e-01
3.407103709192843555e-01
4.538914889584739765e-01
1.775129163485017203e-01
-7.919975886557651945e-01
-2.007427809450091249e+00
-2.444617279484237571e+00
-1.684202417001097407e+00
-5.349482554604159112e-01
-4.180927261045316867e-02
-2.894292906266814902e-01
-6.096753736718191208e-01
-5.570574228172477937e-01
-2.506576726099096764e-01
1.217178435835514216e-02
1.232064225441780875e-01
1.626068642135719555e-01
2.247786196926491731e-01
3.181807317608160157e-01
3.876020586339008478e-01
3.848525306060355256e-01
3.152473486899202149e-01
2.308461508682349006e-01
1.824504464355005129e-01
1.788412992738664664e-01
1.973239528806772780e-01
2.227127415173738856e-01
2.576862619082503914e-01
3.017703176424331168e-01
3.381279119724013849e-01
3.429968322873039877e-01
3.064262595005378675e-01
2.482295874421993898e-01
2.091087667372972525e-01
2.154363534851464201e-01
2.518654034206012637e-01
2.678215500326764364e-01
2.108748903537819019e-01
7.871070533799784386e-02
-4.316539151851229994e-02
-3.508421148068641138e-02
1.245231645414189708e-01
3.128179953987936801e-01
3.868959399788823306e-01
3.267314716811451913e-01
2.272517432832612816e-01
1.832590425313193883e-01
2.148187832039084866e-01
2.682196703703190188e-01
2.589949801156259390e-01
1.647395549727359854e-01
7.892837317652676155e-02
9.315604092982121553e-02
1.605828819615051362e-01
1.787686955271544087e-01
1.635485596956025578e-01
2.330191854319907108e-01
3.910276839643580526e-01
3.622020394247933983e-01
-2.179841838456945680e-01
-1.267551981536628292e+00
-2.037349006760662107e+00
-1.832654025221617022e+00
-9.360682439733756244e-01
-3.099639753988688851e-01
-3.886504913189194332e-01
-7.044175643949011079e-01
-6.864332311701543121e-01
-3.118153864138418219e-01
8.249507177660647672e-02
2.659485882715938443e-01
2.672274620863970274e-01
2.251303625823382892e-01
2.163254865819593808e-01
2.210059557185880263e-01
1.966750745251502897e-01
1.486015249751268530e-01
1.271815473556202059e-01
1.713395295586334355e-01
2.640301828553099917e-01
3.429896040513569222e-01
3.539007116109013085e-01
2.942113921765521223e-01
2.097059707560188224e-01
1.521585684830699670e-01
1.388555078452686775e-01
1.517323675942989780e-01
1.686349117189453461e-01
1.873836097487294183e-01
2.232792485318579878e-01
2.792233526741343397e-01
3.094430409791542047e-01
2.353394829703600866e-01
3.400711680135059395e-02
-1.952355203245292325e-01
-2.988383440921012490e-01
-2.183452107840648526e-01
-3.951092579443122449e-02
1.123762439710943584e-01
1.886320624026958936e-01
2.209231607791927454e-01
2.462212785413696037e-01
2.576056781277986096e-01
2.279577092331907806e-01
1.646681392872706984e-01
1.197737998366410622e-01
1.327609815912776103e-01
1.770746002430044208e-01
1.887612344261836994e-01
1.451374040954080680e-01
1.033757063995855707e-01
1.631418041900801474e-01
3.451342929578608554e-01
4.335874079771070422e-01
2.427832347548654346e-02
-1.016041252879198220e+00
-2.098942423365376619e+00
-2.313647441701024210e+00
-1.504762924029152682e+00
-5.363513684468040887e-01
-2.155353933455239901e-01
-4.239176883928995609e-01
-5.667721033977333178e-01
-3.960974750094118924e-01
-1.032621411087482205e-01
8.485133628768053160e-02
1.360535065253186404e-01
1.398750104320259924e-01
1.686422107891043243e-01
2.262974788685842842e-01
2.711953373986898952e-01
2.655225321260717974e-01
2.173327085809777792e-01
1.731201079326581405e-01
1.649467925391799872e-01
1.804283446173273742e-01
1.900491129468849238e-01
1.871533705169391437e-01
1.916004396159486922e-01
2.205121181289974308e-01
2.613057543559582641e-01
2.794199671009777175e-01
2.598744662208634648e-01
2.335517378908839869e-01
2.441465735592276975e-01
2.919254472655496979e-01
3.279925755545701205e-01
2.988459354966609971e-01
1.882783888339951139e-01
3.394157018725966340e-02
-8.473279802046651543e-02
-8.942258652915108241e-02
3.626428219916513068e-02
2.140326788865454799e-01
3.265270230395527218e-01
3.235008922394293496e-01
2.522421251325533964e-01
1.911560142362196957e-01
1.841965223271798957e-01
2.276102056895720482e-01
2.877290863463902726e-01
3.285149046978436682e-01
3.350923033682504659e-01
3.100445562547619049e-01
2.494862914161828094e-01
1.577892446353008626e-01
1.028859919664842498e-01
1.810981142990670811e-01
3.187888738371597586e-01
1.525863583529557810e-01
-6.378126469353491146e-01
-1.730088127576212553e+00
-2.217524098489348727e+00
-1.639439805094659697e+00
-6.463254661301649495e-01
-1.871834753735810708e-01
-3.746268573103348487e-01
-6.105101059963103927e-01
-4.908414208549089497e-01
-1.353858864905929937e-01
1.784222055497903803e-01
3.415719073568569408e-01
3.931037558206603721e-01
3.882380522340987405e-01
3.554027679848159038e-01
3.073799565918852728e-01
2.467283288114838768e-01
1.819056886793331274e-01
1.406524456156474367e-01
1.431719996381618787e-01
1.760894849306517407e-01
2.207938928095670439e-01
2.863239217123461633e-01
3.762334739098838199e-01
4.441788905839543777e-01
4.339912585653720734e-01
3.529244329609400599e-01
2.625125282449289887e-01
2.101008600323801823e-01
2.039476613974111896e-01
2.394370056643092548e-01
3.028148945967715777e-01
3.417704406615419410e-01
2.829894180144731930e-01
1.198195618084812175e-01
-5.004729790579130755e-02
-1.287413332201425287e-01
-1.337841686776291006e-01
-1.420551540503532384e-01
-1.522651645961944911e-01
-9.678593806384966358e-02
3.434324187655617838e-02
1.725327608674195046e-01
2.562768157500001642e-01
2.741568303839542198e-01
2.437335071406764309e-01
1.924301112840338113e-01
1.472796709487238509e-01
1.177294899286557145e-01
9.031864028328634442e-02
5.457954265576991232e-02
4.826756687094632681e-02
1.591993835946811098e-01
3.909539324244519776e-01
4.642764448376628383e-01
-7.508864234020631856e-02
-1.258693152080615052e+00
-2.297837951889484032e+00
-2.276508766677316498e+00
-1.301320573509326728e+00
-4.058048887616813039e-01
-2.431333727414960177e-01
-4.763356135219930509e-01
-5.099071189210746535e-01
-2.348381571980056315e-01
7.876162992632794457e-02
2.265245962695759674e-01
2.237244942220418809e-01
1.821984023808746744e-01
1.786822664858448984e-01
2.205734252040901511e-01
2.716222932186160843e-01
2.949182836262160268e-01
2.913097697754785109e-01
2.954714011531137663e-01
3.215970986178959823e-01
3.372063116413759332e-01
3.090991959157152746e-01
2.465012470430494040e-01
1.882552162304279020e-01
1.699149886988587654e-01
2.012574922842010339e-01
2.601648680472672392e-01
3.113508915609062289e-01
3.367940936018621878e-01
3.491098730784021886e-01
3.693177666855824715e-01
3.756364158569242551e-01
2.949739953065410036e-01
9.743783859664045810e-02
-1.155282086542805120e-01
-1.847070899781515230e-01
-6.033817966887733419e-02
1.486290044298312629e-01
2.950694846842225605e-01
3.249905407973178173e-01
2.846735647542107395e-01
2.395762160924032047e-01
2.072260301208161959e-01
1.588896858864549122e-01
8.340019764678355263e-02
3.397092539220866736e-02
7.532963300059343503e-02
1.842594629924665661e-01
2.481991316377900325e-01
1.881931202705116324e-01
6.516553654891840686e-02
3.994074755384478814e-02
1.973616516736060589e-01
3.527088045712644671e-01
6.268240126159631276e-02
-9.327801232552013211e-01
-2.134726181726218641e+00
-2.515813378457184335e+00
-1.704295444836206208e+00
-5.526757199019850519e-01
-8.577184442324288505e-02
-3.277145064279791131e-01
-5.948833727212289313e-01
-4.916202341101398865e-01
-1.794243897605991012e-01
6.311442673106602841e-02
1.677650375774182301e-01
2.083041860479568075e-01
2.359657859623835729e-01
2.544931998349672098e-01
2.681538245882575389e-01
2.826150236653426906e-01
2.822960600693201760e-01
2.501339903315787372e-01
2.005609167922704217e-01
1.652879811171810709e-01
1.558777686386659256e-01
1.652672712854711956e-01
1.920655885104715632e-01
2.323055751697851445e-01
2.622354663737048730e-01
2.600949177142788948e-01
2.329093102250669178e-01
2.034752634765558399e-01
1.872396883637423015e-01
1.967555055314693102e-01
2.437742607176575094e-01
3.032041807900723862e-01
2.993071155746508949e-01
1.894649393092189271e-01
5.066614285224641662e-02
5.460061832336586367e-03
6.661518918720790716e-02
1.373736664497678117e-01
1.556227248786101192e-01
1.523633275385708752e-01
1.728755787076919070e-01
2.147716908315572826e-01
2.538700308825700414e-01
2.804703005383977765e-01
2.891695576155767777e-01
2.654002251109513488e-01
2.087482139723504382e-01
1.465363409691125274e-01
9.741456608680439111e-02
4.976755597336596920e-02
1.983388865131326811e-02
9.244961558976702576e-02
2.850079591465998208e-01
3.343787509692974780e-01
-1.906055356298774761e-01
-1.306782748783587689e+00
-2.251182442302075870e+00
-2.164090559600921893e+00
-1.191882677367626764e+00
-3.616295809306375730e-01
-2.786053028510390162e-01
-5.454417616614877229e-01
-5.389498454630147206e-01
-1.828948734077880667e-01
1.904682574118138350e-01
3.461830424723797983e-01
3.131085394807714972e-01
2.207916694885751485e-01
1.521057260406504241e-01
1.350089123625238530e-01
1.697973394301158234e-01
2.320743697942075079e-01
2.881137467226362325e-01
3.246617098779718269e-01
3.494687007500415499e-01
3.650818404994945476e-01
3.594506215157419748e-01
3.250464450720300102e-01
2.766309677276884149e-01
2.431425691881307916e-01
2.442150017703803300e-01
2.739674010564349671e-01
3.009909780473765117e-01
2.934469798134528018e-01
2.598823945079177244e-01
2.462066366294750619e-01
2.635012639426482783e-01
2.442488520011474040e-01
1.212891580250103352e-01
-5.902683347041615819e-02
-1.574887283882053512e-01
-8.930673493190861845e-02
7.580187929485861231e-02
1.814701569382262680e-01
1.614294734647948315e-01
1.111105052544385241e-01
1.378295806217970931e-01
2.084334179138441767e-01
2.258231510290099886e-01
1.809260331549847056e-01
1.407777998787829443e-01
1.417440060432318127e-01
1.667839319285459865e-01
1.919456439910267043e-01
2.040510085752146041e-01
2.066349207340179572e-01
2.441904427964071700e-01
3.562968518739368928e-01
4.134662569058979997e-01
6.373300350076693821e-02
-8.934808462921793870e-01
-1.985696932592680986e+00
-2.300607391811884561e+00
-1.553611899676577979e+00
-5.406140653182219813e-01
-1.452396940126131075e-01
-3.216857970090080121e-01
-4.551105037929902841e-01
-2.802270838472096237e-01
-1.341777353568179149e-02
1.245979319930061585e-01
1.435665772983834576e-01
1.455370345012054478e-01
1.775919700129308110e-01
2.262448281979399234e-01
2.661682997314487875e-01
2.880687050830665896e-01
2.968219630104430573e-01
2.949151982966488617e-01
2.732530064090397115e-01
2.237406324229199994e-01
1.628624958324673133e-01
1.337720757256944115e-01
1.695321396040082029e-01
2.522762216349255238e-01
3.220815574239888068e-01
3.314464924373686783e-01
2.818832682869931161e-01
2.104861111989572986e-01
1.613887159653965564e-01
1.640594538544688230e-01
2.053667594930539686e-01
2.201627852831972154e-01
1.460704723648820480e-01
8.727516819177577601e-03
-7.627797550542134153e-02
-2.271299739819666180e-02
1.246653027313313344e-01
2.447615990667672270e-01
2.726962475789059814e-01
2.371203775148260917e-01
1.930096656968886271e-01
1.675298025193999174e-01
1.636582401086620064e-01
1.802941326750092943e-01
2.165853544795455499e-01
2.614092029782512094e-01
2.868469181756974073e-01
2.603774307139957167e-01
1.699959569179901320e-01
5.001359240906343845e-02
-8.962522373574815723e-03
8.290098170605324224e-02
2.572480500015001947e-01
1.857632307050998133e-01
-4.651942079815482578e-01
-1.499782282943671330e+00
-2.122497254738192840e+00
-1.774108321554424439e+00
-8.880453528371481386e-01
-3.634421935969598949e-01
-4.524055894530684130e-01
-6.590100961158332771e-01
-5.597862537299582719e-01
-2.304932347900132128e-01
6.014190338520569029e-02
2.016539696708002649e-01
2.444912090430326201e-01
2.483716265044252358e-01
2.261651374419084704e-01
1.915347329498192086e-01
1.785766245647995853e-01
1.948516344662705457e-01
2.074586551604268581e-01
2.002590893676623462e-01
2.038661579550172243e-01
2.476612261649842051e-01
3.125955423680328304e-01
3.506316074257079807e-01
3.350297454975418865e-01
2.756401664270385909e-01
1.972542796987774294e-01
1.284712021063407483e-01
1.065552966613423636e-01
1.635623368895026131e-01
2.956952625282120994e-01
4.450467338539427775e-01
5.103619778601625745e-01
4.043589571448612530e-01
1.450024312242949587e-01
-1.153797007856946499e-01
-2.042238167158207940e-01
-9.060569520563296897e-02
9.593172126711170533e-02
2.137589172901167012e-01
2.435514561930336164e-01
2.627144066056056881e-01
3.127261784755698826e-01
3.242256933588634205e-01
2.009013530126138591e-01
-2.055090273446909602e-02
-1.625194042810725881e-01
-1.088305262259499639e-01
6.598981457870559120e-02
2.178375181117383763e-01
2.827144770017074316e-01
2.860793820844660384e-01
3.072664275546725943e-01
4.061273954677311893e-01
4.506925284925632491e-01
6.909047772916995789e-02
-9.500616584322363334e-01
-2.106538463194960631e+00
-2.437529540595651856e+00
-1.649384925499889132e+00
-5.789856790148656396e-01
-1.422774981514851600e-01
-3.036303529306453308e-01
-4.457323591632731952e-01
-2.726155374643955964e-01
2.440529056698538188e-02
1.945652758003286464e-01
2.033174435824031678e-01
1.596349125302004568e-01
1.547320039041228668e-01
2.032074815676201407e-01
2.734081584236132123e-01
3.309073894196716270e-01
3.585362971409001287e-01
3.568994236790403174e-01
3.359568378366213359e-01
3.043899837629558958e-01
2.647445002960657212e-01
2.198974208295045585e-01
1.844522991686356750e-01
1.806190011998727862e-01
2.136729033639757636e-01
2.601856674240753398e-01
2.917493760916529677e-01
3.016549035794680589e-01
3.000440743445794145e-01
2.935387331880155992e-01
2.711762812382322863e-01
2.014637120635950351e-01
6.053378246099931637e-02
-1.177204981656096300e-01
-2.398942625190668976e-01
-2.269539482271946407e-01
-8.700457904978389778e-02
9.293648512652509519e-02
2.232013907523973661e-01
2.766651041491577367e-01
2.811620576531499993e-01
2.595408593289063592e-01
2.032010082638451010e-01
1.157884316743945791e-01
5.141523294168664354e-02
7.038376644341741428e-02
1.625699710805239007e-01
2.429510350789897688e-01
2.266601870845919020e-01
1.097177975187441507e-01
-5.617480871865978935e-03
2.267865815926174700e-02
2.073718495564429165e-01
2.689870596174547823e-01
-2.307585522204824435e-01
-1.328212349766505262e+00
-2.273862505536435652e+00
-2.178804592202840062e+00
-1.155647630666519765e+00
-2.624191052966157733e-01
-1.830901070799144936e-01
-5.558594670974333907e-01
-6.976699875035320408e-01
-4.279704000155113985e-01
-3.668891870119624088e-02
1.874437496048708407e-01
2.162750148072879464e-01
2.030061883708722259e-01
2.704367989930767102e-01
3.929758306369516840e-01
4.565192014226243655e-01
4.019367373770399987e-01
2.883384414549735597e-01
2.168994273185966826e-01
2.250389002351384227e-01
2.732685670825814039e-01
3.078208473844965543e-01
3.138890338354894949e-01
3.134596542206131153e-01
3.168641540302271631e-01
2.967937427773092995e-01
2.348548238803408461e-01
1.661569142667981835e-01
1.415452514313424170e-01
1.713211736971410049e-01
2.289425548242865482e-01
2.748761868622661697e-01
2.604074048390684348e-01
1.579048088766175084e-01
1.673430760877147455e-02
-5.891338216605214451e-02
-2.071168149380451726e-02
7.456846896524736701e-02
1.465098261155701465e-01
1.779964185919650221e-01
2.004303869548148820e-01
2.356568202936843437e-01
2.790936536315969940e-01
3.096751249472496359e-01
3.012750083845091575e-01
2.516005199711791596e-01
2.018658209406867521e-01
1.971061170060258438e-01
2.255839241071116441e-01
2.260051027407092850e-01
1.673696258830863481e-01
1.160057781468339794e-01
1.946607555893791197e-01
3.929870171039153148e-01
3.863994976134562109e-01
-2.651067274007258279e-01
-1.490851503123799660e+00
-2.436374407817173182e+00
-2.275730293046610342e+00
-1.264851214149671277e+00
-4.469213796207628930e-01
-3.459783682230911928e-01
-5.427264272707522652e-01
-4.884077901481873041e-01
-1.595940315489792205e-01
1.380997692630217821e-01
2.212575828968218750e-01
1.530375071846531987e-01
8.310728117321794506e-02
8.888923023001335522e-02
1.553405078674038042e-01
2.382012500835972713e-01
3.070571950687548957e-01
3.455841578038810757e-01
3.487010576779916438e-01
3.231129476734379002e-01
2.752281560357165979e-01
2.049686392640914789e-01
1.262552249733434606e-01
8.879416815139212771e-02
1.494403002736349462e-01
2.941514339477606099e-01
4.134951350079801302e-01
4.078819674957820940e-01
3.087113505295709381e-01
2.413342245757578164e-01
2.625743243904789526e-01
2.849915490882032332e-01
1.881005230928074201e-01
-2.656440024414921663e-02
-2.229253664033054305e-01
-2.603557027099156485e-01
-1.099025701431809582e-01
1.447039059161872865e-01
3.731367176214653858e-01
4.694447846083835141e-01
4.169163479083506929e-01
2.912141093013383975e-01
1.810732958670581705e-01
1.366658976385481117e-01
1.790373978391310850e-01
2.777275502016352537e-01
3.431076150367189936e-01
3.267331483731392705e-01
2.777240508065945690e-01
2.364803008852608968e-01
1.772841378570301218e-01
1.216430495021113001e-01
1.642396901511303520e-01
2.461275124043318663e-01
6.386573512154540555e-03
-8.471734092036067310e-01
-1.921854785408902089e+00
-2.282199370412735462e+00
-1.550527262514524551e+00
-4.871275777229214787e-01
-4.913223573277193668e-02
-2.804901619586919193e-01
-5.528723598144006379e-01
-4.850420075111154250e-01
-2.011876234712329237e-01
4.715300455685421388e-02
1.616131438880573090e-01
1.766141833454134280e-01
1.655802750936158363e-01
2.026301846763666203e-01
3.332140468008766288e-01
5.080319577328245018e-01
5.764334583154203662e-01
4.408451265523289919e-01
2.006449793105656298e-01
4.976080026612531015e-02
6.349888247996234025e-02
1.665837982676576789e-01
2.629160508538474494e-01
3.118809135252986753e-01
3.011636212202463692e-01
2.282714035727944901e-01
1.266644643824788585e-01
5.762105421609625688e-02
5.876445316734744961e-02
1.251611783630248165e-01
2.203267019479232813e-01
2.685781060660758501e-01
1.803543054107138444e-01
-3.649970937241622804e-02
-2.163780423692285293e-01
-1.845213894388491316e-01
3.680713796305853241e-02
2.514538872847303930e-01
3.095139629665427661e-01
2.375790919191556050e-01
1.603194941528299222e-01
1.554253241005721931e-01
2.045608007025059294e-01
2.505822534059271578e-01
2.620957185227459352e-01
2.398976963131524975e-01
1.922890566391740053e-01
1.287511867642876784e-01
7.395971397294982819e-02
6.767686467411013207e-02
1.379603928087966280e-01
2.813197028187019999e-01
4.355502751656384341e-01
3.944306547644110261e-01
-1.480706789633134401e-01
-1.179994489226264598e+00
-2.037260380295411455e+00
-1.958416830882806936e+00
-1.073005669226640757e+00
-3.199317265496034457e-01
-2.609502268979229100e-01
-5.255297947011796644e-01
-5.351454874207941526e-01
-2.310290050070610834e-01
7.551990115383759583e-02
1.868589954383193252e-01
1.550534205000014820e-01
1.052948944150560728e-01
8.998366609380592518e-02
1.032319507555717053e-01
1.438517875692985337e-01
2.125511281781149453e-01
2.778350611664577863e-01
2.994452130920385868e-01
2.808379882884524115e-01
2.599123215432960765e-01
2.556111449692693993e-01
2.513495116670278473e-01
2.240347432426720575e-01
1.756383002540362059e-01
1.359787977599633546e-01
1.313528877603399037e-01
1.587724293484627791e-01
2.053743705919828522e-01
2.712625883324143450e-01
3.437795501447271640e-01
3.689944830760689687e-01
2.853182966087994266e-01
9.357160148588977711e-02
-1.138188117598557675e-01
-2.088666435914478814e-01
-1.352160627309177410e-01
4.075807389145834347e-02
2.026466276492564500e-01
2.929798650815742533e-01
3.262598018550510459e-01
3.246497096948360861e-01
2.857939029681246246e-01
2.082431505499552638e-01
1.215388325307364542e-01
7.830807232607504831e-02
1.112779472000987591e-01
1.989481260846150401e-01
2.752534117675114467e-01
2.757730882114531323e-01
2.004115219671155634e-01
1.531688293373595355e-01
2.583348631633989867e-01
4.221147176988997440e-01
2.177997512470447039e-01
-7.083493007960558474e-01
-1.961530334776717455e+00
-2.502583328005725249e+00
-1.826804558900235964e+00
-6.810879354993376600e-01
-1.291714885627631704e-01
-3.006452099613552975e-01
-5.527195240911986218e-01
-4.699690868740543093e-01
-1.932968265551757159e-01
2.581261511154703606e-02
1.610355282335321492e-01
2.881556876074002349e-01
3.896600021714765605e-01
4.013379890379783488e-01
3.394629812103048261e-01
2.755322586365306359e-01
2.388736885631611573e-01
2.115865047223918771e-01
1.823669234785757487e-01
1.597259308790889287e-01
1.500387758552481077e-01
1.518486308965795728e-01
1.670940272962672390e-01
2.032974282446682324e-01
2.630798309974536897e-01
3.278719804460396570e-01
3.566723670294738024e-01
3.248938435843921058e-01
2.655007444680026474e-01
2.412374179325129930e-01
2.671469528655601167e-01
2.820209595906080779e-01
2.110369909440483749e-01
5.956172004279073479e-02
-6.479588118493562199e-02
-5.496305708943220736e-02
6.676875525679969170e-02
1.698198517131243590e-01
1.732917761956806468e-01
1.221054970106283527e-01
9.587696471735228376e-02
1.171366077067562544e-01
1.670976683699446630e-01
2.181307320065113409e-01
2.366728747695704127e-01
2.158164594848505646e-01
2.047043788750822768e-01
2.485983034071718167e-01
3.006262390097099724e-01
2.590793022937640799e-01
1.279641762998771914e-01
7.647092346829442722e-02
2.217472166419568458e-01
3.231851933633537732e-01
-1.319305058527437124e-01
-1.272011454459105240e+00
-2.338585822063599107e+00
-2.332879005482532353e+00
-1.286869976576207719e+00
-3.022389207427018665e-01
-1.511928962837585377e-01
-4.866186118905521107e-01
-6.023645762200878773e-01
-3.356789311817204302e-01
1.551533214148650974e-02
2.233656839017879314e-01
3.000207959055133933e-01
3.225293571234353895e-01
3.077984488598309309e-01
2.493042718674748359e-01
1.765846628492211134e-01
1.516405185363004782e-01
2.152436969039602799e-01
3.308512833252711949e-01
4.058098163745880171e-01
3.948741754716847963e-01
3.440456137974108319e-01
3.090640622523015968e-01
2.877400956347413441e-01
2.538389923135894732e-01
2.025485518925586037e-01
1.461724516590556799e-01
1.031037613402887160e-01
9.986739020793149180e-02
1.591794904261640831e-01
2.696966838598644500e-01
3.651601395357865210e-01
3.496894979980139095e-01
1.767687172594152867e-01
-8.527830743019648718e-02
-2.853320601645685795e-01
-3.048700882535628209e-01
-1.509998802941212304e-01
5.909410461257415259e-02
2.054062261773368925e-01
2.578859047858804154e-01
2.673898415003754803e-01
2.813011213657672371e-01
2.895190422904279082e-01
2.554359650769894019e-01
1.775429252922071099e-01
1.026626472676210045e-01
7.852119211997729553e-02
1.003434376836327274e-01
1.182703524924747784e-01
1.131237821223533557e-01
1.534190764502226245e-01
3.150095931216804201e-01
4.667521926011534705e-01
1.898762530372545831e-01
-8.158975269237634942e-01
-2.095196766145306810e+00
-2.595186904238301118e+00
-1.859992454624622038e+00
-6.857795085838741533e-01
-1.291175531641090557e-01
-2.893708954025510094e-01
-5.181524873914686857e-01
-4.052743197583888457e-01
-1.000969448855255628e-01
1.051360235123957043e-01
1.405547210247171108e-01
1.235091341811508370e-01
1.533078514361478073e-01
2.259343077940694777e-01
3.032682139102588770e-01
3.775790484403030445e-01
4.382850945091115724e-01
4.353403026834033462e-01
3.388421946241705895e-01
2.096334042233625183e-01
1.467390346922324285e-01
1.740924033394611603e-01
2.326465185486388809e-01
2.704036975183272684e-01
2.888514974626034126e-01
3.122918505019164903e-01
3.506008061991892077e-01
3.799778195376941059e-01
3.424034929187542708e-01
2.002747824523460618e-01
1.159428014609155747e-02
-1.090851857410045089e-01
-1.304056287169028661e-01
-1.198472408998587507e-01
-1.019651084448178757e-01
-1.881334422458785099e-02
1.415384206243521514e-01
2.879212099988607276e-01
3.347349498766344356e-01
2.948913039435985817e-01
2.349472965203341090e-01
1.957740891428658148e-01
1.876646009099083301e-01
2.122923468711525041e-01
2.583925557512176119e-01
3.064908206339884700e-01
3.454146628885081394e-01
3.632061757981619454e-01
3.350969432527026726e-01
2.529229529266353582e-01
1.730681325552653749e-01
1.909880169608621781e-01
2.806270864465446602e-01
1.558786888779614965e-01
-5.027179461194980492e-01
-1.500431341914955530e+00
-2.053789625011338771e+00
-1.658148031315346715e+00
-8.135231694176223716e-01
-3.973562584823214783e-01
-5.604835149910540881e-01
-7.546981711907652102e-01
-5.995256160935886758e-01
-2.346094483882690818e-01
5.484616179812370346e-02
1.908321430673875496e-01
2.607370525985788223e-01
3.259735756641644611e-01
3.642103688083989654e-01
3.432324245070794699e-01
2.756998765211328695e-01
2.005747041089729621e-01
1.582554480810403619e-01
1.787356682185550216e-01
2.523909224064088130e-01
3.276116396932578501e-01
3.645431288626386213e-01
3.601838721906580054e-01
3.162693286001862503e-01
2.435371745429941170e-01
1.888658930688916493e-01
1.820834417960029983e-01
1.826720771173335478e-01
1.493959333564723879e-01
1.176048898711588020e-01
1.449477174617871955e-01
2.127850864533311903e-01
2.296844198152603878e-01
1.351450785573006796e-01
-1.500312906825364279e-02
-8.481257742210326911e-02
5.691734903417594582e-04
1.642432632789329050e-01
2.647665900192997523e-01
2.571533592914900246e-01
2.185161688086021958e-01
2.295822414414606660e-01
2.873637221431294408e-01
3.376647501064682366e-01
3.475744671368249383e-01
3.243626639364594055e-01
2.863916497563410712e-01
2.406160407308553795e-01
1.874605634069075322e-01
1.449019640438129752e-01
1.738002277023661668e-01
3.318085401733836259e-01
4.954521922709760884e-01
2.668624966022043465e-01
-6.641887011934412000e-01
-1.939202742288070436e+00
-2.612909480123393635e+00
-2.108291700764534760e+00
-9.437356952987142611e-01
-1.912419962008022611e-01
-2.669362430379823570e-01
-6.282783163463294684e-01
-6.429344875751451527e-01
-2.941753207753279864e-01
5.225115530153676829e-02
1.850170730524404727e-01
1.753579881524920392e-01
1.589900278870832184e-01
1.623472783460713220e-01
1.388033960788706556e-01
9.323424884378636590e-02
1.079408869455016906e-01
2.351462478319585880e-01
3.999972003492651140e-01
4.599051045729717346e-01
3.671382252461398710e-01
2.188273314576373307e-01
1.264912636243675781e-01
1.016718626867632730e-01
9.756755875085652840e-02
9.841650429266163291e-02
1.261115436490359565e-01
1.904584852274884277e-01
2.700533254405295125e-01
3.361588267186479406e-01
3.684640272928590976e-01
3.428263640446769234e-01
2.320585613776050549e-01
5.619902081385301507e-02
-7.789910685886770880e-02
-5.448268552420534871e-02
1.160678084950789307e-01
3.014736865461900561e-01
3.961056473722459614e-01
4.123298138800374213e-01
4.211484662922355682e-01
4.422054529306692627e-01
4.229379508024930234e-01
3.310500549949442206e-01
2.191138194780339610e-01
1.598088328950136028e-01
1.653970253702251036e-01
2.033844046998679878e-01
2.392144581784597379e-01
2.452701191182982965e-01
