-1.028733826768709753e-01
-5.240347023359715611e-02
-3.304117187366872183e-02
-8.946544145056618824e-02
-1.587856972372881648e-01
-1.578927352753067281e-01
-8.647138898020441389e-02
3.090370382333781224e-04
6.924698186628414076e-02
1.041702733156515126e-01
5.937751949724892619e-02
-8.740228405139764678e-02
-1.972957517413692352e-01
-1.614043089051548589e-03
5.485349487082018527e-01
1.032184389279687364e+00
9.600570279871725177e-01
4.104340477341988924e-01
-6.295278343770160934e-02
-1.190585990394265326e-01
7.794577306416874962e-02
2.003578726707804236e-01
1.312988060490238307e-01
-1.963992889374675810e-02
-1.136492045315163624e-01
-1.127687805005046645e-01
-5.894600150252762155e-02
-4.249493601445816782e-04
3.778820067623224477e-02
4.207064517220353295e-02
2.855639949083236574e-03
-7.215969655252256476e-02
-1.509470039845197398e-01
-2.082608127773053486e-01
-2.537832559024976731e-01
-2.898758093169968020e-01
-2.673443620571128165e-01
-1.448817485729569088e-01
3.498051600821315554e-02
1.799308730756084829e-01
2.256978315944467572e-01
1.627233942774062025e-01
3.069566942370910087e-02
-1.062764495845068408e-01
-2.033104887504272318e-01
-2.421012669101337833e-01
-1.938155000932141603e-01
-3.344048492492417146e-02
1.730512973488120276e-01
2.754412598147514268e-01
2.042153478884369822e-01
4.763046248310960629e-02
-8.549911200573880043e-02
-1.714150429412926724e-01
-2.116707276365489832e-01
-1.815785750879006788e-01
-7.593788525887376628e-02
5.147440542333549945e-02
1.215776358298148174e-01
8.824030600546176051e-02
-2.728321594728327915e-02
-1.052426101127472979e-01
3.492536752716356163e-02
4.034774879408140058e-01
6.774045469132040642e-01
5.340019836397097430e-01
1.195469486920328339e-01
-1.148177899531902246e-01
8.462787378209220279e-03
2.531816265972297031e-01
3.419994497662302013e-01
2.374971593731624031e-01
6.388863600585209523e-02
-7.772650536442991809e-02
-1.523458296435487858e-01
-1.450137196765573233e-01
-6.778534085482185167e-02
1.263550116671422960e-02
2.782512700096686012e-02
-1.649916496098153412e-02
-6.031384922307416602e-02
-6.880000948073626554e-02
-6.136065739120913354e-02
-7.715045749670323971e-02
-1.341448096295482229e-01
-2.116800639757435432e-01
-2.507573719651175481e-01
-1.818044771465768539e-01
6.595420382788187708e-03
2.163559055150333643e-01
3.018745617630473332e-01
2.177153151502663753e-01
6.723769513433611178e-02
-3.690198988409996994e-02
-9.947745343404180984e-02
-1.687695604427119356e-01
-2.170275513455455774e-01
-1.804425859151233269e-01
-6.733831514305468890e-02
4.150522786373528339e-02
8.070795819983211938e-02
4.629442225883112494e-02
-3.322932099585425292e-02
-1.286484188540887585e-01
-2.104870095593130985e-01
-2.458949337909912547e-01
-2.079468099363353528e-01
-1.028396290580873007e-01
-4.493272538689290635e-03
-2.545973829219018436e-02
-1.663455275927945842e-01
-1.853011106670575669e-01
2.058081663545196505e-01
8.760428531564906640e-01
1.228568855656636760e+00
8.822807603294319234e-01
1.865949524327354392e-01
-2.192417699480998239e-01
-1.381681143894457620e-01
1.381573210567351717e-01
3.031197619769858687e-01
3.014161467930100424e-01
2.108167703728222597e-01
7.428983892236785957e-02
-9.334721428422984579e-02
-2.317980118212178697e-01
-2.665793578082814586e-01
-2.021368932780756855e-01
-1.179521208530653481e-01
-7.443196657280329309e-02
-6.689689421564654070e-02
-6.121823828794245581e-02
-4.379595828528366069e-02
-3.977502190373034818e-02
-8.360321400761892841e-02
-1.640058051781054516e-01
-2.102072678922341231e-01
-1.551034307680428104e-01
-1.674527522711237448e-02
1.051171153512756307e-01
1.293138430687799934e-01
6.921533186017565786e-02
-5.030265854382702517e-03
-5.348518998874920993e-02
-9.523604461836758517e-02
-1.593045092962516174e-01
-2.274384019372297783e-01
-2.475805616367800222e-01
-1.978573536058226001e-01
-1.101957817833674746e-01
-3.587566590960043766e-02
-7.308113706320147965e-03
-2.123979378204607360e-02
-4.299660730247040902e-02
-4.019746285015265291e-02
-1.854785207823198348e-02
-8.129796829523191354e-03
-2.929574238076767395e-02
-9.357395535311402446e-02
-1.817357816307690888e-01
-1.701748906285810714e-01
1.042121366185013442e-01
5.586224466285589774e-01
7.902907995424692800e-01
5.353650218598440258e-01
5.299011987684443259e-02
-2.049535358322873146e-01
-1.336001394315692037e-01
3.270992894494491321e-02
9.510665651915148344e-02
5.862783521160915001e-02
9.259497285732899360e-03
-1.909106667719462705e-02
-4.057403198336235334e-02
-7.006324059354222811e-02
-1.197507072511152931e-01
-1.947107620897608193e-01
-2.639653889539937404e-01
-2.745380666504320111e-01
-2.127638736356149141e-01
-1.192811164069095542e-01
-3.771469778082892077e-02
1.511590603986042933e-02
2.859969611625044761e-02
-6.841070193869322816e-03
-7.275720915254850485e-02
-1.252999260810447879e-01
-1.413530294372826734e-01
-1.338765062558308627e-01
-1.121017382890201752e-01
-6.870855980544128550e-02
-1.386788583768137038e-02
1.772988862717744113e-02
-4.837063315025006902e-03
-8.251368329187580564e-02
-1.754059550576926307e-01
-2.341440622692125550e-01
-2.534082143883747973e-01
-2.608075757140456141e-01
-2.548482730006136898e-01
-2.062833452716358040e-01
-1.199271501932914069e-01
-4.548263817008551396e-02
-2.317047402131813816e-02
-4.630855309556083238e-02
-7.690247458192191188e-02
-9.025679199563368948e-02
-1.142030062901453757e-01
-2.043980841861382791e-01
-3.114560144952752130e-01
-2.001784803489354836e-01
2.880809920268203039e-01
8.525942676151099242e-01
9.465085039628835517e-01
4.781915144253540695e-01
-6.044522886713923904e-02
-2.408454844043623755e-01
-1.261075028385047481e-01
-7.482197140213482645e-03
-8.198182176038841529e-03
-4.263625988243825715e-02
-1.003721933387786633e-02
8.013418328594890117e-02
1.470384941638155363e-01
1.410321742049189531e-01
8.015209820261247342e-02
2.403412167337698122e-03
-7.741948463462465513e-02
-1.580371159332777942e-01
-2.235650365839927656e-01
-2.329499461716505460e-01
-1.536437829683478529e-01
-2.198765654274457623e-02
7.044910615054390812e-02
8.056322940987335757e-02
5.940293776521259062e-02
6.900455134358736420e-02
9.398962237266833553e-02
6.819580240022891926e-02
-2.834129276920674401e-02
-1.355411072703233133e-01
-1.764487843203611517e-01
-1.214870692857429463e-01
3.261487808972726027e-03
1.250806393644757486e-01
1.532046488864408085e-01
5.968173843294002912e-02
-7.845061609656805990e-02
-1.641535750002756922e-01
-1.764894308552840130e-01
-1.513494127715824533e-01
-1.144527439518433221e-01
-6.425946561548960545e-02
1.234538197315988156e-02
1.220059189470996258e-01
2.274360686811059962e-01
2.318507692915011409e-01
7.581436943578136189e-02
-1.158875315586111454e-01
-7.383764502376846672e-02
3.006897844938604680e-01
7.018703290187553456e-01
7.154929548103152737e-01
3.528964194141398503e-01
3.349327894189878946e-02
3.423963369709046023e-02
2.170598042394454030e-01
3.057316443149325491e-01
2.101398242041320197e-01
3.523201199772102443e-02
-8.668039740850913555e-02
-1.056814314862025428e-01
-6.167405083148865680e-02
-3.211022716586568737e-02
-5.802018620901775586e-02
-1.142999362113275852e-01
-1.569089513735452135e-01
-1.750792195776732230e-01
-1.825979235031849612e-01
-1.867355438368692999e-01
-1.841249400417151461e-01
-1.689221939313046150e-01
-1.346581622296608161e-01
-7.844787753532918295e-02
-3.689424751524656917e-03
8.509536819991649070e-02
1.696943604290070406e-01
1.966389703557119839e-01
1.142251093360682201e-01
-4.851040564098910851e-02
-1.823568967801086627e-01
-2.047903030387191181e-01
-1.415881709992379833e-01
-7.782449057324779262e-02
-5.097958669507712814e-02
-3.546844987001178395e-02
-2.044721538536534849e-02
-4.162100829714186073e-02
-1.199927752559934585e-01
-2.150924181253823786e-01
-2.643090913019218724e-01
-2.443847694176753405e-01
-1.757977028644075179e-01
-8.424024648738778764e-02
9.956681492384648891e-03
5.491938239925174547e-02
-2.712613248021641249e-02
-2.061830746823139493e-01
-2.289364496659548054e-01
1.656073104288128817e-01
8.046238966257156511e-01
1.110878829004407597e+00
7.873647586923523400e-01
2.134277563203715311e-01
-5.787472328954809675e-02
6.380277076424681337e-02
2.624020779880951171e-01
2.808191768249418407e-01
1.338675480873190438e-01
-2.957547461672275016e-02
-1.085005960069210518e-01
-9.595258341632859067e-02
-3.601127476141154082e-02
2.144055361042523922e-02
4.441363138909576458e-02
3.773007406556110749e-02
3.979241929061781008e-02
6.333573578857491782e-02
5.421962209046145981e-02
-3.799368976045276042e-02
-1.760545791621655753e-01
-2.708636197567183546e-01
-2.666706596057564771e-01
-1.643120086010480818e-01
-2.868751294506290128e-03
1.540508351957670108e-01
2.384752221704493913e-01
2.171456558346686605e-01
1.156371915964462538e-01
-9.467436321411752329e-03
-1.210236488026661256e-01
-2.091400575128360972e-01
-2.587039269900202609e-01
-2.446218222526906627e-01
-1.689273921457675187e-01
-7.627829086589339724e-02
-1.769000896995396796e-02
-1.090422936992566441e-02
-4.314749791773679621e-02
-9.308469565444910110e-02
-1.351311925572152017e-01
-1.453277504080791871e-01
-1.182006925502018246e-01
-6.488340527076293107e-02
-1.535471886423491264e-02
-2.913287472784743121e-02
-1.192257397485975839e-01
-1.323326415010859236e-01
1.410704149834034471e-01
6.103208917454328031e-01
8.320048549544026839e-01
5.481107957108184436e-01
7.079462599885334717e-02
-1.281134694137812113e-01
1.425501264751651703e-02
2.148493721359882869e-01
2.620219884750153438e-01
1.733052633837200707e-01
5.555656096386579756e-02
-3.674790146831270060e-02
-1.131180594859610422e-01
-1.886876934793541571e-01
-2.414072374207673621e-01
-2.309597827178349327e-01
-1.602379495780805185e-01
-9.311153769942774605e-02
-8.310326617022746609e-02
-1.078037629227383970e-01
-1.165440755562351521e-01
-1.171636040130164258e-01
-1.572766964455638572e-01
-2.306398119784325296e-01
-2.586014608291195005e-01
-1.793513636766612684e-01
-1.990304207270994497e-02
1.408795953113987642e-01
2.454149925983425407e-01
2.699384214246118296e-01
2.049725173029176839e-01
6.072008913821343168e-02
-1.163789366301863637e-01
-2.533101514814429800e-01
-2.975503533576880910e-01
-2.606952601996523344e-01
-1.985257916928987731e-01
-1.494674104151126059e-01
-1.130910203177147577e-01
-7.938578694506037703e-02
-5.401013805543784102e-02
-5.689303124147677970e-02
-1.034511754228486652e-01
-1.766749061339928650e-01
-2.219142136000676058e-01
-2.010722386096830960e-01
-1.625963413476350927e-01
-2.011594692366308335e-01
-2.727710625079223794e-01
-1.207921916769726239e-01
3.883586081629136211e-01
8.655999611760381018e-01
7.160838887831539878e-01
-4.481466712547900466e-02
-7.169814565329574174e-01
-7.671063671046960408e-01
-3.255510746626029128e-01
2.065032601121804534e-01
5.730247302814497345e-01
6.466612546261056860e-01
4.217049765434636721e-01
9.137695422228395148e-02
-1.070242430724368254e-01
-1.273470882012021355e-01
-9.630695511965578492e-02
-1.166708662166332650e-01
-1.629860893797673016e-01
-1.621894520103140391e-01
-1.152619600439439840e-01
-8.381667597948617987e-02
-8.857382750109489555e-02
-9.679003745689285232e-02
-9.580223656608295724e-02
-1.043300622461220406e-01
-1.129065551057145400e-01
-7.880698860970067332e-02
8.493185603175622614e-03
1.028226094383721673e-01
1.550447761758117493e-01
1.592238150102620597e-01
1.360005953962328262e-01
1.000309656305254369e-01
5.761130719496927038e-02
1.298307409626774274e-02
-3.693025938604031083e-02
-9.651684096871034069e-02
-1.499561969458713673e-01
-1.603608815011158262e-01
-1.030192821531532021e-01
3.171181148018450274e-04
8.433538065077079982e-02
9.051647359501514833e-02
2.856271643687528783e-02
-2.735946972813244060e-02
-3.360943250414812761e-02
-5.069062392821529345e-02
-1.513275480834830045e-01
-2.305151326678313572e-01
-2.522376705770055377e-02
5.167098341443692178e-01
9.808786357914862641e-01
8.957340405513873893e-01
3.611983861049269939e-01
-6.911451542610477783e-02
-8.938322940657535132e-02
1.006156827245698326e-01
1.864531434801266763e-01
1.025873007083918792e-01
-1.227648093482553750e-02
-4.621342043380363696e-02
-1.774453224881682514e-02
-1.829890461511742700e-03
-3.339538128104746484e-02
-9.998087135626870792e-02
-1.803148068749942934e-01
-2.546820516275225543e-01
-2.995872032269108476e-01
-3.006506617335051312e-01
-2.609218183498764887e-01
-1.903748700646607506e-01
-1.058012511583805715e-01
-3.579561648880408981e-02
1.278844981803989138e-03
2.039104162754526786e-02
4.636370209998828124e-02
7.242934712002939424e-02
6.795369647460750007e-02
2.557189333095418252e-02
-2.247798708936682432e-02
-3.664092122869421625e-02
-5.557594090580242861e-03
4.302224418957915908e-02
5.244382367474422629e-02
-2.135571259770636249e-02
-1.506164956562104917e-01
-2.434509686621264823e-01
-2.442425890498752250e-01
-1.917157328039070241e-01
-1.470876519966012042e-01
-1.163542121228847009e-01
-7.733118656839833849e-02
-2.951808702078102115e-02
1.878597502512860049e-02
6.317764185276272815e-02
6.036862091312603096e-02
-7.152815999834016836e-02
-3.088787996493954080e-01
-3.883811590202577713e-01
-6.025407459995954507e-03
7.241324548522504179e-01
1.211720364685936246e+00
1.000908545018900808e+00
2.893516067298989580e-01
-3.046393691411720117e-01
-3.706095071323022849e-01
-4.920425733855497696e-02
1.993249410663414933e-01
1.358628575004077466e-01
-5.639737873572137072e-02
-1.158323580566773120e-01
-3.176911297819545732e-02
4.947311945983161319e-02
6.172735437527550328e-02
3.969484745755112037e-02
2.628393232404446084e-03
-6.858465578703748511e-02
-1.687058861852220593e-01
-2.516251357957939860e-01
-2.717303752396512673e-01
-2.170375897650388686e-01
-1.111456341465223152e-01
4.333616770352481662e-03
9.446222144336603732e-02
1.482554041015715085e-01
1.727278033890504161e-01
1.679589359560998973e-01
1.172578651770664060e-01
1.248290756527400611e-02
-1.117173079707555750e-01
-1.786092193322160460e-01
-1.276432654503725228e-01
7.600441096051145651e-03
9.475650789495312920e-02
1.643748868223209383e-02
-1.903080065838341772e-01
-3.469777321716929208e-01
-3.294463553640821218e-01
-2.005109369471418657e-01
-1.023086373052550513e-01
-8.935163788968415732e-02
-1.092151981294938734e-01
-8.421879828993487915e-02
1.194429068297083937e-02
1.159405185702998414e-01
1.142343340343770497e-01
-1.513543660959884400e-02
-8.730201760015975088e-02
1.344178697075395224e-01
5.710806569644016895e-01
7.970129732256341359e-01
5.657804459051523072e-01
1.653344081119583475e-01
3.707168704055902042e-02
2.408708855758915635e-01
4.742963807682284427e-01
4.676384476509112820e-01
2.278196496178866437e-01
-4.115291633986090103e-02
-1.689113861446656928e-01
-1.576828583656168514e-01
-1.251586009250136855e-01
-1.455760223524613095e-01
-1.792577585500635673e-01
-1.592122220706977120e-01
-8.971074772507842132e-02
-2.961526523279832054e-02
-2.194244173464548683e-02
-6.349814867371721128e-02
-1.212912275492816910e-01
-1.634249958615830167e-01
-1.724370541550738489e-01
-1.371035823376146046e-01
-4.966084086034201067e-02
7.880697448824890150e-02
2.015919140117780062e-01
2.466584886821621692e-01
1.707101437267873056e-01
1.161537572849057759e-02
-1.393660964155091497e-01
-2.171116718808024926e-01
-2.091197299887738170e-01
-1.343088783593688884e-01
-4.211449426340863056e-02
-1.956351234882511281e-03
-4.152704865493228592e-02
-1.090409486540127038e-01
-1.370260520001254645e-01
-1.314582678667270965e-01
-1.535628122858033739e-01
-2.190850903686077100e-01
-2.622568265077712124e-01
-2.100380797731342120e-01
-7.072056066511583916e-02
4.902861895212069082e-02
2.503094152194244859e-02
-1.163577784845276769e-01
-1.188553698391664193e-01
2.293697646534532397e-01
6.961788917427363943e-01
7.719633600914194149e-01
3.386339388244191673e-01
-1.551065839584223616e-01
-2.796187388038994248e-01
-7.451772682364052325e-02
1.491817300743090158e-01
1.975093976698226450e-01
9.818546598633501321e-02
-3.104079097653128505e-02
-1.133891890320283952e-01
-1.446514992440526282e-01
-1.531766923503296574e-01
-1.516407533588051970e-01
-1.310423165959906378e-01
-8.735426241645287415e-02
-3.663463026261967043e-02
-6.791341505096275787e-03
-1.771690086124715069e-02
-6.510800323928057909e-02
-1.273259224145271429e-01
-1.829619479204646904e-01
-2.071947515814899221e-01
-1.663547218810977335e-01
-5.357370353190090556e-02
7.214250678795437743e-02
1.253770850723714136e-01
8.068507677986122562e-02
-1.455051401808139105e-02
-1.065904038260575837e-01
-1.735672361741531777e-01
-2.087381951975945393e-01
-2.094697234407263964e-01
-1.841579949434628827e-01
-1.484133051118269320e-01
-1.136522621343938055e-01
-8.241714348865075701e-02
-5.010382739112133332e-02
-1.513695354489195954e-02
7.619890725173867826e-03
-7.473062859516666108e-03
-6.303398457696363089e-02
-1.115483884845085566e-01
-9.343339406908909850e-02
-2.321414010648280984e-02
1.215084741566054873e-02
1.024750969026800781e-02
1.498196622855321736e-01
5.511522790501687252e-01
9.478939515544380079e-01
8.957263847248743138e-01
3.807478553993035586e-01
-1.091433829772571334e-01
-1.908301099527262290e-01
3.748949473170349461e-02
2.500128442396147843e-01
2.671195744774411129e-01
1.370597189700806795e-01
3.162050119044228919e-03
-4.767838251912264597e-02
-4.386846320502627711e-02
-6.301865944632782657e-02
-1.347277716497417288e-01
-2.299012679132490800e-01
-2.968975481352679746e-01
-2.794194153439944484e-01
-1.605291064430382775e-01
-9.750435371000076151e-03
6.696777293185496305e-02
3.163626662641355614e-02
-6.330007060261198804e-02
-1.444855250394686264e-01
-1.727444307904256737e-01
-1.367066117161332139e-01
-4.376477240455149686e-02
6.517272186198058703e-02
1.329822622884589134e-01
1.350630890473714096e-01
8.427554762097042018e-02
-2.364884644203786059e-03
-1.040752447543315251e-01
-1.825348839300517112e-01
-2.099752093120988983e-01
-1.977410743512729996e-01
-1.730219990328502322e-01
-1.437360061399753364e-01
-1.002823891733941458e-01
-4.142441409225783994e-02
1.051784598508948704e-02
2.495641567557127516e-02
-1.077633906971576551e-03
-3.076700431539919345e-02
-3.262610191761048523e-02
-4.341246014071658416e-02
-1.477740869493717468e-01
-3.242918375115748097e-01
-3.168929920860246718e-01
1.557867086618028030e-01
9.232369310994256173e-01
1.332655909056264854e+00
9.735903163403205607e-01
2.125802200584781809e-01
-2.770268424488938619e-01
-2.827168746493702867e-01
-9.781679535064818909e-02
-2.113988407818381821e-02
-7.522811642719262615e-02
-1.368285190012507035e-01
-1.351997009060626476e-01
-8.044161117223389001e-02
-8.138032777532482748e-03
3.365017716745313803e-02
-7.559151918221160629e-03
-1.356130050005757148e-01
-2.771214127873837807e-01
-3.366714883836238736e-01
-2.727746534774318499e-01
-1.126002222182513057e-01
7.485538161452388872e-02
2.047049447008330858e-01
2.201844658412934752e-01
1.391527929956563880e-01
3.974713893643079532e-02
-1.197209501938239704e-02
-1.506699172545976004e-02
-3.354195114257675289e-03
1.750543396791475956e-02
5.431605515504678988e-02
7.221081310965125899e-02
3.011432664300450410e-02
-5.021844731159334774e-02
-1.175727234728585063e-01
-1.672063833040856040e-01
-2.289017634392815082e-01
-3.009151460461245153e-01
-3.363700822766715337e-01
-2.918993425719446644e-01
-1.767665517784900164e-01
-5.566976575587206932e-02
4.047488719091398533e-03
-5.736358653979093530e-03
-4.459790269915565181e-02
-1.033075116650336162e-01
-2.243568842564331867e-01
-3.806316893533923662e-01
-3.600899982176817837e-01
6.020521664047655958e-02
7.168083327072831690e-01
1.061991403671043388e+00
7.971724956033048315e-01
2.692699940496540711e-01
1.123887160487391235e-04
8.788536943020672232e-02
2.710109493573261696e-01
3.252621101135468873e-01
2.194182078899507837e-01
4.142941796013391298e-02
-9.884390527519265612e-02
-1.475430305957480537e-01
-1.306892717525059977e-01
-9.832185091726960979e-02
-7.353782193066335515e-02
-6.694942444509922874e-02
-1.019738868896315487e-01
-1.905721288754408105e-01
-2.883723530040421812e-01
-3.086505150372335637e-01
-2.074184090605723785e-01
-4.844667925642569262e-02
4.160995097439264268e-02
1.457012841120910659e-02
3.362278153307621600e-03
2.021101550350403453e-01
5.579907358550524332e-01
7.106669093200592702e-01
4.274418963776152047e-01
-4.953383195703656150e-02
-3.070791255439194178e-01
-2.419778324588154894e-01
-5.679834670044497935e-02
5.701853940739599891e-02
7.040887214475603784e-02
3.715060089943276328e-02
-1.031537136124520936e-02
-7.113001446060115973e-02
-1.297724498854416486e-01
-1.452708703933054679e-01
-1.039932941453373810e-01
-5.066926159166280919e-02
-2.816257674593500640e-02
-1.455948202886207105e-02
2.740298120568926063e-02
5.072859709171917419e-02
-5.130317274411230061e-02
-2.520506505585880519e-01
-2.799865619750674384e-01
9.732135905012521959e-02
6.500063393344537310e-01
8.443568972824946339e-01
5.155127907082621697e-01
6.090016134721130958e-02
-1.080065152990465488e-01
1.284004278009353434e-03
1.260708419470498998e-01
9.961978570463581040e-02
-4.337855694363598746e-02
-1.886272007966957598e-01
-2.648892309280957980e-01
-2.550006291725589458e-01
-1.647658479643149820e-01
-2.957172492387145218e-02
7.901896676758241034e-02
1.016289255500921612e-01
4.272273579552057776e-02
-4.725546506448132650e-02
-1.243194529384370056e-01
-1.706750429667302782e-01
-1.916120682407905784e-01
-2.062089551438475166e-01
-2.114459103204504864e-01
-1.614253425369069350e-01
-2.766583422649109697e-02
1.277975021517385734e-01
1.890252008540075079e-01
1.035815069526599269e-01
-6.286611844240649893e-02
-1.963177970753308965e-01
-2.386935138007765800e-01
-2.102616238244621460e-01
-1.532757292544662253e-01
-8.843319080583153524e-02
-2.680977033700862600e-02
8.666352665822447954e-03
3.551392680229571025e-04
-3.780914186081270334e-02
-7.954949154841126080e-02
-1.212052492118002034e-01
-1.662292833273248949e-01
-1.885402558188958300e-01
-1.480752900207167322e-01
-4.758524670759323172e-02
3.771869798581798522e-02
1.215902125127926205e-02
-1.042492865215543796e-01
-1.018241214683143353e-01
2.122366264176481776e-01
6.776523996463449384e-01
8.563356698936978040e-01
5.650574565672228378e-01
1.236599571544674536e-01
-5.762509501265234563e-02
6.022980607577196888e-02
2.169594023885035583e-01
2.134311539030606664e-01
6.380449738490115430e-02
-1.136429324528667184e-01
-2.178283089493995850e-01
-1.907866164642028628e-01
-6.234783279925969202e-02
-3.485739230812342354e-02
-3.519664267357773824e-01
-9.011916782869666687e-01
-1.157450732668577231e+00
-8.087618143075704369e-01
-1.905841613425445780e-01
1.758816273133066432e-01
1.704096145581989741e-01
5.736736421774586703e-03
-1.136886124032807366e-01
-1.078774824344732597e-01
1.358478084721982844e-02
1.744778751475120349e-01
2.678062560966670280e-01
2.394252745908665991e-01
1.390104165776274436e-01
5.826179703382225461e-02
2.943300579503574030e-02
1.581798061092233587e-02
-1.563226699680091147e-02
-5.187489918551143470e-02
-5.857002521653421195e-02
-1.896406272442192550e-02
4.946145866505151367e-02
9.433707212046139878e-02
5.826250425375133213e-02
-5.345779822956710919e-02
-1.571041959551098266e-01
-1.819027694282964458e-01
-1.378818527159667573e-01
-7.223857549765566599e-02
-3.098545290897303586e-02
-6.855445057266852660e-02
-1.707591118635122529e-01
-1.329980441914356548e-01
2.883053630983101190e-01
9.481398533398524009e-01
1.264337982270479221e+00
8.712713187372475021e-01
1.208956756076731143e-01
-3.408963704856839971e-01
-2.956653595321018235e-01
-2.319076648923606293e-02
1.526723201274962916e-01
1.557213377584486524e-01
7.689979062633273132e-02
-7.673423320078294127e-03
-9.551589096440452065e-02
-2.029084054666099035e-01
-3.031801581358848363e-01
-3.361519363276421202e-01
-2.760353193711556630e-01
-1.659417816094504450e-01
-7.262218774773804286e-02
-2.530943565592491673e-02
-8.981502298537488715e-03
-1.930735627649132584e-03
-8.086722842265749514e-03
-4.756599050985915733e-02
-1.078761957248547676e-01
-1.250863009210481380e-01
-5.181274210599884356e-02
6.818868249593260100e-02
1.374485087772323866e-01
1.123981378917128238e-01
3.840818402316031888e-02
-1.689440862478866490e-02
-3.406766143158278942e-02
-4.507974771458402724e-02
-8.322752476280970146e-02
-1.381079585035258350e-01
-1.679042563698635304e-01
-1.506303836635416726e-01
-1.035877566133224098e-01
-5.473364825181246951e-02
-1.944118016205178406e-02
-8.523693111512513354e-03
-2.805428996558818541e-02
-6.089204038625509879e-02
-8.493962744195765469e-02
-1.224892668889926012e-01
-2.174923586314929658e-01
-3.043296196396281239e-01
-1.465143103693053728e-01
4.104164879573648506e-01
1.069296712289641071e+00
1.249372967756742225e+00
7.920059268516999040e-01
1.905896599882759279e-01
-4.606367802941783302e-02
6.243733158090176288e-02
1.883138280506670981e-01
1.653344527955534216e-01
8.035294903505391106e-02
5.051390278881270207e-02
6.789441634512011214e-02
5.935448542960561347e-02
6.351796304834025908e-03
-4.891395571669431008e-02
-8.313979556802100768e-02
-1.191496091302281096e-01
-1.727683153321947773e-01
-2.146798162688060008e-01
-1.988232919436019597e-01
-1.139930055195232245e-01
-4.088057210586890783e-03
6.264606019187640706e-02
5.219229379185388179e-02
-2.898210751573477954e-03
-2.971994488883545130e-02
1.597843793210420790e-02
9.285303175742111448e-02
1.054159817017966821e-01
2.780607904125535768e-02
-2.961170363016953425e-02
5.721063774818637565e-02
2.392246005359925376e-01
2.862581819483369650e-01
9.955498858441240093e-03
-4.707358349801334940e-01
-7.614610795453615744e-01
-6.239421748018946223e-01
-2.632818074786222873e-01
-2.710070223293905081e-02
-3.031441375346984567e-04
-4.663320586746257795e-02
-5.954610432235505485e-02
-2.937121722909762089e-02
2.352962075566513572e-02
5.534275186550047243e-02
-2.554228206363244255e-02
-2.586522998119349936e-01
-4.563000733963551436e-01
-2.683499801378941285e-01
3.834110016026948675e-01
1.022137989914351897e+00
1.069623534694683853e+00
5.466228817274183527e-01
7.154375123408898696e-03
-1.580464406499834107e-01
-4.749263849478999044e-02
5.256267518725000337e-02
2.179369651470829811e-02
-6.673679489103778728e-02
-1.130146931249706027e-01
-9.506865590262977839e-02
-4.642345048536684199e-02
-3.512157103656531401e-03
1.194097835926833870e-02
-3.357373296458953174e-03
-3.212014216174986780e-02
-5.028687060370488210e-02
-4.921314314722380345e-02
-4.190718287758087024e-02
-4.406432548345580458e-02
-4.962746965197630672e-02
-3.680799859390675860e-02
2.533089915073532660e-04
4.461366829840091031e-02
7.783273713239335923e-02
8.602794976332903132e-02
5.556361483701544035e-02
-1.668214227502368835e-02
-1.241103824188431320e-01
-2.643263464604818092e-01
-4.095841670316990868e-01
-4.751012567960735677e-01
-3.864083222403500995e-01
-1.541106918703600281e-01
1.410064262755847952e-01
3.432378485144560454e-01
2.701656894669778874e-01
-5.494853210886269101e-02
-3.464624011320345809e-01
-3.887515898991313890e-01
-2.531676316936322113e-01
-1.147581474866920387e-01
-4.594684875206813540e-02
-3.567699860625496433e-02
-8.068875750630030708e-02
-1.852520980328001832e-01
-2.727117293743276383e-01
-1.748289436008134412e-01
1.510577080780501347e-01
4.388608968267586619e-01
3.915627004787813892e-01
1.107496649430337043e-01
-4.068281777986141462e-02
5.788757274737098280e-02
2.023925020232699712e-01
2.043323212461727878e-01
7.728779031303359415e-02
-6.899232260072254985e-02
-1.606808005433788267e-01
-1.850650521383162550e-01
-1.653526812185453498e-01
-1.340146553119494210e-01
-1.111896142410078170e-01
-9.925183254022858226e-02
-9.290483886091784049e-02
-8.713412684696744681e-02
-8.248136917489867770e-02
-8.767451638938821012e-02
-1.062192670845722997e-01
-1.240037908133201500e-01
-1.217868099951834177e-01
-8.498911668414063647e-02
3.178081699795848140e-03
1.435227928816328324e-01
2.849688989774081804e-01
3.377994983289803743e-01
2.453782555052565484e-01
4.665880409920888927e-02
-1.437806062275688024e-01
-2.299597361588540390e-01
-2.011756185058937163e-01
-1.084967931595236523e-01
-3.644447828293696096e-03
8.510278557599816607e-02
1.391211402057947188e-01
1.462657113872317949e-01
1.104318596357421745e-01
4.131306717990904792e-02
-5.111810392580341811e-02
-1.340881005877145871e-01
-1.524416043418012345e-01
-7.647753756684930182e-02
5.306226749940490955e-02
1.286637529959207271e-01
5.413827425717573222e-02
-1.080213812243818600e-01
-8.542386559914905142e-02
3.217094633832344730e-01
8.524504554742328155e-01
9.619125654016227323e-01
5.099255997109584104e-01
-3.669391856507489558e-02
-2.007843377018483644e-01
3.411441048190952396e-03
2.424834164720520158e-01
2.895501427650045700e-01
1.734617385014246005e-01
3.736783144320277028e-02
-2.739172175938541648e-02
-4.251764665424313111e-02
-1.457977979942508551e-01
-4.808069553235560512e-01
-9.266926967896774725e-01
-1.065000677103922877e+00
-6.773181750597878636e-01
-9.866799892009578410e-02
1.972375656001377764e-01
1.364440930520342543e-01
-3.694158926572446017e-02
-1.389585003591911061e-01
-1.625225170434420330e-01
-1.400962681109688412e-01
-3.709375140616114064e-02
1.794912477795435612e-01
4.162670445338875203e-01
5.029158882759736660e-01
3.916327550423255865e-01
1.973916514792133092e-01
2.275399304301365527e-02
-1.210687949005937181e-01
-2.223157730326566495e-01
-2.388309987978139703e-01
-1.674643770760959882e-01
-6.431791685655897928e-02
1.245741548743701209e-02
4.737384043848597709e-02
4.429313271361914883e-02
-1.008037388408204900e-02
-1.217232712109155429e-01
-2.437444001065933452e-01
-2.954441182111052777e-01
-2.386740563202060517e-01
-1.365742298568727586e-01
-1.222869325550030167e-01
-2.312739086875901240e-01
-2.397902181127816446e-01
1.355653513801463594e-01
7.566616412458516683e-01
1.068730990522839264e+00
7.852038916747146047e-01
2.617700790605396732e-01
2.861161128040135004e-03
8.792477150895383620e-02
2.481266962031545009e-01
2.790774313223639558e-01
2.007270923139798380e-01
1.130601774454677577e-01
4.850831402471984105e-02
-2.294449347243984402e-02
-1.198374328492794044e-01
-2.168891435289337088e-01
-2.661490025487548428e-01
-2.361474877863646848e-01
-1.437722005786659096e-01
-5.258516226535995403e-02
-1.651682782775969541e-02
-1.759397190521936813e-02
5.612620176116852461e-03
5.625156104886806785e-02
6.109173206831711167e-02
-1.252468349794467507e-02
-8.040772825863783113e-02
-3.925329788277166082e-02
9.201944979427587046e-02
1.797648050022392641e-01
1.223561361791273006e-01
-3.662862572659595500e-02
-1.581686687970408345e-01
-1.613243598410091795e-01
-9.163410957813114543e-02
-3.554099493268255555e-02
-2.501615985594125152e-02
-4.445356975444612196e-02
-6.861030836606311911e-02
-6.289746254484140930e-02
1.014722720040443955e-03
9.135767429404789697e-02
1.222278982099783834e-01
6.031035528175635735e-02
-1.648391502940044218e-02
-2.932955030688694231e-02
-4.813162569049232037e-02
-2.460316212930730440e-01
-6.171409935287339721e-01
-7.841009528140054918e-01
-3.167698876196632929e-01
6.512538642922797161e-01
1.367156874801308541e+00
1.233648380003258938e+00
4.654138875172255663e-01
-2.220615959959494345e-01
-3.987396432278002556e-01
-2.004586451557674454e-01
1.876997549165747986e-02
7.930265364624083935e-02
2.897948910561475369e-02
-2.239426916162440620e-02
-2.616064859564978112e-02
-8.752808262325282099e-03
-2.900088330957066585e-02
-1.125293355521298222e-01
-2.124273681545306436e-01
-2.477671027781796487e-01
-1.846448996040788160e-01
-6.989769365849698990e-02
1.590386707242385372e-02
3.589986648735835062e-02
2.257946985161215364e-02
2.283401039997276505e-02
3.668342502424798424e-02
3.519304725489770524e-02
1.856512658936945379e-02
8.456833374418345692e-03
-2.250995182363755599e-03
-3.025697868758144699e-02
-4.966281452373759453e-02
-2.362866707492038490e-02
2.854171443122680007e-02
4.492426565694641188e-02
-1.012381516111830748e-02
-1.127964086277057909e-01
-2.041704596570502461e-01
-2.387975461823718115e-01
-2.162332812186585351e-01
-1.678011946457772519e-01
-1.156043781072348120e-01
-6.053949273441681933e-02
-8.152735851065769437e-03
2.654804216783235998e-02
3.603571777883952942e-02
1.955095197903643570e-03
-1.189552311075802726e-01
-3.175447979881485527e-01
-4.326196444149073561e-01
-2.415312884917627523e-01
2.331691013390401468e-01
6.181130003740112899e-01
6.004023304911114689e-01
3.266553536725415596e-01
1.562476132590279176e-01
1.783957360221433142e-01
2.074018690224170847e-01
1.109373626958339160e-01
-5.564924623500731860e-02
-1.750458054873002267e-01
-1.957992283650767384e-01
-1.414886389437631231e-01
-6.978470313780045509e-02
-3.771111236241725395e-02
-6.703447987547589415e-02
-1.308808101371717880e-01
-1.884828205878066321e-01
-2.256346602073625029e-01
-2.466321830912885926e-01
-2.437203416227519126e-01
-2.027488243418352210e-01
-1.327365167053654316e-01
-6.212571228604651941e-02
-5.806290231911928439e-03
4.058619763266566732e-02
7.080495797849720163e-02
5.604261802939270593e-02
-1.951006353848828284e-02
-1.219682324822944780e-01
-1.917533743915977307e-01
-2.025334763670737503e-01
-1.709334750350112730e-01
-1.172166534543814254e-01
-5.063294668120946890e-02
1.651985676525598648e-02
6.728754506131080781e-02
8.215308419234013115e-02
4.445767316304932715e-02
-3.284465879424622314e-02
-1.021561971460317880e-01
-1.249583327529715793e-01
-1.016802624810942690e-01
-4.823693409164421519e-02
3.490551868940047764e-02
1.400142594052831702e-01
1.907487283783677878e-01
8.141737181656504008e-02
-1.186103031745441710e-01
-9.032973186606536864e-02
3.631310267788558366e-01
9.024325685671986674e-01
9.553244284176886092e-01
4.669124367342341042e-01
-2.460735165746204267e-02
-9.842556627624644838e-02
1.108176283994092987e-01
2.243264807425071894e-01
9.273016340178907857e-02
-1.338078087859323473e-01
-2.635597850392311647e-01
-2.587806244730255223e-01
-1.909131716930689837e-01
-1.148307656363100893e-01
-4.271613289684032810e-02
1.279280046867479863e-02
3.264128957636997647e-02
1.951244466566583180e-02
-5.814143520120581936e-03
-3.442411769348383693e-02
-7.077222565387059072e-02
-1.061347170684591307e-01
-1.115516257604558248e-01
-6.312453030439570123e-02
3.572739158333766707e-02
1.522825064146084706e-01
2.292716940210201837e-01
2.104628000892198314e-01
9.088504555505524940e-02
-7.032656084974980848e-02
-2.005083224124724617e-01
-2.598199288459830947e-01
-2.406628150700795277e-01
-1.555560803239313949e-01
-3.705432626654622807e-02
6.871895996839959275e-02
1.183149364451772656e-01
9.021489732255187632e-02
6.100870596654664468e-03
-7.995416661934634517e-02
-1.350514587775813735e-01
-1.688094405055505232e-01
-1.871455122382142122e-01
-1.623908905972997752e-01
-8.630206797458009338e-02
-3.160702158135400563e-02
-8.363525213968261984e-02
-1.660232153416932865e-01
-4.071052376649404031e-02
3.588941690031711707e-01
6.981091429671854032e-01
6.144383491329746816e-01
2.296019589379037495e-01
-1.542738567299220542e-02
6.656149384489100373e-02
2.712260594355298537e-01
3.419636786274622420e-01
2.330541168435395494e-01
6.069952604537826035e-02
-7.082694196342370629e-02
-1.489262067363931741e-01
-2.085394700593191653e-01
-2.618669923239890229e-01
-2.795342428351625941e-01
-2.278277725382198693e-01
-1.187909929025016131e-01
-1.612099126015487452e-02
1.859469918315945214e-02
-2.000460259159100862e-02
-8.832353109645812994e-02
-1.428848701024093837e-01
-1.665381652313060457e-01
-1.533447038998044798e-01
-9.203344473388994085e-02
2.257872793157036928e-02
1.635269990378425964e-01
2.631066675993925519e-01
2.532732628007766662e-01
1.330008863878412162e-01
-2.566840209749505358e-02
-1.508606377570150536e-01
-2.216388138737267199e-01
-2.426639741911538195e-01
-2.085231821925802309e-01
-1.131447251132418064e-01
2.009629839077083438e-02
1.321678817861702548e-01
1.588499938305326931e-01
7.393594620293439390e-02
-8.905080447136776156e-02
-2.474042773556514030e-01
-3.126683113656540391e-01
-2.568868887705459403e-01
-1.414486462800149114e-01
-7.167538681768707842e-02
-1.203465759035120541e-01
-2.318585775685823858e-01
-1.660893753369759029e-01
2.909619098473694154e-01
9.325286994057784273e-01
1.191763331327861719e+00
8.064367926694813171e-01
1.716698299644938142e-01
-1.590583622293577637e-01
-6.850911395984321528e-02
1.680497278498885583e-01
2.846096502835023245e-01
2.316158193196955484e-01
9.902456809024864914e-02
-2.442890193825881032e-02
-1.039953602048256792e-01
-1.473982298141950087e-01
-1.797012009974430224e-01
-2.087562609651256174e-01
-2.101749918637292880e-01
-1.581514769437861179e-01
-6.416892773816702811e-02
2.521316641938595518e-02
6.984000946860809134e-02
7.113681707414361288e-02
5.875704804945641735e-02
4.576967842835013428e-02
2.109796437475479000e-02
-7.175051972408467982e-03
-4.426382687125328397e-03
3.227614585922704282e-02
5.724407731644693548e-02
4.154363451514044708e-02
8.863140883863173877e-03
-1.275116133737921528e-02
-3.357650621090097626e-02
-7.719274252262947611e-02
-1.398403662420256988e-01
-1.923126870936513189e-01
-2.106893757727110739e-01
-1.911072542775728578e-01
-1.384600423265033020e-01
-6.329440886037529523e-02
1.064213775654668584e-03
6.181893758289046074e-03
-6.155454503998290111e-02
-1.521361516819506043e-01
-2.001541339131995278e-01
-2.091258855953501139e-01
-2.586594743750506575e-01
-3.712315991949785010e-01
-3.732652009054925890e-01
-3.279685265566635588e-02
5.488787691498913102e-01
8.830864741335870960e-01
6.724312629919647621e-01
2.226177000719384291e-01
6.461956758489241504e-03
7.104313758410440993e-02
1.343873080720531799e-01
4.879695481626342840e-02
-6.986770147539850262e-02
-8.018989725620510878e-02
-2.639790322315918245e-03
4.965672080857926746e-02
2.235894958927745965e-02
-5.643880804323212624e-02
-1.471233668699608310e-01
-2.286209094220977289e-01
-2.795877438995592046e-01
-2.790249131608822930e-01
-2.278408145165562448e-01
-1.532920972243713431e-01
-9.010214284477943703e-02
-5.897153147616111118e-02
-6.173752249237999395e-02
-8.465934651725408322e-02
-9.712162058391218822e-02
-7.092567800852714321e-02
-2.311682041207629643e-02
-1.208680167064022509e-02
-6.171134390016608934e-02
-1.204615224888761216e-01
-1.315804982567648218e-01
-1.101385175594538635e-01
-1.092130111915654705e-01
-1.390915443684330455e-01
-1.633953957061547724e-01
-1.612798594525985951e-01
-1.528178036409361118e-01
-1.528981625508066822e-01
-1.313723291049080644e-01
-5.443100098949212734e-02
4.548811230640551623e-02
9.012327735964691111e-02
5.611719814404175083e-02
4.544159133189458466e-03
-2.093999563208528980e-02
-7.688558146763101175e-02
-2.190008621239829811e-01
-3.121940938861337833e-01
-9.086217446427428956e-02
4.427935762163699440e-01
8.446105727620154546e-01
7.242962105367891645e-01
2.597314542602490728e-01
-6.707784208356096234e-02
-6.522935271565787063e-02
8.239519719130308784e-02
1.647332470253479175e-01
1.486389459690335979e-01
9.910071708822858205e-02
5.697870629634510520e-02
2.776507259661789226e-02
1.127188746235853814e-02
3.273616980265302550e-03
-1.132000323581480727e-02
-5.594653050483321122e-02
-1.418583119654616143e-01
-2.393637944891700287e-01
-2.890219643706918862e-01
-2.545311887936637651e-01
-1.517053608736231018e-01
-2.681316409851302110e-02
7.809552276648948355e-02
1.446523620718881131e-01
1.798095752848673512e-01
1.952469696806831967e-01
1.797445354869656453e-01
1.070995120558819597e-01
-1.784473249552524787e-02
-1.388081972754988680e-01
-1.930518105077613233e-01
-1.697814929394246553e-01
-1.097166327272244418e-01
-5.774209264374353251e-02
-3.527475405614899362e-02
-4.496991503911413474e-02
-7.703562250769506459e-02
-1.164433680142677452e-01
-1.536448148670218616e-01
-1.802580501374152211e-01
-1.799026990178799745e-01
-1.404942087415893548e-01
-6.889788852553098419e-02
1.511392142352608117e-02
7.397236910345189598e-02
3.731132999639679565e-02
-1.292168182844931623e-01
-2.790996801070342870e-01
-1.384853704489033832e-01
3.155030730497563329e-01
6.813864035934638075e-01
6.248191773550424433e-01
3.633014659851395711e-01
3.178419550160069829e-01
4.949697767174058294e-01
5.717296473641431120e-01
4.041079165692835207e-01
1.415906226450516503e-01
-4.454819667140492989e-02
-1.289543852575513461e-01
-1.653364206621561749e-01
-1.788650744713508045e-01
-1.582976433297956786e-01
-1.068772994523872477e-01
-5.325893369144141243e-02
-2.197666260040587877e-02
-2.268398476454837331e-02
-6.009347696742053935e-02
-1.278942288144535033e-01
-1.934921233505265681e-01
-2.132110627925377089e-01
-1.726798937397695521e-01
-9.565185859931366052e-02
-3.283673709209270278e-03
1.098312710695910910e-01
2.335731548705625993e-01
3.017374331866257142e-01
2.396555897698542659e-01
5.623143162739301093e-02
-1.414047951944990833e-01
-2.429151239285936570e-01
-2.310529600651231585e-01
-1.648729228192025997e-01
-9.006896697771217541e-02
-7.851222812084956287e-03
7.606495238898385025e-02
1.221427737467629532e-01
9.985413224290320966e-02
3.403872835357230064e-02
-2.352907715149451379e-02
-5.533493382149534678e-02
-7.028692652358857484e-02
-5.082770034961380662e-02
1.951838058390716057e-02
6.841502040034461163e-02
-2.192159180562434570e-02
-1.973237518827615500e-01
-1.484004745326046870e-01
3.338843093406300699e-01
9.240276487340691736e-01
1.018144815588922114e+00
5.088633983347163880e-01
-5.777611694907706930e-02
-1.922972578488095219e-01
1.742580709398589001e-02
1.879518747724991945e-01
1.477921588503931516e-01
9.821148140707031127e-03
-9.372801809104272519e-02
-1.605595626666347919e-01
-2.270777599412410752e-01
-2.673505109707650096e-01
-2.388706340429661845e-01
-1.621892973980366137e-01
-9.464106323486808081e-02
-6.099669874112630119e-02
-5.220020425462232327e-02
-6.024059408132888260e-02
-8.365475532309497864e-02
-1.178646508488328665e-01
-1.508007042251892360e-01
-1.524974079868543775e-01
-8.020391156975188729e-02
7.227419564955517295e-02
2.395754525093019283e-01
3.274383178702048314e-01
2.849800897460459947e-01
1.377147382103369178e-01
-3.493742898648401207e-02
-1.633691209696055135e-01
-2.319011527257796024e-01
-2.577743241430170973e-01
-2.501408079830687581e-01
-2.034020800771724202e-01
-1.209649088255216054e-01
-3.553825113500697075e-02
7.428637332756257532e-03
-8.425865211348547434e-03
-5.777013199808710836e-02
-1.065177284549436720e-01
-1.440562439112116622e-01
-1.722645044837057826e-01
-1.790686284757189994e-01
-1.616459686287971542e-01
-1.648252081764212951e-01
-2.082238406833554212e-01
-1.585732168956213162e-01
1.603967030337962174e-01
6.328036861439816363e-01
8.434185523708941368e-01
5.847196776761746095e-01
1.529157731457640446e-01
-4.017430125680190867e-02
6.301527784109686725e-02
2.331735753464524996e-01
2.994757095479860243e-01
2.590326422312628774e-01
1.308916105658996520e-01
-1.168362155881631781e-01
-4.360563849862879593e-01
-6.322165273244666484e-01
-5.720307468918532923e-01
-3.659420753691849937e-01
-2.131022421280047707e-01
-1.672115351711686015e-01
-1.521405356062824898e-01
-1.075381730917282369e-01
-4.454157127839006997e-02
-7.564353940221440857e-03
-2.225057949940411478e-02
-7.189801224725325679e-02
-1.081664611985894142e-01
-8.709789226530960382e-02
-1.324912504095411038e-02
5.476722280933643550e-02
6.590913563984975021e-02
3.352376772647440439e-02
3.478778056700850690e-03
-1.623666670265872317e-02
-5.676093567300431048e-02
-1.285731148789963363e-01
-1.995772123992083646e-01
-2.340945396319580041e-01
-2.192072525427942731e-01
-1.532048861231216086e-01
-4.558240030075269567e-02
6.850090839395804598e-02
1.418006697677689221e-01
1.448931570027642834e-01
7.784583652015968080e-02
-2.316844575757360386e-02
-8.940919295623823981e-02
-8.541975106586155442e-02
-8.562413405946436851e-02
-1.830376724495039464e-01
-2.556988829671364982e-01
2.565739680292873290e-03
6.111788166785337983e-01
1.055044033310030160e+00
8.496457270954037577e-01
1.918804914990034638e-01
-3.021664442268418016e-01
-3.388368592140276747e-01
-1.279671220296020040e-01
2.041629846590196570e-02
2.005907793655588300e-02
-3.168548945336814582e-02
-4.840475546171973953e-02
-4.249686705296465417e-02
-6.499106371891938405e-02
-1.274908218663300952e-01
-2.019598001184274849e-01
-2.619451307565420772e-01
-2.958664415160797700e-01
-2.896630851381649108e-01
-2.181896161240062804e-01
-7.467979531413275474e-02
8.791615225089738361e-02
1.822817358746263994e-01
1.775137131775207100e-01
1.344782534830845366e-01
1.297128509756633741e-01
1.642706456204655885e-01
1.692620444002680136e-01
9.936126014609363011e-02
-5.630935455486370950e-03
-7.001312296717451811e-02
-6.866254604490810987e-02
-4.010030590203918222e-02
-3.371760653001401598e-02
-6.888606416519731102e-02
-1.357864439076833796e-01
-2.109262574486865938e-01
-2.599174874772980925e-01
-2.427852755593288836e-01
-1.486741993968267173e-01
-2.680659916823941585e-02
4.810565951593390177e-02
5.284032908717024857e-02
2.957546455584699266e-02
9.868114418438140786e-03
-4.135105148323823393e-02
-1.778766875886990673e-01
-3.535365259550119488e-01
-3.522633177361630397e-01
3.744252987446412828e-02
6.541679772432817952e-01
9.718090894917051914e-01
7.157509020240525599e-01
2.394951575288173928e-01
3.798577057891035919e-02
1.452363161245260603e-01
2.430310628056404354e-01
1.474707855529776568e-01
-3.221635641552451218e-02
-1.237272339027584572e-01
-9.537003262762959455e-02
-2.035976867882834454e-02
3.330576768208282773e-02
3.341779607239654670e-02
-2.015959790872726490e-02
-9.604991917399499646e-02
-1.582910886611369750e-01
-1.965881451560132220e-01
-2.184195752899132648e-01
-2.244905478949049404e-01
-2.061858873586969176e-01
-1.606195182971142665e-01
-9.620946858182269357e-02
-2.398248713934229143e-02
4.927078952287121394e-02
1.147988545295312024e-01
1.491556611740125771e-01
1.226742471981019655e-01
3.784746693284236907e-02
-5.323499396324814226e-02
-9.581740572532575217e-02
-9.267928303108827204e-02
-8.048475194364415608e-02
-3.675795907667012141e-02
1.112658016697607166e-01
3.221046080821243218e-01
4.007474836555332542e-01
2.482948136160923747e-01
2.196487027374121465e-02
-7.730362790963485331e-02
-3.212886875604294840e-02
5.900579694449029078e-02
1.301635768681201899e-01
1.620781227553871884e-01
1.273255963026857229e-01
-2.844865071117580468e-02
-3.040952583954056321e-01
-4.958372367174799789e-01
-2.673991576943441917e-01
4.167381919931318901e-01
1.034634739249710833e+00
1.015393493528824465e+00
4.581038673110888748e-01
-3.052556331017086677e-03
-7.821449730360805971e-03
1.841022824937486035e-01
1.511731378994884967e-01
-1.444770822219445805e-01
-3.886178381009816052e-01
-3.883889683877220778e-01
-2.926987651224944864e-01
-2.882779050254469788e-01
-3.183456888127409457e-01
-2.447425190358685498e-01
-1.012057374164624657e-01
-3.066512139030914963e-02
-7.670798182470212057e-02
-1.536275769390989254e-01
-1.768537483162143931e-01
-1.441051665505308499e-01
-9.470300580272683622e-02
-4.401309674066778560e-02
2.160494123456197998e-02
1.127136271592044103e-01
2.170107271610358379e-01
2.971382512289132971e-01
3.048625289021652529e-01
2.178580661742299529e-01
6.856739387532104213e-02
-7.711701239791605988e-02
-1.678395089873461477e-01
-1.886140108328998033e-01
-1.549705188858079286e-01
-9.990972201601786007e-02
-5.800176446695745613e-02
-5.006278480242781770e-02
-7.554589073027150048e-02
-1.168943756984187204e-01
-1.516770906709634381e-01
-1.657436714234450659e-01
-1.617598511743984224e-01
-1.522449235457721262e-01
-1.392926787491942653e-01
-1.136957382655270077e-01
-9.322788891650794774e-02
-1.295207291027834773e-01
-1.980852365663866022e-01
-1.246800882764326768e-01
1.896157269699942083e-01
4.961197757804033937e-01
4.476263837787179956e-01
1.125443212060167758e-01
-8.875805159524896570e-02
6.442180239319832136e-02
3.878424324667478773e-01
5.837876889549045156e-01
5.292608116941649454e-01
3.078391144999012563e-01
7.836937185395410899e-02
-6.921666667627854319e-02
-1.482941392531119396e-01
-1.930710704719784676e-01
-1.950858565307385661e-01
-1.410286405769741458e-01
-6.500488428691245102e-02
-2.039963491503114443e-02
-1.756738961198101717e-02
-2.491792518715085433e-02
-2.856547455709314634e-02
-5.664207392984278028e-02
-1.262358303719473829e-01
-1.896692959558497205e-01
-1.688788330303974128e-01
-4.359965597496474887e-02
1.165740913657516836e-01
2.104261288809104735e-01
1.873692229302055257e-01
7.654769353645309027e-02
-5.398089979107498909e-02
-1.535633067389555739e-01
-2.041094402014685949e-01
-2.063928850208810728e-01
-1.735355308972670596e-01
-1.246055247648922282e-01
-6.859922939188402291e-02
-6.673528551499368494e-03
4.612891147360426158e-02
6.474147447415962153e-02
3.828917015120730793e-02
-2.741462623100272139e-02
-1.066034817117974681e-01
-1.436008089446740021e-01
-1.013144410830859460e-01
-3.714628269326784860e-02
-7.193718969268932117e-02
-2.204514462688275944e-01
-2.566141878938105747e-01
9.923062182347593130e-02
7.238125966756265850e-01
1.038847935032669589e+00
6.804953939981989164e-01
-4.462801965450985398e-03
-4.021790114634855029e-01
-3.288860612999103261e-01
-5.983618191534571112e-02
1.085187589656203683e-01
1.087383293746392449e-01
2.322188557561292305e-02
-7.463240376355669004e-02
-1.717524990626493886e-01
-2.670227449936242725e-01
-3.293673832547164837e-01
-3.276115219817374857e-01
-2.885257933226947902e-01
-2.820093027277051911e-01
-3.208786994074345200e-01
-3.248104582848970745e-01
-2.389175033804449566e-01
-1.259807279420274428e-01
-7.356617701782786067e-02
-7.691302831423232900e-02
-7.192522297114510577e-02
-2.606821038804966323e-02
4.608517149780445160e-02
1.193136523716633868e-01
1.726565463448413440e-01
1.801839478243715265e-01
1.184748607401884674e-01
-2.722167365056933630e-03
-1.235398837898482038e-01
-1.701428605360940649e-01
-1.324886086438345489e-01
-8.557855076553172458e-02
-9.172379077484821286e-02
-1.128482099316578946e-01
-7.490478464768295097e-02
1.759127146239437139e-02
8.810019779015988706e-02
8.349142832427089433e-02
2.541711715894250795e-02
-2.552919438701257288e-02
-4.681034603226743446e-02
-8.885159569863923523e-02
-2.062081755883631573e-01
-3.235096410938110290e-01
-2.073924332399237347e-01
2.771959271816941128e-01
8.385716504262074045e-01
9.488879347592543700e-01
5.006657843552473341e-01
-3.002620851875216490e-02
-1.981883270762185845e-01
-4.590095830047011966e-02
1.313732683984137894e-01
1.772419967035664123e-01
1.399664619577053459e-01
1.179043833518543388e-01
1.350530168127937469e-01
1.362542496400417358e-01
6.703307260158168635e-02
-5.978319048198450780e-02
-1.811615037468838618e-01
-2.494184645813063428e-01
-2.646936087677245752e-01
-2.491477050426253448e-01
-2.089563572584079432e-01
-1.367662320603745818e-01
-4.722228843154148425e-02
1.359867911851759398e-02
1.452880421049256889e-02
-1.544257281356624552e-02
-1.517019888466146146e-02
3.309183934252610260e-02
7.620655797100270301e-02
5.338570906892214918e-02
-2.238433183071621493e-02
-7.642750073851681258e-02
-6.601133602980983894e-02
-2.271956639468429226e-02
9.484559744253363844e-04
-1.589729789736902751e-02
-6.652588556528656050e-02
-1.315955964254485744e-01
-1.794663083336597298e-01
-1.767216231144075056e-01
-1.160314835243390075e-01
-3.083090368947474791e-02
3.296765844907145748e-02
6.251407544700858521e-02
8.253460942220475216e-02
1.119324733140524275e-01
1.119163508515174099e-01
-7.613671255428586943e-03
-2.418976692458564004e-01
-3.229269945496199279e-01
9.331882845043938668e-02
8.950823428389661496e-01
1.421635953679101450e+00
1.192656454800849808e+00
4.986534080006255198e-01
-1.050681271827742791e-02
-8.032210513628240678e-02
4.718705530791906383e-02
7.881411679772098999e-02
-2.436945460991289669e-02
-1.333790259515316157e-01
-1.652554149732126942e-01
-1.391341356789925487e-01
-9.769646017975761043e-02
-6.033835554365227227e-02
-4.203040863231317925e-02
-6.694759943934011637e-02
-1.430672455849825442e-01
-2.354330845513383508e-01
-2.872330521602498576e-01
-2.701704724832760252e-01
-2.005092747886127735e-01
-1.106854854968430391e-01
-2.250657440487935368e-02
5.861358605593239984e-02
1.398254380119327567e-01
2.188419022987333762e-01
2.567478902475519020e-01
2.066100691170629500e-01
8.278376770600115453e-02
-3.828192586318096557e-02
-9.900837047782612421e-02
-1.085044132618498414e-01
-1.023333245261565244e-01
-8.931892157583787295e-02
-6.303807419983478710e-02
-4.352313683490321300e-02
-6.617105364271497203e-02
-1.317347022664275835e-01
-1.996956962493550147e-01
-2.300019401230883609e-01
-2.120728171193793921e-01
-1.595552809856768672e-01
-9.320328344225299599e-02
-3.607873703654312925e-02
-2.428408921439346654e-02
-1.003249286819231784e-01
-2.479336056063371208e-01
-3.114355341451067738e-01
-8.440219264227950824e-02
3.838376513744684027e-01
6.993220539013045300e-01
5.752244380772297827e-01
2.243218105254450867e-01
5.421953199041449484e-02
1.513584322466522136e-01
2.852962785785278510e-01
2.657574291030955216e-01
1.143210864327191961e-01
-4.267293969396802888e-02
-1.226938262670004415e-01
-1.315138524114871643e-01
-1.254099319798695211e-01
-1.355686428729940829e-01
-1.041021882283195282e-01
6.293984262944890551e-02
3.170961462249211049e-01
4.243811025396996839e-01
2.339478392479834024e-01
-9.923160485816087673e-02
-3.029477339375367673e-01
-2.943906780359465958e-01
-1.868119428844242924e-01
-9.143899158904304769e-02
-1.444089515681456007e-02
7.890725691263220098e-02
1.690808151813681937e-01
1.839617441205281256e-01
8.315553529453689752e-02
-8.369941408767181401e-02
-2.169158923403721184e-01
-2.586078286058990927e-01
-2.265317656338457497e-01
-1.647579372313888180e-01
-1.000930106959478233e-01
-5.796409812697839170e-02
-6.899905037062083191e-02
-1.225814086965403699e-01
-1.582533393040376490e-01
-1.385616468114879984e-01
-9.174143671494612573e-02
-6.211602560310394011e-02
-5.005856525858134315e-02
-1.598811711439353245e-02
5.608378463380028767e-02
9.701115655301902063e-02
6.459974998680451108e-04
-1.907922761883153462e-01
-1.976538725660509643e-01
1.964937133759579735e-01
7.248010658619687963e-01
8.252958994605507081e-01
3.597056570585520641e-01
-1.877556116284778975e-01
-3.334496878777975515e-01
-1.033252616783725542e-01
1.519452228702532492e-01
1.924518078166992385e-01
4.665449115866820984e-02
-1.245685661987091380e-01
-2.098152393432758389e-01
-2.068016028821925423e-01
-1.677963144999676803e-01
-1.339463165240239728e-01
-1.184607732530860019e-01
-1.141547320712958946e-01
-1.057635246682420982e-01
-9.342964184647584158e-02
-9.859845474466802373e-02
-1.371578313482980649e-01
-2.007793504398434625e-01
-2.605008891915419067e-01
-2.712492784723422035e-01
-1.896111425660601535e-01
-1.896956432843294529e-02
1.630572746612713175e-01
2.517281615527903194e-01
2.044319533004721468e-01
6.967407186207327796e-02
-6.923228063734365723e-02
-1.588859761885308697e-01
-1.953245410152962269e-01
-2.012749608182999028e-01
-1.887347717517100787e-01
-1.533640470720155913e-01
-1.029793912010804752e-01
-6.253150205568878961e-02
-4.463238185273751130e-02
-4.049823283442226252e-02
-4.604235189666988637e-02
-7.073555757737505501e-02
-1.069373081723972718e-01
-1.180193059394149535e-01
-8.482892869128083602e-02
-4.861314100994031800e-02
-6.640729838244198435e-02
-8.981397248292166680e-02
6.557893200676696843e-02
4.795840945850857184e-01
8.599858107851485745e-01
7.876338577077968139e-01
2.840072694563754441e-01
-1.720045260701640322e-01
-2.324994840688087427e-01
-2.169942053528321757e-03
2.244668977752497796e-01
2.994186271568919921e-01
2.604822163730632356e-01
1.909017956750450329e-01
1.236225869509437747e-01
4.612422839793044183e-02
-5.372459681492680605e-02
-1.544489646017570550e-01
-2.106895590840570931e-01
-1.989986348550048523e-01
-1.412647254174018707e-01
-7.834793036227188923e-02
-3.566762964325550372e-02
-1.678767751214747111e-02
-2.071961683490736172e-02
-5.427679700525236961e-02
-1.129500600622482531e-01
-1.548778949536414040e-01
-1.248268834660361953e-01
-2.042023722464145208e-02
8.714007272124540959e-02
1.228966361991954692e-01
8.258659347672525630e-02
1.375257777434354609e-02
-4.968566903034552645e-02
-1.016627911395290018e-01
-1.422366349431675447e-01
-1.744245647042104441e-01
-2.032018019584825308e-01
-2.189899115375822103e-01
-1.965793575692210970e-01
-1.231194607444938693e-01
-2.462944179496564731e-02
4.297657163066002928e-02
4.210435660167279742e-02
-2.963096814191842551e-03
-2.726476716745263040e-02
-4.124866078651041011e-03
-8.114468681493420838e-04
-1.195706065390572254e-01
-3.072582851935086734e-01
-2.575987351919265533e-01
2.736774087196820471e-01
9.956632408998268291e-01
1.243660833974563396e+00
7.727044934201805493e-01
6.845094107848165299e-02
-2.805739209058289441e-01
-2.028413148014086564e-01
-1.202072572330951244e-02
6.417180653367877963e-02
4.768041043408614843e-02
3.277903055666566562e-02
2.726185388779767821e-02
-6.653015776793860109e-03
-6.295197495879321925e-02
-1.139654392616522016e-01
-1.678770865905081788e-01
-2.403086296543915923e-01
-2.992884567417768982e-01
-2.890840559082332728e-01
-1.983041532020639874e-01
-7.657621157972012427e-02
1.251993595489424467e-02
3.842840686742482470e-02
1.346341296523905634e-02
-1.816862818565423768e-02
-9.372459445152013860e-03
4.441578541830227406e-02
9.678828921216399428e-02
1.078211880236829290e-01
9.116985618888209797e-02
7.842446477162730301e-02
6.767630151225181856e-02
4.209547505602240919e-02
8.571636481788545356e-04
-5.917534335172894983e-02
-1.494043359055493292e-01
-2.502122135588676910e-01
-2.968710083350615259e-01
-2.386758370908171611e-01
-1.117627547165757212e-01
-1.527398698465866345e-02
1.051416634337551566e-03
-1.637720519796247165e-02
-2.364435328079199893e-03
4.246464949393947280e-02
4.093953953190559297e-02
-9.712715957203933714e-02
-3.319062932618981887e-01
-3.984524118458037112e-01
-3.724063448949110899e-02
5.714568908601193042e-01
8.718221131724915862e-01
6.194983193521179654e-01
1.914766433352501074e-01
3.531350068990504742e-02
1.478105412410291586e-01
2.515576019711178724e-01
2.041806792406769822e-01
8.290676434104962689e-02
1.565751148927571612e-02
4.698052786591694341e-02
1.294429214373512549e-01
1.850567498374686148e-01
1.698874378771857985e-01
9.500043197768195946e-02
-6.965485404648349543e-04
-8.459657740464830711e-02
-1.411735839239021961e-01
-1.683251431057957159e-01
-1.694165096137774107e-01
-1.421452404776364642e-01
-8.226753456358204541e-02
-5.653886472066098345e-03
5.495454025834552864e-02
8.827281036234861655e-02
1.086929954120438580e-01
1.082512136551037341e-01
4.831561447302649276e-02
-7.006574637809953598e-02
-1.663875045389885121e-01
-1.618942860495730385e-01
-8.025466480106074885e-02
-1.269538371961657745e-02
-8.335234981255608411e-04
-1.295210727225959771e-02
-2.118730918662248969e-02
-4.245947859106220107e-02
-9.942034640053329375e-02
-1.789611743571110913e-01
-2.365668878511489881e-01
-2.265761340994146555e-01
-1.347075185360897265e-01
1.177540202066189659e-02
1.634553249073426862e-01
2.532050023665886607e-01
1.888736433067808307e-01
-6.617713115640919130e-02
-3.318220609238606289e-01
-2.496168587552633211e-01
2.920637398503688753e-01
8.465949625716567839e-01
8.565299515735510516e-01
3.628306213029033334e-01
-8.510952943120882186e-02
-1.451395197090654954e-01
2.526983983305039483e-02
1.176161290423381189e-01
2.963797786911207682e-02
-1.378198350883345635e-01
-2.593427858946462661e-01
-2.828330040766153797e-01
-2.227523474193845721e-01
-1.284610814793285816e-01
-5.404197978114436834e-02
-3.106758261454837730e-02
-5.753690020080939882e-02
-1.093781377603685323e-01
-1.650374507657930423e-01
-2.169053654630898609e-01
-2.592139125339832928e-01
-2.783777403866933287e-01
-2.566197862831648968e-01
-1.756548375997580014e-01
-2.932249113544155295e-02
1.472301120507376881e-01
2.669803879226523291e-01
2.406697406517616100e-01
6.713506859102652546e-02
-1.365296956884145818e-01
-2.432933969896809434e-01
-2.597068651037501841e-01
-2.997118703997454503e-01
-3.976804527967080505e-01
-4.361598555363598861e-01
-3.138327645391105758e-01
-9.590769896811084105e-02
6.208735670406878571e-02
6.802013617118565780e-02
-5.342775635752363556e-02
-2.042744463876766670e-01
-2.937334817021210465e-01
-2.855278618967888593e-01
-1.893381420760807954e-01
-6.028665107376070253e-02
-9.207920441113303517e-03
-1.126729370361858606e-01
-2.392874235711149877e-01
-9.344980018394122290e-02
3.738053587346677475e-01
7.336112697658925264e-01
5.745441837194404933e-01
9.031505433389472315e-02
-1.834985383208906917e-01
-6.123075624733544803e-02
1.875251058799592141e-01
2.812944785288015725e-01
2.052549258756558859e-01
9.161380343332625742e-02
1.123820697017986932e-02
-5.314457099545749630e-02
-1.033046213093153365e-01
-8.539676431466058926e-02
2.794508739744221149e-02
1.574511058861282342e-01
1.742823730850993902e-01
5.588053345212623535e-02
-5.259687642331357244e-02
1.135638100753621170e-02
2.012778875012815050e-01
2.662244877432250467e-01
6.897469853845050736e-02
-1.871471355260307390e-01
-1.858248810088334868e-01
1.067638280355427127e-01
4.039158242332666071e-01
4.408579544475356160e-01
2.386729278755304606e-01
-6.013506542898588991e-04
-1.412618948927593376e-01
-1.890169401872287269e-01
-2.048286386236062850e-01
-2.185323031275753780e-01
-2.129914904220563676e-01
-1.604259415141152112e-01
-6.331231351001957719e-02
3.630901805404129074e-02
8.221292213330688714e-02
3.980766399132384253e-02
-7.925007616037516023e-02
-2.131693845643872487e-01
-2.783838297549091068e-01
-2.248347913418567989e-01
-8.641542253495708426e-02
1.784538853239107936e-02
-1.587194419973344400e-02
-1.022497637840834583e-01
5.125893036534705238e-02
5.924081517966547361e-01
1.150768782005294755e+00
1.134767340502059962e+00
4.866015426873974148e-01
-2.040488055406343704e-01
-4.153173562065476943e-01
-1.970290373645444681e-01
8.002618050566065455e-02
1.846974406903067467e-01
1.406942535589901511e-01
5.744912235531493550e-02
-1.658179634416138970e-02
-9.614775068830780369e-02
-1.930329057099174628e-01
-2.818078701870297409e-01
-3.229733114426066032e-01
-2.992732679660345951e-01
-2.227522865767712079e-01
-1.224017683361818126e-01
-3.460965072975544232e-02
7.943911753571486142e-03
-8.290727038546342673e-03
-6.982758908434186229e-02
-1.370128316741259511e-01
-1.518481791475891907e-01
-7.070269420090127821e-02
8.170669066535232727e-02
2.073775130965249958e-01
2.235559615987351978e-01
1.486775378600115327e-01
6.904422851268605943e-02
3.660798087256898758e-02
2.667032054789353693e-02
-2.126811443001373758e-02
-1.342729190074182788e-01
-2.609946708652542968e-01
-3.068532369920025094e-01
-2.359528681416924456e-01
-1.088432026203083880e-01
-3.291973377366417750e-03
5.305269439973670648e-02
5.926586962938047015e-02
1.093558744606849473e-02
-8.163409549152095268e-02
-1.862913668681375756e-01
-2.884369155392605966e-01
-3.957103081827492153e-01
-4.360919572381010134e-01
-2.146270758030992820e-01
3.319595714344695803e-01
8.596670983508392094e-01
9.040266913570859098e-01
4.736468117561483115e-01
4.048207879177735669e-02
-6.282483855327881950e-02
5.963875291718567784e-02
1.498413230544773378e-01
1.219856947474462355e-01
6.776697052803769272e-02
7.700657059605638122e-02
1.325978262816856212e-01
1.606608281619494871e-01
1.265811849512808451e-01
5.185334976927000183e-02
-3.266449474345123338e-02
-1.075589628193787811e-01
-1.532704875772136766e-01
-1.560175655070874245e-01
-1.224907074105052313e-01
-7.063824219117420533e-02
-1.396611163784955423e-02
3.732079797196104221e-02
6.732244016936259068e-02
6.149596207640551510e-02
3.641526471081724114e-02
4.016585298051714853e-02
9.134586483868080420e-02
1.406027920349200711e-01
1.258952879711193462e-01
5.173651582112480385e-02
-1.463445770402966445e-02
-2.610391195976627388e-02
-8.494227834999474105e-03
-1.902875635124780598e-02
-7.627243824303087116e-02
-1.485091556767789422e-01
-1.956408721374086890e-01
-2.035610457559373088e-01
-1.782490362566338249e-01
-1.252626296926817873e-01
-5.493914900090662856e-02
5.575878888929010520e-03
4.159174078220544829e-02
7.692146044489496515e-02
1.097574784715355106e-01
4.685413053078659601e-02
-1.650018456415058288e-01
-3.125112390966600651e-01
-3.532058034280085440e-02
6.535031724450709456e-01
1.183843779033451060e+00
1.050550604845573055e+00
4.282515847017944188e-01
-1.136366101319382510e-01
-2.865504788467538866e-01
-2.203643360434363596e-01
-1.370525968939554640e-01
-1.202773825815349473e-01
-1.320282920397554682e-01
-1.203791479795192354e-01
-8.157292993657271063e-02
-4.819405687080463574e-02
-5.356831003864907792e-02
-1.070573480731814298e-01
-1.852249301588527186e-01
-2.487656731694013190e-01
-2.747145704174123737e-01
-2.700007815227279395e-01
-2.548060544060914978e-01
-2.393588636208107412e-01
-2.180381348816984866e-01
-1.807663305880511939e-01
-1.244425319403448388e-01
-4.898178834767247247e-02
4.246454346681296371e-02
1.160611202473236236e-01
1.094459920787320545e-01
7.227166504634084665e-03
-1.148299295102357398e-01
-1.643157153214211685e-01
-1.264744679209202083e-01
-6.031411420879215918e-02
-2.460606221326602783e-02
-3.194306001761874209e-02
-6.951008903009124607e-02
-1.334809799457665480e-01
-2.202885244256609365e-01
-2.986611901321872264e-01
-3.204811179731372195e-01
-2.704392683520467355e-01
-1.861497852911257467e-01
-1.100815591518026909e-01
-4.790974978095212389e-02
-1.409958949943705860e-02
-8.291869641789638423e-02
-2.890702388477584539e-01
-4.464366696501606002e-01
-2.274171556096440672e-01
3.934048582418128159e-01
9.212931742699329574e-01
8.734737414596288607e-01
4.050990730067058898e-01
6.513544705838036908e-02
7.965894489912615783e-02
2.113377631668409140e-01
1.974996416833864621e-01
3.698042576550621130e-02
-1.236729715379922545e-01
-1.941948899725960409e-01
-1.814753379266497713e-01
-1.229121107657789591e-01
-4.754842331424449786e-02
2.092133585608073679e-02
5.999321767742898937e-02
5.340367805209558089e-02
-4.498993489242784916e-03
-1.090279625073070774e-01
-2.342029215355459215e-01
-3.218333278404423847e-01
-3.185286384371422974e-01
-2.278438675547488357e-01
-9.215556003419714259e-02
5.678870658941771038e-02
1.874649625076704740e-01
2.433311233457497724e-01
1.890987505350343323e-01
6.785778068375779293e-02
-4.060299510483948021e-02
-1.025445200339697716e-01
-1.269308227776412001e-01
-1.147885156286647806e-01
-6.096918966736226964e-02
1.948924258552586775e-02
9.288786660869786937e-02
1.271545935664366023e-01
1.159679072029567160e-01
7.633671209419902459e-02
7.362023185018780336e-03
-1.139370437476446007e-01
-2.560306157375562552e-01
-2.969770226273235614e-01
-1.463685560060314361e-01
1.019430452141875248e-01
2.168652030559732879e-01
8.509665157788137702e-02
-7.850386869803649414e-02
1.140338167040165912e-01
7.006151658229912149e-01
1.135187225684122003e+00
8.947424186116994527e-01
1.941065915507957373e-01
-2.781357930277691959e-01
-2.036130482145931953e-01
1.281874102659951720e-01
3.060860308160847643e-01
2.229852218286767773e-01
2.826651028228309090e-02
-1.372185443839007979e-01
-2.532906413567915793e-01
-3.374030606708412483e-01
-3.720234907303071048e-01
-3.393159219556907691e-01
-2.597192960937355077e-01
-1.719943959757699592e-01
-1.117247830722684770e-01
-1.031397863070184495e-01
-1.340328234895722392e-01
-1.539556842321990748e-01
-1.368112818643602846e-01
-1.186527567710568554e-01
-1.240067083725376190e-01
-1.008593945918194179e-01
3.993104658572253947e-03
1.499709959172714491e-01
2.427018304873173604e-01
2.367251595205618064e-01
1.571814118057741072e-01
4.275958206201607714e-02
-7.648961298489537208e-02
-1.309034658795173167e-01
-2.720343256670016557e-02
1.985891185961468075e-01
3.365400789888549626e-01
2.479444375349612317e-01
5.162189031699188774e-02
-5.897939057069895297e-02
-5.511527149718559171e-02
-3.775845933237326896e-02
-7.609206664044076973e-02
-1.445164459298152182e-01
-1.763439661261815006e-01
-1.570306055016932323e-01
-1.526156081667788544e-01
-1.976805009726774198e-01
-1.522385861677394148e-01
1.872804233464967771e-01
7.177173211628691263e-01
9.694200189900804565e-01
6.624674379346403574e-01
1.152669083036884090e-01
-1.695051491206990002e-01
-9.706057799462793068e-02
6.881655133232747468e-02
1.208123432655051482e-01
6.474598338459580660e-02
-1.242965337561251910e-02
-6.786023998902082632e-02
-1.097703005430417378e-01
-1.523721585124194755e-01
-1.867623493230304854e-01
-1.915345908849457046e-01
-1.575002327827674520e-01
-9.445922545212974419e-02
-2.909467597528622718e-02
9.047427015892334570e-03
1.875153876254638183e-02
2.282217207210572932e-02
2.199333815079929783e-02
-8.180891369664411092e-03
-6.607735750888224513e-02
-1.051285719023776905e-01
-8.009221168626073917e-02
-1.522577208794607256e-03
6.957357403771748106e-02
8.740110663701276816e-02
6.480668729618214996e-02
3.636897572855617156e-02
-4.241162107785242247e-03
-9.953966879832419623e-02
-2.492183345603420364e-01
-3.667208213970114539e-01
-3.568050636043487711e-01
-2.206931606643320332e-01
-5.331252678266845679e-02
4.640004540680282841e-02
5.048130103256498469e-02
8.506061488302955886e-04
-5.318820384421080183e-02
-8.963951689860072403e-02
-9.038983259448531149e-02
-5.021032867784559761e-02
-3.203446123689370623e-02
-1.181077763704857647e-01
-2.194768831676887633e-01
-3.944102088688669627e-02
5.524678726578400312e-01
1.153301110733022439e+00
1.170371307942368100e+00
5.690653698038554698e-01
-7.141312068227284593e-02
-2.779694385122480349e-01
-1.307151648836802627e-01
2.904490370473115923e-02
4.313692428429003606e-02
-9.014050403973912495e-03
-2.612791411498611299e-02
-9.935603974977268507e-03
-6.375094056567555748e-03
-2.578039655557717511e-02
-5.793589271052331652e-02
-1.134857382521723829e-01
-1.960589317960466649e-01
-2.599096528789477945e-01
-2.521397718982877345e-01
-1.856744171031467217e-01
-1.227607910459095203e-01
-9.364633433283563180e-02
-7.406298478050866996e-02
-3.868237123069019623e-02
4.935022156609908915e-03
3.834147705624951080e-02
5.354550092558435503e-02
4.701891616479841191e-02
2.068473646405098038e-02
-2.710697518376105689e-03
1.148469550587342264e-02
7.140917793885516451e-02
1.367694265190946279e-01
1.438960546404545737e-01
5.986288587103623382e-02
-8.421137932116128100e-02
-2.148382998615503969e-01
-2.715103960715297138e-01
-2.478083502160894069e-01
-1.849023727431373665e-01
-1.247688745301832464e-01
-8.010439866160271039e-02
-5.035649871672849553e-02
-3.898512954023734822e-02
-5.232057686534116042e-02
-1.123608380682929592e-01
-2.470972093060354591e-01
-3.917062544724711493e-01
-3.294649433859938581e-01
8.507689217291608541e-02
6.033851355671073780e-01
7.546267310951129126e-01
4.455130013363808872e-01
8.224842146212681115e-02
5.028319463182936294e-03
1.171012230198804627e-01
1.482719357639881441e-01
2.825389809137233976e-02
-9.927654817586800684e-02
-1.093457148427029874e-01
-4.695914642690687119e-02
-4.702202293504344210e-02
-1.382057672162314843e-01
-1.875568735750149929e-01
-8.790135180136152138e-02
6.896882995510784931e-02
1.031113646663043559e-01
-2.311813064963561676e-02
-1.833270055551817490e-01
-2.552959538485347624e-01
-2.239736464609420608e-01
-1.400851531443749465e-01
-4.827683458106041964e-02
3.880602930591656174e-02
1.197592594586171094e-01
1.589887769165035936e-01
8.909644658541097939e-02
-9.235504337829397725e-02
-2.626256430869525760e-01
-2.927599319792845711e-01
-1.971009271939464791e-01
-8.906188772388010100e-02
-3.627898262844909266e-02
-2.727458832588466886e-02
-3.414093255181429448e-02
-5.265856583541402014e-02
-9.971544245580850341e-02
-1.851738071182306711e-01
-2.678746333423289716e-01
-2.653185531781428463e-01
-1.548170658704661473e-01
-2.467615742406659846e-02
3.795617622510109868e-02
5.085931608506183421e-02
5.354517372228460859e-02
4.948038604519339190e-05
-1.318880950964626542e-01
-1.552940865760321087e-01
1.824128897403230198e-01
7.605789622676444317e-01
1.048993626737937390e+00
7.379060506456111002e-01
1.601953312385046568e-01
-1.420765415242861152e-01
-4.106538650091255682e-02
1.711221856097623062e-01
2.107827742113716762e-01
6.035752735839314959e-02
-1.266415312114850256e-01
-2.274119098214993917e-01
-2.203027491743491106e-01
-1.380492347184517909e-01
-2.949268419735728841e-02
4.898722255959844785e-02
5.972157548950673966e-02
9.412462004836018650e-03
-6.780127183289616499e-02
-1.433013110613527707e-01
-1.995754288770481277e-01
-2.224467049281073083e-01
-2.073334240262338091e-01
-1.597120830506990052e-01
-7.522438112570903335e-02
5.466797772925585663e-02
1.917365335501301782e-01
2.355111717204238231e-01
1.122850585319806055e-01
-1.147052593603967580e-01
-2.771033792860008171e-01
-2.728286052748984947e-01
-1.581251121986650965e-01
-4.686866956135407603e-02
1.488779021351051973e-02
4.772201029331481908e-02
7.500499861987097727e-02
9.370685718947466269e-02
8.480610654324344244e-02
3.626886004959845727e-02
-4.134186139306354757e-02
-1.181542868771746219e-01
-1.584616500587705812e-01
-1.322268302235551918e-01
-4.106361223853172149e-02
4.516289839667119582e-02
2.857794740641602868e-02
-6.069752058754711993e-02
2.930976175274985565e-03
3.754061527955627198e-01
8.000635174831643992e-01
8.045763975994640882e-01
3.323089155382971116e-01
-1.327328408659022574e-01
-1.783778143895990986e-01
9.172522526695500722e-02
3.095763797962431396e-01
2.929353365364210093e-01
1.357150516659463568e-01
-1.242224865989133807e-02
-1.128670545788802715e-01
-1.904325082753560716e-01
-2.325460916530665278e-01
-2.049304676893322907e-01
-1.236365634706023398e-01
-5.048896047369204332e-02
-2.439184766390198322e-02
-3.015304315922105044e-02
-3.370433160589391547e-02
-2.720100187719242876e-02
-3.729936568301974592e-02
-9.475363448923970755e-02
-1.866200884233607249e-01
-2.405679325238454791e-01
-1.823776849766657604e-01
-1.921496254556467539e-02
1.487223653020776637e-01
2.102672711535455985e-01
1.374564447587029170e-01
-3.592512425802787956e-03
-1.277613020205695948e-01
-2.018309571381305956e-01
-2.439560462222047366e-01
-2.714813471204973183e-01
-2.652957153563409998e-01
-1.976754045194934473e-01
-8.345954718501391589e-02
2.295339077745132267e-02
7.520579802774278455e-02
6.036400478388211088e-02
-9.272212298963975266e-03
-1.028590888879241522e-01
-1.673376614675501639e-01
-1.482510407032713307e-01
-5.407680856277938264e-02
6.612683183997439956e-03
-6.175369762257298945e-02
-1.186591567839150319e-01
1.756933025604233423e-01
8.589902970219680522e-01
1.371332724029615591e+00
1.156135905785140361e+00
4.083727559768228765e-01
-1.773046038714219119e-01
-2.434082115404508084e-01
-9.131487174344747604e-03
1.774842702261383853e-01
2.084602602259991444e-01
1.536967450444598760e-01
5.636317354631661253e-02
-9.717540744602609637e-02
-2.740855640010473881e-01
-3.820941518250967617e-01
-3.777685185067287676e-01
-3.107005297619791495e-01
-2.411943186364555181e-01
-1.771979288427796284e-01
-1.063578452692709314e-01
-4.046262097266768026e-02
-7.427674368357792614e-03
-1.975629125138060951e-02
-6.334309033757103136e-02
-1.062581115358177952e-01
-1.111513692097166328e-01
-5.794742161681960130e-02
2.716645219442365145e-02
8.386208744478962362e-02
8.432801081359912743e-02
6.893567290911695178e-02
8.700288714235468457e-02
1.249586885360039340e-01
1.246988043329704393e-01
5.640651351530286128e-02
-4.640804393483981272e-02
-1.144753927273958194e-01
-1.020988830989952301e-01
-2.542120718250659439e-02
5.725759927815364525e-02
9.863036133930357108e-02
9.424559606806739986e-02
6.852705602832831477e-02
3.718995408331939728e-02
-9.122057451639955725e-03
-8.864090110885022855e-02
-2.065126568490605330e-01
-3.242417402066671839e-01
-3.188454455099042906e-01
-4.665694113587156439e-02
4.229921291640657555e-01
7.280696955848966478e-01
5.980449902506845827e-01
2.261556441599159029e-01
8.764182490807098658e-03
4.275002867247741645e-02
1.115591889910851203e-01
4.600936774388680872e-02
-9.324275848967625291e-02
-1.494736609752121692e-01
-7.083495517141692732e-02
4.890607814200408077e-02
9.374681536169246487e-02
4.122856486928698494e-02
-5.409772776888108897e-02
-1.407757860170278374e-01
-1.947022781973317407e-01
-2.022646561468488535e-01
-1.683393901686244531e-01
-1.217218920322618581e-01
-8.181877828003032704e-02
-4.513981435679960408e-02
-1.873803662808079876e-02
-1.994541566019714801e-02
-3.235678476692906841e-02
-1.918250326261215430e-02
1.052740783318691781e-02
1.788533340069453853e-03
-6.490919448635582012e-02
-1.262119398613497923e-01
-9.870507271099250579e-02
2.050943462724493654e-03
1.752179487875240790e-02
-2.128347254455112969e-01
-6.041958730029310942e-01
-8.238518364104686631e-01
-6.749049129299289351e-01
-3.488970782745424715e-01
-1.430666226678713182e-01
-1.030186242296228655e-01
-8.949997779113809393e-02
-3.167584104901112474e-02
2.345750987552327332e-02
2.806135635728527339e-02
-1.299845154331524463e-02
-1.003901335452445087e-01
-2.547109041676960950e-01
-3.879881774925254545e-01
-2.423079325036413822e-01
3.162538097899630918e-01
9.442267342769111726e-01
1.088738182297017243e+00
6.719284380195866824e-01
1.737099324357654906e-01
3.014115453899568475e-03
1.027555272306497486e-01
1.891943955270910249e-01
1.239502927981356306e-01
-1.627333599646704765e-02
-1.035702796852431273e-01
-9.561005829972021863e-02
-3.481690112497322354e-02
2.029774392545785275e-02
3.936723128232952340e-02
1.540135600508492353e-02
-5.116333126287356259e-02
-1.425552720177183375e-01
-2.157336266884525566e-01
-2.316523332935706558e-01
-1.894477584294524397e-01
-1.230950797575683375e-01
-6.831946896534217550e-02
-2.957056370199687145e-02
2.380084944751393108e-02
1.130538057785746425e-01
1.959039689123344696e-01
1.870517801918768763e-01
5.472745810665977095e-02
-1.240166022741357038e-01
-2.247498134034763839e-01
-1.857823681883219447e-01
-5.327795830257366777e-02
7.416756787155841246e-02
