1.377000289238655695e-02
-1.020395626475676387e-01
-1.920862645880374309e-01
-2.539587280600273944e-01
-2.955303132566728941e-01
-3.069557174284066048e-01
-2.688842627036214239e-01
-1.853036925047875094e-01
-8.612505458680712322e-02
1.226585220810269897e-03
6.506574880986515375e-02
8.467872283761296304e-02
5.658290780715783536e-03
-1.878100946666623472e-01
-2.974087754961755037e-01
6.307168140428534575e-02
9.636536657736942679e-01
1.749111750331042270e+00
1.636058098413017081e+00
7.438216211584901538e-01
-2.519794071962233595e-02
-1.257521378407238655e-01
1.550942694716166692e-01
3.089917601987787754e-01
1.987554917045503966e-01
1.202002296802976919e-03
-1.226696189832842121e-01
-1.651349272910779542e-01
-1.889429670977655351e-01
-2.208346510707259458e-01
-2.355144244555719690e-01
-2.142214750023433700e-01
-1.914860841522840473e-01
-2.188740336804212150e-01
-2.926931295339113559e-01
-3.538708257225017251e-01
-3.576734280306074210e-01
-3.100749479032735012e-01
-2.376201224435757209e-01
-1.526766157427130177e-01
-5.384035529229561079e-02
5.112543810978090186e-02
1.302901025478740704e-01
1.467785687916908222e-01
9.508365477552135903e-02
8.210420584367737751e-03
-6.986261520862423191e-02
-1.124569095166946253e-01
-1.164265908412124850e-01
-9.178471237399288274e-02
-5.554761491083144709e-02
-3.209340541712369516e-02
-4.234240830602965106e-02
-8.930483277322610880e-02
-1.573920178225022559e-01
-2.132757074834313316e-01
-2.149204564633476477e-01
-1.637566323772846333e-01
-1.427738297174667159e-01
-1.977136037240951327e-01
-1.243609536999409210e-01
4.397791239746708936e-01
1.449838170430769013e+00
2.137016725105334025e+00
1.758619332334690588e+00
6.315387779181587113e-01
-1.672313775505294142e-01
-1.149800225878596927e-01
3.223776257652270494e-01
5.184466525771348477e-01
3.834408363327955205e-01
1.792497348967064252e-01
6.139209534446730260e-02
-1.380107571650181220e-02
-1.107336124901453361e-01
-2.135021032937732544e-01
-2.817851412404982492e-01
-3.145196817065607497e-01
-3.231256765387949814e-01
-2.870898411388257965e-01
-1.873237342908868897e-01
-6.517188546286370454e-02
1.351841233301918910e-03
-1.984268563342099848e-02
-9.013899294928373607e-02
-1.566784630639704301e-01
-1.932179686259785090e-01
-1.776204046410223558e-01
-8.423058565626846683e-02
6.713402589283454236e-02
1.936387367997176590e-01
2.179939085941673127e-01
1.391398404239583553e-01
1.771521440933886138e-02
-9.151026785518243112e-02
-1.744918530519383726e-01
-2.381153747877978732e-01
-2.824881241298221046e-01
-2.992486387533457304e-01
-2.827969886043307235e-01
-2.355939214134037396e-01
-1.668908104416917393e-01
-9.330619091128926346e-02
-5.260320114394876484e-02
-1.056727680930753532e-01
-2.534417813865710301e-01
-2.968074511769867030e-01
1.005341903809845866e-01
9.707108478661810036e-01
1.708015028008221359e+00
1.588621946089380010e+00
6.987696059638847101e-01
-1.142967832610545659e-01
-2.737160363237374772e-01
1.667092681818221900e-03
1.951487453570187047e-01
9.310628277641309902e-02
-1.591642819628236172e-01
-3.329083196943409817e-01
-3.343802227205810440e-01
-2.325102991563115507e-01
-1.534424897207357918e-01
-1.605902596627784562e-01
-2.257540912048823512e-01
-2.947790461533652540e-01
-3.472101911253271389e-01
-3.898150248544990926e-01
-4.244769959009415672e-01
-4.359732462661511931e-01
-4.046630443784042797e-01
-3.299858664439364597e-01
-2.357423542581439935e-01
-1.478261087663058915e-01
-7.653135671483382585e-02
-2.521954923238068844e-02
-2.611664888250661912e-03
-1.147784042124857899e-02
-3.407708800730177567e-02
-5.376124299613290608e-02
-8.860819107430975561e-02
-1.687926231747637618e-01
-2.704744038455050292e-01
-3.183981558982941773e-01
-2.838605521168545698e-01
-2.301500726560783694e-01
-2.289546477429054427e-01
-2.804892858400840350e-01
-3.314009436871817593e-01
-3.329470944591670367e-01
-2.920107075259959495e-01
-2.924225089139776967e-01
-4.066204555318313485e-01
-4.915017979611438492e-01
-1.492843900438957372e-01
8.137522865309981812e-01
1.820677073749652930e+00
1.894948606897845833e+00
8.780698966476165879e-01
-2.504715102915225922e-01
-5.727109504707136312e-01
-1.994626490706414845e-01
1.905103151110066617e-01
2.393344620442303672e-01
7.462966230102079102e-02
-7.586054491928938270e-02
-1.499198940782399125e-01
-2.045999108039916470e-01
-2.810376250821405852e-01
-3.602496707517416352e-01
-3.983124225531758933e-01
-3.719183016529435948e-01
-2.972992086042219873e-01
-2.142265575632699426e-01
-1.557777561768717844e-01
-1.330859886675211656e-01
-1.422720900079640360e-01
-1.780147660628167705e-01
-2.274274480691868827e-01
-2.527495413572686811e-01
-2.089578620286362542e-01
-8.889842263944493228e-02
6.100523673280150438e-02
1.685424526166249826e-01
1.829914622788872958e-01
1.134090026235571869e-01
2.603482640765288070e-02
-1.104081984947221165e-02
4.491610811017242993e-04
-1.041640360825215120e-02
-8.168896253760560278e-02
-1.569727625456101838e-01
-1.672635895484558544e-01
-1.174521915512997117e-01
-5.073844214423229443e-02
1.267220817211863262e-02
5.124199940792439206e-02
-8.292584248104041197e-03
-2.160003192133400918e-01
-3.842828728745749656e-01
-6.800609126334847265e-02
9.121143189929578066e-01
1.916772020948739774e+00
1.983798945689711601e+00
1.045681603058106646e+00
7.095596750261487506e-02
-1.647633150045566264e-01
1.495746350895482690e-01
4.022244388821711314e-01
3.200812702470125504e-01
5.669620358349626577e-02
-1.435143864409689773e-01
-1.927641587560252057e-01
-1.609822543134041828e-01
-1.528493765354513589e-01
-2.090876029511808676e-01
-2.844244878438829671e-01
-3.052741647354845211e-01
-2.587579468169163288e-01
-2.056218402470282314e-01
-1.979217088382539402e-01
-2.177519014006653875e-01
-2.119735483037673562e-01
-1.611534380233959063e-01
-9.125904954858776730e-02
-2.868139750219369719e-02
3.149038006980955928e-02
1.064462263242826473e-01
1.840785168038566177e-01
2.182086874244438257e-01
1.785408937805689489e-01
8.884648469540541715e-02
4.636980969847347145e-04
-5.322389059672508888e-02
-6.782413741699297449e-02
-5.639489529553649849e-02
-3.811401480049859958e-02
-3.084666860622323897e-02
-4.836710053671126885e-02
-9.501131391524182679e-02
-1.519074012496169357e-01
-1.761810880313974259e-01
-1.444147786932729327e-01
-1.108267086339933538e-01
-1.659510726841947059e-01
-2.482028594827980772e-01
-3.912971917641833164e-02
7.066437876836693111e-01
1.615946833000754701e+00
1.852398503140790131e+00
1.117673321959180566e+00
1.033919027105390520e-01
-3.670692971905629709e-01
-2.169197162376715338e-01
9.674050284672809641e-02
2.409987241493108667e-01
2.087415258776882943e-01
1.008076520979455520e-01
-6.290700756777353742e-02
-2.915506659679653612e-01
-4.989955375489881217e-01
-5.666756483079838924e-01
-4.998844729788428642e-01
-4.028904025668041955e-01
-3.321210296738561496e-01
-2.700045751893622170e-01
-2.065693195157191631e-01
-1.630928190726454452e-01
-1.461536459223806428e-01
-1.389295534757695461e-01
-1.448982217022555530e-01
-1.885752275382276133e-01
-2.437347149769155952e-01
-2.130444098836111189e-01
-4.332542203195235975e-02
1.746156123872385224e-01
2.884377588667774717e-01
2.370068844421349130e-01
7.800357455109502292e-02
-9.322563921292797984e-02
-2.153049537852857187e-01
-2.776961675194202228e-01
-2.931374336438314909e-01
-2.665558341192834635e-01
-2.006446252396974772e-01
-1.181223177760121756e-01
-5.356933630911270283e-02
-2.085816500248483668e-02
-1.292184303077082222e-02
-5.458778424522298806e-02
-2.174139959130377830e-01
-4.760392744805320708e-01
-5.216188710538973705e-01
5.966402681935977642e-02
1.161675419167546908e+00
1.921376721015686240e+00
1.588690004625541219e+00
5.097576893053865632e-01
-2.768831621848668600e-01
-2.756491339171144306e-01
1.156435828204723237e-01
3.151660894293182302e-01
1.771101133875565559e-01
-6.556555756674370405e-02
-1.831056267858454378e-01
-1.539023152647523429e-01
-8.702288191722770683e-02
-7.080546208984736523e-02
-1.164724936669894462e-01
-1.914746418743261402e-01
-2.660340466066193899e-01
-3.229942937746472231e-01
-3.443806323317077922e-01
-3.165654417631256212e-01
-2.477007420707952323e-01
-1.682790523878610334e-01
-1.165005486085067266e-01
-1.095949578416130638e-01
-1.217271269397829786e-01
-1.150135395968608920e-01
-9.018966791440793940e-02
-7.623160433259401625e-02
-8.433770284813925378e-02
-1.057665440417843022e-01
-1.365368611598834492e-01
-1.691657651441899612e-01
-1.717018299326689146e-01
-1.123972565771931692e-01
-1.693935814600777690e-02
3.078204275914031215e-02
-2.549235953263052218e-02
-1.534803107306701997e-01
-2.764025436934395286e-01
-3.353479454034446472e-01
-3.030607783998401361e-01
-2.129341813124087102e-01
-1.836929910351406681e-01
-2.784246908932329623e-01
-2.605405756846059795e-01
2.875211184104488615e-01
1.308911587646093500e+00
1.960311494883573147e+00
1.497040741023503152e+00
3.245794982276919427e-01
-4.531452095169472005e-01
-3.744231018898829810e-01
7.615130266961218919e-02
3.026179457610501111e-01
2.028980705712455368e-01
1.086308326539416405e-02
-1.008665385214321392e-01
-1.710103917604214874e-01
-3.149429794253982839e-01
-5.249235933781322139e-01
-6.525446097219719244e-01
-5.954899381410647674e-01
-4.211213206354927907e-01
-2.660794008354259166e-01
-1.964206034424928193e-01
-1.979498538708093225e-01
-2.277760411532941121e-01
-2.457069774225075220e-01
-2.373261007955333735e-01
-2.218822260065075880e-01
-2.155566968302366770e-01
-1.891910150943864333e-01
-9.497999558262101849e-02
5.952681019286251707e-02
1.969012226583777836e-01
2.409021642191545298e-01
1.779794846534718533e-01
4.936812447361198924e-02
-8.033272782040140614e-02
-1.448608748389617895e-01
-1.291856823714802316e-01
-1.424145345123587203e-01
-3.476712101760656148e-01
-6.992049075460051721e-01
-8.683604421761603742e-01
-6.290954079953943179e-01
-1.813423469271939203e-01
8.864875218569322202e-02
4.044375906298330881e-03
-3.094786384137174773e-01
-4.808859654952228335e-01
-6.774835360716158217e-02
9.504292724330365427e-01
1.838780749752163768e+00
1.749621448905634313e+00
7.802036529606596327e-01
-1.102099588793483687e-01
-2.705018755798612728e-01
5.562243096739967474e-02
2.932171356758137004e-01
2.153323116579316798e-01
-1.210557582401432242e-02
-1.615654512343926708e-01
-1.679800563531298752e-01
-1.136685160534261496e-01
-9.931690311026032669e-02
-1.449527326734972588e-01
-1.973993249794921412e-01
-2.152277612930378614e-01
-2.155069753233962992e-01
-2.292860504606018257e-01
-2.461786607710290953e-01
-2.281468975601764204e-01
-1.650095649033608280e-01
-9.246006750687886522e-02
-4.768547361686240049e-02
-2.255984776709762246e-02
2.479182571689964379e-02
1.134530655530008869e-01
1.963684626646103326e-01
1.886339705087723695e-01
6.650001578944481073e-02
-8.044227603516532210e-02
-1.367249006862918392e-01
-8.175469908603859304e-02
7.183343424050681741e-03
4.796616780697083443e-02
2.349295867866560070e-02
-3.379644484312509245e-02
-9.883646578813456984e-02
-1.631814793360842064e-01
-1.996161620091075617e-01
-1.690971904696112194e-01
-8.832473611701228966e-02
-6.287678029402547775e-02
-1.681226842303522040e-01
-2.279211391400929043e-01
1.558110946492846094e-01
1.075091684138602899e+00
1.874937136012391203e+00
1.719383882122978546e+00
6.833337655646377629e-01
-2.543661059819625758e-01
-3.977552934819043040e-01
1.365515033770096920e-02
3.673575869080562550e-01
3.951218701490174512e-01
2.291035664693269192e-01
6.341864438573541207e-02
-5.403252212222603434e-02
-1.662692411916384394e-01
-2.820861125179032203e-01
-3.546337461833075078e-01
-3.459095786135094608e-01
-2.740627198572537226e-01
-1.934486995263459685e-01
-1.392427720359894761e-01
-1.065976162773348973e-01
-8.624385894299584077e-02
-9.431629744837634333e-02
-1.481682302420277986e-01
-2.293606304661308104e-01
-2.832739944722537095e-01
-2.493265321771122311e-01
-1.039822514026393363e-01
1.056788716138379880e-01
2.775079866481615642e-01
3.254801509654718372e-01
2.470651612199805669e-01
1.109193540054609628e-01
-2.462249323520221064e-02
-1.500239299900048284e-01
-2.532183759217472852e-01
-2.853019679156244548e-01
-2.158101133840887864e-01
-8.671385581969343059e-02
1.939443756990723647e-02
4.419926755513463312e-02
-1.339047162092449339e-02
-1.067871075875413550e-01
-2.115678955361612046e-01
-3.667112119371284673e-01
-5.070328159346785268e-01
-2.871026710115865410e-01
5.700340608496239359e-01
1.620362586068899713e+00
1.898385612501997111e+00
1.102958367053693101e+00
6.668473865403279355e-02
-3.094552227275792489e-01
-4.951256273066971525e-02
2.478167165424617902e-01
2.369273223153081642e-01
2.170664143137106261e-02
-1.663442586693734959e-01
-2.269163537212900983e-01
-1.945884643285748505e-01
-1.428310927788060125e-01
-1.299270992018027870e-01
-1.804896286851154774e-01
-2.725049574750944559e-01
-3.534004383294905294e-01
-3.857575043267182369e-01
-3.730647309651100585e-01
-3.391794135842659541e-01
-2.918160877926161412e-01
-2.197823073475014821e-01
-1.287520140608751917e-01
-5.329064377924717932e-02
-1.438241602691763335e-02
6.273013765819898842e-03
2.496858470021681362e-02
1.933717475490755178e-02
-3.438403338967163658e-02
-1.116461536054395021e-01
-1.617030474047106703e-01
-1.634575211508490222e-01
-1.383182742016725308e-01
-1.212238843367084429e-01
-1.277332110864021486e-01
-1.471823180788485175e-01
-1.696376058084708149e-01
-2.054420446510059339e-01
-2.548965254141038472e-01
-2.709955705119877489e-01
-2.069627524541438612e-01
-1.215858917521076277e-01
-1.527946636463874130e-01
-2.734846238415787889e-01
-1.314402556659547416e-01
5.943385445056880156e-01
1.563392472485501283e+00
1.880132631252094288e+00
1.153413877726430226e+00
7.163059970749940941e-02
-4.389244798238985390e-01
-2.363281015871723789e-01
1.596423556363357754e-01
3.204691832429955034e-01
2.244969134251776355e-01
4.157890594903599496e-02
-1.137878036631295997e-01
-2.185762217941508156e-01
-2.807220445339045911e-01
-3.145911419481352000e-01
-3.386242731672546302e-01
-3.568102317617322661e-01
-3.540612151378740857e-01
-3.192594802914991980e-01
-2.598902451724752760e-01
-1.997786659612554583e-01
-1.720943759105882653e-01
-1.972526942249354376e-01
-2.564082293411098501e-01
-2.981711596401883657e-01
-2.749350607191402562e-01
-1.695300031397330709e-01
-4.121959259612709495e-03
1.589269809622613217e-01
2.439119688134996355e-01
2.142401690615717835e-01
9.415838806996398858e-02
-5.969010733608266089e-02
-1.913451951125970663e-01
-2.614727232986959748e-01
-2.634734351317435386e-01
-2.284476223759872027e-01
-1.924599027570988163e-01
-1.566453035441428832e-01
-9.235394165467308847e-02
1.659034945083650778e-02
1.310801840611051372e-01
1.424246659524348035e-01
-5.654731108569038822e-02
-3.920614038660314438e-01
-4.897111616802576339e-01
6.828113403223576294e-02
1.144701745624785216e+00
1.893180380721329215e+00
1.613468106138356672e+00
6.336613919641431725e-01
-1.061985641279259429e-01
-1.790252928704031410e-01
6.536377769142039107e-02
1.697774287841932184e-01
6.210802440133642022e-02
-7.851451006627402363e-02
-1.381406753419316125e-01
-1.498054630930655828e-01
-1.745315690202588477e-01
-2.145662253903881378e-01
-2.467109955242204888e-01
-2.715206176716269404e-01
-2.984472831955803929e-01
-3.209831251747397030e-01
-3.302887510496381740e-01
-3.294197698828942866e-01
-3.156060065198231790e-01
-2.673346594068810589e-01
-1.762126837387041900e-01
-7.773948516742235082e-02
-1.806983327458022009e-02
-7.828451951879828591e-05
7.502224200643763802e-03
1.767490618928199003e-02
1.734293200536290297e-02
4.908929311096514245e-03
-2.485448069219917469e-03
3.252159330203504423e-03
1.059181494848339226e-02
7.861478796735137803e-05
-3.845058403750176157e-02
-9.359569386224435295e-02
-1.506252818389763604e-01
-2.242996312045098251e-01
-3.316479451329877315e-01
-4.164237494999537548e-01
-3.729769969180708467e-01
-2.047080997736891450e-01
-9.058996730723664625e-02
-1.784305309585745292e-01
-2.894459625339602105e-01
3.403174966106625732e-02
9.456963774286410995e-01
1.792016754093219477e+00
1.665553408919983713e+00
5.998052937587198263e-01
-3.602093790568413612e-01
-4.397580325230416309e-01
9.421051679195714679e-02
5.197111287603389806e-01
4.871992602417312690e-01
1.619023103601551217e-01
-1.327288241300598470e-01
-2.539910016372023405e-01
-2.776019118398558305e-01
-3.096958893253952128e-01
-3.547738532109215859e-01
-3.598158592184608762e-01
-3.051413214403425611e-01
-2.222209556357502280e-01
-1.600748734596719181e-01
-1.519910783484435535e-01
-1.951429720977523874e-01
-2.524420736763192674e-01
-2.821950958683542843e-01
-2.691737030628453264e-01
-2.221979054258891306e-01
-1.446864451874734503e-01
-2.614473952891288241e-02
1.240104010000385448e-01
2.515856456155784460e-01
2.911836250771124845e-01
2.186268661180234274e-01
6.340596482822849489e-02
-1.108574853949925165e-01
-2.356012482325537394e-01
-2.718355784588455393e-01
-2.294244946257927575e-01
-1.541746408436708848e-01
-9.436275158631138305e-02
-6.618718545811970444e-02
-4.129036991295867431e-02
1.377052134727654864e-02
6.231612424874666267e-02
-8.410707714509807129e-03
-2.361723744264379310e-01
-3.855359116154848387e-01
-2.397514704885256309e-02
9.563076269891963577e-01
1.908785684975515151e+00
1.952788299857894483e+00
1.052772217027960089e+00
1.000071704149005092e-01
-1.944015402027101380e-01
1.998886822341398167e-02
2.145789618608922034e-01
1.579823811828331148e-01
-1.381121354437624821e-02
-1.114292645179028457e-01
-1.027051155089279827e-01
-7.523679619643797167e-02
-1.036562649605187736e-01
-1.871170886031809921e-01
-2.789205897093317010e-01
-3.392209539616511393e-01
-3.571295226797880362e-01
-3.451841020538775617e-01
-3.334486681495178462e-01
-3.547994296637181355e-01
-4.005224567242796629e-01
-4.063971268336063480e-01
-3.309165882745160880e-01
-2.194816756001693736e-01
-1.411241155194113417e-01
-1.030610445600662617e-01
-7.034658231062039524e-02
-3.197361084610175069e-02
-1.142887313469927169e-02
-2.537315137350650354e-02
-5.886101283635213066e-02
-8.710544964208784269e-02
-1.058282775354132399e-01
-1.290202585584025452e-01
-1.630199045095334642e-01
-1.986038410697274770e-01
-2.308460930021885849e-01
-2.631389486945687195e-01
-2.795232664090735453e-01
-2.403094502068134353e-01
-1.397919804141966038e-01
-6.717072104331849036e-02
-1.446381929558981372e-01
-3.081097897452286793e-01
-1.852355324319098218e-01
5.524006428337002728e-01
1.574558023942281837e+00
1.972886588647083883e+00
1.301018370024451976e+00
2.076623383209117435e-01
-3.496501774250576622e-01
-1.787687089538273488e-01
1.986535035173110642e-01
3.330506675968596952e-01
2.269934566462857295e-01
8.187054722510417326e-02
-3.057316111911493467e-02
-1.626162317769831722e-01
-3.058328417656127618e-01
-3.673449694816677824e-01
-3.068081167560355871e-01
-1.947163004119691621e-01
-1.246554741000388961e-01
-1.214055597691042765e-01
-1.503849484509091894e-01
-1.784990587784509863e-01
-1.999290731399342713e-01
-2.241000987907517672e-01
-2.551383217858515517e-01
-2.734355328406864460e-01
-2.379783700819677050e-01
-1.210337517699638377e-01
5.275871995409769921e-02
2.074533969312190029e-01
2.671555866556588055e-01
2.124153677213999614e-01
8.709258024184228508e-02
-4.421767143285290635e-02
-1.410417039921324778e-01
-1.975398838468115925e-01
-2.229448717857761553e-01
-2.231473050428495197e-01
-2.006041711272439076e-01
-1.621788024043516185e-01
-1.233922183789383648e-01
-1.002784886278187959e-01
-9.771687098349797485e-02
-1.342887204489933428e-01
-2.690786180715359910e-01
-4.889938874743395281e-01
-5.061248815533614387e-01
1.059191395380648937e-01
1.266021543017328721e+00
2.081654728153109701e+00
1.737811150861954035e+00
5.826324124229347312e-01
-2.705868125470892727e-01
-2.900923259353779815e-01
9.110327322036383679e-02
2.660004349929191991e-01
1.111717407296514276e-01
-1.172183258863950805e-01
-2.038491524081868234e-01
-1.612572393709640617e-01
-1.117708334441570583e-01
-1.264241503307377557e-01
-1.971112205605735079e-01
-2.900179511934042886e-01
-3.768626518423888738e-01
-4.338010976445871858e-01
-4.437339386075129233e-01
-4.003008228311950578e-01
-3.047666992594853519e-01
-1.758894216081287598e-01
-6.633136520622412435e-02
-3.701826731225708184e-02
-8.921594894236954676e-02
-1.434765816978817443e-01
-1.221695128166271488e-01
-4.165362952606496694e-02
1.299554085680070838e-02
-5.706497474889360086e-03
-6.427659191180626341e-02
-1.104085500232004358e-01
-1.385614770788261285e-01
-1.695455061202338909e-01
-2.015590191168375456e-01
-2.240206251798023407e-01
-2.474301015733941789e-01
-2.807210951460262782e-01
-3.039013108996470036e-01
-2.792511235618531096e-01
-1.862672309330166975e-01
-7.705697086653054417e-02
-8.607963579374228180e-02
-2.570530703829280728e-01
-2.884829072319202714e-01
3.137553146009022798e-01
1.503723052325375731e+00
2.333919505135273020e+00
1.916567574643438965e+00
6.212348473069688737e-01
-3.419020622730735148e-01
-3.774805094057297472e-01
7.179401531929041624e-02
3.512015348893958722e-01
2.747392459788024488e-01
3.750678867771841535e-02
-1.517214446640909598e-01
-2.278350313350045730e-01
-2.341357071138545354e-01
-2.903846598897651954e-01
-5.212222741815559779e-01
-8.560938409822399509e-01
-9.936203932198532929e-01
-7.572324985100572503e-01
-3.577108469275815938e-01
-1.253377464055309143e-01
-1.408337970319668842e-01
-2.522577547652747887e-01
-3.055546007527362162e-01
-2.684316713488834050e-01
-1.950262945748282017e-01
-1.277208999250561416e-01
-5.003560689231307396e-02
6.684631884443735517e-02
1.947692597078624355e-01
2.540809862497644400e-01
1.926167275731555661e-01
3.968221238194242356e-02
-1.222593880626298146e-01
-2.200404193308313494e-01
-2.248923666637396013e-01
-1.573792193329660860e-01
-7.603869340426558376e-02
-4.122897890981709612e-02
-6.587470713519973098e-02
-1.032586177054504450e-01
-9.757001902574292951e-02
-6.218618064196716061e-02
-1.036025826474663708e-01
-2.959917818667989753e-01
-4.514476726936502149e-01
-1.259172783452391087e-01
8.552427531444002362e-01
1.871088347657957396e+00
1.967885824050711552e+00
1.023009476695853515e+00
-4.771512628970106529e-02
-4.154856357062894912e-01
-1.606788498546259658e-01
1.418375688517783395e-01
1.711999723619172520e-01
1.855294295563611473e-02
-1.132508929586669433e-01
-1.483622455846025645e-01
-1.294377824131755783e-01
-1.158824946409092727e-01
-1.359219371618899663e-01
-1.885660341519355132e-01
-2.521819141259247776e-01
-2.939821874372595678e-01
-2.878268038685701247e-01
-2.273585958796542350e-01
-1.225685026297354818e-01
-1.231597420552798389e-03
8.872593399478552467e-02
1.130349624719747814e-01
8.296048677565526219e-02
3.741546574637816258e-02
1.916197960218507523e-02
4.486723291421755577e-02
4.906093303414008761e-02
-7.309525223281293504e-02
-2.902869032965052498e-01
-4.035709071236455170e-01
-2.946242784124978864e-01
-9.246419889194265607e-02
3.415705416145792955e-03
-5.326013003242714011e-02
-1.679515360683956071e-01
-2.315362086265033981e-01
-1.977535923072005208e-01
-9.894241641310463908e-02
-4.885483655764093561e-03
3.803973074477703248e-02
-2.374827777283251146e-04
-1.537759780898259043e-01
-3.231524019735981801e-01
-1.473711414382969376e-01
6.485967571343757010e-01
1.640169507893736167e+00
1.890795378746047639e+00
1.085875157564051063e+00
2.581633186291557025e-02
-3.647076166526541652e-01
-5.626206772090469599e-02
3.426669410117891834e-01
4.168726426570866228e-01
2.205993503429910796e-01
-1.705431217152766563e-02
-1.778504115269061436e-01
-2.692136534136702619e-01
-3.160614344300944345e-01
-3.144842352396063356e-01
-2.647669199541467511e-01
-1.997963440091787557e-01
-1.588714064193629538e-01
-1.512126143986637361e-01
-1.651583867018630580e-01
-1.957406808884166183e-01
-2.401509606638049799e-01
-2.792823746652493000e-01
-2.848206813975646123e-01
-2.399124956692013366e-01
-1.458981271044879902e-01
-1.672939526147738595e-02
1.239738362752966089e-01
2.335085355459014522e-01
2.501776761501365853e-01
1.404180336202537904e-01
-4.780313196618149463e-02
-2.114486926639931597e-01
-2.789111290129489551e-01
-2.569817486078567748e-01
-2.009354022085315938e-01
-1.541324426136947978e-01
-1.223060818276548167e-01
-9.649297717966082155e-02
-7.600563574539159761e-02
-6.968550868180739544e-02
-1.062967685723674310e-01
-2.354769331097084362e-01
-4.555187460303342650e-01
-5.879526347042547396e-01
-2.716091088016203137e-01
6.887115201814314469e-01
1.816061341210561286e+00
2.153990157477442935e+00
1.343344198892157948e+00
1.572567077379448397e-01
-4.238340826907813219e-01
-2.739774211765710343e-01
5.666569425114062475e-02
1.558795953277586910e-01
4.609491133509754923e-02
-8.591265784179348552e-02
-1.532084287725820615e-01
-1.776538543719770602e-01
-1.918975621619035399e-01
-2.062435279276829958e-01
-2.357959176587194061e-01
-2.977269673108868253e-01
-3.749086363740228300e-01
-4.201527769164932202e-01
-3.997561858082366304e-01
-3.115937833108797794e-01
-1.863537413519336938e-01
-8.773968930289602342e-02
-6.412527966209927155e-02
-9.256122241230657632e-02
-1.136381122712259439e-01
-1.045974555552479784e-01
-8.135153014648054126e-02
-5.594526651925064292e-02
-2.683052488262194571e-02
1.905475497526024943e-04
4.444252644900511563e-03
-2.984461563608706985e-02
-9.240592259816392262e-02
-1.556594291903620197e-01
-2.058998767770389704e-01
-2.554338887901056454e-01
-3.153777363027741032e-01
-3.632030702096157859e-01
-3.536449494062885446e-01
-2.662844575493508725e-01
-1.473623855319372566e-01
-1.167373187568082060e-01
-2.696604805869740051e-01
-4.431174906792268997e-01
-1.523916722634656440e-01
8.982601239676758498e-01
2.161156165286059139e+00
2.556889260671140640e+00
1.693114244647838218e+00
3.739295115080463194e-01
-3.466388430511645469e-01
-2.438644397234924766e-01
1.496793123693090921e-01
3.253711361128978075e-01
2.124402202678793983e-01
-8.966234682150551333e-03
-2.031255837002457487e-01
-3.326382676916654346e-01
-3.852719549989929715e-01
-3.649564606610004036e-01
-3.089165828202535824e-01
-2.571028729752709574e-01
-2.269463798642355756e-01
-2.290742782741160555e-01
-2.640985795858090679e-01
-2.854464671770195472e-01
-2.223671455914398298e-01
-8.700245726204008934e-02
-4.402323628242901798e-04
-4.139620456112172442e-02
-1.268387431972327617e-01
-1.186701290577402979e-01
4.477713368809671524e-03
1.431693256172448803e-01
2.008703448366955524e-01
1.606679467729940636e-01
6.220751962608873920e-02
-5.046367161532960832e-02
-1.502172108130168660e-01
-2.195047467170887501e-01
-2.446076234549957318e-01
-2.249201123066375263e-01
-1.811537328665032420e-01
-1.459423638957511038e-01
-1.385302476638862190e-01
-1.478722638510218956e-01
-1.572266139727873102e-01
-1.921041124520490584e-01
-3.130237842147891025e-01
-4.959458453380897747e-01
-4.829543209096242573e-01
1.014984733690248164e-01
1.217386823160052645e+00
2.086902842316021633e+00
1.893582123400217920e+00
8.253881503473547987e-01
-1.147212532273577668e-01
-3.204660973589826822e-01
-6.659694870428087277e-02
1.281585905384245994e-01
9.284576258804994042e-02
-5.206959929024276845e-02
-1.707640256677721569e-01
-2.013646578959676081e-01
-1.303041048838385618e-01
-1.979995235520679714e-02
-1.897349399078523263e-03
-1.308891141202700725e-01
-2.971467891956539042e-01
-3.746639736335345972e-01
-3.688139709652302201e-01
-3.475041865643020422e-01
-3.194163359735425756e-01
-2.520382557199488671e-01
-1.537700941901023743e-01
-7.298457245425545026e-02
-3.477957809018030616e-02
-2.619344338817428119e-02
-3.070854562431153678e-02
-3.699525247385400395e-02
-2.977342208408914961e-02
-7.123273951780811561e-03
7.107514880104593910e-03
-1.388374901119607437e-02
-7.464601739125685531e-02
-1.503660068069137268e-01
-2.039478734837912588e-01
-2.296506006524713650e-01
-2.590938049852286595e-01
-2.999761650126351320e-01
-3.102346913770168135e-01
-2.541976077290657443e-01
-1.519352200579435486e-01
-7.771171207866904573e-02
-1.267028265139853727e-01
-3.145400926178760215e-01
-4.193018833855369776e-01
-3.828127300457303400e-02
8.978176465177410970e-01
1.706458782005932040e+00
1.553414064699151442e+00
5.528568630878105683e-01
-3.023835934323630958e-01
-3.694154869914136330e-01
5.673677971881375959e-02
3.698875592151403824e-01
3.359321775140824973e-01
9.772989063125009368e-02
-1.467078296436116480e-01
-3.172036498353714151e-01
-4.152258311246386224e-01
-4.475630682396050108e-01
-4.155516382630888295e-01
-3.410441058060308395e-01
-2.664141295771125240e-01
-2.221678153553575397e-01
-2.082395475032221832e-01
-2.132279037440708014e-01
-2.356196964535119953e-01
-2.743066121187471840e-01
-3.108274120462714007e-01
-3.171071877681207463e-01
-2.775486373411006347e-01
-1.841807580686311285e-01
-1.244550745172093298e-02
2.374535338738601176e-01
4.290440762246867656e-01
3.305306739532947735e-01
-8.550136502868607713e-02
-5.020164520740608705e-01
-6.043611972553764033e-01
-4.321696641989484222e-01
-2.357309187861725275e-01
-1.505007639198239211e-01
-1.409294908930753543e-01
-1.394801237985536235e-01
-1.288723570469134660e-01
-1.183371332403722193e-01
-1.088629543137168143e-01
-1.128245654156097011e-01
-1.833200119426383057e-01
-3.467908766780490315e-01
-4.351067132207643851e-01
-7.487244212386312547e-02
8.826408615988026174e-01
1.875587828553464620e+00
2.008681623122899218e+00
1.132034022971793785e+00
8.834610467025594271e-02
-3.176176461076091750e-01
-1.245273520751034174e-01
1.430552693399094188e-01
1.816862940103522450e-01
6.821847066642169888e-02
-2.240505401083212056e-02
-4.069589741775468672e-02
-4.641755088360108306e-02
-9.727906183568155174e-02
-1.923518751486990586e-01
-2.895391428815444201e-01
-3.526233627546073723e-01
-3.740137957607927999e-01
-3.558106829177193897e-01
-2.953464313052315826e-01
-2.021155485268021079e-01
-1.074388691462316858e-01
-4.738978514922290858e-02
-4.270365408940133417e-02
-8.303077330783985299e-02
-1.205460416708214189e-01
-9.983456586187100523e-02
-1.307906093153880442e-02
8.471053965623298598e-02
1.302884958595198206e-01
1.155187026587856242e-01
7.938771913146944192e-02
4.382616002222548823e-02
-1.086466998885184457e-02
-1.006066728888403150e-01
-1.999785970420363268e-01
-2.679102011656908644e-01
-2.916250189310305441e-01
-2.860095642590283482e-01
-2.577853820735759860e-01
-1.905592491738514749e-01
-8.325675747138383542e-02
-9.523302709182437584e-03
-8.555896445030378161e-02
-2.723386968200393610e-01
-2.241676597913626334e-01
4.160472427222698388e-01
1.399686992019562259e+00
1.858843764512369434e+00
1.287666191167590402e+00
2.612699261328640388e-01
-2.619024056420909963e-01
-6.854217995933398200e-02
2.978098407894900768e-01
3.638125553974376203e-01
1.456520799323508530e-01
-1.101771663923645506e-01
-2.608300049319872693e-01
-3.120187951270815829e-01
-3.074130958009025361e-01
-2.654622824018651461e-01
-1.944319000328784963e-01
-1.239168893141896488e-01
-1.011869430446883378e-01
-1.474311054257699261e-01
-2.287719110136915701e-01
-2.902747658644473372e-01
-3.112006221354679525e-01
-3.078223803847428552e-01
-2.872875167617341963e-01
-2.199058069239360202e-01
-7.670502167655673942e-02
9.593112286050491100e-02
1.771323703230295588e-01
1.074545479858752539e-01
-1.731842503863261981e-02
-7.709015065551551305e-02
-8.979714116155351755e-02
-1.380311836341027443e-01
-2.117699200776925195e-01
-2.343784070056202928e-01
-1.859808950504515668e-01
-1.176076880225889187e-01
-8.107479645189856476e-02
-9.241997638702394158e-02
-1.335144999322771808e-01
-1.636607519754920137e-01
-1.584568772288549587e-01
-1.618732493008291917e-01
-2.644518552417213786e-01
-4.375219794514436100e-01
-3.669819440799355070e-01
3.326118556770062407e-01
1.492290454583397930e+00
2.204259368039946043e+00
1.750072548766158143e+00
5.680386220676687525e-01
-2.516692216064882470e-01
-2.592624657649992281e-01
9.559850361642409367e-02
2.687545574882319044e-01
1.763284989137965386e-01
2.479126562896734332e-02
-6.623200630115319565e-02
-1.476640864007381371e-01
-2.178380675595791849e-01
-1.206935685439553957e-01
1.669944857921477066e-01
3.414950485294457883e-01
1.452846952553531468e-01
-2.439810323169439576e-01
-4.609203904650311934e-01
-4.007275257608741148e-01
-2.283672485451834766e-01
-1.162346884969664429e-01
-1.148801809376222283e-01
-1.809718635308817380e-01
-2.326315695431514508e-01
-2.033193626078189098e-01
-9.323544661009455781e-02
2.771389644161044788e-02
8.808391224796671692e-02
8.471300030381750945e-02
5.892512344528787194e-02
1.285601427901588920e-02
-8.868960475246635833e-02
-2.187714842200092213e-01
-2.803100812032915390e-01
-2.544315143625149878e-01
-2.562444497752426886e-01
-3.498846764664482745e-01
-4.137246749893662146e-01
-3.044367804963399315e-01
-6.600861116605537260e-02
1.149616689608500691e-01
9.217728253697202168e-02
-1.054168597651559264e-01
-1.960285366540628071e-01
2.237756237927387148e-01
1.174269985107026848e+00
1.954367100667488311e+00
1.775052342043169862e+00
7.815547608989731332e-01
-7.407762275957424647e-02
-1.973742846652926930e-01
1.287023163869261133e-01
3.452206965203226119e-01
2.534265569785096317e-01
9.844895443579934277e-03
-1.934135334191926237e-01
-3.004168318860921394e-01
-3.410744086880828085e-01
-3.385762677679021726e-01
-2.986849987026843900e-01
-2.420418792610343761e-01
-2.080844494471240647e-01
-2.302853765876397840e-01
-3.132118999138631121e-01
-4.231230296559053139e-01
-5.001378307938482148e-01
-4.978247807655605262e-01
-4.200297715761218686e-01
-3.116005452204017590e-01
-2.103023929271172210e-01
-1.159417258044323912e-01
-1.440139187003780866e-02
7.728985711128195935e-02
1.104743098619212632e-01
5.068594778401720735e-02
-8.944682618273241959e-02
-2.531519997115085907e-01
-3.569635590481667897e-01
-3.376537735018311781e-01
-2.226389315240900890e-01
-1.162549699813895110e-01
-8.545163160800885171e-02
-1.114446698789429147e-01
-1.572692003852242948e-01
-2.039559719129502013e-01
-2.240335176612546775e-01
-2.116401100329143026e-01
-2.409192693524178364e-01
-3.716069119223245898e-01
-4.230357302594033309e-01
8.836557896815696450e-03
1.029875981808579422e+00
1.978441024129196757e+00
1.948274670839899469e+00
9.198819163575979729e-01
-1.415272751993765510e-01
-4.556937598821018121e-01
-1.695807226075549956e-01
1.394239837302474194e-01
1.868338464479360750e-01
6.873330693348461695e-02
-4.393419045346234203e-02
-9.820842835068949173e-02
-1.306999509612926658e-01
-1.811795248180176621e-01
-2.597232177231652006e-01
-3.488201447535010380e-01
-4.097763935678525038e-01
-4.072232522448573366e-01
-3.428550156483285982e-01
-2.521555689721381999e-01
-1.682111403688604234e-01
-1.044213747339325649e-01
-6.647338404377127474e-02
-6.344244003929476461e-02
-9.727273287124420242e-02
-1.405411534606641755e-01
-1.425316562384116859e-01
-7.872853850304618872e-02
1.490554978300036304e-02
7.882975576914084959e-02
8.986062683836622267e-02
6.345897778274332823e-02
1.492327366927803309e-02
-5.345124418389277099e-02
-1.330892714353099637e-01
-2.000504489276614950e-01
-2.355844579212393597e-01
-2.469221430858668520e-01
-2.499862803098334973e-01
-2.296156132138707784e-01
-1.454797455827279706e-01
-1.060488559863627389e-02
5.612141054751458580e-02
-6.193996365319052316e-02
-2.488447367182275716e-01
-9.497491013860631659e-02
6.844199874010939988e-01
1.652640854857778896e+00
1.876708427046917871e+00
1.073594011424010564e+00
6.368060636288597198e-02
-2.750951573936060157e-01
1.330790105486221592e-02
3.208562905561415657e-01
3.077164685349333406e-01
7.934403701050818380e-02
-1.526809615773443429e-01
-2.978577919590571499e-01
-3.538793402263548105e-01
-3.369236331266769469e-01
-2.800036086421066051e-01
-2.268782219968887015e-01
-2.002744148401539304e-01
-1.965544840893103107e-01
-2.087331841413778422e-01
-2.341173136700081259e-01
-2.619635599725629316e-01
-2.766263987298063221e-01
-2.748702826213824668e-01
-2.604066086514725265e-01
-2.229453639886586902e-01
-1.402472023883932772e-01
-5.983439115218585659e-03
1.428903361088387780e-01
2.320620129482376948e-01
2.022745230492365709e-01
6.078709201824079866e-02
-1.240278895286453936e-01
-2.685100802145631849e-01
-3.142865001281711090e-01
-2.536845775873752262e-01
-1.377813098014303572e-01
-4.720798366423649417e-02
-3.271274631829310109e-02
-7.899517870942202036e-02
-1.266362482677738932e-01
-1.275799103383967459e-01
-9.568206010254681759e-02
-1.171129821214001165e-01
-2.596974566372410864e-01
-3.827910898320273092e-01
-9.007637954708745676e-02
8.576268964709389264e-01
1.970250904855310292e+00
2.268992318003538067e+00
1.419590519506827686e+00
2.247996350275665023e-01
-3.463164240814869954e-01
-1.881585963607687040e-01
1.499982462229851043e-01
2.567116071197177440e-01
1.420134811810157827e-01
-1.198127610590948161e-02
-1.040459741493010154e-01
-1.420330055411729298e-01
-1.661913117650472838e-01
-2.057753616633641591e-01
-2.720829932479270075e-01
-3.491204338323009582e-01
-3.959184226903283976e-01
-3.799332416542860469e-01
-3.055419469583764425e-01
-2.024334010607690415e-01
-1.033228019213945081e-01
-4.247272139715324579e-02
-4.768427212804590698e-02
-1.102552190605281673e-01
-1.758269619566076303e-01
-1.813313216823471408e-01
-1.042877971424022582e-01
1.901997018716061055e-02
1.205257880006237042e-01
1.499460419153499646e-01
1.043308606390680737e-01
1.612567761655805260e-02
-8.130129079283672511e-02
-1.747865180344686797e-01
-2.618689845222506030e-01
-3.305267404028262024e-01
-3.612265158134321807e-01
-3.473217195828340875e-01
-2.965544737384568363e-01
-2.102070514259546941e-01
-9.372881989885611942e-02
-1.841105056442000898e-02
-1.165668684038203839e-01
-3.797928101595743899e-01
-4.520135762810459368e-01
1.041769181697895508e-01
1.118343626819417569e+00
1.705144022185477892e+00
1.256215622613396921e+00
2.547210936005345205e-01
-3.425754508785044394e-01
-2.358827829080841210e-01
1.165501199924387637e-01
2.402082458226473538e-01
8.338270026458238782e-02
-1.673089299973740118e-01
-3.864839592864492412e-01
-5.385827499429655107e-01
-5.737514612294632999e-01
-4.599224707683181590e-01
-2.762633983104464952e-01
-1.596902098702104866e-01
-1.713138600823040369e-01
-2.612123501446792506e-01
-3.397124200557229967e-01
-3.613563422197062502e-01
-3.464436281656570471e-01
-3.293254359227837380e-01
-3.057753943704942801e-01
-2.436896191456681127e-01
-1.304529874782333343e-01
-2.559912468300161795e-03
7.249031971220311343e-02
6.425204395450637151e-02
1.721067518267808960e-02
-1.771181006282942713e-02
-5.415331143291219479e-02
-1.226409372036987439e-01
-1.970519084806770793e-01
-2.172964815670958283e-01
-1.622817422214895000e-01
-7.441124298902217216e-02
-1.654483772221839594e-02
-2.394116127272897382e-02
-9.495330126493513323e-02
-1.869894119793479303e-01
-2.278174481731121692e-01
-1.960288364972539721e-01
-1.820039956469367559e-01
-2.714994599916600859e-01
-3.097487544924530933e-01
9.966502184529467401e-02
1.085269568954238206e+00
2.003823005266829771e+00
1.941803804455278559e+00
8.884820727280660080e-01
-1.490288554394382792e-01
-3.736210816457711248e-01
1.491266474532410014e-02
3.545896759432017875e-01
3.298467505245231135e-01
1.058524167091766666e-01
-3.570884770453617435e-02
-9.322479347289320400e-03
6.011500292413925195e-02
2.140644797795117002e-02
-1.402900949139821440e-01
-3.093313563336336780e-01
-3.812884083900335286e-01
-3.533167766915013552e-01
-2.710852582210581674e-01
-1.619750512706383816e-01
-5.673176453291760984e-02
-9.228892770771324194e-03
-4.347696465585315639e-02
-1.214061979487256887e-01
-1.851967925546498250e-01
-1.852066430558284016e-01
-7.964741415717514761e-02
1.125686496188686853e-01
2.734578900578847893e-01
2.846350569746429193e-01
1.568150527893028834e-01
1.494167694899643795e-02
-3.182890140730593176e-02
3.926492050815390267e-03
1.188586771127273130e-02
-7.115625157650608268e-02
-1.798960265530843705e-01
-2.181531318276606068e-01
-1.724849227939811713e-01
-8.638330196769709868e-02
9.077402881198785856e-03
7.623801180082240281e-02
2.399811103680827423e-02
-2.017439583129125857e-01
-3.987713877708294885e-01
-1.100674717271709346e-01
8.457814955206517382e-01
1.836804017678763223e+00
1.904553409540122422e+00
9.681090570503400050e-01
-1.019630429916290604e-02
-2.393307145582645179e-01
9.709169135080304713e-02
3.666176019494499227e-01
2.801973294052904628e-01
-1.088708517393798675e-03
-2.203877434526935741e-01
-2.836595902384634882e-01
-2.479105811641248991e-01
-1.959228220250942010e-01
-1.674694778577449639e-01
-1.655569039234146278e-01
-1.832911905510582751e-01
-2.218931187616627054e-01
-2.834762869474107272e-01
-3.447702402456345183e-01
-3.627676877034719527e-01
-3.227946722895456699e-01
-2.546731426375133944e-01
-1.883634251545981964e-01
-1.244644040099636001e-01
-5.347428661292168844e-02
2.804128263388129538e-02
1.126511375573487767e-01
1.664354806752783023e-01
1.414437814842797458e-01
2.690978272230863666e-02
-1.283444086636141290e-01
-2.482102529820650327e-01
-2.783306090562688850e-01
-2.209647857111720626e-01
-1.329845727832081326e-01
-8.003266080676385563e-02
-8.818782988267588607e-02
-1.396761457480412971e-01
-1.984312959819419242e-01
-2.267035902056539209e-01
-2.067462201942493194e-01
-1.849587461790477283e-01
-2.484586234279295147e-01
-3.459937604432790637e-01
-1.559775342246920993e-01
6.063799181621968293e-01
1.603147827420757121e+00
1.948128353455421902e+00
1.230797394439530734e+00
1.372963702562372268e-01
-3.601901233103930178e-01
-1.084923617338947599e-01
2.996713858712120038e-01
3.910743185255062815e-01
2.168773412269447975e-01
3.401911151351900975e-02
-7.016321810848386020e-02
-1.704394347633702567e-01
-3.080780773666759176e-01
-4.277080216238741128e-01
-4.690839908517003831e-01
-4.407830935197228350e-01
-3.893166814905762996e-01
-3.377378781995262202e-01
-2.795559390919487575e-01
-2.120190973025654069e-01
-1.524560779564111956e-01
-1.296506887525303020e-01
-1.645693382750494649e-01
-2.432101785132914362e-01
-3.062962481515812407e-01
-2.850585685328813068e-01
-1.576380258527139699e-01
2.766678237133132420e-02
1.780765579960555678e-01
2.111414660676063648e-01
1.091875197947350384e-01
-6.549006191744223548e-02
-2.068336411347241333e-01
-2.256082284945105931e-01
-1.362055532208772124e-01
-1.333048066083228067e-01
-4.524553848711275750e-01
-9.854832103873459870e-01
-1.217434529653534270e+00
-8.376271407652311485e-01
-2.060350262793216314e-01
8.591784805811580883e-02
-1.160219142259545644e-01
-4.773347381980138637e-01
-5.031781974559119686e-01
1.272327406520874504e-01
1.181149780418851325e+00
1.841257354330928520e+00
1.499905975337796349e+00
5.373955316097484003e-01
-1.323963417507976192e-01
-1.404965914774218561e-01
1.392338887396460945e-01
2.569284064342818863e-01
1.310002349912875452e-01
-7.810279458172827982e-02
-2.278220770651211147e-01
-2.769685150828402054e-01
-2.455388389232175950e-01
-1.763652142329977524e-01
-1.191923620965969766e-01
-1.104840237807025033e-01
-1.544814374870583096e-01
-2.254644996247385791e-01
-2.908007205416612284e-01
-3.318526943100283400e-01
-3.390658564557835208e-01
-2.963639948958624593e-01
-1.942575296169041510e-01
-5.881868605707247372e-02
5.975104246264921481e-02
1.339737765672773806e-01
1.738850163952721239e-01
1.928359381969315389e-01
1.810210680196019384e-01
1.249357461062874791e-01
3.835155766750343587e-02
-4.411650208312491162e-02
-9.266133690509470444e-02
-8.743487936045493680e-02
-3.038349961964748741e-02
2.318235684863867094e-02
-9.566858313613143400e-03
-1.410635287455748454e-01
-2.731024298657388494e-01
-2.895925177545208840e-01
-1.791486840223955324e-01
-6.053659414056652283e-02
-8.918708130484481744e-02
-2.754191281361848542e-01
-3.224676617274375157e-01
2.158255237111581515e-01
1.321681232505275583e+00
2.154900498677810639e+00
1.840225672998402562e+00
6.270189681350786248e-01
-3.472912985490290705e-01
-4.356183910782773228e-01
-1.347120564370399287e-02
2.799660592242454449e-01
2.525127146369526843e-01
8.875576458026358806e-02
-3.409814551413424544e-02
-9.991471499408620394e-02
-1.605321328872137965e-01
-2.346716898215137070e-01
-3.057858057004536612e-01
-3.559596129882053317e-01
-3.718130862038688811e-01
-3.417295456090090333e-01
-2.728812445518942753e-01
-1.973869345210476633e-01
-1.459157821294454482e-01
-1.272774658617443488e-01
-1.404496994531493903e-01
-1.851738171865094096e-01
-2.401531048639050647e-01
-2.487944661024315551e-01
-1.670501501676769918e-01
-2.579773152496859373e-02
9.157840721950455398e-02
1.319693723109326422e-01
1.006298564049589034e-01
2.156809889847354986e-02
-9.211107344736062241e-02
-2.264975055374214563e-01
-3.391104731012980489e-01
-3.665385928691444750e-01
-2.924915314134339805e-01
-1.863709408252498811e-01
-1.243131275972531036e-01
-9.438083635975375030e-02
-3.301689529907342324e-02
5.010823857798520076e-02
3.044418365760144518e-02
-1.806553387222550322e-01
-3.897754589582366203e-01
-1.347617026907000637e-01
7.873509895077338561e-01
1.792879430161593568e+00
1.946758496263945259e+00
1.101266409331262519e+00
1.232915596177491524e-01
-1.955632560926900410e-01
4.933002238816952545e-02
2.882449153572622658e-01
2.228613380385262577e-01
-2.532699815185651335e-02
-2.264054225017137489e-01
-2.905513485455347156e-01
-2.635321833234986477e-01
-2.153346643638594515e-01
-1.858719990532606281e-01
-1.923399070966909652e-01
-2.349148620006673294e-01
-2.947519353851983381e-01
-3.457081643045882280e-01
-3.676868027916314063e-01
-3.475611625868610943e-01
-2.778545115258284626e-01
-1.657755659922910407e-01
-4.803731231418485736e-02
2.281958640911851965e-02
3.147186590676612217e-02
2.258393388083887801e-02
4.270210686395699978e-02
7.595478496569942062e-02
6.884831537243871202e-02
8.364847568007191536e-03
-5.866252811890795837e-02
-8.376648213030252199e-02
-6.340319737520508370e-02
-2.608116722099092927e-02
-5.416287859830630838e-03
-2.780595460899225671e-02
-9.789331930388520120e-02
-1.885794248898881864e-01
-2.520572120964681972e-01
-2.463486941274796171e-01
-1.730614156457191966e-01
-1.078733730698546722e-01
-1.586301875110389392e-01
-3.030601189274299001e-01
-2.427500637139529960e-01
3.848641736598414353e-01
1.418176372827812282e+00
2.015499767036085021e+00
1.541527400409453241e+00
4.416703228347825250e-01
-2.764622391399685908e-01
-2.311454233077555320e-01
1.410817003286776450e-01
3.306774950103567035e-01
2.354877052050342034e-01
2.493109297695492166e-02
-1.421915325512036476e-01
-2.340194548597608615e-01
-3.024289848143412174e-01
-3.790432973980297215e-01
-4.298514848906003216e-01
-4.088339631499451898e-01
-3.205808281458695785e-01
-2.182160829452493012e-01
-1.615593474180584965e-01
-1.735909533683032135e-01
-2.198387765327522170e-01
-2.432849908914818948e-01
-2.309958277614535260e-01
-2.230921583366936023e-01
-2.426338591283166979e-01
-2.474177854899624052e-01
-1.790263832110321751e-01
-4.064046756064604304e-02
9.973987257425689923e-02
1.706943078287723736e-01
1.404044877931603374e-01
1.167867941647776978e-02
-1.857845549560462606e-01
-3.776212660608526672e-01
-4.580421829245716059e-01
-3.763937088590044722e-01
-2.036885516042276634e-01
-8.124245079777846212e-02
-9.729875879054120102e-02
-1.973350506053297149e-01
-2.357461380797946926e-01
-1.745053319454352991e-01
-1.708076920773841934e-01
-3.367380714201353431e-01
-4.274591001815304936e-01
2.795450439474062021e-02
1.068510322617312935e+00
1.916148125420956694e+00
1.722955846505319188e+00
6.881765265381331043e-01
-1.474305261834472081e-01
-1.985314084669116408e-01
1.638438713956588133e-01
3.374058455154595459e-01
1.697883622914518609e-01
-1.058012575016062107e-01
-2.554677226060300121e-01
-2.403932747561365324e-01
-1.611197154852342106e-01
-1.205512960373983089e-01
-1.408032929296659796e-01
-1.792177854848206742e-01
-2.059248176707794975e-01
-2.441587305336203606e-01
-3.219707284561956206e-01
-4.055266500689036491e-01
-4.153361205644172660e-01
-3.171338873100484901e-01
-1.716264562352031731e-01
-7.462634283400622348e-02
-5.764995897580577067e-02
-6.567170314096615336e-02
-3.558200763066684397e-02
2.800579024892358229e-02
7.364518724596902377e-02
6.838569999297113011e-02
1.806773582189223973e-02
-4.403070070114069312e-02
-7.623121870002395883e-02
-6.832626652390366706e-02
-5.495283317739420303e-02
-6.723429735454976297e-02
-9.898726171916198691e-02
-1.318158068396862170e-01
-1.586922286047902086e-01
-1.696653693618642433e-01
-1.343581631042767011e-01
-3.630849115440377972e-02
5.072735219545315699e-02
-4.358143782794021530e-03
-1.544364262207492677e-01
-2.791143636543960346e-02
6.985148187738610126e-01
1.673411990269825678e+00
1.994548355658615657e+00
1.265302778069324674e+00
1.616714786915612878e-01
-3.894458096030958272e-01
-2.174435057064408316e-01
1.835583192253018303e-01
3.691843560227667242e-01
2.785840975010127063e-01
7.356615641018229845e-02
-1.006327223812637228e-01
-2.037162854856311434e-01
-2.654910144394317384e-01
-3.165057101918521409e-01
-3.478269404609906634e-01
-3.261061222521489666e-01
-2.447204072494516547e-01
-1.531906778337063513e-01
-1.176616896831403081e-01
-1.532192753242668237e-01
-2.158670991217428448e-01
-2.545510942967482704e-01
-2.506116280104846994e-01
-2.153737188085191323e-01
-1.670545979183137852e-01
-1.055467342504909922e-01
-7.686250986606770613e-03
1.299020285343546188e-01
2.426243360140374894e-01
2.398212492956217357e-01
1.104147440833477684e-01
-5.853061986922763332e-02
-1.765442447358885614e-01
-2.195373635242276744e-01
-2.086588421112623437e-01
-1.681338674114080944e-01
-1.174154822715786917e-01
-7.901202040134490401e-02
-6.740584626851789385e-02
-6.614667238395378901e-02
-4.752852380518283321e-02
-4.090640062415378669e-02
-1.386760441087847018e-01
-3.472453407473646836e-01
-4.088167184953473421e-01
7.078129649802177015e-02
1.077241644805622567e+00
1.873737680880865675e+00
1.681761643543489448e+00
6.830993954123180112e-01
-1.682188925648221423e-01
-3.096794429516986358e-01
-2.652918948176538616e-02
1.681785671248335334e-01
1.127512101774699044e-01
-4.493311167633154413e-02
-1.406335080003971172e-01
-1.437714981911725753e-01
-1.207810195127300423e-01
-1.335378834824019756e-01
-1.800402615067389356e-01
-2.177481212014496792e-01
-2.372262918315615476e-01
-2.825085611459839385e-01
-3.653507172117725910e-01
-4.073564821730121799e-01
-3.358052505302498436e-01
-1.933433487887477320e-01
-8.342594533109229382e-02
-4.723898932796776612e-02
-5.272273553422863329e-02
-7.196989236305240123e-02
-1.080442169938799213e-01
-1.464888589277814901e-01
-1.412240143704278361e-01
-8.460841046257173981e-02
-4.186222265544501525e-02
-6.556068121656208336e-02
-1.201883872655110930e-01
-1.428616047505540665e-01
-1.384534726040746178e-01
-1.621081732341368431e-01
-2.327871602088293079e-01
-3.084257451731915456e-01
-3.370139468305619612e-01
-3.029323491168991467e-01
-2.260787562341854962e-01
-1.479672421457628728e-01
-1.369988754427625965e-01
-2.476062695046498119e-01
-3.642203755939911192e-01
-1.295317473014066800e-01
6.835759484886109183e-01
1.612890595836498964e+00
1.754694412601062181e+00
8.875309400754816114e-01
-1.307019641767655782e-01
-4.318038263031909185e-01
-8.446530937732789346e-02
2.968002832659793477e-01
3.705132668918592609e-01
2.176565987538487956e-01
1.319347133981046277e-02
-1.662104248128835060e-01
-2.968963957295573386e-01
-3.564552355703530795e-01
-3.470195027941265220e-01
-3.064335180233811462e-01
-2.767210798288797791e-01
-2.746023157815488114e-01
-2.892178621582368603e-01
-3.012891793208624103e-01
-3.038103619487551588e-01
-3.060193618159037232e-01
-3.225597473131479598e-01
-3.538511309755159595e-01
-3.644732266038640534e-01
-2.930454243069476328e-01
-1.128136071318317502e-01
1.161760951194291958e-01
2.798026393087806873e-01
3.034722737881780374e-01
2.020492020521143517e-01
4.384023715448776004e-02
-1.049134605641613982e-01
-1.974161106667041699e-01
-2.083864973218644834e-01
-1.473294061148681666e-01
-6.119889475991744515e-02
-6.711390298048271197e-03
-1.072266034672843781e-02
-5.168650650795754420e-02
-7.806360326275776917e-02
-5.994350366331124835e-02
-4.597681115091784010e-02
-1.400212471524211466e-01
-3.250859203100879835e-01
-2.921294385838376084e-01
3.449760122110637761e-01
1.435834278013341070e+00
2.114062616348264978e+00
1.679496067132489445e+00
5.275523499795514715e-01
-2.732445962702350628e-01
-1.994424069522354737e-01
3.248823444484817413e-01
6.003671307887614716e-01
3.925812947130431496e-01
-7.836093441606815924e-03
-2.506822812218451046e-01
-2.716669060635888422e-01
-2.174958570483919440e-01
-2.202695253932250019e-01
-3.053887744738472132e-01
-4.209698033582134347e-01
-4.940664347804831213e-01
-4.855498154732269533e-01
-4.140224388156337199e-01
-3.252595665098271804e-01
-2.489242891784839706e-01
-1.888921381665457089e-01
-1.439043630898084181e-01
-1.234858770414364870e-01
-1.272527325261719466e-01
-1.216916064319267798e-01
-7.750991259323168625e-02
-2.593168389150159181e-02
-3.103486364987576712e-02
-9.617715626157349873e-02
-1.440350996194968980e-01
-1.197260111428674889e-01
-6.941793387093504741e-02
-7.036389246488354565e-02
-1.282835418558930241e-01
-1.952356053682624826e-01
-2.449789938229480768e-01
-2.830679828835933054e-01
-3.087954259181794892e-01
-2.953493714913466017e-01
-2.105795592184433185e-01
-8.086977964670753749e-02
-3.231207485723560507e-02
-1.664979307761550176e-01
-3.062749052056043531e-01
-1.186628710835952241e-02
8.620383581667205863e-01
1.691943274443364675e+00
1.634930153447603507e+00
7.166752781512856219e-01
-1.468691667840027471e-01
-2.857538838335029197e-01
8.218539839431125704e-02
3.745587421738265643e-01
3.307179730718293742e-01
7.916044979422635908e-02
-1.655424518882922524e-01
-3.023812973754300693e-01
-3.449189666073183003e-01
-3.499733919311297514e-01
-3.479512862295996989e-01
-3.187166855111929209e-01
-2.451175868466905217e-01
-1.711881983067757573e-01
-1.676716954506585755e-01
-2.416466511599642542e-01
-3.182023135101385569e-01
-3.289016241801860363e-01
-2.851137280534186691e-01
-2.362742517295009226e-01
-1.886273798648956668e-01
-1.048915372084357617e-01
2.898852507575465018e-02
1.717831400088088989e-01
2.632548378667234901e-01
2.664817233623347770e-01
1.752274697080405952e-01
1.431890297605272963e-02
-1.566051940821759914e-01
-2.678000119550195124e-01
-2.848415510790391902e-01
-2.249367734140680086e-01
-1.367961021016795287e-01
-7.497895794787398649e-02
-7.432411528340844564e-02
-1.219288597193139839e-01
-1.603126177035215649e-01
-1.504146609122128386e-01
-1.409943084297723137e-01
-2.279459575061750509e-01
-3.605992285548786924e-01
-2.030985054659533995e-01
5.634022092104022938e-01
1.619977037226524530e+00
2.046186590348104239e+00
1.378000859681346224e+00
2.712447564484917750e-01
-3.178449878919669125e-01
-2.159515667191461707e-01
7.128604558445199302e-02
1.472422754625033747e-01
4.214733039707166395e-02
-5.319933919752906082e-02
-7.839630207231357284e-02
-1.086578486032788310e-01
-1.886812671597868363e-01
-2.377806220427459705e-01
-1.453516249746339972e-01
4.196860721619952161e-02
1.136462509126591469e-01
-4.012546853308635725e-02
-2.607290448488679968e-01
-3.311487444262339319e-01
-2.353826913395521137e-01
-1.141282749230937837e-01
-7.422727779486767985e-02
-1.118511914581168942e-01
-1.556180764966570707e-01
-1.397060391637989785e-01
-5.691226720992688393e-02
4.148106618225672060e-02
9.702569925821191710e-02
9.269369455092972554e-02
5.656541200609038061e-02
2.408043048541685938e-02
-8.311189913749812870e-04
-3.509673703026641722e-02
-7.800064195215516971e-02
-1.172325019593336015e-01
-1.626720560737920929e-01
-2.326262070286403694e-01
-3.044904823134729210e-01
-3.110198747320042090e-01
-2.160339305388536690e-01
-1.026752374303402798e-01
-1.343001754724126307e-01
-3.248415704125807157e-01
-3.417813802947849422e-01
2.408175998503791770e-01
1.279362102152627800e+00
1.897245587075468753e+00
1.426359769577574710e+00
3.231596737189190716e-01
-3.663410998055869894e-01
-2.536305099461036994e-01
1.709764773309409569e-01
3.500017906195933559e-01
2.245892232827792212e-01
4.655237187935186427e-02
-3.804148808470848159e-02
-9.155314995724521399e-02
-1.952289022169136912e-01
-3.140051769970960693e-01
-3.615791954906807382e-01
-3.143967865680332707e-01
-2.355230879570191505e-01
-2.141970452469140196e-01
-2.831855960065987610e-01
-3.880373512221641508e-01
-4.430519254263496354e-01
-4.122849044800637186e-01
-3.302001317252769019e-01
-2.537629683644156975e-01
-2.015847209811786889e-01
-1.416329177611866941e-01
-4.416068064833549023e-02
6.113136143086486674e-02
1.033437879103055040e-01
5.758645985057119637e-02
-1.394749603932430096e-02
-5.418100601267392125e-02
-9.532686674887948242e-02
-1.452516349340052804e-01
-8.367473644336673178e-02
1.388935270818255352e-01
3.193189986348576870e-01
2.457694330534376803e-01
-6.280665252808112498e-03
-2.051851226408655526e-01
-2.477471337080571212e-01
-2.021725250628038928e-01
-2.019464154585293159e-01
-3.275868560425522769e-01
-4.334530946150683683e-01
-1.146005092784468798e-01
8.343347690193572141e-01
1.849424961665620870e+00
1.967980851689101751e+00
1.010441573324079023e+00
-1.169145376467260189e-01
-5.306979107297569165e-01
-2.619874255874414803e-01
1.150410649934628105e-01
2.427364404663389097e-01
1.600891352300513326e-01
2.836118153664068942e-02
-7.846962073910325464e-02
-1.595264499169957162e-01
-2.173546722379709195e-01
-2.585921101922296628e-01
-3.061722696183701853e-01
-3.635010754475817008e-01
-3.961255112293744496e-01
-3.736193703651210507e-01
-3.019879416512853409e-01
-2.097368350629954248e-01
-1.311827679194302321e-01
-9.601342619055798500e-02
-1.068436804844824090e-01
-1.326913939865946301e-01
-1.395882018254194501e-01
-1.171178192215825281e-01
-6.835154288684600066e-02
3.241008430205068267e-03
8.270452838442277077e-02
1.389569446493081617e-01
1.453436670526978003e-01
9.841914479806339322e-02
1.634382716784079509e-02
-7.439820681143127779e-02
-1.508804657641890368e-01
-2.010808191180095128e-01
-2.295075799124642602e-01
-2.477744199886321441e-01
-2.444878436490765528e-01
-1.818682120208493236e-01
-5.561129994742380900e-02
4.187907621821092274e-02
-3.511459239823653405e-02
-2.911324909496619817e-01
-4.056820420205337618e-01
6.668150770624935164e-02
1.063049021210266565e+00
1.767278246797451269e+00
1.462592237462466471e+00
4.937139084010813694e-01
-1.602972550819459496e-01
-1.019178850670476311e-01
2.321636798318833517e-01
3.332999446785240849e-01
1.396204152895333395e-01
-1.240336428033845945e-01
-2.775255048391581658e-01
-3.026875794639752870e-01
-2.771829733887343772e-01
-2.709825364336446163e-01
-2.934439747115220598e-01
-3.150579231509107458e-01
-3.186893039266621153e-01
-3.134877058783392956e-01
-3.112699457713486995e-01
-3.121363944647976840e-01
-3.077380832091667351e-01
-2.838324308349188252e-01
-2.298330359508041765e-01
-1.536674423980706194e-01
-7.369212162502322694e-02
2.507623567255102756e-03
7.305835081127817765e-02
1.198174935864685930e-01
1.138856847389597970e-01
4.712065172393513357e-02
-5.565476951492098756e-02
-1.553426385235190110e-01
-2.162029391621799190e-01
-2.140565916920226519e-01
-1.535851100659005875e-01
-7.825699262507440634e-02
-4.300348209509850111e-02
-7.242518244197866661e-02
-1.432641986361659903e-01
-1.964673756798575588e-01
-1.807974983720984086e-01
-1.175193710230707650e-01
-1.158981243016216078e-01
-2.472632635838839799e-01
-3.218508117736014196e-01
9.297806667624303190e-02
1.122473600854352993e+00
2.072591089158438926e+00
1.994234175419130839e+00
8.973697624959474650e-01
-1.806624389176479384e-01
-4.470253100828917581e-01
-1.032974639771650355e-01
2.313457553447550441e-01
2.827100362679539347e-01
1.723019510764168538e-01
6.294260221647531017e-02
-3.066301430218374910e-02
-1.587661272828044257e-01
-3.102994346717716789e-01
-4.161727052716941433e-01
-4.340463909897875894e-01
-3.861925562546387192e-01
-3.217739979637799785e-01
-2.674284043038304137e-01
-2.186506965370755284e-01
-1.689341244994607694e-01
-1.365553734691450916e-01
-1.527147087482959020e-01
-2.176487309408509097e-01
-2.815211727810285058e-01
-2.862030955091285356e-01
-2.132674319337047042e-01
-8.223396686324034588e-02
6.571176517471635781e-02
1.720510048502977840e-01
1.871741705459061822e-01
1.089587937054101313e-01
-1.825641334358331716e-02
-1.445208896736744630e-01
-2.460955934869237249e-01
-3.177546763493420690e-01
-3.507094522591979180e-01
-3.342565604614330388e-01
-2.679075249711264650e-01
-1.594749244778601860e-01
-2.864639710086974711e-02
7.537752263481874160e-02
7.443189935126148793e-02
-9.265821865124124201e-02
-3.528797119659501380e-01
-3.790230771135940646e-01
2.199784396551754673e-01
1.308292802556707768e+00
2.021436873196361006e+00
1.640906075054768376e+00
5.351194719608779460e-01
-2.750573489182304154e-01
-3.188482687468490173e-01
1.525413289120951255e-02
1.824189205662579416e-01
6.231296938921040279e-02
-1.301005048111980034e-01
-2.180047863933176067e-01
-2.161786805288249680e-01
-2.048274379049280225e-01
-2.003493881153581846e-01
-1.854281914243028906e-01
-1.779209542343645756e-01
-2.080878267607116916e-01
-2.618346787681984922e-01
-2.922729350510604451e-01
-2.796949032868249474e-01
-2.458248072162446951e-01
-2.065190113611665157e-01
-1.487362542062280746e-01
-6.641665089374329534e-02
2.003464370995823238e-02
9.291454432668946883e-02
1.500332983796189013e-01
1.829122863492965156e-01
1.724942689974279242e-01
1.097168962798473896e-01
1.047020062321984447e-02
-8.031020909769501226e-02
-1.053887450969195755e-01
-4.787474223521887701e-02
2.684761623171792386e-02
1.215529040530241231e-02
-1.318296456222713964e-01
-3.198830061117362011e-01
-4.243062973479035382e-01
-4.034756696766784723e-01
-2.960441917874577777e-01
-1.441602153993305768e-01
-2.743557980159496909e-02
-6.808647670777261129e-02
-2.000244175898740207e-01
-2.110127941076615429e-02
7.784000965402392280e-01
1.767506892760041470e+00
2.002198494152208852e+00
1.179571045606805590e+00
9.955750325595968953e-02
-3.642685829841064149e-01
-2.459772213770022309e-01
-9.588393359699251550e-02
-1.249205638812203312e-01
-1.561437716650452001e-01
-9.245942330413484123e-02
-4.216600064691573141e-02
-9.920986472708138992e-02
-2.272393784015175333e-01
-3.358457325770645707e-01
-3.756962055441134263e-01
-3.550346770248249961e-01
-2.997407255293353945e-01
-2.167830984154346385e-01
-1.015437506985510524e-01
6.163577394489500039e-03
-2.179533360185690466e-02
-3.068999802045023206e-01
-7.363848528150935824e-01
-9.464299194064579313e-01
-7.156171647692535220e-01
-2.448020391338767698e-01
1.248189194436813282e-01
2.830271688812531772e-01
3.113402002553384285e-01
2.707071724186915773e-01
1.579152373400841969e-01
-5.728338654783563660e-03
-1.339262539511397454e-01
-1.489053849018348863e-01
-8.090655669356737467e-02
-7.309900621986599456e-02
-2.484140871103820147e-01
-5.287763238270537514e-01
-6.644947828372201881e-01
-5.382089034539048189e-01
-3.077550477982515242e-01
-1.762610710085526777e-01
-2.131544671229439747e-01
-3.590315631578891997e-01
-3.453164573688546346e-01
2.243681404672549784e-01
1.309052835651294933e+00
2.100662728708870386e+00
1.813412984063263123e+00
7.369618149972485543e-01
-8.969901095522361811e-02
-1.559885409233553732e-01
1.481209521923987638e-01
2.845914209419887486e-01
1.502067744717550668e-01
-5.178418252388025667e-02
-1.523292171323845368e-01
-1.386206188314321741e-01
-8.311356065116357050e-02
-5.204356120168322081e-02
-6.785123093726036503e-02
-1.139453896708488428e-01
-1.632882958769702464e-01
-2.094503155429753294e-01
-2.629367197825407398e-01
-3.139706421366512124e-01
-3.220088939918658855e-01
-2.575565947094303199e-01
-1.420207277076172836e-01
-3.445806583989236699e-02
2.191962885154429344e-02
3.930796582032795167e-02
6.465964306438720666e-02
1.159014147722105814e-01
1.562256780785561128e-01
1.418279201824186320e-01
7.546212660654552651e-02
4.200645887171611595e-03
-2.646228331291653607e-02
-1.793338673472962691e-02
-1.293644044976553081e-02
-4.265611772091210119e-02
-1.046791566345032509e-01
-1.878354234586213645e-01
-2.710588570216240778e-01
-3.008725391718889974e-01
-2.283459385727383828e-01
-8.917891783059292421e-02
-1.710911634866588149e-02
-1.193365224859850166e-01
-2.630190629338556851e-01
-4.070312545605768439e-02
7.864555272178983536e-01
1.732276519052563080e+00
1.884965611860763390e+00
1.015539396738673439e+00
-5.179270534793176117e-02
-4.458831921246814711e-01
-1.686746043278058438e-01
2.045238421864480072e-01
2.964740512494811742e-01
1.519549114136183321e-01
-3.551976881644322570e-02
-1.674886720793227202e-01
-2.548894701875505375e-01
-3.284121063994455691e-01
-3.833290471739755345e-01
-3.899931226794184358e-01
-3.355878511503046502e-01
-2.441834287061499520e-01
-1.547893988006059374e-01
-9.511844262716745435e-02
-8.088916823161332315e-02
-1.171143686163710895e-01
-1.874326938052831293e-01
-2.582882701210112431e-01
-2.989097379026502410e-01
-2.829986074628609849e-01
-1.848725428374228819e-01
-1.148230401798300618e-02
1.666690505727764782e-01
2.559341073899627506e-01
2.190585949743490968e-01
9.577268435475973229e-02
-5.091972789416585737e-02
-1.811882370228301009e-01
-2.719993378907800130e-01
-3.033858205005190989e-01
-2.718276626629917980e-01
-2.029332803602212909e-01
-1.385063765890166831e-01
-1.024312327172001991e-01
-7.491445661727579031e-02
-2.876122296344053170e-02
-1.139119402100429064e-02
-1.333975940595717724e-01
-3.902411581661994755e-01
-4.925315538437958773e-01
-1.820001312886722344e-02
1.043138948188957471e+00
1.954274452671847850e+00
1.870722134430657047e+00
8.904918695673598172e-01
-3.111722756325360773e-02
-2.556448645651716034e-01
-2.471769690448923085e-02
1.353587125612690512e-01
5.840308573900009070e-02
-8.887745592871020006e-02
-1.447162373110587597e-01
-1.110245019683673423e-01
-8.402118737856971442e-02
-1.312775574316841776e-01
-2.312566577711825944e-01
-2.975833037699014971e-01
-2.669194430776477001e-01
-1.812669344671996585e-01
-1.543776507432213785e-01
-2.250125065873374575e-01
-2.960927435397154861e-01
-2.642213236169762558e-01
-1.506119094643139089e-01
-6.129942683557688954e-02
-6.046297067205624182e-02
-1.138345495634032617e-01
-1.391774551482588274e-01
-9.453456666888587767e-02
-1.897570403657663357e-02
1.145325804653751257e-02
-3.071950469209226708e-02
-9.409206051397867032e-02
-1.091927545862810683e-01
-6.193541563922747711e-02
-2.860192408873996409e-04
8.694558314285123768e-03
-7.312848458789504569e-02
-2.156211741353988576e-01
-3.304990926917790728e-01
-3.479509054228946963e-01
-2.681759692781863769e-01
-1.437156213140994010e-01
-6.937506879930725734e-02
-1.503091363114492374e-01
-3.280750553562624128e-01
-2.373761663927305143e-01
4.766693144631659607e-01
1.509327303088652927e+00
1.924093426035533350e+00
1.233636601116637976e+00
1.075610882922956313e-01
-4.444321426603892178e-01
-2.282379512332803895e-01
1.873534080275508773e-01
3.126557808028487262e-01
1.449282054702252798e-01
-7.876695539492299669e-02
-2.208341041420204265e-01
-2.964184346721370211e-01
-3.416193328525202744e-01
-3.502698941330766869e-01
-3.226624298376553623e-01
-2.906399247627110549e-01
-2.763878863919798090e-01
-2.713791503195793764e-01
-2.622463179302233494e-01
-2.483743823710972132e-01
-2.373487064846879491e-01
-2.388876312598710305e-01
-2.527134945741551508e-01
-2.566864882143228832e-01
-2.190437172063066373e-01
-1.263645235347076734e-01
-7.692380981186236824e-04
1.053357734828387904e-01
1.377646746897820684e-01
7.684495383490604070e-02
-4.834627942738237150e-02
-1.802278603238481880e-01
-2.696768971465769993e-01
-2.993745480301654438e-01
-2.762908061064133780e-01
-2.143109388280791949e-01
-1.387737086699549482e-01
-9.329545111030329574e-02
-1.081268869329348736e-01
-1.580121514040655761e-01
-1.831955869893564515e-01
-1.741173903476264384e-01
-2.114319271799414701e-01
-3.484365938338587210e-01
-4.002227839262607612e-01
2.153414421916908031e-02
9.958037087123413622e-01
1.866778675877339921e+00
1.797083472314242147e+00
8.298671031439208701e-01
-1.080992711359489156e-01
-3.374581810748560895e-01
-5.835236172064835192e-02
1.798738173096199877e-01
1.809372980712227741e-01
1.360835130472625720e-01
1.993149270193846079e-01
2.590836198465204521e-01
1.554209025041540237e-01
-7.007701244818542730e-02
-2.658378804693944386e-01
-3.741418539977789393e-01
-4.332051089283256440e-01
-4.688832995034560303e-01
-4.605549714083683188e-01
-3.820487237267879421e-01
-2.481423314693726179e-01
-1.189571826747649191e-01
-5.201368952175138005e-02
-5.589791040464701932e-02
-1.031608848050013794e-01
-1.683098965094400323e-01
-2.147327570948406039e-01
-1.558493671110686707e-01
8.391911755982209287e-02
4.121822864511948681e-01
5.737425707420681364e-01
4.296679517951573768e-01
1.320831578250048488e-01
-8.531127776942123986e-02
-1.637315904833323565e-01
-1.864324670547843621e-01
-2.204744929951866217e-01
-2.689196002310351719e-01
-3.077949954460756921e-01
-3.065096181386190999e-01
-2.324469285450090905e-01
-8.676340878795298084e-02
4.473945765381701078e-02
1.702436219740610657e-02
-1.981824692518396602e-01
-3.166820452734941393e-01
9.667080175010563103e-02
1.024179148872414569e+00
1.716446307033207219e+00
1.454886746006921694e+00
4.983708104445779274e-01
-2.217076007124336723e-01
-2.355320138501078575e-01
1.147806332042395350e-01
3.179880604494030316e-01
2.349836622197738478e-01
2.347717118828025751e-02
-1.556367147341457535e-01
-2.539358688766662486e-01
-2.872787552948735113e-01
-2.776366479880616467e-01
-2.414223571552373826e-01
-1.995508454030655576e-01
-1.726323020772757288e-01
-1.710856585688436127e-01
-2.099508139847773291e-01
-3.028607735872206885e-01
-4.034430196511044064e-01
-4.104733979746766903e-01
-2.932251029972492429e-01
-1.463945259655195785e-01
-6.098463215083418237e-02
-1.430270829376174835e-02
6.108079772002028562e-02
1.661953504954238603e-01
2.350345501840336859e-01
2.070113527509048201e-01
8.362295760511437304e-02
-6.680101892566193966e-02
-1.615804751296860409e-01
-1.722439518087920951e-01
-1.369815223148022065e-01
-1.064547708006911564e-01
-9.549458471579889973e-02
-1.004770322154115159e-01
-1.404297631774882593e-01
-2.326227099774618723e-01
-3.284074859890475095e-01
-3.487655915663859241e-01
-3.192322575450808331e-01
-3.676653453143946537e-01
-4.637277347376906333e-01
-2.434187323164925254e-01
6.064036658440139504e-01
1.684976504823697763e+00
2.021245515177244823e+00
1.224165148829940986e+00
7.022147593577474090e-02
-4.494671008358921416e-01
-2.274051480872784636e-01
1.494173420599327895e-01
2.469281313128247612e-01
1.047443635909093562e-01
-4.648680685845245353e-02
-1.021423614257885304e-01
-1.194427631996009959e-01
-1.745308834828565858e-01
-2.681070187009592098e-01
-3.489656450414815314e-01
-3.749553981072877296e-01
-3.454208201286054214e-01
-2.946350844407693570e-01
-2.530645849370801725e-01
-2.146602590299431235e-01
-1.583969739407964927e-01
-9.927771922680193872e-02
-8.750197468371047338e-02
-1.429100895067656196e-01
-2.110120761496878106e-01
-2.076759194103818262e-01
-1.088480274363269606e-01
2.023157643171885622e-02
9.434946405438338068e-02
9.017743588365853546e-02
4.790794780492181604e-02
1.086963850864717564e-02
-2.237229698503587216e-02
-8.507638634892242258e-02
-1.805894823383244474e-01
-2.571757256583940277e-01
-2.680637904552445328e-01
-2.292403474191237744e-01
-1.845951159090187255e-01
-1.355243195323032057e-01
-5.147395041683150430e-02
3.701456640882072602e-02
7.650708281470779831e-03
-1.838727827177890906e-01
-2.682080237603206019e-01
1.966420623900990428e-01
1.190747704929107753e+00
1.931177619493110509e+00
1.672880101345278758e+00
6.892447129531945604e-01
-7.035357086908777813e-02
-1.472064136155559200e-01
1.208433433015811131e-01
2.717767255727326359e-01
1.927405807197405396e-01
-2.740435324429790764e-02
-3.259413624232396223e-01
-6.090905090074812955e-01
-6.905001432986305199e-01
-4.993396616934069332e-01
-2.282455038471214170e-01
-1.083596981890566635e-01
-1.582066214602150245e-01
-2.579236968375611116e-01
-3.343989295172250520e-01
-3.808009877563263701e-01
-3.813721210663834071e-01
-3.050352710027673941e-01
-1.672223194953723346e-01
-6.246101328882393278e-02
-9.767277456431175398e-02
-2.347726006111870156e-01
-2.151552820400692012e-01
1.979515030977131440e-01
8.158567925907135310e-01
1.080463342928289716e+00
7.145438230879219699e-01
8.378241549823171874e-02
-2.802350798055394110e-01
-2.508250594766404662e-01
-5.838203720952475639e-02
6.441625978067770653e-02
5.041276442490461029e-02
-5.029752749113600152e-02
-1.663649431874694440e-01
-2.477953574755046295e-01
-2.627405671756947170e-01
-2.143687129875935238e-01
-1.772958554710204748e-01
-2.426311351386679638e-01
-3.247608936206565766e-01
-7.601097681241947290e-02
7.431781727327307907e-01
1.711337034576813521e+00
1.946582872697401934e+00
1.148196879238937873e+00
5.352414429071547519e-02
-4.500722616078603466e-01
-2.675677379905938014e-01
9.403943609910951629e-02
2.467678613123338860e-01
1.804782137022736266e-01
4.947446969186970051e-02
-4.911420692002813754e-02
-1.172790999790657707e-01
-1.919200061330353091e-01
-2.815820613719149379e-01
-3.568014293759869116e-01
-3.814340984525753098e-01
-3.463234490337617766e-01
-2.749630789685866272e-01
-1.965703517579980852e-01
-1.226782727684468804e-01
-5.806418051736535885e-02
-2.126133798313940837e-02
-3.431726700643120131e-02
-8.526228451734942093e-02
-1.172424770678378858e-01
-7.978739138568841094e-02
1.893189890754188795e-02
1.275840913565798596e-01
1.943728278134299881e-01
1.867037391457309070e-01
1.069898533157724596e-01
-3.003429992757548211e-03
-1.016746084197031469e-01
-1.853936472334417329e-01
-2.621825771287656925e-01
-3.103980098405706989e-01
-3.013575102819347484e-01
-2.450260224335568393e-01
-1.792952007082873334e-01
-1.266122219359230028e-01
-8.670987692661694113e-02
-7.757210950163719032e-02
-1.679728188381005294e-01
-3.930367283432917858e-01
-5.550839924987427398e-01
-2.356306275331725986e-01
6.924603819963817131e-01
1.594356697024887470e+00
1.599470728479612358e+00
7.077964121902297068e-01
-1.657687288492779576e-01
-3.478689027517982701e-01
-5.435087094860521773e-02
1.612661231344791612e-01
9.294476794946239517e-02
-9.526971778566001303e-02
-2.117740911708133056e-01
-2.338559297710750828e-01
-2.518121628695809688e-01
-3.224451728436511511e-01
-4.033019780694026557e-01
-4.271126137719670202e-01
-3.983573855791212037e-01
-3.770341990495389983e-01
-3.994532726363035913e-01
-4.416779171693033801e-01
-4.435294800644746793e-01
-3.698251893778240484e-01
-2.536778797696304100e-01
-1.638304050583921923e-01
-1.284165922322623721e-01
-1.108535649052050376e-01
-6.579067114460387944e-02
7.890714653386501215e-04
3.933404486198630035e-02
1.278818718592086845e-02
-6.450516243535754646e-02
-1.387898277450572149e-01
-1.670604768047638800e-01
-1.538926795899793754e-01
-1.299284077555325212e-01
-1.113576099404142983e-01
-1.098961281546516344e-01
-1.550826254530135173e-01
-2.504403744849405533e-01
-3.237518917135256968e-01
-2.852718183847547939e-01
-1.439252301724911753e-01
-3.150566714133602730e-02
-7.889499517569124876e-02
-2.093513302516821772e-01
-6.330055775570972432e-02
6.545203708286555511e-01
1.603203566096172761e+00
1.906666744673593650e+00
1.175319965624999297e+00
8.913241154190304494e-02
-4.249036252874952013e-01
-2.261178487307209939e-01
1.580658720398835371e-01
3.054591983995818549e-01
2.206805233526574206e-01
8.217451618096102695e-02
-3.729382436169655785e-02
-1.661483517384759190e-01
-3.044868528186380763e-01
-4.012914079298806058e-01
-4.222963948807065271e-01
-3.842328745995010064e-01
-3.287549658122421170e-01
-2.821716698932855150e-01
-2.428323868983841005e-01
-2.046141102613208418e-01
-1.794961872708549788e-01
-1.836132351003117724e-01
-2.097372602923613938e-01
-2.264138282690142945e-01
-1.998795169645876391e-01
-1.130698344099258928e-01
2.577992958135763221e-02
1.798258294231014631e-01
2.900550813572901898e-01
3.033440721524747197e-01
2.106456086248436055e-01
5.732283877313631981e-02
-9.010458763398819515e-02
-1.919105873465930256e-01
-2.520551838488400143e-01
-2.828515365235422796e-01
-2.686618443144564994e-01
-1.963168637236103464e-01
-9.929726046019904384e-02
-2.354481688025475764e-02
2.351226452168555733e-02
3.509323033109856133e-02
-5.148820830901598006e-02
-2.685014301083136767e-01
-4.150236617500749903e-01
-7.333937178655691724e-02
8.914918531622544329e-01
1.862411683272705565e+00
1.961763368882245784e+00
1.139443834247933829e+00
2.501083797643472995e-01
-5.248715708218979620e-02
7.169882551481340793e-02
1.734397464292142255e-01
1.005134826264680592e-01
-2.969265970623218009e-02
-9.715884474777977675e-02
-8.679051201520392167e-02
-4.651580121955584124e-02
-3.008553688163859846e-02
-6.798856602493545676e-02
-1.511737437396510064e-01
-2.364431153341321201e-01
-2.832117663061601842e-01
-2.857276779121022958e-01
-2.626991865024075334e-01
-2.224274121128127502e-01
-1.555435179354388020e-01
-6.735191063105466780e-02
5.927705518715603583e-03
3.785758202430646036e-02
5.710124330429530021e-02
1.205589400950103779e-01
2.297518637117466900e-01
3.024291492068373888e-01
2.659090731007040520e-01
1.545421973364421719e-01
6.303197743381129536e-02
3.223041652246930872e-02
2.973490459091359533e-02
1.142884346779042722e-02
-3.431878407947242665e-02
-8.533136975310748329e-02
-1.167652666489189389e-01
-1.364922427511384428e-01
-1.686467913521552675e-01
-1.963110142323223062e-01
-1.663843979517960481e-01
-8.672737874242859857e-02
-7.346654109520349418e-02
-1.995016650518593726e-01
-2.596186802593253296e-01
1.429920904426804640e-01
1.030422885611362638e+00
1.707718071495495371e+00
1.445747099067915764e+00
4.633954209311491046e-01
-2.935787576772590501e-01
-3.048664755396407466e-01
9.271083840262446529e-02
3.403200528960058646e-01
2.645861650659501740e-01
3.787114783329129097e-02
-1.493819517902655880e-01
-2.464833459306587093e-01
-2.895986830846923321e-01
-3.122691079335235265e-01
-3.187268207214668525e-01
-3.055332796376989402e-01
-2.803867162909637889e-01
-2.576938911726051051e-01
-2.486837692297373392e-01
