-2.978979327415860051e-02
-3.450653906199359355e-02
-5.697810177427642397e-02
-7.842179302473728519e-02
-7.880741509395654265e-02
-5.877325946453600125e-02
-3.224745390368409514e-02
-1.336114332252488074e-02
-1.938364806716809038e-02
-6.789966614733326800e-02
-1.434316427346184475e-01
-1.656851516637036781e-01
-4.727854090555574929e-02
1.450733847988128489e-01
1.449395520314349373e-01
-2.127023158470325859e-01
-6.593999636968248534e-01
-7.304486531206608735e-01
-3.396262335205768590e-01
1.607343148418918233e-01
4.443588778838001851e-01
4.566633503879112266e-01
2.773553659654063863e-01
2.499616433148370981e-02
-1.267805540189119451e-01
-7.722354760128297135e-02
4.919055363328240366e-02
5.760698344074241528e-02
-2.634518629507602919e-02
-9.927989557979809837e-03
1.233979822373607871e-01
1.574725247426709551e-01
-8.510824924690144067e-03
-2.012195769664933687e-01
-2.445542579681371786e-01
-1.647735905671108003e-01
-7.383166599495070981e-02
-3.184725088635295687e-02
-5.167736387621969102e-02
-1.123406779278964818e-01
-1.445423197310806152e-01
-7.853090758638033020e-02
7.079919905806812686e-02
2.008074913754853419e-01
2.186943932148170122e-01
1.376496271428900853e-01
6.213094494054734185e-02
6.490184032602268338e-02
1.071348454798388972e-01
1.098114957680471904e-01
6.197482077336260303e-02
1.686117833838618463e-02
1.760986261731257996e-02
6.107927374574676632e-02
1.114622155281984467e-01
1.284875552422743150e-01
9.615739152967460457e-02
3.800876285397970789e-02
-2.774263582077108638e-03
-3.804737982643586168e-03
1.951914378613413270e-02
3.245977158240507393e-02
1.330776626521246696e-02
-2.643608538430280291e-02
-5.464899508004609358e-02
-5.456655248559164756e-02
-4.290424918894476802e-02
-4.263545041195602320e-02
-4.640246305711410307e-02
-3.447260308955659575e-02
-1.963113345304820165e-02
-3.433668539225995936e-02
-8.520309569070609601e-02
-1.471374749087508149e-01
-1.674233417966692061e-01
-7.493287851647555120e-02
1.141426926394796815e-01
1.939026969249362242e-01
-3.666832767073078397e-02
-4.269762901023778090e-01
-5.729932139486579867e-01
-3.171058651214471169e-01
1.142744580841414392e-01
4.515704433699685438e-01
5.718102038342937066e-01
4.261117677867641840e-01
8.788884126615012504e-02
-1.881995136709017913e-01
-2.084346102096397424e-01
-6.714011266474645412e-02
2.413285339084414796e-02
1.359693534455116808e-03
-6.317608830476462156e-02
-1.034581699809472427e-01
-1.068291067073120493e-01
-8.778955354710543668e-02
-6.767754785524834893e-02
-6.266875918577737015e-02
-7.216773870692401449e-02
-8.295908555422540354e-02
-8.557518690817056406e-02
-7.772604224444838728e-02
-5.291434526676494499e-02
1.592353462343038331e-03
8.803194320109600235e-02
1.828222288102986648e-01
2.448236412686393415e-01
2.418269279968002228e-01
1.724494622863408100e-01
6.874264863077360344e-02
-2.201213201417714926e-02
-6.176779909744939401e-02
-3.798411719637947992e-02
2.550598131022278892e-02
7.806562955681720095e-02
8.900961276945307254e-02
7.811142522477441952e-02
7.851401051420792143e-02
8.971764498003909072e-02
8.946058841784715332e-02
7.107179245373498877e-02
4.525942038846922366e-02
1.700067925789754825e-02
-1.569958211382234056e-02
-4.500471713626154335e-02
-5.618560239694726788e-02
-4.642229931738761639e-02
-2.815934879045417505e-02
-1.596729976092898379e-02
-1.736011096805633452e-02
-3.271367876628323429e-02
-5.517579058449156165e-02
-6.975225409288805800e-02
-6.066681635991891253e-02
-3.038863176591175691e-02
-1.355471504738662084e-02
-4.628960135916192903e-02
-9.018456744827987870e-02
-2.643238743598069762e-02
1.739798303117081335e-01
2.857200442352813563e-01
3.027071878668079891e-02
-4.767607763416863431e-01
-7.355851794213547068e-01
-4.734435686049847103e-01
2.957384371918247989e-02
3.627489857236078086e-01
4.378156824182147799e-01
4.025219396306393138e-01
3.603856458028346643e-01
3.101101711923406890e-01
2.291526287163723197e-01
1.181973525838486139e-01
2.980450353154905432e-03
-7.610329137763870155e-02
-9.986614133699300844e-02
-9.613440911114515264e-02
-1.063012683760641841e-01
-1.315367737698221740e-01
-1.372474178102363884e-01
-1.142672699182815388e-01
-1.004935272499756227e-01
-1.148376523724964487e-01
-1.137026919150341403e-01
-6.392573119245373303e-02
-9.727130349117237354e-03
-2.408543149063609515e-04
3.815468861499718596e-03
7.893690912610214216e-02
2.142921721582268513e-01
2.949793380160067313e-01
2.298869150279416740e-01
7.311104925585219794e-02
-2.912332697147734101e-02
-1.615480186298907245e-02
2.734871621342722936e-02
1.364388233206693946e-02
-2.919665246737421227e-02
-3.015260815399117139e-02
1.456327272525587135e-02
5.768610592110381963e-02
6.632884059324878345e-02
4.159982405922589555e-02
1.410386018855208992e-02
2.278288816286870577e-02
6.668878817282407334e-02
9.291019848570403195e-02
6.270878906946167342e-02
2.969177302272376327e-03
-3.551180026441861509e-02
-3.831322351306328672e-02
-2.590105519951351604e-02
-2.001106584730286478e-02
-2.711796683251311429e-02
-4.421754240905272082e-02
-6.558987172026371770e-02
-7.658230912505194221e-02
-6.228691735583605227e-02
-4.264960513818286114e-02
-6.373888310751191222e-02
-1.114870896831336444e-01
-6.947125737999745865e-02
1.351801156888871591e-01
3.162560870085956988e-01
1.452618456974935635e-01
-3.615354805127936610e-01
-7.132307562496749131e-01
-5.384536628372056377e-01
-4.342019569162063053e-02
3.351322545158004207e-01
4.438758224339398595e-01
4.055514124539991716e-01
3.409570497372598763e-01
2.660452254227710922e-01
1.680543520614659059e-01
6.839310368100839921e-02
2.013480461522504025e-03
-2.686547785787699386e-02
-5.025294898027311136e-02
-9.714704581743346945e-02
-1.495517467865950245e-01
-1.575106258079787824e-01
-1.130300422966943885e-01
-7.305874687652148813e-02
-8.188202578395677167e-02
-1.169288654295831398e-01
-1.392762667179310021e-01
-1.464800468926338584e-01
-1.502768889389271001e-01
-1.403359234279394352e-01
-8.705982271173007270e-02
2.751472043469792642e-02
1.716269295410292328e-01
2.596247630699457520e-01
2.139221301487772009e-01
3.895217277967618491e-02
-1.765985486724885589e-01
-3.205727388958706237e-01
-3.190300405469945755e-01
-1.823805391656959096e-01
-1.158386137800164473e-02
7.789294718763412062e-02
5.183146831376041902e-02
-3.298304534158343071e-02
-9.200780843203497372e-02
-7.398477151797897000e-02
9.744020159831823930e-03
9.756124664599008511e-02
1.308612055381993544e-01
1.020016671678262848e-01
4.858898911720987285e-02
9.783217007985695740e-03
-2.448212614974730819e-03
8.035599897450429983e-04
2.349250986079805259e-03
-6.959016067580708551e-03
-2.615222064324950954e-02
-5.249470029087149880e-02
-7.714668663447604713e-02
-7.554988793117696499e-02
-3.548171261053548881e-02
1.310699753431822379e-04
-3.905463314663096264e-02
-1.495145124436982609e-01
-1.991676521021669144e-01
-4.294515242898840762e-02
2.386462052066572470e-01
3.013946290783274806e-01
-5.505597216663758731e-02
-5.082280837917299010e-01
-5.576817433350719222e-01
-1.697255754322111176e-01
2.638855090877731957e-01
4.693533535602261164e-01
4.740032076268886341e-01
3.892141649384653346e-01
2.707009327066561277e-01
1.506185375391070891e-01
6.494718303227015044e-02
2.536139330898371305e-02
2.552581473577959781e-03
-4.085189227178992466e-02
-9.845541761505255396e-02
-1.196660174765811213e-01
-8.319318880354831247e-02
-4.445930617300023618e-02
-6.771911704873452564e-02
-1.372351077412086728e-01
-1.809334971236017942e-01
-1.613535233950073033e-01
-1.073717534869593204e-01
-6.796609700197261961e-02
-5.824120831013823718e-02
-4.676081614399617281e-02
1.301337543780320578e-02
1.279479680919782814e-01
2.342204424258194917e-01
2.413159395251514849e-01
1.306964125672185340e-01
-1.492293080824162038e-03
-3.494661295615197200e-02
4.170916741943245937e-02
1.279253168003031127e-01
1.431530857713010640e-01
1.085878082825575824e-01
8.757449979262944828e-02
1.000232060431769376e-01
1.143208041747524467e-01
9.250932835675472476e-02
3.676755989313682665e-02
-3.193277045099762908e-03
1.550608531708752742e-02
7.257837757165450099e-02
1.096177589491221377e-01
1.018980146364670131e-01
7.427490070075502826e-02
5.095598557330436457e-02
2.350334440556068119e-02
-1.974357597926478317e-02
-6.117392412675791424e-02
-7.490226358463063228e-02
-6.307505466230760305e-02
-4.891416063612687853e-02
-4.828169664657028931e-02
-7.379668271995191986e-02
-1.423618208974381794e-01
-2.212270643852229934e-01
-1.954279565710219380e-01
-1.001253436120825083e-02
1.407682545653316519e-01
-4.865023044830657506e-02
-5.473316243022223748e-01
-8.820113870855834648e-01
-6.863226065534074882e-01
-1.487574954461742816e-01
2.906581790293029099e-01
4.485130932509753809e-01
4.227964262795301797e-01
3.365565384323487841e-01
2.334379892774197662e-01
1.253682806927872428e-01
2.858604614917221662e-02
-4.022983692114003029e-02
-6.994724277671619805e-02
-5.970536588508197628e-02
-2.910366625902674129e-02
-1.442241976408894719e-02
-3.842925639344352273e-02
-8.845418226428421182e-02
-1.355391744781073160e-01
-1.617652000145883839e-01
-1.592730601694868076e-01
-1.284566898941549573e-01
-9.051083794960480822e-02
-7.362619016200744326e-02
-7.170083132427408634e-02
-4.063923218459339348e-02
4.705373578325328099e-02
1.584820886281692043e-01
2.260090590299042856e-01
2.101333273139624203e-01
1.333646866996299196e-01
6.230264544864058673e-02
5.038155405357355732e-02
8.470204298144552724e-02
1.030502644715671351e-01
7.107559541275156045e-02
1.984474607267272192e-02
3.917407460845147120e-04
1.867954448023369241e-02
2.323370937528497493e-02
-3.716964162933063254e-02
-1.363121917396141192e-01
-1.806364333249479703e-01
-1.268069759373041672e-01
-4.018172557882138118e-02
2.951169080527813599e-03
5.826340040419910639e-03
6.796471652718964057e-03
5.054477764162949860e-03
-3.199144892970571391e-02
-9.856990379586727524e-02
-9.584241664965394147e-02
9.712220578967083184e-02
4.200699844416084794e-01
5.903365901934456428e-01
4.205458678263535588e-01
6.735395940852650920e-02
-1.882774875859217212e-01
-2.466646197695681608e-01
-1.555719800538627740e-01
1.619114690704795412e-02
1.202360847126791588e-01
-5.129063074647833426e-02
-4.610484184133280539e-01
-7.123346496121623073e-01
-5.004211471837253233e-01
-8.101542711018636100e-03
3.680260802969047007e-01
4.761948287031333438e-01
4.250761516862174294e-01
3.414321184335903370e-01
2.649129221152964342e-01
1.918707903777530643e-01
1.214352232632972262e-01
5.748844526089832985e-02
-3.130557640369161735e-03
-6.584803321020252231e-02
-1.213758248606290613e-01
-1.471923863727269965e-01
-1.358607898618278131e-01
-1.124667778361839454e-01
-1.080816697329767678e-01
-1.220865324267978863e-01
-1.306382977197283746e-01
-1.264105138323524391e-01
-1.265600143034542602e-01
-1.437316861495042397e-01
-1.644424056278814550e-01
-1.460935016326126434e-01
-2.892782562668489224e-02
2.039043586238648287e-01
4.413833027912942852e-01
4.921009794100429935e-01
3.011226521641109932e-01
4.517140971406952837e-02
-7.711707165719573764e-02
-5.828976255809475981e-02
-1.143759215451349565e-02
5.677681118345990520e-03
1.462157563441362877e-02
3.631885161065413758e-02
6.040015255285503815e-02
7.074496506189251188e-02
6.097233820478773630e-02
3.670654097790830572e-02
1.876377471906097091e-02
2.435577713957122817e-02
3.807151599122080704e-02
2.541414290891800751e-02
-1.741243147330456126e-02
-4.729650114488968826e-02
-2.041619042514519061e-02
5.323209239124344211e-02
1.145166353243773499e-01
1.156776159478836163e-01
6.359617926434188440e-02
2.912811052338095189e-03
-2.482213893944464414e-02
-1.053904817196646936e-02
9.978636893511538125e-03
-1.274573691819591223e-02
-6.686513135624910786e-02
-5.428624060244419819e-02
8.970479496964800514e-02
2.270213952879269748e-01
9.413680080507215442e-02
-3.232779796279540707e-01
-6.616909012898315456e-01
-6.244470922036495786e-01
-3.306509115843451196e-01
-3.786529937312472366e-02
1.800561356693584081e-01
3.328547326186896416e-01
3.797252245117119229e-01
3.052190480852409737e-01
1.737815147578045671e-01
6.502526313680098702e-02
6.707568898400611407e-03
-2.991464933143178281e-02
-8.151880450036055881e-02
-1.355236911203706318e-01
-1.442316767229824825e-01
-1.083822908292211562e-01
-9.379006058042994864e-02
-1.322291539389771342e-01
-1.657222541739553356e-01
-1.337994993970343938e-01
-6.421908891956339127e-02
-3.220026767536648959e-02
-6.236111902247658961e-02
-1.028047431535652895e-01
-8.404097206733893155e-02
8.698880676754883884e-03
1.191935499616435801e-01
1.700439143877581216e-01
1.289063294524273595e-01
3.934105827667444544e-02
-1.683664973189252789e-02
-6.869448486244410408e-03
2.348675966192747058e-02
2.793831719188953969e-02
1.720933817059186466e-02
4.663510907758943586e-03
-3.758346084820862743e-02
-1.085888020541261878e-01
-1.315903125180927502e-01
-5.630794253746192884e-02
4.976432692900153998e-02
8.511216252208284039e-02
3.756786008160959561e-02
-2.392609588960365255e-02
-4.130946463717152101e-02
-1.880666981074373412e-02
8.188987212076028616e-03
2.851024517656933210e-02
5.600672784873783616e-02
8.980285568834364684e-02
1.099912315773754895e-01
1.100307103857057489e-01
9.194909516610492994e-02
3.444894368231712911e-02
-7.525927554406226794e-02
-1.908631043379495351e-01
-2.497107316992729920e-01
-2.323325088372226177e-01
-1.367692398201262871e-01
2.438705320544999958e-02
1.268754218010871015e-01
-3.922358865632385311e-02
-4.583417409820343402e-01
-7.374160784476423425e-01
-5.422877001309274192e-01
-3.993442378653176694e-02
3.573522215040153549e-01
4.910950007742250212e-01
4.754735561760228268e-01
4.170224748076107879e-01
3.287326658193676088e-01
2.235394067044252642e-01
1.359825529932379151e-01
7.092998775393356825e-02
9.908771029988739168e-03
-4.357320311301281224e-02
-7.142394979354493856e-02
-8.391267415584259537e-02
-1.142745578826767916e-01
-1.624197297639964344e-01
-1.810978308685620153e-01
-1.425725584963703219e-01
-8.523629350094436008e-02
-6.414619463064716309e-02
-8.572424084766591679e-02
-1.138499926349223756e-01
-1.119695776839055162e-01
-6.113383178160131798e-02
4.253777239642126534e-02
1.809066016785476905e-01
2.960277463377115059e-01
3.077842564607454201e-01
1.926842974086311333e-01
3.414917775097628394e-02
-5.256512185558148698e-02
-3.831186788383019598e-02
1.207660630819851894e-02
3.334287575382007679e-02
2.391785132663403618e-02
2.091298331295542851e-02
4.373693930477894759e-02
7.671074653867691884e-02
9.406032821872373217e-02
8.632959301764629723e-02
6.151444675886905827e-02
3.140500494970366319e-02
4.553791553700221699e-03
-1.375622254102744357e-02
-2.022415194673850974e-02
-2.942851387864226648e-03
6.294735566607646826e-02
1.767072231030185347e-01
2.627522756970265272e-01
1.945101310991252386e-01
-8.732547167643792130e-02
-4.420430030818133793e-01
-5.814327216284780331e-01
-3.817764595000858741e-01
-6.470865146726696715e-02
7.723972299458449486e-02
3.050514012923786697e-02
1.742781825822331890e-02
1.728846292445086197e-01
3.258479417254429022e-01
1.587946987474844474e-01
-3.392051792647627351e-01
-7.210731966585191000e-01
-5.893510087411817366e-01
-8.833359326155673652e-02
3.375366754388751112e-01
4.756695937143879949e-01
4.266890626812815945e-01
3.380693997415533669e-01
2.517852673724988444e-01
1.500605444958050261e-01
3.250997496696821781e-02
-7.230252097951772594e-02
-1.342561537973107622e-01
-1.274681491485488705e-01
-3.585558516826643782e-02
9.501185584549606822e-02
1.516756603248497481e-01
7.205807514660110547e-02
-7.134729822818221268e-02
-1.656711146157405223e-01
-1.797389575055219624e-01
-1.552867705453592762e-01
-1.348350899969634753e-01
-1.299319829169591489e-01
-1.246773489329572882e-01
-8.231552551038547050e-02
3.237104274279591076e-02
2.012271723913467703e-01
3.271401860138005713e-01
3.119164166243995617e-01
1.879930703454709418e-01
1.143235330816324419e-01
1.777698063502192172e-01
2.667214806625637369e-01
2.313206813215781810e-01
8.572857527472405037e-02
-4.055587692856604809e-02
-6.833924180733214060e-02
-2.110212960835560619e-02
2.656062557110579897e-02
2.169656549989772837e-02
-1.945105872056857726e-02
-2.939642856606931171e-02
3.550775023642907535e-02
1.269787793496980344e-01
1.093050898109134833e-01
-1.190793775414947936e-01
-4.484301898986701729e-01
-5.907933322125281661e-01
-4.178284186608999806e-01
-1.366839806990694239e-01
3.623989552640087541e-03
-2.834069523415676077e-03
-2.885224909358152096e-02
-1.665204924870034714e-02
1.044485513795951476e-02
1.875851797994209508e-02
-4.391567528765905927e-03
-3.393785753722217136e-02
-5.450224410502552998e-03
9.727785301094930837e-02
1.242307076542587818e-01
-1.332956489512364118e-01
-6.021287596100790562e-01
-8.670731337243847703e-01
-6.461291185621044209e-01
-1.444992710245240619e-01
2.530730834248217098e-01
4.186059016822877288e-01
4.459565835901933006e-01
4.085012870860255108e-01
3.206512089418563360e-01
2.155712457068436616e-01
1.311588843040901176e-01
5.900462731558865637e-02
-1.961297699880081014e-02
-8.194066705193160660e-02
-9.967891216567921486e-02
-7.829286097399926203e-02
-2.756336616404829812e-02
3.890691578344028512e-02
6.683119711106561001e-02
1.046019619165556094e-02
-9.175011599957885733e-02
-1.636868698949046075e-01
-1.816595510589357754e-01
-1.689242732517911849e-01
-1.381609098150018700e-01
-7.620634879103438397e-02
2.674502086916148713e-02
1.469498222345095029e-01
2.262119635503861970e-01
2.120924977069904571e-01
1.165358250179474031e-01
2.156092636529299833e-02
-7.641657971893074316e-04
4.068350575226396815e-02
8.836738048491232789e-02
1.085491943069084725e-01
1.029561689828895066e-01
8.166872345044424997e-02
5.627808014600425845e-02
3.850692072075568434e-02
2.539258220348477105e-02
4.662794226095787545e-03
-1.750590276434472667e-02
-2.022689461905241917e-02
-3.894365640338878602e-03
7.313085133528249640e-03
4.903264202740280353e-03
9.535143410482772169e-03
3.021190837349813085e-02
2.541910665370437222e-02
-6.506993751307656171e-02
-2.276325739110951762e-01
-3.382901160211004288e-01
-2.640266682202114246e-01
-2.247233490688321095e-03
2.849141417602865101e-01
3.825751475485304476e-01
2.252202440846275133e-01
-1.334826906702905186e-02
-9.061654349096255612e-02
4.955162146652664079e-02
1.926935218008042627e-01
3.694975479783282890e-02
-4.310393811251126972e-01
-7.933650472641077256e-01
-6.469176007786280325e-01
-1.060768245878513649e-01
3.697227513403308352e-01
5.082498581093852774e-01
3.952953479202356291e-01
2.824017226493234500e-01
3.554164428367299622e-01
5.596337423745835205e-01
6.277694580442233496e-01
4.028207531948020947e-01
5.362710573078582899e-02
-1.512194979384035021e-01
-1.463599632750375301e-01
-5.474289015637869016e-02
-1.195002311365038136e-02
-7.975435385197125748e-02
-2.464803149305177521e-01
-4.397865726196865666e-01
-5.530390622814532753e-01
-5.111223047995596680e-01
-3.328518954866866442e-01
-1.247673091093406406e-01
-5.446895372677333647e-03
-4.653576432232701433e-03
-3.033474754163673071e-02
2.947210520138494882e-02
1.727821343413593613e-01
2.767570461482692368e-01
2.317377631007872529e-01
7.201876851737321061e-02
-6.046156083126830172e-02
-7.650246635754487379e-02
-6.762078674882271087e-03
7.475725724994919386e-02
1.189454705245691912e-01
1.041007977889132907e-01
4.145093898762295531e-02
-1.814021940323169366e-02
-2.913183770924574617e-02
-3.558887797964413457e-03
9.563698917665328092e-03
-1.272556809210278854e-02
-4.839048959756257068e-02
-6.625268232094908005e-02
-6.053920853114790751e-02
-4.703200206919196102e-02
-3.753314080509532330e-02
-3.112774429884664421e-02
-2.866294266145498829e-02
-3.690523900851490346e-02
-4.148833879057798463e-02
5.406557638146001522e-03
1.200110894868307437e-01
2.202857885115778458e-01
1.981288804760419631e-01
5.051916746317239304e-02
-1.114205037530291431e-01
-1.521933142959651930e-01
-2.046370165847762046e-02
1.435286904088889370e-01
6.572977180298988920e-02
-3.263137096561203321e-01
-6.888935368202158127e-01
-6.198494797931053402e-01
-1.650232774426126925e-01
2.787424334338228782e-01
4.621129940021203586e-01
4.478657327810849909e-01
3.792008018638014510e-01
3.019286616487476538e-01
2.045439366401829717e-01
9.942537800516332291e-02
2.003528636351793041e-02
-2.014342691691535861e-02
-3.911619625618001361e-02
-6.366628922416482650e-02
-1.016581087676865919e-01
-1.366077975673175016e-01
-1.480473947973977578e-01
-1.358060514684649722e-01
-1.216477314185147041e-01
-1.236139534720785832e-01
-1.340443492159838490e-01
-1.326822574422479861e-01
-1.158666555463318676e-01
-9.621793342215390066e-02
-7.099162397505577593e-02
-1.038000807737610165e-02
1.005986679296607261e-01
2.154593100001774286e-01
2.530592220564084061e-01
1.840751063211670813e-01
7.345745894541232113e-02
1.601727268614766553e-02
3.448541832447900995e-02
6.990081555097091282e-02
7.040158923936160051e-02
4.599539673367408071e-02
3.002308692759279168e-02
3.210857360801151750e-02
4.402833822030093741e-02
5.923279115258258537e-02
7.157957214326624018e-02
7.460975803309823073e-02
7.217353918606150831e-02
7.645055641557904624e-02
8.596834337221852251e-02
7.748735254748326251e-02
3.540423725893504514e-02
-1.912584344659440730e-02
-4.717709903113765507e-02
-3.837942863408939920e-02
-2.103765765305827887e-02
-1.944667110078950739e-02
-1.841512441842093131e-02
1.097529550742939314e-02
5.798563654626601865e-02
6.385275624593074462e-02
-1.734088838461640344e-02
-1.374144135109730547e-01
-1.575693839998815737e-01
3.870502231183977834e-03
2.049573859453106273e-01
1.548672593856963708e-01
-2.213666633970482744e-01
-5.813953046105907463e-01
-5.503334908737747000e-01
-2.064272462718322321e-01
9.176291838582238680e-02
2.105240413797171972e-01
2.728312309626326759e-01
3.407666313954235693e-01
3.465246224833702926e-01
2.616826405296842628e-01
1.489615843191551270e-01
6.517439770664865129e-02
6.090627166195533397e-03
-5.247003688990240639e-02
-1.068750907307349923e-01
-1.359352745798305673e-01
-1.382935472326122794e-01
-1.364275885827467005e-01
-1.468517949401433043e-01
-1.608464952801301195e-01
-1.559829042769891039e-01
-1.237921961221887246e-01
-8.625085283704135575e-02
-7.937170183517998356e-02
-1.123025936034497962e-01
-1.435926688441261923e-01
-1.078953047890796046e-01
2.028607528718032876e-02
1.811746023856237175e-01
2.633828060897402401e-01
2.076987956901987231e-01
6.821529115500456208e-02
-5.068659002406690484e-02
-9.842576552659176858e-02
-9.522010212685219632e-02
-6.976800894709263290e-02
-1.659748418455410032e-02
7.777581191960139528e-02
1.773723002704560570e-01
2.003584233820059346e-01
1.181674330376872306e-01
1.395739505404182748e-02
-1.786144287143947434e-02
8.997485045099520851e-03
1.233916902898037245e-02
-3.681930385478047324e-02
-8.052329897969912054e-02
-4.781239797537916586e-02
5.293224293972360189e-02
1.246722213377485511e-01
9.139947712614525377e-02
-7.416267664364793039e-03
-8.148608199722939816e-02
-1.069799962699129886e-01
-1.192598947610393756e-01
-1.295218471445784281e-01
-1.181359935981608489e-01
-9.943760280194213763e-02
-1.162377110775564132e-01
-1.381011913935347724e-01
-5.272142894155718712e-02
1.317423506294135294e-01
1.519724612011115750e-01
-2.077008226402038693e-01
-6.909099446633499841e-01
-7.839801536833987949e-01
-3.841044106808869096e-01
1.107632490785758345e-01
3.668843995977120742e-01
4.076532222739205347e-01
3.736788656756828142e-01
3.009184159905030631e-01
1.701980387228835823e-01
1.428377319291671693e-02
-8.118736142431752512e-02
-6.043048519190093171e-02
3.024958474596759622e-02
7.920001343588131681e-02
3.353029799011891798e-02
-5.563991341847999983e-02
-1.190136374576640510e-01
-1.355561018536429185e-01
-1.138174423419264780e-01
-6.954703951594079503e-02
-2.725159834619239260e-02
-2.640246376820491389e-02
-1.058647864669748084e-01
-2.357179217138323790e-01
-2.907378927740154606e-01
-1.723699100211149027e-01
6.692108439221872151e-02
2.806329584700936741e-01
3.652457970726674108e-01
3.063511791360535863e-01
1.542858003245151377e-01
-2.720412608410112398e-03
-8.281305558130716560e-02
-6.831483827163614686e-02
-1.236208214506776329e-02
2.574772019620091834e-02
4.369119451565531276e-02
7.537396374535650090e-02
1.158833755774535679e-01
1.166135955457160422e-01
6.491546494499460251e-02
1.048752411348660013e-02
-5.249059600302793949e-03
2.600075499860573375e-03
1.628268807753527683e-03
-7.912152300186799450e-03
-5.329260023246163401e-03
1.462678426711248869e-02
4.311904342795075396e-02
7.085509724826684341e-02
7.370574796621813529e-02
1.189698521630906669e-02
-1.108846981609182963e-01
-2.062695162147064054e-01
-1.804139662256074028e-01
-5.156318928698212789e-02
5.383344093289368915e-02
2.430445497562334564e-02
-1.042833535580589832e-01
-1.208668005628739106e-01
1.593519625151490204e-01
5.570285311869301870e-01
5.668353401983057260e-01
3.416837065942347762e-03
-5.970750847399703964e-01
-6.018013873379151057e-01
-7.161053068223130480e-02
4.459412327565174805e-01
6.326646316234393330e-01
5.739481607692110687e-01
4.452160606225634698e-01
3.134673022888595506e-01
1.846511002294911885e-01
7.284465675096618575e-02
-9.041912763389788055e-03
-6.435806897765086743e-02
-9.421345186615821821e-02
-9.010021595569607522e-02
-5.644467259066864029e-02
-2.267697301772583426e-02
-1.926206751826707586e-02
-4.926940469086962815e-02
-9.620247866140549386e-02
-1.498162185530280688e-01
-2.018778257335184234e-01
-2.319395280552659366e-01
-2.326261084024906500e-01
-2.251688899007140143e-01
-2.059099336020025206e-01
-1.189665088648489411e-01
5.442829458270188187e-02
2.180501670264105851e-01
2.436620345010984678e-01
1.176525514973587039e-01
-4.428947254798741573e-02
-1.213323006139401944e-01
-9.039367457104729997e-02
-1.246640627776899983e-02
4.300188070955487940e-02
4.891845328407290472e-02
2.129392552550906509e-02
-1.155937869744078604e-02
-3.785615659689826190e-02
-6.160082881465956534e-02
-8.275364250319425241e-02
-9.076443690376244378e-02
-7.772515044977101883e-02
-5.056644972292130558e-02
-2.526699677466125865e-02
-7.914760627889160655e-03
1.194586318783447641e-02
4.063025934069185857e-02
6.044024544529553317e-02
4.987357735611201021e-02
2.007953328747198035e-02
3.901436371814805820e-03
9.001880346536485569e-03
9.551292534605498180e-03
-1.655792045964225509e-02
-6.485756711377609063e-02
-1.186574899317740239e-01
-1.556019751432945186e-01
-1.108518834397099473e-01
1.000157322766750123e-01
3.934351754751586605e-01
4.367237587971883883e-01
2.285166375251866666e-02
-5.288202952441928284e-01
-6.893719211858958529e-01
-3.726276153511215439e-01
5.857538543605556036e-02
3.057204945909205440e-01
3.547258449462193930e-01
3.053422520522016681e-01
2.180848644436797767e-01
1.098040003209078963e-01
-9.008741033209043819e-03
-1.163933061616969772e-01
-1.846852945993179285e-01
-2.048817132609647707e-01
-2.010216226034512443e-01
-2.049946247600088201e-01
-2.210211246693987719e-01
-2.319416845026472940e-01
-2.294483442951287255e-01
-2.178201098678710368e-01
-1.998778815618083571e-01
-1.778069244863048903e-01
-1.610936223029469649e-01
-1.593035016961631134e-01
-1.657643120408017479e-01
-1.554599409536512322e-01
-1.015382692557600941e-01
1.994261398964983955e-05
1.103610650631331042e-01
1.666259634692811575e-01
1.408279866789151347e-01
5.170537957414039765e-02
-8.992003431051624751e-02
-2.524963703148632721e-01
-2.520687049273480640e-01
1.525120382221544502e-01
8.081756942796908261e-01
1.030962012434150754e+00
3.726622272476047826e-01
-5.731181918959999955e-01
-7.086139174400736263e-01
1.341906405203651675e-01
9.288594488131143301e-01
8.628865461587078567e-01
2.831123121319714664e-01
-8.479124748612609785e-02
-9.257381700679041814e-02
-1.136828889160612643e-02
-7.066145992157593300e-03
-5.224058539009773794e-02
-8.245883863976351258e-02
-7.597308951321611603e-02
-4.589815374592214753e-02
-1.296896855159884558e-02
1.580854285623790878e-02
4.365543774149683448e-02
5.829881486388094336e-02
2.696638606615510761e-02
-5.823542639906243573e-02
-1.198620634294863263e-01
-2.686016765959609726e-02
2.179012843228496921e-01
3.460949839591251909e-01
9.008524244265350700e-02
-3.787312851609280218e-01
-5.693112545394126700e-01
-2.924162952589524633e-01
1.518447404103137055e-01
4.215191394051847618e-01
4.608102876180341090e-01
3.813092561511962075e-01
2.657775816771221766e-01
1.478609240851151696e-01
5.972628116865956460e-02
2.267146552094648215e-02
1.665515620651907697e-02
-2.360156715755821338e-03
-5.349218998741452069e-02
-1.132626345752066888e-01
-1.481420190743382714e-01
-1.502616846216416335e-01
-1.360161729552143983e-01
-1.237409062144872451e-01
-1.173176752648428522e-01
-1.009583696306233652e-01
-5.410307447776201845e-02
1.054122705141288113e-02
3.787069165605557591e-02
1.587341566627856106e-03
-3.263413194013796426e-02
1.873427150133768690e-02
1.351129053232973110e-01
2.098209871373779012e-01
1.743067029208657248e-01
6.005939089139529508e-02
-4.501214999481401718e-02
-7.387689069063084479e-02
-2.747566929808163694e-02
3.341269762950577205e-02
4.449508990037451261e-02
-3.928076622093233661e-03
-6.351827669836362933e-02
-7.993370422388816621e-02
-4.327340369073560261e-02
1.104961230123952497e-02
4.319031425420423453e-02
4.189837706272513812e-02
1.894689726245239736e-02
-1.300685683903679037e-02
-4.718677742289199145e-02
-7.404212946474668378e-02
-7.736043294976646667e-02
-5.388266709267428012e-02
-4.161875683958603939e-02
-9.483058892156306929e-02
-1.977568169927837460e-01
-2.456821878368724288e-01
-1.659988733594423282e-01
-1.413838048311013770e-02
9.274128107123953690e-02
8.299909347464662357e-02
-3.297623104004393513e-02
-1.520746660849543186e-01
-1.172071004138594275e-01
1.124301983119384146e-01
3.087456918935237993e-01
1.653763970035546649e-01
-2.640819187422895897e-01
-5.379284570001222621e-01
-3.772045935997243582e-01
9.336472208304601172e-03
2.786248105980448364e-01
3.526960091222997584e-01
3.395331852121576954e-01
2.940851190024773021e-01
2.045594128072404927e-01
9.389602589017269352e-02
1.851054685137507733e-02
-1.776182871058058863e-03
1.696727863189661546e-04
-1.714027747923905706e-02
-5.929802298206644090e-02
-8.628593953655937232e-02
-4.855278557412861379e-02
4.885158430496441828e-02
1.196182020718145611e-01
5.585553095327154549e-02
-1.659565462641437450e-01
-4.190884938733586695e-01
-4.988322090177073065e-01
-3.397912320173333001e-01
-1.287168042897800513e-01
-9.428686628989921270e-02
-2.116051348941473398e-01
-2.393525007164867546e-01
-6.373184970803763560e-02
1.439975524066404444e-01
1.844094544746328335e-01
8.655741106814529573e-02
8.525932381098069723e-03
1.179553763647049093e-02
3.675836729601977826e-02
3.063876007829473627e-02
7.980485073646275546e-03
-2.083359070092081350e-03
-3.764084811817130886e-03
-1.342848815708018798e-02
-2.427171029161301688e-02
-1.563950434674278231e-02
1.297736366010967916e-02
3.694733668582415864e-02
3.648451901578001616e-02
1.806247063973675723e-02
-1.412447591193046609e-03
-2.135571336672516252e-02
-4.696008407647307009e-02
-5.454660114464997267e-02
-1.066906676111594593e-02
5.699793010789691583e-02
6.881380985981559728e-02
9.266585146726699293e-03
-3.961190566400303592e-02
-2.359752325578583221e-02
1.736598966500058593e-03
-3.713517668159051210e-02
-1.016236934855633128e-01
-5.413147966729624921e-02
1.551454848007548792e-01
3.205249112724369853e-01
1.472853606066599763e-01
-3.164085454386558194e-01
-6.219569838177759769e-01
-4.627715626207834498e-01
-3.586271010496341893e-02
2.897896624015988132e-01
3.961767980348811502e-01
3.774888759871800614e-01
3.144948457265591135e-01
2.229628427878263541e-01
1.181243493927621180e-01
3.904640934854299028e-02
1.514532715815490593e-02
2.629391947042254707e-02
1.673680632971943222e-02
-3.323418502617551257e-02
-7.814372414991888061e-02
-7.450719988216028544e-02
-4.021082528572334641e-02
-2.140073840197397048e-02
-3.145955031157495613e-02
-4.622799237766361813e-02
-4.580055256867029273e-02
-4.191923508394346243e-02
-5.529868456278830280e-02
-6.918748974573735167e-02
-2.494414806225887793e-02
1.138298724103039006e-01
2.928239530648776290e-01
3.907129173261909560e-01
3.352849578718212209e-01
1.846675479638804906e-01
6.779374203773726182e-02
4.090369995658975355e-02
2.597275602515457596e-02
-7.631510527986819226e-02
-2.224509085939305464e-01
-2.549435257515171860e-01
-1.221561973124721256e-01
4.251201126985462708e-02
1.058276360468094063e-01
7.704977588324102289e-02
3.162783121520647972e-02
4.557008237424918680e-03
-8.755745294435729811e-03
-1.646956760196811864e-02
-2.742160262077092403e-02
-5.217054914517333525e-02
-8.064046806295724346e-02
-7.859178660376034409e-02
-3.169044367101711557e-02
2.508918476043719287e-02
4.511304854453932617e-02
2.260814551768700401e-02
-6.242643644667929259e-03
-7.488937745896409939e-03
1.058174613381482852e-02
6.246717245177135260e-03
-3.744057351436948233e-02
-6.118763855710432353e-02
3.420906134749417821e-02
2.406967433663451950e-01
3.411283457711429268e-01
1.016491772200113497e-01
-3.579313984501766299e-01
-5.902268496660610930e-01
-3.580235963517872655e-01
8.604130418091454624e-02
3.796583881947447336e-01
4.462354020331354976e-01
4.091602969789236433e-01
3.501838670474173854e-01
2.701079828719200604e-01
1.678176350020103014e-01
6.809741285622161744e-02
-2.288305420647906291e-03
-3.196095667198704804e-02
-2.645889509212411006e-02
-8.928232422603443047e-03
-1.402783744595028151e-02
-5.807205069032549127e-02
-1.028356563270703128e-01
-7.263186905765635359e-02
3.971205466525621480e-02
7.324367317551891410e-02
-1.793776862725946497e-01
-6.400193636593412005e-01
-8.904702143351999055e-01
-6.521104961140128387e-01
-1.429878343127162221e-01
2.346464742953811577e-01
3.379330419990623224e-01
2.720661040568651545e-01
1.595153776281742486e-01
5.486694966317937072e-02
-1.325441474438746048e-02
-1.775525808077217313e-02
3.370338332795006636e-02
8.315779107137194481e-02
8.194894243747347096e-02
4.547939454109184432e-02
1.727218843355968550e-02
1.360819497013451840e-02
3.754122925298453151e-02
9.734994935236697400e-02
1.629941363781627628e-01
1.585587245640775744e-01
5.994069805197530659e-02
-4.827617689036678428e-02
-7.734445374550891206e-02
-6.147586573851993030e-02
-1.148006384467833013e-01
-2.559020276013096451e-01
-3.496780018007580870e-01
-2.849029537763327347e-01
-1.299480373590515270e-01
-2.877829741453598322e-02
-2.460676879782877635e-02
-5.732993824868543031e-02
-6.851122144858053098e-02
-6.144504225400911068e-02
-7.874532379182760944e-02
-1.170289772860687166e-01
-7.864913498813710935e-02
9.332162860894457901e-02
2.183262180883679404e-01
2.020468101968395103e-02
-4.299694158550202427e-01
-6.717983376964340447e-01
-4.231123711418398048e-01
7.260947492585845264e-02
4.097932499778779158e-01
4.717833269877698688e-01
4.014331068111807177e-01
3.311516395268611634e-01
2.657938829433851291e-01
1.566710848819805324e-01
1.089974100533618387e-02
-1.008097820101497705e-01
-1.335121286195242729e-01
-1.151220554081458375e-01
-9.314148725837234633e-02
-8.103764754803904902e-02
-7.178466218031893942e-02
-7.211229749568502656e-02
-1.002883379092776583e-01
-1.487744529433446539e-01
-1.704313921947812893e-01
-1.311679262104486487e-01
-6.478364616145214361e-02
-3.513209438832028825e-02
-4.445806656479387581e-02
-2.186880015402066849e-02
8.283257398758187007e-02
2.269165009986070236e-01
3.146055205150297684e-01
2.863988073387865874e-01
1.615005310072989975e-01
1.996092859809582912e-02
-5.352992144331263080e-02
-3.479586396697120082e-02
2.992709510810864781e-02
8.347316784465948214e-02
1.054250535843351128e-01
1.040329158310168284e-01
9.163115247977909883e-02
7.387689552165020712e-02
5.377921659539414839e-02
3.665834910843815408e-02
2.190226683207945405e-02
2.459908663603060323e-03
-1.860168590192859406e-02
-2.820107909652818517e-02
-2.185107745578111077e-02
-9.960678982721682395e-03
-7.652491453782762215e-03
-1.614220485565778102e-02
-1.153850180751293461e-02
2.780493511019691000e-02
7.592869303604446451e-02
7.708456612082162374e-02
2.306143885233274266e-02
-3.482125086843483597e-02
-6.574413492200903431e-02
-9.118148553223728858e-02
-1.103671259373999874e-01
-5.327669103071625695e-02
1.086232554192831240e-01
2.070019302912650960e-01
-2.794094884775602614e-03
-4.559555309671590728e-01
-7.218867465067689837e-01
-5.151522544886542043e-01
-4.026670378085485391e-02
3.314978294974346706e-01
4.769226441011408246e-01
4.780930035225026131e-01
3.982374655096499461e-01
2.530633294147248136e-01
9.048082038226726298e-02
-2.092680374127696766e-02
-6.028443106271904467e-02
-5.807857141324811873e-02
-4.739399023933132948e-02
-4.435324561841870461e-02
-5.776673884372232615e-02
-8.446711527117722884e-02
-1.036567152982345447e-01
-9.779753136478477882e-02
-7.552979378966334645e-02
-6.413021578305240500e-02
-8.027674352475873409e-02
-1.121452872213643398e-01
-1.289172225488156298e-01
-1.015662041083543743e-01
-1.849635820669746217e-02
1.038229185327210757e-01
2.203353490843503182e-01
2.749272453602985000e-01
2.305381339130876117e-01
1.008444366357899580e-01
-3.800799881052160240e-02
-9.319318007897700595e-02
-4.223108043516924509e-02
4.497883494067539401e-02
9.427893925603829384e-02
1.054843074202139047e-01
1.184826681520810554e-01
1.411239966446156680e-01
1.429142225089580498e-01
1.001834625575953458e-01
2.972363173167927308e-02
-2.360876725998302395e-02
-3.588954206933500646e-02
-2.805792903199322980e-02
-2.850366521531016301e-02
-3.018387878541492833e-02
-7.303420591364232460e-03
3.212096712564251055e-02
3.915745735720675691e-02
-1.795559195806595981e-02
-1.061650722788384377e-01
-1.434726747488476173e-01
-6.229825167439749511e-02
1.103149738446088379e-01
2.415578853051008890e-01
2.172568610088324026e-01
6.140137870069520276e-02
-9.662504814456938929e-02
-1.252530673152331964e-01
4.499073277981777488e-03
1.195150590818906261e-01
-4.665214431371488002e-02
-4.790835545808536100e-01
-7.652724531775065842e-01
-5.756417256910528746e-01
-8.320296435212150288e-02
3.078296039332079626e-01
4.354738291431760056e-01
3.984299706712892686e-01
3.096528618188206794e-01
2.086556700991924751e-01
1.157908338174110929e-01
4.768623688748702127e-02
-1.371208493779745019e-03
-4.010677253654247598e-02
-5.910292288621899620e-02
-5.503983133388949678e-02
-5.112907222533306928e-02
-7.025840448352657641e-02
-1.047747493150258391e-01
-1.307815906026468800e-01
-1.417914065172223292e-01
-1.484181441449175243e-01
-1.505764413565594539e-01
-1.364645153407067490e-01
-1.083705073016757586e-01
-8.294095516854446681e-02
-6.372715330441654225e-02
-3.299422169305269575e-02
1.758697190940727850e-02
5.349918013892891733e-02
2.389998558846987906e-02
-6.590789975344187035e-02
-1.444816921912720487e-01
-1.520756781858840778e-01
-9.662972545520208401e-02
-2.660943055950449471e-02
2.081948682748680987e-02
3.675851879761941193e-02
2.946696481407702628e-02
1.326003014689301415e-02
5.597841555726824035e-03
2.370745981341014497e-02
7.203988871172706254e-02
1.331837577310014953e-01
1.794277185472082647e-01
1.879412744027456894e-01
1.478967177597965976e-01
7.617874693608209236e-02
1.963537321391493548e-02
1.204741040938384772e-02
3.383268520321093542e-02
3.694418911911140357e-02
4.312078365717376960e-03
-3.321184226260806560e-02
-3.768248899629241672e-02
-8.012485506079029124e-03
1.928244654639549652e-02
1.411278909385133354e-03
-7.404161742554435377e-02
-1.521083776648191332e-01
-1.186520140847774907e-01
7.111145604484486737e-02
2.414845629028815055e-01
1.093641292119315461e-01
-3.311108792343396834e-01
-6.900010786445951450e-01
-6.289313001020246929e-01
-2.483387193719781560e-01
1.383705666793268174e-01
3.750238185141528402e-01
4.649644106854313730e-01
4.369173583326453891e-01
3.309032375877951626e-01
2.071794013022540681e-01
1.145160010599770434e-01
6.823877526521555936e-02
5.634250565561760987e-02
5.741391491763780941e-02
5.120938226366542750e-02
2.299858065176390090e-02
-2.528228636630958093e-02
-7.338586791404033693e-02
-1.040334033146600168e-01
-1.171982380533048429e-01
-1.190716452872539605e-01
-1.113039362934386267e-01
-9.649096988854971579e-02
-8.239327362161498469e-02
-7.463512284992153412e-02
-7.164716946566392075e-02
-7.092586273879419867e-02
-7.493544310244940054e-02
-8.041695923779096367e-02
-6.968133515171598402e-02
-3.529250681396453593e-02
4.068913822173301185e-03
3.530055320008182451e-02
6.373300250443714177e-02
8.492427582266078023e-02
8.560241928550273161e-02
7.144726905953578677e-02
6.308274596919326294e-02
6.866361589911650076e-02
7.892260677743109798e-02
8.532133943067382598e-02
8.605523516658332428e-02
7.572715235452330551e-02
4.880887714017620449e-02
1.521315116480110273e-02
-4.848825963801177939e-03
-2.963160329686507100e-03
1.123551994038498279e-02
2.321467687046291362e-02
2.435182330318126642e-02
1.170543594603655653e-02
-1.065555007761402433e-02
-2.604896757489340645e-02
-1.593304997201056006e-02
1.683565683592810197e-02
4.506741555474386846e-02
3.585751167772413539e-02
-2.555525346173830731e-02
-1.043608521594140415e-01
-1.089364883374530218e-01
2.491032413447987620e-02
1.924560391365483514e-01
1.375915103512764248e-01
-2.345570518614578936e-01
-6.135423186103740045e-01
-5.947542675960892922e-01
-1.941223117728468339e-01
2.134079251094374019e-01
3.874963623798232670e-01
3.922942166742436343e-01
3.591361708611096049e-01
3.128772044144144671e-01
2.253499434210213814e-01
1.055958051080526372e-01
1.211005008962592194e-04
-5.641194435081143405e-02
-6.856843292563451209e-02
-6.877627175798035897e-02
-9.104341197641158123e-02
-1.458128286522933359e-01
-2.048318965258845714e-01
-2.222813295877928974e-01
-1.868522301757568893e-01
-1.355488789261799776e-01
-1.059401738733551090e-01
-1.045103556058571831e-01
-1.251854572531582444e-01
-1.528360304920374224e-01
-1.394618846281956703e-01
-3.112049360793769578e-02
1.502217588496345957e-01
2.888275702709537374e-01
2.870988747430233134e-01
1.948335576691692106e-01
1.713849104402563883e-01
2.730515849731610101e-01
3.538628361971012382e-01
2.755893067324528545e-01
1.114446251557761614e-01
1.750384365081643356e-02
1.943559504360663909e-02
3.484973032144717681e-02
1.277962381941958811e-02
-2.540281541515398631e-02
-4.270728621718302559e-02
-3.692376018088638912e-02
-2.356790086172572130e-02
3.867862264760410333e-03
4.919507792814907521e-02
6.310018997117286532e-02
-1.353428167359480884e-02
-1.488026515027599805e-01
-2.271974556316669058e-01
-1.793300236296608008e-01
-5.385833983207029274e-02
4.905626422510091234e-02
5.437846678070607648e-02
-6.494910231164381653e-02
-2.475709567930907962e-01
-3.497224185369823823e-01
-2.960626424028415249e-01
-1.715399365188699510e-01
-6.746760429418383054e-02
5.150558410063363346e-02
1.918691493036705775e-01
1.666500238713515825e-01
-1.776198423296116435e-01
-6.083604465096789093e-01
-6.857545287986074323e-01
-3.244727766335613883e-01
1.255437414405246033e-01
3.596468025590795481e-01
3.878056676247026990e-01
3.457734438766438823e-01
2.920342813932278458e-01
2.214105872919477636e-01
1.373734595907831757e-01
5.912448270754508406e-02
-2.191829693389775457e-03
-5.078079898495868605e-02
-9.688821635893493656e-02
-1.416754068032983205e-01
-1.683359914788267464e-01
-1.536451174636729866e-01
-9.341713564684754612e-02
-1.681163081640109358e-02
2.819652543291244207e-02
1.359728805077158043e-02
-3.995982182957666384e-02
-8.256074036538713079e-02
-8.591454584976035425e-02
-5.782778956426675582e-02
-2.674458829106865412e-03
9.270308887023749611e-02
2.088193976183803091e-01
2.731738459147630138e-01
2.313897249964369240e-01
1.155381141717694016e-01
1.165468942509190892e-02
-2.812584493738140567e-02
-2.039097222893431968e-02
-8.061156546756827190e-03
-8.810962969609441656e-03
-7.664617692464197399e-03
1.660744373655389725e-02
6.327358100941991859e-02
1.054449662471527160e-01
1.151203508368263823e-01
8.590362305191315273e-02
3.020181130419922338e-02
-2.793991301059468857e-02
-5.725166766326428985e-02
-4.370054949829581953e-02
-1.127121858806699392e-02
3.993230509022646472e-03
-7.179462974497362315e-03
-2.816522949854637775e-02
-4.003046658134202379e-02
-3.486871301467819179e-02
-1.715765762695797142e-02
3.291890842240017753e-03
1.999591167817187445e-02
2.629222844749344590e-02
6.184918443912462531e-03
-4.817472073984711833e-02
-8.957123467109832926e-02
-2.494868313718964087e-02
1.399561633456078980e-01
1.815177107677972412e-01
-1.225110397618849739e-01
-5.888225343082720276e-01
-7.196956898692699056e-01
-3.331220213224671545e-01
2.025338022245577463e-01
4.801001455900372195e-01
4.807105308660452603e-01
3.982519742116954475e-01
3.280382251811435612e-01
2.493632315916032294e-01
1.445259652214697099e-01
2.562387514302357644e-02
-9.033012579874738490e-02
-1.755137903388121756e-01
-1.957830061867927296e-01
-1.514587727339466172e-01
-9.080492257121131061e-02
-6.441784115593442162e-02
-7.829197367173601485e-02
-1.023455016781110727e-01
-1.116998024876530576e-01
-1.012916265085660739e-01
-7.457108102077994460e-02
-4.981950333198083974e-02
-6.277480921299191663e-02
-1.148532594192854667e-01
-1.302394899172505394e-01
-2.807445478161013294e-02
1.593075451050992297e-01
2.943402377989400298e-01
2.668538313697842446e-01
9.219702472603596988e-02
-1.060205873221626988e-01
-1.930846198820929671e-01
-1.309103028439788652e-01
-6.273028909425902577e-04
9.266417759972864210e-02
1.154509915246164364e-01
9.759219698237489582e-02
7.309831065557230445e-02
5.558445813666393343e-02
4.710832766430737839e-02
4.531728724463871677e-02
4.451979388768345647e-02
4.242842126782381956e-02
4.425433062620728886e-02
4.642475197093646339e-02
2.473506040898269462e-02
-3.339461214433134956e-02
-9.213792194365012789e-02
-9.932319973388335776e-02
-5.346746618816639735e-02
-4.937316989309081458e-03
8.641429700971283573e-03
-5.719652052118716010e-05
4.961255663127396229e-03
3.729277868214052327e-02
6.896756287493253923e-02
5.548614005893798967e-02
4.807152695593971611e-03
1.333335859465352609e-02
1.440396454957206251e-01
2.379127530374243737e-01
1.770293600035282786e-02
-4.829488113757403056e-01
-8.059737739557980563e-01
-6.079722866482810684e-01
-9.250630750456881324e-02
3.063679836491717268e-01
4.257606499900492558e-01
3.846729722988254663e-01
3.150583701460816788e-01
2.465977646595007011e-01
1.659786963327793408e-01
8.300012501429436529e-02
2.587831146376486091e-02
-1.181680840293454450e-03
-2.956438034658710398e-02
-8.687719362137708012e-02
-1.547132756623543215e-01
-1.838262007178644297e-01
-1.568492281073290417e-01
-1.121546860686839786e-01
-9.391550418232781638e-02
-1.031030985668595912e-01
-1.075948886469103166e-01
-8.765522637510181347e-02
-6.784945428454480787e-02
-8.679505729784675605e-02
-1.161302726826053539e-01
-5.723962511760154886e-02
1.222026735857840024e-01
2.988511951107537534e-01
3.186471445976139516e-01
1.758506037815628364e-01
6.174728508469864291e-03
-7.131484776888817601e-02
-5.368830008103563090e-02
-4.462648883378730891e-03
3.800513789140418791e-02
7.190766011516919187e-02
9.172703697502854192e-02
8.368020830526896880e-02
5.275234842853608608e-02
2.455187649717963799e-02
1.523604983593567115e-02
1.366018338589781653e-02
2.921954109532250501e-03
-6.853857191851071146e-03
1.674417519921318070e-02
7.762798865276572535e-02
1.110385626793680552e-01
3.454818186076843989e-02
-1.307646812694874261e-01
-2.439088828446624724e-01
-2.068760063582121000e-01
-8.228644021921285856e-02
7.596403852852422200e-03
2.537715255030836489e-02
1.389000971470042561e-02
8.165229528642155635e-03
-1.002436407292340908e-03
-2.076844391783456978e-02
1.640189099439578330e-03
1.224811212669779659e-01
2.375065939977794860e-01
9.677172251984524076e-02
-3.395635576360175323e-01
-6.886676875951143195e-01
-5.624705362045466783e-01
-7.185855752954070641e-02
3.586904689357722775e-01
5.145686832721698689e-01
4.889949530395936717e-01
4.195726713301340949e-01
3.382654343530041574e-01
2.248829044994102022e-01
8.660495976589428768e-02
-2.828697655760643859e-02
-7.176327796905668244e-02
-4.947313498932252168e-02
-2.424664830750125621e-02
-5.476558138013674221e-02
-1.341963157310542276e-01
-1.986374607640621626e-01
-2.018264895400702641e-01
-1.636122598774705783e-01
-1.280338031923614062e-01
-1.057658739544532767e-01
-8.564417864130763336e-02
-7.392183177328646992e-02
-8.461409448675207001e-02
-9.289409324614704422e-02
-3.677604989039051642e-02
1.068434520249568059e-01
2.695191291669381539e-01
3.431086619807113269e-01
2.798438596518336152e-01
1.364742819818831887e-01
2.453528775020925520e-02
8.748654440618432171e-03
5.425664329181338619e-02
8.472156629460504684e-02
7.094810340229650014e-02
3.838686152858136746e-02
1.615576597885557894e-02
1.046161819017932260e-02
1.270869009634770751e-02
1.389297033806129872e-02
1.546244649567138016e-02
2.659763198090676906e-02
4.389203049872925783e-02
4.631624151686764002e-02
2.540766269890730109e-02
1.617807166719891984e-03
-7.409371321099930165e-03
-1.018036038790702535e-02
-1.664160531781956262e-02
-2.226780844571597459e-02
-3.143035890901706153e-02
-5.764728038515060105e-02
-8.704087025302659208e-02
-8.470929043747897624e-02
-5.605297362108419001e-02
-6.190634792650741292e-02
-1.307157737352806770e-01
-1.687666161117810093e-01
-3.877639157733080155e-02
2.031895768360544585e-01
2.400145278244747160e-01
-1.341174616258127839e-01
-6.163881376940031354e-01
-6.851694121412830185e-01
-2.820132133281932352e-01
1.514133947307646222e-01
2.954005062238991286e-01
2.530949666205561388e-01
2.350642576368519310e-01
2.569404600002511141e-01
2.237606576230502242e-01
1.189484432080356868e-01
7.480305877340189674e-03
-6.399076652565130474e-02
-9.603150784878806967e-02
-9.983113291409430323e-02
-9.301932429577770833e-02
-1.319145743646797375e-01
-2.791522280277545232e-01
-4.882192799217324186e-01
-5.900208890923911431e-01
-4.851684406868969623e-01
-2.806123419527830620e-01
-1.519068464890802050e-01
-1.514006435785672233e-01
-2.068955901459171298e-01
-2.244254068407103564e-01
-1.499515443288831074e-01
7.314235656598709959e-03
1.680500460584381794e-01
2.273215066835345410e-01
1.447376519116778115e-01
-2.835421726304340750e-03
-6.721293873093436844e-02
4.467123823939870425e-02
2.577887406247842961e-01
3.782130861807632138e-01
3.026815574726092750e-01
1.183213000060085451e-01
-3.692323422894891460e-02
-1.047788688287174808e-01
-6.687827565574520905e-02
9.415575837765949307e-02
3.110417397493068781e-01
4.061788620548448248e-01
2.770984870908111408e-01
4.460461509757062543e-02
-9.946798068805802473e-02
-1.132309508517805458e-01
-8.094832160779683039e-02
-5.924960365850912014e-02
-4.036684746938259960e-02
-1.961795121081960636e-02
-2.016814220905266408e-02
-5.207899060291864418e-02
-8.814888768068822322e-02
-9.092504398414522071e-02
-5.477894938511684853e-02
-2.406213698571354337e-02
-6.280326275750647280e-02
-1.688138160417118061e-01
-2.025829143644486685e-01
1.954470432653478834e-02
4.519408465066812597e-01
7.113550488749961209e-01
4.799826234140947001e-01
-1.664845094885150645e-02
-2.542493826673901669e-01
-7.339975479757859800e-02
2.408647414456800695e-01
4.174981109441665561e-01
4.202336601974325236e-01
3.214899681388553865e-01
1.907394897519430477e-01
8.190744817170980685e-02
2.174755498587831182e-02
-6.822587088887636583e-03
-4.658447087780732965e-02
-1.196324372603208008e-01
-2.011473265006712696e-01
-2.454305112576888881e-01
-2.317065058718167370e-01
-1.781972347932488931e-01
-1.214916166440224016e-01
-8.621121294151597170e-02
-6.887216411301357033e-02
-6.143018735271581210e-02
-8.840551149270257925e-02
-1.720470611240759451e-01
-2.534561884060528292e-01
-2.262503820797524268e-01
-6.487141926756155585e-02
1.433378094243859535e-01
2.808220938896971441e-01
2.778515038136217807e-01
1.551219256722173589e-01
1.443339369613080500e-02
-5.173919851063487479e-02
-4.320800059473517418e-02
-2.258252877838226244e-02
-3.010459639176522179e-02
-5.488442505290282158e-02
-6.671401545971863967e-02
-5.551633964320565329e-02
-4.091290056658405949e-02
-3.111447264465565590e-02
1.010408275995955049e-02
9.904713626693249784e-02
1.651421471064832003e-01
1.379894466265340625e-01
6.069580263639150208e-02
2.627685189715761593e-02
4.856855845886356993e-02
6.151710465342156292e-02
1.265098629784974435e-02
-7.165708797376051098e-02
-1.075997489870621771e-01
-4.984093706771833276e-02
3.643999237339531905e-02
2.451564066459551230e-02
-1.403501907700127893e-01
-3.633981185689764137e-01
-4.854948312219563022e-01
-4.369820370131579645e-01
-2.350382756938994844e-01
9.613350664337044771e-02
4.039575093248366500e-01
3.406917268394868969e-01
-2.156679625899881603e-01
-7.829974655310907306e-01
-7.520087208536461176e-01
-1.468344489051520152e-01
4.718386303724746988e-01
7.080812259344173576e-01
6.139823823579357853e-01
4.284717303508087105e-01
2.994182811289793911e-01
2.319624045749980046e-01
1.749043626200013080e-01
1.075181339399596259e-01
4.754812105208119921e-02
3.347999614681716491e-03
-4.673526314635697426e-02
-1.198900720283375132e-01
-1.911295554727246437e-01
-2.057001953857829357e-01
-1.396062558378031171e-01
-4.200183867804344051e-02
4.774596058415968985e-03
-3.697604790102983902e-02
-1.358758334185215799e-01
-2.214677692940800746e-01
-2.290559241736492557e-01
-1.433925227808751646e-01
-7.784283415872800954e-03
1.138824391381169365e-01
1.744270385368689169e-01
1.555305211022524337e-01
7.689187703982157396e-02
-6.851097357525271977e-03
-4.952827637710330300e-02
-5.818383292175144383e-02
-7.075054787421877767e-02
-9.455995772806813360e-02
-9.668424948928273921e-02
-5.148052078738512422e-02
2.511976663433656762e-02
8.584552297280563515e-02
9.067194005048943850e-02
4.749780705839991291e-02
8.282127820464044166e-03
5.591988373492893724e-03
1.284326662511686701e-02
-1.406283186240699784e-02
-8.271403746179889493e-02
-1.519031649069190471e-01
-1.527272160988296656e-01
-5.592332464508624479e-02
6.253699748136490322e-02
7.512839269716704849e-02
-3.185768168044553900e-02
-6.487684504300036958e-02
1.996972292862343734e-01
6.623834163374473505e-01
8.844227052462338978e-01
6.037595358807477108e-01
7.790648653060013029e-02
-2.450807277408590390e-01
-1.681375778515619979e-01
1.772661427287843816e-01
4.198349013004792907e-01
2.065008344772258919e-01
-3.515987026294853379e-01
-6.928221387804280873e-01
-4.793512153887690141e-01
3.393615435787132595e-02
4.212127617222552467e-01
5.376498199396088085e-01
4.701213710808533341e-01
3.227560809633363559e-01
1.642073367755978452e-01
4.763129146953327953e-02
-1.220552783927773138e-02
-4.686629266796106530e-02
-8.738523679089972573e-02
-1.304606840854354577e-01
-1.580675058704426872e-01
-1.659107379327037779e-01
-1.661070260958095735e-01
-1.764271590494808917e-01
-2.042708923871412452e-01
-2.332737356932621242e-01
-2.372798403862938776e-01
-2.138297528785683133e-01
-1.892921019054666365e-01
-1.836012491510078948e-01
-1.803439186749741241e-01
-1.371703952956614680e-01
-2.682188527565508920e-02
1.195433404428753454e-01
2.104445458906155086e-01
1.683956198556082751e-01
2.031368764659631510e-02
-1.169639191915173154e-01
-1.525546160907430560e-01
-9.657488070312560124e-02
-2.163216454908418324e-02
1.774231129550414565e-02
1.944006395590893235e-02
7.885103820328464089e-03
-3.655256980351734644e-03
-1.508757875017451705e-02
-2.020794992258135095e-02
-1.046488591980178351e-02
6.942574139429365590e-03
1.857595966480133157e-02
2.861733603375390955e-02
4.828573105878102012e-02
6.512858720592326622e-02
5.158521659109289309e-02
3.784635158152289611e-03
-5.249671826981198997e-02
-9.110863449915659884e-02
-1.036744050387026078e-01
-9.576376807613566633e-02
-7.554990356144698771e-02
-4.608194983264930072e-02
-1.837859975471234711e-02
-3.002758909079823041e-02
-1.107916362048820269e-01
-2.045614210255675969e-01
-1.622237227811468285e-01
1.065515479223347051e-01
4.172616733667607880e-01
3.701508277802254554e-01
-1.494227736282609798e-01
-6.545531792921620573e-01
-5.858569145590172278e-01
-2.435041389266155709e-02
4.793995619909980910e-01
6.120865167214113445e-01
4.979718522066355346e-01
3.487083357156154362e-01
2.239875826555200455e-01
1.065304911670818810e-01
4.720343193736936324e-03
-6.931743513537684531e-02
-1.340974857711411394e-01
-1.999186862083115745e-01
-2.317239423734624437e-01
-1.983092278048604329e-01
-1.355071365451919752e-01
-1.093596045258123789e-01
-1.362501952431939556e-01
-1.815622911166313025e-01
-2.116977817661292449e-01
-2.150184874238110222e-01
-1.970869184870917279e-01
-1.792376456194231249e-01
-1.802248379182564142e-01
-1.788905055383830378e-01
-1.198613871594915864e-01
1.119341853172847907e-02
1.399601566134385799e-01
1.718052184096864887e-01
9.870600359585672556e-02
7.437579967297262840e-03
-1.978402657448032759e-02
1.269535916582981497e-02
4.458346088989618289e-02
4.220635911448331057e-02
2.051057404801772191e-02
3.005440508720959303e-03
-9.288561766992373125e-03
-2.735630603995897053e-02
-4.758884922677225626e-02
-5.040589740895565218e-02
-2.519846181788780101e-02
1.691820128158548486e-02
5.963410103536201379e-02
9.716062550584826651e-02
1.188772422495421588e-01
9.428346955014710318e-02
1.395058313419296481e-02
-5.219107312054669517e-02
8.969557625486349745e-04
1.667499858089102338e-01
2.866904909742487573e-01
2.339339380127152535e-01
7.770645707910885103e-02
-2.372453392348970735e-02
-2.648032331874165118e-02
-1.493381221786039929e-02
-5.787942064168457440e-02
-1.003048932074499799e-01
-7.000724452693433790e-03
2.320258565533700745e-01
3.576667707274134300e-01
1.033307678497213805e-01
-3.583562249485380269e-01
-5.336104751921068035e-01
-2.454225331998628468e-01
1.817302554246426338e-01
4.055808940759037529e-01
4.045959196557453730e-01
3.230896859974781710e-01
2.474066514082972346e-01
1.829900657154031607e-01
1.124332078020196246e-01
3.031517491461941521e-02
-3.986152037912851775e-02
-6.377077178875285857e-02
-4.401802183192687901e-02
-2.534147691098542418e-02
-4.451887018887366876e-02
-1.008363287270332836e-01
-1.696747580878766037e-01
-2.132935677382508943e-01
-1.967441790442413241e-01
-1.309379592424602945e-01
-7.504268809930397799e-02
-6.718689185465620550e-02
-8.364926779289300063e-02
-7.895513451616853473e-02
-3.298868253185624488e-02
4.500472516790650357e-02
1.295614674861215176e-01
1.859657231754018591e-01
1.823058533557144201e-01
1.154146338007175365e-01
2.395382783612513833e-02
-3.875099108359090355e-02
-4.831957418489608858e-02
-2.027541047426961729e-02
1.689645268014676460e-02
4.395138635814347522e-02
4.981223225853165237e-02
3.206662408545016968e-02
2.805974020403864937e-03
-1.751012210371641689e-02
-6.000519890197500081e-03
5.508643180842723308e-02
1.399532531646837941e-01
1.683970286782915660e-01
9.741525371211172402e-02
-7.324596704567870251e-03
-5.775038176935575612e-02
-5.201989547342644044e-02
-3.981729105655773537e-02
-3.806462002108623038e-02
-3.740833497738932367e-02
-4.426147573418133530e-02
-6.136395367363209341e-02
-6.153744080091638757e-02
-3.297700329093823657e-02
-2.952920195343069348e-02
-1.152975541209035615e-01
-2.350890720211383511e-01
-2.060307459956808862e-01
4.788710324353046000e-02
2.757712458101312381e-01
1.220988406101126827e-01
-3.586507366030409760e-01
-6.667208554106828222e-01
-4.731420651268700706e-01
2.390303524782727562e-03
3.551799182924496590e-01
4.528372280046206177e-01
4.097110036983140913e-01
3.367364735406093157e-01
2.556297603475810587e-01
1.615879114637135960e-01
6.921895417693603447e-02
1.085024341086756466e-03
-3.798793447255682798e-02
-6.524059836922493916e-02
-9.560950902577682042e-02
-1.194578019640301914e-01
-1.183834209436885193e-01
-9.711968340688921508e-02
-7.788282798339127289e-02
-6.544448439054204036e-02
-4.727295869686960056e-02
-3.143946960229741100e-02
-4.845058789514433695e-02
-1.025565622897925411e-01
-1.472290774916803213e-01
-1.228029564497119808e-01
-1.274020566038803169e-02
1.339513350645550605e-01
2.311675195765946766e-01
2.223629707507924214e-01
1.337137745029168823e-01
4.703459128608474676e-02
1.495249443616487178e-02
2.519681854091441325e-02
4.180446669520807013e-02
4.444308441504839224e-02
2.903509822222973685e-02
5.420910390119476792e-03
-6.163594231688643635e-03
-9.310570532367655819e-04
7.004286955591028374e-04
-1.157167669615623284e-02
-1.601961016199401899e-02
3.140957952440101390e-03
1.693409361730966248e-02
-1.734551151401559840e-02
-9.661335466557302576e-02
-1.676045390718724215e-01
-1.751527179319020411e-01
-1.089545711700507791e-01
-1.642371030081476307e-02
3.254973927043743748e-02
1.181595184730208949e-02
-3.500173975101797397e-02
-5.478585991906242264e-02
-5.117666796472306739e-02
-6.431679338826920556e-02
-1.129358469931767694e-01
-1.602157557680268518e-01
-1.085901335608611545e-01
9.766033066649223993e-02
2.873886757361471811e-01
1.305941209157592819e-01
-4.182708593926948160e-01
-9.004826682274372773e-01
-8.419926830865465117e-01
-3.231368983037923304e-01
1.880961312267903640e-01
4.032294062098449872e-01
3.840394545288649542e-01
2.968265960419179117e-01
2.179539138353693006e-01
1.499313701848388469e-01
8.865171254254487765e-02
3.405376106257623076e-02
-1.899684108835304405e-02
-7.047951390864028165e-02
-1.041416053981202988e-01
-9.632788340951323192e-02
-4.118776298407225006e-02
2.546770787723348639e-02
3.285155069964712515e-02
-6.522386360358511936e-02
-2.144116213101335544e-01
-2.807771067124404940e-01
-1.990920367450161876e-01
-5.361370927627425592e-02
4.453509238363694694e-02
9.068469571885082181e-02
1.436215334101538788e-01
2.222354650661848008e-01
2.985154453188735291e-01
3.435732493137323429e-01
3.325309563753807707e-01
2.440703834645496784e-01
1.066559272911620643e-01
3.498470557874257258e-03
-1.752421641324768478e-02
6.418336337730290095e-03
2.603474851029590614e-02
4.771072807300641427e-02
9.305351614788708037e-02
1.331615690967180854e-01
1.137792779425556566e-01
3.884145932772485599e-02
-2.183309013145548483e-02
-2.361485248357165362e-02
1.125090562806829383e-03
4.506351520068948430e-03
-8.716395543273500884e-03
-3.347158354528314075e-03
2.781470804993693008e-02
5.903534056524458590e-02
7.109335037221978237e-02
6.723294914121473453e-02
5.528691991540216760e-02
4.177771042420994757e-02
4.374632821117190040e-02
7.583191638336944651e-02
1.104346094989129001e-01
8.505879814556621676e-02
-2.623433744510494589e-03
-3.251774737054904246e-02
1.038796907162893579e-01
2.715548688652516529e-01
1.450881018174594028e-01
-3.437195818520778490e-01
-7.696107352369367938e-01
-6.934006306541198317e-01
-2.208610997638182916e-01
2.075102324311774715e-01
4.051048604254552932e-01
5.198849886297725043e-01
6.481409815581297140e-01
6.602987817430436834e-01
4.478070836888427553e-01
1.334196840577404897e-01
-7.941011305983569635e-02
-1.374007217254765156e-01
-1.245795241619092886e-01
-1.156501744974474527e-01
-1.193625588818130884e-01
-1.200845034201748207e-01
-1.157433764613843841e-01
-1.130693610718888492e-01
-1.122638374170657621e-01
-1.075982830090252279e-01
-9.597639788463854793e-02
-8.279951353960174343e-02
-7.863488272386764955e-02
-8.075425912473709056e-02
-5.945850579273455339e-02
1.882424655508136563e-02
1.429464355010904297e-01
2.424136983433226866e-01
2.431595303000868569e-01
1.404906773287744881e-01
-1.302321084789313105e-03
-1.147821187921866659e-01
-1.630185660426592409e-01
-1.297428152642089161e-01
-3.606380041370102485e-02
4.914955125693279414e-02
6.825286774902562803e-02
3.064545809550431668e-02
-1.191277202926248682e-02
-3.021182442337204399e-02
-5.134915665472147839e-02
-1.211339815579618034e-01
-2.227110139529670518e-01
-2.675451907767011916e-01
-2.056919525027977869e-01
-9.971788266835190928e-02
-3.894871542103157946e-02
-3.308596367361847645e-02
-3.730512109590301828e-02
-2.851786023107321516e-02
-1.864001185496547142e-02
-3.075403131315740737e-02
-7.713593190487978701e-02
-1.320726682561734477e-01
-1.399244549007487293e-01
-9.045209459979705602e-02
-6.121430706408927808e-02
-1.168554840649589782e-01
-1.738378223946237533e-01
-8.978679024303640177e-02
5.013829018538355775e-02
-6.789823420279583743e-02
-5.149321610445789510e-01
-8.704992882643423080e-01
-7.219768087474736085e-01
-2.006324577148509425e-01
2.478214925450895056e-01
4.134348746002708408e-01
4.072062793839687500e-01
3.687319042317908635e-01
3.056154587878946449e-01
1.809807026889078685e-01
2.404362556416256985e-02
-8.917557163070202741e-02
-1.221150687184096861e-01
-1.041876660900088181e-01
-8.263401025434778668e-02
-7.659022156609328336e-02
-7.462763168038379080e-02
-5.881124293931280778e-02
-3.105140685782564053e-02
-1.824092573612684856e-02
-4.317030343393388203e-02
-9.169861279156578393e-02
-1.230641939424226977e-01
-1.133513111762233377e-01
-7.502590524215693724e-02
-3.487995773255347931e-02
-3.060087350096352479e-03
4.404370236638708441e-02
1.618943200777406555e-01
3.841953287259537442e-01
6.147785597349838538e-01
6.422544089910202647e-01
3.908813819276070745e-01
6.677896778071423789e-02
-8.579940534582733425e-02
-5.513372263577978605e-02
1.406659136240704863e-02
3.570112270314151209e-02
2.904087446475003137e-02
2.718866637774225783e-02
2.292963026644589258e-02
1.659949679888481858e-03
-2.328829505694988630e-02
-2.894063917139470810e-02
-1.391664065436408644e-02
2.372824746408479235e-03
2.652439780433775256e-03
-1.478649543182035397e-02
-4.533251339147423981e-02
-8.946539810671737258e-02
-1.402901898648314660e-01
-1.701785390477444926e-01
-1.587416723101840454e-01
-1.245217433704517568e-01
-9.578225182744386224e-02
-6.853505742053932204e-02
-3.365524461993964905e-02
-2.776243004576505261e-02
-9.427921965585954467e-02
-1.627206178615647203e-01
-4.531529880617715667e-02
2.967932626468653967e-01
5.183755462425895244e-01
2.298102150556781131e-01
-3.574183362730560809e-01
-5.600561716816628843e-01
-1.360085157215860374e-01
4.201504635052450976e-01
6.137989279181751412e-01
4.958786398984701971e-01
3.615713175505506638e-01
3.105996369466200724e-01
2.547277562149906083e-01
1.314471868465579840e-01
-1.686820559461379293e-02
-1.047430997210401782e-01
-9.630544952932926228e-02
-4.387103471903593122e-02
-2.681785085668289548e-02
-5.761700379261980309e-02
-8.034634260473770551e-02
-6.689690034269817065e-02
-8.311001657787703278e-02
-2.162544590112360499e-01
-4.166257067172771666e-01
-4.922166406951907214e-01
-3.484132177809493580e-01
-1.280805628582063482e-01
-6.716738109793275041e-03
2.451001413979018648e-02
7.524945971093413566e-02
1.686011558429802160e-01
2.228932448083384421e-01
1.730487564706964243e-01
5.654206974883192738e-02
-2.496958622102787156e-02
-1.444288596290062288e-02
5.169128500958537764e-02
1.067661004131302965e-01
1.271940016005292662e-01
1.243634434482476514e-01
1.053489336512657970e-01
6.907407894142490734e-02
2.373188080352214152e-02
-1.081993120379954980e-03
3.364960724423030763e-02
1.235295735161462127e-01
1.899768878584439380e-01
1.552568741243445238e-01
4.170703211936943600e-02
-5.619718690269154965e-02
-8.500971621903978537e-02
-6.879136126617203806e-02
-4.922443322244464403e-02
-3.917390686688503043e-02
-3.409895109153525394e-02
-3.121340097268258257e-02
-2.769335093714307694e-02
-2.097181692859789032e-02
-2.081419764288107432e-02
-5.045398794121583319e-02
-1.169721422698974111e-01
-1.638203129860046070e-01
-8.131120978621883544e-02
1.445769004352123188e-01
2.865989529814291226e-01
6.777187849630550431e-02
-4.074518168117738925e-01
-6.611668860786757973e-01
-4.239336709651055912e-01
5.708306426367786013e-02
3.973536932257673016e-01
4.827699141298155139e-01
4.198922413683321420e-01
3.176797917784714986e-01
2.180292165618180067e-01
1.294991123903944941e-01
5.160593848038703968e-02
-1.579768341370203083e-02
-6.519726809140745372e-02
-9.157318770145804476e-02
-1.071128290376567177e-01
-1.269769250596592958e-01
-1.453556623432345207e-01
-1.427784078683869418e-01
-1.127187950692680740e-01
-7.404597846234449443e-02
-5.878002506929657506e-02
-8.082184231260536311e-02
-1.177534751430610038e-01
-1.362719543575143799e-01
-1.236812975878538445e-01
-7.564012005260729865e-02
1.865527155786462013e-02
1.414825981136827171e-01
2.214512278045018268e-01
1.940623350631425492e-01
8.737352361826715430e-02
4.776529010829966976e-03
8.582108642558726463e-03
5.861663528230699749e-02
8.266124191629278806e-02
6.101596340998025753e-02
1.842615558828749472e-02
-1.987354214758059109e-02
-3.741910767974475360e-02
-2.926331075377838070e-02
-1.286196967469734921e-02
-5.732658217531189093e-03
6.408847435679704621e-03
4.189062992905764199e-02
7.807527370389452659e-02
7.739465076243949582e-02
3.902054893969369997e-02
-9.544764282447399523e-03
-4.794649692720621276e-02
-6.851058291763208186e-02
-6.936034087714053331e-02
-5.734412996855078881e-02
-4.795904388935817025e-02
-5.204798925709378660e-02
-6.455236292971006096e-02
-7.961619598587547919e-02
-1.151730900668120616e-01
-1.902803660310418421e-01
-2.581384759833024178e-01
-2.024313878238252207e-01
1.950646571117568145e-02
2.137123708023673796e-01
7.241346657876503168e-02
-4.007227268441478918e-01
-7.526871416057261399e-01
-5.983774368967184065e-01
-9.475280115149296856e-02
3.269175460229782337e-01
4.756882900143910020e-01
4.478965903866481968e-01
3.716171724630812911e-01
2.909142299352907579e-01
2.122135341307196665e-01
1.436914819391179599e-01
8.389664006972497035e-02
1.491874105504216626e-02
-6.725157853437362110e-02
-1.318672949924366289e-01
-1.493753624068941133e-01
-1.312142916033905149e-01
-1.095640239723549986e-01
-9.562848783767670391e-02
-7.733455225476842942e-02
-4.798413980069965445e-02
-2.470099523765713345e-02
-3.392355955121297006e-02
-7.585807472928403350e-02
-1.090524824238586765e-01
-8.327360550023560348e-02
2.591957026362710394e-03
8.498591828260208814e-02
1.004860026537200690e-01
5.402009983784784863e-02
-3.708024328873769232e-03
-3.395080407957439678e-02
-2.090559813799831509e-02
2.387015326458212516e-02
5.733678586383870318e-02
5.345923015733808348e-02
4.044790051955551163e-02
5.391852300756623528e-02
8.567110909420144749e-02
1.040556912127758998e-01
9.470062172727024274e-02
6.470399383900134194e-02
2.754856468947785783e-02
-3.110653736582469180e-03
-1.653289798407148875e-02
-1.442305965175445445e-02
-1.328587417213376171e-02
-2.627526597556836124e-02
-4.089237392346416200e-02
-2.666205068522782551e-02
2.152526045319318182e-02
5.901409407172424765e-02
3.646141935828629832e-02
-3.698727073193505688e-02
-1.028240829208830059e-01
-1.193194446665934855e-01
-9.476746512091376029e-02
-6.437573822554398806e-02
-5.017330135723443302e-02
-2.362873685860142695e-02
7.468183343433766608e-02
1.971758109457435459e-01
1.222608855427493313e-01
-2.721455470036792668e-01
-7.004740267791955688e-01
-7.250385004846171544e-01
-3.076776544484611797e-01
1.785924612071941586e-01
4.305944818726959444e-01
4.499848290115489036e-01
3.818862442274520430e-01
3.490857331103275341e-01
4.091012433090194800e-01
5.054029809729922995e-01
4.802035242118391500e-01
2.603836941171657204e-01
-2.074748997838648384e-02
-1.847702007876278474e-01
-2.036055848176586136e-01
-1.666216016318295134e-01
-1.482852600915877117e-01
-1.600031241827429285e-01
-1.741703352826398932e-01
-1.616029734797581330e-01
-1.266113078369132672e-01
-1.106106261060172541e-01
-1.407289350867579336e-01
-1.813307066362812858e-01
-1.621490012103591061e-01
-5.078922461273917277e-02
1.149280089227756319e-01
2.511352402510769743e-01
2.790624794298901534e-01
1.842867311300778188e-01
4.041937175611789307e-02
-5.282710087347676498e-02
-6.502085560573392375e-02
-4.252095904003281440e-02
-2.709786574751209265e-02
-1.865738829256046241e-02
-1.601682513514465084e-02
-2.244716240553428291e-02
-9.369086759519324598e-03
4.774208333243054603e-02
1.049734462353095338e-01
9.491944709902534749e-02
2.128594069040613129e-02
-4.906389890224562012e-02
-7.277956534201636407e-02
-6.281997759186179475e-02
-4.463309514298775815e-02
-2.291754190718960082e-02
4.565069547705975783e-03
3.021654463875594540e-02
4.130681133773989044e-02
3.023914145760635275e-02
-4.159525925581455952e-04
-3.834665814920767274e-02
-6.959033061375963225e-02
-9.085237348741323493e-02
-1.109643092102243905e-01
-1.308438980620225400e-01
-1.158032442439331788e-01
-1.388771413105271621e-02
1.340295607408699685e-01
1.220810807568338680e-01
-2.044641557270057142e-01
-6.171160110536805243e-01
-6.645165314635491649e-01
-2.564863593930042374e-01
2.228813101388459894e-01
4.405142665195750928e-01
4.369139441238835686e-01
3.985767163994924367e-01
3.847540230416439666e-01
3.462790959645931643e-01
2.554379983789820119e-01
1.397479316619500700e-01
4.303591621175596738e-02
-8.265898757052097048e-03
-1.867219673533657837e-02
-1.612557091852961227e-02
-2.540931508253638921e-02
-4.191451145029222863e-02
-3.394203778459391196e-02
5.735430622794636737e-03
1.081218099435238278e-02
-9.867240199605155360e-02
-2.829315600844765077e-01
-3.845001929645098793e-01
-3.149145814791195486e-01
-1.574292176301994028e-01
-2.304944659777990318e-02
9.634798704096202149e-02
2.481499239259807310e-01
3.774443205107871346e-01
3.700850868805469207e-01
2.120810014706211444e-01
2.474826071890510668e-02
-6.586640490081524524e-02
-4.187791222320962764e-02
2.829760486426988186e-02
7.407325579260784498e-02
7.022400529940441005e-02
3.809258978304448651e-02
1.929822115551150380e-02
3.282280047918783444e-02
5.723300199188345594e-02
6.687568708834655540e-02
6.736790423251724780e-02
7.366692255951441670e-02
7.496082572477924533e-02
5.206503556382607173e-02
1.342364064811260756e-02
-1.817378735907816678e-02
-4.029475268411215894e-02
-6.321285906645532360e-02
-8.444454245775659396e-02
-9.523439438530796608e-02
-9.666125305691618264e-02
-9.372933755807899558e-02
-8.479783902436177634e-02
-6.839499247027130968e-02
-6.004835180635302583e-02
-8.431736952073219660e-02
-1.212611311343004400e-01
-7.984598578347310016e-02
8.466836756654715079e-02
2.029885186429839505e-01
1.381109353179484946e-02
-4.253085141253302170e-01
-6.738521430615721508e-01
-4.451143039912013322e-01
3.688063745756785250e-02
3.854089179941700416e-01
4.882313755670146804e-01
4.546117045372867205e-01
3.654704803350369846e-01
2.314636899033849504e-01
8.171727458681184164e-02
-2.577789394900082201e-02
-6.561368199057501793e-02
-6.673368428497657157e-02
-6.811149013167347444e-02
-7.694846065703513094e-02
-8.311973617340784326e-02
-9.128712534499891507e-02
-1.152520950287942020e-01
-1.554690363777626871e-01
-1.954597058230285178e-01
-2.112415338102237305e-01
-1.893461658608449338e-01
-1.459813002540909233e-01
-1.156825883365638213e-01
-1.073868954211739668e-01
-8.225262861766366451e-02
4.239473340372928306e-03
1.363312071624327715e-01
2.329713708824193985e-01
2.197498574543864103e-01
1.025192792929806584e-01
-3.105980235650205798e-02
-8.674405691791456374e-02
-4.670584857312504862e-02
3.144181650411857765e-02
9.475240478490283558e-02
1.374732749025373846e-01
1.558556278499158843e-01
1.186406920785180868e-01
2.366085074014102896e-02
-6.604300432020453193e-02
-9.295871787579698675e-02
-7.040099613682503088e-02
-4.161478751730739167e-02
-1.919484510800456567e-02
5.154283678015443224e-03
2.580770231223191921e-02
2.407941798755123056e-02
-6.753101231796721643e-03
-4.633947368232965019e-02
-6.168325072237700046e-02
-4.257508407698623598e-02
-1.319637687528056255e-02
2.549390678299643352e-03
1.220678621826518095e-02
3.125019289255046712e-02
4.052666317524681455e-02
9.418555757912676525e-04
-7.048413239247237894e-02
-6.845504287814661859e-02
7.106219541633007619e-02
1.820841112294119823e-01
-2.921257176205740297e-02
-5.498281345196118775e-01
-9.143914504810665145e-01
-7.295612155804951371e-01
-1.663258832373091523e-01
3.016260915361088091e-01
4.525991218760122559e-01
4.009455600724382007e-01
3.096447441940175516e-01
2.299003386614765776e-01
1.582215176429426218e-01
1.002878999102749802e-01
5.876944120445644348e-02
2.321726446596607610e-02
-9.226482799304491778e-03
-3.326088044433903740e-02
-5.523153105620839942e-02
-8.455308151505740166e-02
-1.103576806427453427e-01
-1.141708621451899136e-01
-1.001386100226993453e-01
-8.844569265896960741e-02
-8.569748699603821351e-02
-8.605212442054897826e-02
-9.119688239557524612e-02
-9.954322637831339304e-02
-8.386225430844819473e-02
-7.562980653893285402e-03
1.338936684402883270e-01
2.886602769560103199e-01
3.637900621754311947e-01
2.993800143846552242e-01
1.520083943776313895e-01
5.278312595669364116e-02
5.595681507712203795e-02
9.467699349739169823e-02
9.796915559346974778e-02
7.297354782960990827e-02
6.011848849245600424e-02
7.121529695035815066e-02
8.900188170212104677e-02
9.637094228736504953e-02
9.269512521276997152e-02
8.499133059200994489e-02
6.908876125581865646e-02
3.556409105224762890e-02
-4.830615047030617157e-03
-2.634402178448175952e-02
-2.403403806689289463e-02
-2.186208649353411568e-02
-3.531556463725459005e-02
-4.322199293532895392e-02
-1.652288426766549898e-02
3.484269022772160801e-02
7.064732246920576997e-02
7.285594018265799388e-02
5.982355039333597108e-02
3.898866313336987743e-02
-2.018690819031288344e-02
-1.191343542875401146e-01
-1.553188364443393588e-01
-2.438309183674431183e-02
1.519367367591513973e-01
6.406981374343435898e-02
-3.519400791597528388e-01
-6.974207775892560246e-01
-5.782059599034937714e-01
-1.060692193925951571e-01
3.161165042708444228e-01
4.897743489289727026e-01
4.637395169318130894e-01
3.022769041448425398e-01
6.315902950156274120e-02
-1.186160166389811366e-01
-1.370748917740592654e-01
-4.978006504010870636e-02
1.417918037404766393e-02
1.130103612498366446e-02
-2.004157881922272871e-02
