-2.049704572052571117e-01
-3.876495609420780308e-01
-4.852110400261208656e-01
-4.960790301724161688e-01
-4.780840520628513168e-01
-4.366185023572481949e-01
-3.068618468883146377e-01
-8.819183688136050803e-02
9.682696138347701709e-02
1.424956017272263342e-01
7.891717026972638882e-02
1.682432513918707268e-03
-4.314579178668064008e-02
-6.610645664966659230e-02
-7.773208455505112302e-02
-5.798423063369846642e-02
2.059969459491506685e-02
1.399332280981452903e-01
2.208767786271559064e-01
1.849167714770676152e-01
2.837566184463486546e-02
-1.787516159289442019e-01
-3.521635323578575227e-01
-4.345743297397111071e-01
-4.036153700426785562e-01
-2.725732042599617877e-01
-8.243975733709141274e-02
1.168620047798099165e-01
2.693553594891019420e-01
3.044070402986197021e-01
1.694961906097652016e-01
-1.033032473560413500e-01
-3.853655762895261128e-01
-5.276528648101990182e-01
-4.756166133618003333e-01
-3.331525843225520700e-01
-2.428905169189984059e-01
-1.216115639908793566e-01
3.455658052580870554e-01
1.203654549214944414e+00
1.839572651822927618e+00
1.541290137109460945e+00
4.606642461870590344e-01
-4.695917299812364942e-01
-6.132903917730900822e-01
-1.748749487155085713e-01
2.982135278572509707e-01
5.195151857593224287e-01
5.238627314703542259e-01
4.269613353453585725e-01
2.782159880539388785e-01
7.566938624163063731e-02
-1.680697821938550718e-01
-3.906443511139910951e-01
-5.061959681703646075e-01
-4.700047821637941547e-01
-3.093435408745710546e-01
-9.658726940492567969e-02
8.534114952746604810e-02
1.652378026606536043e-01
1.142156429207956125e-01
-3.636158583150149448e-02
-2.205077096051239194e-01
-3.767758050353541277e-01
-4.585564124407782161e-01
-4.273556608913632870e-01
-2.637483293650129679e-01
6.656022143272873753e-03
3.044933769721884231e-01
5.186901861993171714e-01
5.508367547498522754e-01
3.704865223842229160e-01
4.963425846126328506e-02
-2.679219560192069305e-01
-4.543676180209870186e-01
-4.683716731108093501e-01
-3.497132913888769679e-01
-1.645854415641039847e-01
2.876306913730989831e-02
1.779540619413347013e-01
2.381245543117831986e-01
1.889350349531478401e-01
4.285418220117978572e-02
-1.587965629444482440e-01
-3.513126789945804074e-01
-4.579390251137726575e-01
-4.227584534439143837e-01
-2.579165301391815324e-01
-4.707800231440974897e-02
1.259409949085359415e-01
2.351773313893194550e-01
2.629167376058960115e-01
1.300114466457810147e-01
-2.137159060030051905e-01
-5.753823765526340228e-01
-5.118454495077329192e-01
2.270260263829580460e-01
1.201718836630959908e+00
1.565627584325403721e+00
1.037825895699796108e+00
2.386601351259490800e-01
-1.251972537191446966e-01
-1.549970474104048895e-02
1.437556959398957335e-01
6.894914275029941086e-02
-1.623376571680377745e-01
-3.165790486030677919e-01
-2.722707319545646931e-01
-9.353892389414916742e-02
7.681357298484860208e-02
1.459875807458127783e-01
1.109303457733922665e-01
1.336100710994456500e-02
-1.196054518441882486e-01
-2.806225369991156016e-01
-4.303734602538814569e-01
-4.773657626351137107e-01
-3.555901236424033329e-01
-1.117161190936138276e-01
1.250039355583361378e-01
2.488605968224596454e-01
2.306596601290703541e-01
1.004534071562415143e-01
-7.842858178319569995e-02
-2.252154138700899755e-01
-2.673653225022261104e-01
-1.835052598105686161e-01
-2.897434793464146244e-02
1.039251326061806369e-01
1.648742754367970575e-01
1.700232308186130636e-01
1.456470735912098469e-01
7.857512521177323350e-02
-5.950153131586122940e-02
-2.572630631497747067e-01
-4.443493058475365687e-01
-5.228218769482598782e-01
-4.404272747460679094e-01
-2.576633090129726855e-01
-1.115638613923246453e-01
-7.034109403154498175e-02
-6.768519415316630317e-02
-3.579115978562955047e-02
-2.272669517858201538e-02
-9.788715039242013027e-02
-2.256743813281806843e-01
-3.048132701011155854e-01
-2.678167085102696743e-01
-1.141060648835943436e-01
7.668867688658644044e-02
1.603268148351472411e-01
8.981809477891983251e-02
9.566832834854301082e-02
4.870051720303044118e-01
1.118727006622305398e+00
1.334791923583406037e+00
7.596420735330993157e-01
-1.183039495745336900e-01
-5.125248875820167527e-01
-2.326691442617225825e-01
2.846528811322852071e-01
5.839371885202880863e-01
5.504709667559970487e-01
3.067308556225792904e-01
3.606480575888901252e-03
-2.560060821081593940e-01
-4.133856503687015072e-01
-4.514686778462988492e-01
-3.830680506018308007e-01
-2.325148714547299877e-01
-4.550216237845107481e-02
1.005110325036684127e-01
1.367281086751974684e-01
5.268495008372875432e-02
-1.121601243317791874e-01
-3.000307490073260142e-01
-4.373780031347656028e-01
-4.528286895822554725e-01
-3.366568390012042999e-01
-1.536318114756200781e-01
3.161527962373292255e-02
2.068405765631414761e-01
3.654298819923557651e-01
4.478777702389297177e-01
3.744598835575678186e-01
1.360748492919683084e-01
-1.674714965655868248e-01
-3.892702984506189456e-01
-4.371554467680050515e-01
-3.263559523442141064e-01
-1.519679410526774965e-01
-1.493081577573491039e-02
3.692330102431641559e-02
9.299337596897721755e-03
-7.757407256543642771e-02
-2.093690131868658488e-01
-3.581220298649551714e-01
-4.622033538106619099e-01
-4.554573212432680429e-01
-3.328639910774372490e-01
-1.725258737705117618e-01
-5.468966063690055418e-02
6.188628481645240542e-02
3.081743459339630897e-01
6.436797178325212032e-01
7.492900206846285771e-01
3.954677890886197367e-01
-2.135187516174950617e-01
-6.380201800614394569e-01
-5.422400638219284641e-01
1.903071621094888644e-01
1.283148626302412998e+00
1.994173370396094436e+00
1.716536806019707928e+00
7.235286637289405354e-01
-1.134425856392422272e-01
-3.233840393309702077e-01
-1.577674309912056316e-01
-2.851743695250971711e-02
-3.524190442830009429e-02
-4.843805040472268231e-02
2.048423360695529605e-02
1.303238764945285622e-01
1.877137207666156327e-01
1.339902705052000154e-01
-2.349943304794065158e-02
-2.217816935147290391e-01
-3.829689449067772422e-01
-4.601852974152897402e-01
-4.428697816504733598e-01
-3.349085488880019779e-01
-1.599431382881012220e-01
2.188636188177637762e-02
1.360817006045394462e-01
1.355975372196586148e-01
1.719210708776424540e-02
-1.780391659156692064e-01
-3.646718239955270002e-01
-4.415132887456701405e-01
-3.513683079949385668e-01
-1.220689337905801058e-01
1.427742825261592574e-01
3.176340027754525064e-01
3.324313384051873488e-01
2.176468842867750331e-01
6.068997757367704249e-02
-8.233734730298776505e-02
-2.074471402726618952e-01
-3.057739148363294301e-01
-3.363359354533244083e-01
-2.741208595485746247e-01
-1.506616207798979479e-01
-2.669716448823521854e-02
5.311855125616768425e-02
6.979297647149529382e-02
1.677266784984420001e-02
-1.063291659206209994e-01
-2.775238061027145431e-01
-4.319897531696471615e-01
-4.876294007187256807e-01
-4.078964661174082629e-01
-2.225131285912242407e-01
2.938918860106908004e-03
1.758900072116203750e-01
1.787192990840704709e-01
-2.956173176992624510e-02
-2.499367115318452404e-01
-1.025292466921476631e-01
5.293575539572454858e-01
1.149026917185236973e+00
1.094315950852385200e+00
4.005332262804497945e-01
-1.923618234064929378e-01
-1.663688721512348867e-01
2.550998522011569958e-01
5.529605271942624745e-01
4.975542533034805759e-01
2.092880389091377191e-01
-1.003931049389031743e-01
-2.991266959177805718e-01
-3.410786223213678747e-01
-2.422838829743627631e-01
-7.685342709668671612e-02
4.370597187875607803e-02
3.600063595950213358e-02
-7.669811566166359618e-02
-1.847510009544753584e-01
-2.356539006389005986e-01
-2.932211738779668675e-01
-4.026506428134061233e-01
-4.858511031549624382e-01
-4.330933490115648210e-01
-2.406871162756706317e-01
-1.328609486017814922e-02
1.433368785436629489e-01
2.004817200832513524e-01
1.911790915119967460e-01
1.493992880702370296e-01
7.579068084240797587e-02
-3.971462410619176764e-02
-1.702586971925696968e-01
-2.450197094654605612e-01
-2.047039311097872960e-01
-6.605032856856363210e-02
8.020316099626929873e-02
1.433443012335444688e-01
9.354215452559477839e-02
-4.616929796030808109e-02
-2.310553093841836436e-01
-4.016081401855240984e-01
-4.844355122119096690e-01
-4.193415933034883025e-01
-2.101643308274876165e-01
5.097878868282634118e-02
2.374365399853492209e-01
2.807762181904702725e-01
1.994552202011489195e-01
4.651401113647603280e-02
-1.285076017528695158e-01
-2.656767348273051388e-01
-3.129117491320760891e-01
-2.976639515867037233e-01
-3.100286493161532597e-01
-3.157264791883603872e-01
-3.791295025018347198e-02
7.389001407269134569e-01
1.654990308674518573e+00
1.899359458683039792e+00
1.134979417880602082e+00
-1.960286847045467074e-03
-6.254379105837961639e-01
-5.133570982643843594e-01
-7.503539650170563957e-02
2.561564666202544860e-01
3.506278586197373870e-01
2.951942764674805875e-01
2.008217580779601830e-01
1.052026388268717666e-01
-1.433699806733684454e-02
-1.766230016938275527e-01
-3.496532964151009004e-01
-4.595204539980327074e-01
-4.407671586742471503e-01
-2.854575712404247567e-01
-5.933925738863336102e-02
1.319629319172039295e-01
2.127832340514582699e-01
1.781620701895990921e-01
6.540646599159408159e-02
-8.992791517974370319e-02
-2.537959283324282556e-01
-3.722782824475923680e-01
-3.777862220736387111e-01
-2.271099955639745704e-01
5.285011764009776847e-02
3.481969030407305876e-01
5.095349445645699360e-01
4.521316693051429803e-01
2.145236267370217442e-01
-7.977987289923704761e-02
-3.122253501077749682e-01
-4.268508646844466070e-01
-4.230849011740883681e-01
-3.240416253903839472e-01
-1.692103295236401517e-01
-1.693233845887747585e-02
8.107794383633251667e-02
1.040829026947402702e-01
4.540840270980357751e-02
-9.446820698061784982e-02
-2.682302377980452790e-01
-3.834567787121511140e-01
-3.846449746238729261e-01
-2.940593456180948806e-01
-1.551262929286609249e-01
1.072279082505866663e-02
1.801342110300138410e-01
3.047180908541319289e-01
3.117220742117868815e-01
1.273777487022471067e-01
-2.122044283665275866e-01
-4.234312210879075944e-01
-1.148566267536196422e-01
7.181463913845443914e-01
1.451838555528774055e+00
1.419424397434971841e+00
6.943944468164940931e-01
-4.035658548865508899e-02
-3.044978744688169869e-01
-1.787853938588303271e-01
-2.559860920106273030e-03
-1.582609502747391039e-03
-1.539008534207680357e-01
-2.862009063485391192e-01
-2.753544820492699885e-01
-1.421796333155542214e-01
1.532082857419707345e-02
1.102304525140208047e-01
9.644836474277865279e-02
-2.586673049056590831e-02
-2.088122275464637800e-01
-3.757386588426962493e-01
-4.546337722207638987e-01
-4.103008282456221956e-01
-2.657795376437693258e-01
-8.625564560264542546e-02
6.850996607697978913e-02
1.638441319468077195e-01
1.766380007847220546e-01
1.054704390705393652e-01
-4.867719113689234628e-03
-8.313412113184673324e-02
-8.217687364527909155e-02
-8.531485922912720316e-03
8.248987214992468953e-02
1.297330099494895528e-01
1.216888661177647629e-01
9.554160176745261912e-02
7.707315603940070869e-02
4.594444245697038715e-02
-3.220636386097094905e-02
-1.568036552354344082e-01
-2.835030600120839184e-01
-3.556517471865742186e-01
-3.409817437594119260e-01
-2.459984958590568094e-01
-1.054436244324594152e-01
3.480916084107830988e-02
1.262042420789660779e-01
1.249273544900134231e-01
1.207864281362234365e-02
-1.799400090247087469e-01
-3.622581311942679738e-01
-4.331215973539226383e-01
-3.586906639626571414e-01
-2.179270202015986257e-01
-1.438972000589855971e-01
-1.865001586242783227e-01
-1.915694631153784244e-01
1.460167375202346407e-01
9.088171058320585471e-01
1.591751738521935522e+00
1.482408801140024490e+00
5.811958312186161768e-01
-2.803023195735794282e-01
-4.131085340848633658e-01
4.530396256068887351e-02
5.085434275476370392e-01
6.212597655948378650e-01
4.430094104557268375e-01
1.887970653223823847e-01
-2.750818973256641264e-02
-2.077635343484335317e-01
-3.518100375157698911e-01
-4.086631968541874493e-01
-3.371662789574548236e-01
-1.695455723420385141e-01
7.003392118628569418e-03
1.161458119702928060e-01
1.282366884740432644e-01
5.066448426340636885e-02
-9.234147405054318747e-02
-2.655439009340408441e-01
-4.211411745290845610e-01
-5.061066832448494202e-01
-4.792151922784961826e-01
-3.297057905190806659e-01
-9.003078184861836031e-02
1.672645319059078428e-01
3.545035127389642438e-01
4.034669618559083570e-01
2.893258090601047994e-01
4.628300410314079016e-02
-2.250104750347956262e-01
-3.961471889526599344e-01
-3.958459680931670222e-01
-2.559640817204704155e-01
-6.818015619385500714e-02
8.730913213403745932e-02
1.676722684963732612e-01
1.537844223551858291e-01
4.471471363884454986e-02
-1.282220087974203504e-01
-3.020349405704548240e-01
-4.113918435913785365e-01
-4.185774055353448375e-01
-3.258722940340817997e-01
-1.713296121119621263e-01
-9.414544934305291504e-03
1.073062454913803754e-01
1.324427970997175963e-01
4.000297958743925797e-02
-1.422479785467983537e-01
-3.484052298188494712e-01
-5.385777374321142341e-01
-6.359494525303805990e-01
-3.847847109080697603e-01
4.326280192741996378e-01
1.468446917642807215e+00
1.883400879177847598e+00
1.288466945037774369e+00
2.764635010687035988e-01
-3.069785345566606871e-01
-2.796035188676663785e-01
-5.168824756879060456e-02
2.710269775869301664e-02
-2.845218048966541638e-02
-4.083165335118076056e-02
5.340988143775900199e-02
1.696542481849646622e-01
2.111234008936238860e-01
1.488015081837035791e-01
-1.100038475396076035e-03
-2.016993662222111294e-01
-3.902391073987175329e-01
-4.897319395541615550e-01
-4.526173179355955090e-01
-2.981698152024648829e-01
-1.045440804687227665e-01
3.646733817590378651e-02
6.595019398509514852e-02
-1.178449806557020814e-02
-1.369680682373984881e-01
-2.526576814924211822e-01
-3.372758006788867946e-01
-3.586521688402959929e-01
-2.565272503916290470e-01
-2.332330840750296633e-02
2.388710156846563792e-01
3.868471446928809510e-01
3.536115245075484581e-01
1.884485126108487174e-01
-8.167232072034777413e-03
-1.734071784463761812e-01
-3.002591599219452956e-01
-3.891918784104781981e-01
-4.138808845101999423e-01
-3.425749593367776180e-01
-1.817532521256519928e-01
7.314261455776654985e-03
1.360903912472405108e-01
1.495059621284486051e-01
7.089213943260715134e-02
-3.342549510005886348e-02
-1.330321072134371674e-01
-2.383497930695892275e-01
-3.276986936247116011e-01
-3.207576168081833767e-01
-1.571041304168314945e-01
1.071809134500778526e-01
3.000548917750772704e-01
2.563204110089290499e-01
-5.508070615360474709e-04
-1.608792601930361943e-01
1.625266357476864987e-01
9.273006666899182848e-01
1.474003763343746387e+00
1.205850061149980501e+00
3.899512478911241198e-01
-1.434880647102074192e-01
-1.751036770532102965e-02
3.966531078393493170e-01
5.875484159481696445e-01
4.179504130560454667e-01
7.335210863903965373e-02
-2.217986212115673483e-01
-3.666625543651522712e-01
-3.750599685180320830e-01
-2.970428236083866858e-01
-1.698278775811529195e-01
-2.680914458469613876e-02
8.134318744669867540e-02
1.045847481774036664e-01
3.036729552570315363e-02
-1.105193442839900175e-01
-2.627984869887841080e-01
-3.633519441147955997e-01
-3.645025691803106538e-01
-2.584941792458215759e-01
-7.935065591824608244e-02
1.067711078189775287e-01
2.192078195116861639e-01
2.113335983244310767e-01
1.175448429834865249e-01
2.489323971420000225e-02
-1.959852958136622941e-02
-5.112585261409104131e-02
-1.154231053146744235e-01
-1.826152019360638423e-01
-1.740255771677491070e-01
-6.136960224212283099e-02
9.509297266469789178e-02
1.907129491413777356e-01
1.464758883320293470e-01
-2.761586212495054787e-02
-2.355046702811332271e-01
-3.834548259515020985e-01
-4.389152757814208661e-01
-3.997265375261105924e-01
-2.698351870011855835e-01
-8.568433457259044816e-02
8.282030151837070642e-02
1.756077465159521789e-01
1.588866311797876019e-01
9.343008523578232721e-03
-2.527526218157026827e-01
-4.993642559498921996e-01
-5.677055165870403819e-01
-4.607882180466748578e-01
-3.323611869891298087e-01
-1.619797707435498280e-01
3.444597999929382426e-01
1.259722044695333665e+00
1.986842431668440989e+00
1.758924022898330719e+00
6.392936315797235203e-01
-4.375247988117718645e-01
-7.224658661669597359e-01
-3.343874159159343495e-01
1.474324195815555627e-01
3.637601257684144329e-01
3.417882826931820106e-01
2.489299855037632181e-01
1.706292549956380522e-01
8.943304314242635222e-02
-3.681654088176779249e-02
-2.132520216063840957e-01
-3.871658465177222341e-01
-4.810142532431790907e-01
-4.602358339734621273e-01
-3.491856939076831146e-01
-1.848743618048730442e-01
-7.029924452689295666e-03
1.137098378085644734e-01
1.089303881786394396e-01
-1.615201285288224431e-02
-1.879500103337208572e-01
-3.357306583407263512e-01
-4.188949544568149053e-01
-3.926703575650015710e-01
-2.100468189696000354e-01
1.038668973444104165e-01
4.170879469474390588e-01
5.709033684824513788e-01
4.870809920868626186e-01
2.059438349863674800e-01
-1.445924398054425353e-01
-4.202582182322044946e-01
-5.348977004421624493e-01
-4.907197202760469334e-01
-3.519665507032092022e-01
-1.895261973661632737e-01
-4.424042907477605119e-02
6.161493900363899240e-02
1.011890168563533143e-01
5.097518697320899128e-02
-8.427032703037354300e-02
-2.547872100305852983e-01
-3.768414364967190289e-01
-3.845191493328622423e-01
-2.820387005998966634e-01
-1.348342838822061962e-01
-5.298161588819625886e-03
9.606748475534127030e-02
1.821953539160015290e-01
2.017853472749949195e-01
3.195962584974343379e-02
-3.221440483756066175e-01
-5.128046438854452216e-01
-7.759521625542491197e-02
9.024169210899046778e-01
1.612187263479065713e+00
1.371393235372524888e+00
5.090906841746521971e-01
-7.591225138528712169e-02
-2.131954999375552592e-02
2.739099563689753603e-01
3.353466180672511898e-01
1.104948706036536915e-01
-1.639577844692703401e-01
-2.934634498309826034e-01
-2.450037898754430787e-01
-8.950364525976584051e-02
5.446860595782729297e-02
6.886461496892462564e-02
-7.337470769944857973e-02
-2.654812884544279772e-01
-3.716068875337927291e-01
-3.688288125984405808e-01
-3.389215250316244821e-01
-3.335270503261356101e-01
-3.079985796476086835e-01
-2.038154531845705886e-01
-4.877966538971722360e-02
6.229074702234210087e-02
7.065922358435458572e-02
7.085887618846285763e-03
-5.482434230346156651e-02
-6.832514283866333860e-02
-3.353900710415134989e-02
1.665436289794217095e-02
4.300002848800209276e-02
3.875209127652638752e-02
4.007540826469327411e-02
7.722113166168868836e-02
1.225156554215929006e-01
1.065807988851429911e-01
-7.938873576694772602e-03
-1.750060578868092298e-01
-2.962661268923901803e-01
-3.041994513050820248e-01
-2.081754470979493565e-01
-6.306797598051426534e-02
8.366157420395436972e-02
1.979551286027691759e-01
2.400402450355815231e-01
1.800514669599429796e-01
2.917921239052012269e-02
-1.640766521251639798e-01
-3.345293477965443074e-01
-4.083149898424597857e-01
-3.349272678529418013e-01
-1.648053151491622736e-01
-6.057225686345190513e-02
-1.032524943184845861e-01
-4.775379701755075312e-02
5.054943862784444519e-01
1.458868593596136076e+00
1.979664222107136773e+00
1.381408913612431455e+00
9.671095410398608538e-02
-7.530844622424982537e-01
-6.410836191894575542e-01
-1.976352662432374896e-02
4.235280173621117639e-01
4.466073316364245205e-01
2.233279562430755538e-01
-2.118814459072957887e-02
-2.030182824135299824e-01
-3.250205538369068115e-01
-3.846323745147680606e-01
-3.683389216546403833e-01
-2.838486538475704646e-01
-1.667880055456128496e-01
-6.404606575740004470e-02
-1.314187288924419973e-02
-2.779624905190471174e-02
-1.002108334456361660e-01
-2.145699122619792731e-01
-3.464920058840160744e-01
-4.538749374636518730e-01
-4.920044392416242918e-01
-4.381407549743110974e-01
-2.885333294440893259e-01
-5.229748427696519208e-02
2.157713540890475179e-01
3.785325015438263385e-01
2.824410413642570727e-01
-5.763241605974919746e-02
-3.959833473719985286e-01
-5.041498897694026704e-01
-4.100911492128174185e-01
-2.737530865313768103e-01
-1.570688875923595407e-01
-3.953299028842975626e-02
6.357122321547076238e-02
1.077572866316791056e-01
8.571316324914618479e-02
2.392939081000920037e-02
-6.730562969556967701e-02
-1.914920163317173629e-01
-3.068857770797048801e-01
-3.215776807438820994e-01
-1.852873672073273859e-01
3.625097656718390127e-02
2.092416819197737976e-01
2.518377787281678160e-01
1.905701120448652641e-01
1.026232066589679581e-01
2.182026714851848306e-02
-1.014212606398400690e-01
-3.248173132449526657e-01
-5.185961117740791604e-01
-2.905250748390818538e-01
6.207768140680521851e-01
1.764945942981502869e+00
2.176066371129595112e+00
1.456467248154522220e+00
3.016668676431062401e-01
-3.584609294831044290e-01
-3.464121464955443597e-01
-1.113744963709290270e-01
-1.703180792329127280e-02
-5.572276399064118174e-02
-7.076896942294082227e-02
-2.900567701514773084e-03
8.587074324059557062e-02
1.136891653257843110e-01
5.310266169792299262e-02
-7.154056937451030995e-02
-2.238433012462031912e-01
-3.715760271372852142e-01
-4.719233457356063477e-01
-4.706455659362138166e-01
-3.382425342244175792e-01
-1.113543673973970971e-01
1.116485460687386827e-01
2.323668342963069733e-01
2.127496541025536148e-01
7.468055083096437896e-02
-1.317349516321625336e-01
-3.307677827427369377e-01
-4.187890905807835629e-01
-3.190954529018706354e-01
-5.994883782455011356e-02
2.228068742101263489e-01
3.777478181134558688e-01
3.439488420485700693e-01
1.781172414897873590e-01
-1.998779171925980577e-02
-1.962275056319023325e-01
-3.425283280389397333e-01
-4.381169470150322875e-01
-4.386660382094496047e-01
-3.288676921264069852e-01
-1.534958461229981863e-01
1.803546588266363021e-02
1.361849117452421931e-01
1.721019158622462131e-01
1.088554180143274097e-01
-4.385580801633624792e-02
-2.373719080712562712e-01
-3.940804584114147580e-01
-4.418792883491132195e-01
-3.650017753652001207e-01
-2.158338066852062698e-01
-5.396487379205007484e-02
1.035827743383235383e-01
2.313941740388358315e-01
2.498641536451028378e-01
1.759766333678984829e-01
2.803328571048490647e-01
7.737837641289043722e-01
1.303787307602117806e+00
1.239125002399928066e+00
5.649522264731348109e-01
-2.529767641220535823e-02
-3.327189575065988419e-02
3.148905071515147869e-01
4.987450856478095607e-01
3.006572806209689697e-01
-9.370864717708576874e-02
-3.840396023821941451e-01
-4.445835731939579150e-01
-3.609075121010063003e-01
-2.580782202155043614e-01
-1.711601484365676273e-01
-8.024790308447132814e-02
5.988283699750036188e-03
3.791695683808268824e-02
-2.548320271819126334e-02
-1.721182476138676254e-01
-3.423612039942979246e-01
-4.664188412208610801e-01
-4.895674307543749770e-01
-3.890980340162580875e-01
-2.001912341801604656e-01
-1.255146058318887259e-02
9.724298864374555929e-02
1.323982063182661262e-01
1.455658388506935463e-01
1.525191188650047991e-01
1.227315166340605807e-01
4.746430242000769517e-02
-3.469074204647794313e-02
-7.754583516294766277e-02
-6.040075125900896263e-02
5.070169264674130941e-03
7.839074385840803794e-02
1.059215623500073117e-01
4.427369206519277123e-02
-1.120805595276022498e-01
-3.098440905348153751e-01
-4.558893763541294608e-01
-4.724952991724266638e-01
-3.415639538568119304e-01
-1.197858620646162359e-01
8.216397240064933494e-02
1.734375103730362300e-01
1.499532328864932873e-01
6.423058394671429805e-02
-5.237166980342742445e-02
-1.916829408106694721e-01
-3.105539248273108677e-01
-3.403651376669720174e-01
-2.812758898882933845e-01
-2.284451203166245892e-01
-2.196452777488924757e-01
-6.164398036014951537e-02
5.157124590664033947e-01
1.365519206969002752e+00
1.788744534439837386e+00
1.264584046298806053e+00
1.856491092564239165e-01
-5.409987322141828203e-01
-5.009236978100587434e-01
-3.025339912532803988e-02
3.619620232976799579e-01
4.773149149585800277e-01
3.956005372888046212e-01
2.359891040322424915e-01
4.945333884800910684e-02
-1.423383697414735971e-01
-3.035149962114634392e-01
-3.924875347050814089e-01
-3.867980709649276316e-01
-2.987065711702295290e-01
-1.699805028574458143e-01
-4.375552572923985251e-02
5.158427512165458806e-02
8.742351241371093540e-02
3.343685586862743531e-02
-1.057119120323315731e-01
-2.714396152785951699e-01
-3.896577771655077571e-01
-4.161589229038575866e-01
-3.385879334803296725e-01
-1.607422116287205438e-01
9.053506312373540976e-02
3.449122411662903231e-01
4.956174563195144267e-01
4.561307421364104164e-01
2.280414944598047333e-01
-8.950480278288508451e-02
-3.624473214879934679e-01
-4.966625186620459709e-01
-4.677003040708987980e-01
-3.106145948778672450e-01
-1.003724445322915770e-01
7.935199355006057609e-02
1.754483427627317460e-01
1.712332723428152959e-01
5.682831890817163778e-02
-1.677983855183378392e-01
-4.345403009471611733e-01
-5.975215154055126821e-01
-5.475784110639790869e-01
-3.244025844102501610e-01
-7.489045055775890580e-02
8.000275087755871761e-02
1.199119812700087800e-01
9.781928712026968786e-02
5.039940040074361582e-02
-7.082017391548027507e-02
-3.282737447742297143e-01
-5.882914615225441901e-01
-4.596262319636295612e-01
3.107942217705852439e-01
1.309971023962299252e+00
1.682537888766130640e+00
1.119460769946764689e+00
2.551960701851685998e-01
-1.571190415119858019e-01
-6.015981749707573212e-02
1.098840941863452880e-01
5.968083173770345751e-02
-1.365781567448137168e-01
-2.560636499831756563e-01
-1.957161020385042027e-01
-3.000703285080758009e-02
1.122392337026488218e-01
1.631139661990589906e-01
1.231668138523865641e-01
1.745825521450229678e-02
-1.262158039218883587e-01
-2.721108132411378389e-01
-3.721400869892445562e-01
-3.765527383113666526e-01
-2.649703016600063465e-01
-8.170488093538554042e-02
7.936344880863463458e-02
1.457250972299820035e-01
1.100975979506545327e-01
8.035623986381612224e-03
-1.155667374533379116e-01
-2.107328428973155032e-01
-2.213725415940613062e-01
-1.136827056113577372e-01
7.912233429992859834e-02
2.570534185725832366e-01
3.252723863261846038e-01
2.688217298314218850e-01
1.432946385471862705e-01
-1.980027903530703903e-04
-1.528430452745055956e-01
-3.104666852295277502e-01
-4.320337774608541959e-01
-4.550807776732084808e-01
-3.488210337508685366e-01
-1.548820730603207296e-01
3.057694634149818458e-02
1.338529612139760794e-01
1.538962742434749065e-01
1.227545327466910557e-01
4.727189900056225080e-02
-7.943219405147759760e-02
-2.274754782216218685e-01
-3.197634358590106252e-01
-2.796678945720283971e-01
-1.001499077632785478e-01
1.184355710245712789e-01
2.115032215620808176e-01
9.657190322635245128e-02
-5.568722232175475628e-02
1.238104427553819581e-01
7.612470756360703028e-01
1.367712907990065840e+00
1.264432328448533260e+00
4.661884203554154116e-01
-2.621916561926619926e-01
-3.287028470175922812e-01
9.618054677336901337e-02
4.639546110858233097e-01
4.678649987180306669e-01
1.925782344658472089e-01
-1.221605450798210202e-01
-3.180029858546976618e-01
-3.695882892437979406e-01
-3.178946206796891549e-01
-2.121277218329490621e-01
-9.493800547684494440e-02
6.525958140973613097e-04
5.338607158727430579e-02
4.845004205279521137e-02
-2.179763465828164076e-02
-1.415382693367781552e-01
-2.622697848493659167e-01
-3.262035866221233427e-01
-3.068284490552577459e-01
-2.205436225445852605e-01
-9.876218746607018373e-02
3.217665624825156306e-02
1.406705386634798105e-01
1.928890697017064393e-01
1.802297483579706761e-01
1.198811385392426765e-01
2.632540290877257924e-02
-9.272122525428710960e-02
-2.088243043115774467e-01
-2.656752148397818480e-01
-2.260195610270705480e-01
-1.195121587180820732e-01
-1.222055204381929105e-02
5.760853735874493092e-02
7.419708792417994969e-02
9.373824345190861357e-03
-1.454295604368142925e-01
-3.300837584512074652e-01
-4.428897585124922376e-01
-4.150304430012627388e-01
-2.583958150792006192e-01
-5.851812486268614250e-02
8.735751368777699977e-02
1.343819768490899791e-01
8.608627947064814712e-02
-3.743474876239175075e-02
-1.859193674187620271e-01
-2.804345806972085020e-01
-2.919763507451243467e-01
-2.887255561185598229e-01
-3.188737945399478524e-01
-2.158158106327730530e-01
3.331725411357249200e-01
1.290697848238206324e+00
1.956101392759070023e+00
1.607134717294311343e+00
4.680375144458822079e-01
-4.650539126830589565e-01
-5.800525430318195230e-01
-1.648440383180914126e-01
1.900999990879863599e-01
2.637587833658994185e-01
2.130452082313269435e-01
2.000184495960472819e-01
2.011213427274148313e-01
1.188546062263120956e-01
-6.542787112683973172e-02
-2.778915133198124332e-01
-4.296540250163231045e-01
-4.719318086328115891e-01
-3.944938603154772849e-01
-2.221709976695042665e-01
-2.905482618158327507e-02
9.311416100232487725e-02
1.098196521222130906e-01
6.054322924657314781e-02
-3.334898118621500845e-03
-7.228179171522375324e-02
-1.652793481418587951e-01
-2.669576147739441963e-01
-2.963918729443358324e-01
-1.665736796427423339e-01
1.324811759417449941e-01
5.094577898550139983e-01
7.802787364630863198e-01
7.046885421221165124e-01
1.584292385136283898e-01
-6.083783876354091902e-01
-1.042909643334138492e+00
-8.586009390825826149e-01
-4.102387191652717702e-01
-2.588023310982336955e-01
-4.776511890688122652e-01
-6.348956455995528048e-01
-4.202081682667591078e-01
-2.802742116887187163e-02
1.590609130874057753e-01
3.496172296862438966e-02
-2.094776217972904586e-01
-3.591109750615447127e-01
-3.423430623170662379e-01
-2.067456627288311310e-01
-3.047137399016093193e-02
1.310951789069395579e-01
2.497564735330214947e-01
2.885026356992726471e-01
1.637445652400477403e-01
-1.741924216510132573e-01
-5.193442460191344257e-01
-3.840773690328290746e-01
4.772510492280805372e-01
1.488397004900071652e+00
1.680855053676073130e+00
8.951222912236567186e-01
1.541807182196994197e-02
-1.859090605408049990e-01
1.366507304747316409e-01
3.853435400705186309e-01
2.860057774102219841e-01
-5.201186781489744448e-03
-2.309921493757716715e-01
-2.716667906368339103e-01
-1.613641557835099605e-01
-4.402860335556986471e-03
1.099138826852804895e-01
1.475484644624540931e-01
1.061571195071859680e-01
-1.892160685468744635e-02
-2.147646373639056916e-01
-4.159279054914359897e-01
-5.301153370295115241e-01
-5.047781497452306088e-01
-3.591387114198885122e-01
-1.608492142370775702e-01
1.449758290970979205e-02
1.085669292931502050e-01
9.617353958995386587e-02
1.130899331646837910e-03
-1.091371983713153027e-01
-1.651152162269476364e-01
-1.441833813524425745e-01
-7.986502434760898994e-02
-2.082060926749710814e-02
1.459463022998608826e-02
4.159850622498489220e-02
7.298362030808640266e-02
8.463987186387722517e-02
2.897909924450670083e-02
-1.062579832610012487e-01
-2.634447709023371442e-01
-3.542086483013237030e-01
-3.306295454658506605e-01
-2.123311157783092373e-01
-5.483057480530358074e-02
9.303419467548536270e-02
2.014408580336558563e-01
2.410136120743300026e-01
1.754436307550994167e-01
5.995813113271637740e-04
-2.193469813093805454e-01
-3.825499181949496563e-01
-4.115512142871748935e-01
-2.929237167307490730e-01
-1.032929649766536062e-01
8.563792513809781806e-03
-2.692779900125137973e-02
-2.572910004182287630e-03
4.437987208777857129e-01
1.278253080460610924e+00
1.808842779300978698e+00
1.397824105223450353e+00
3.408051807694761903e-01
-4.300207404695438052e-01
-4.234705971913612643e-01
3.813174129384014344e-02
3.964583674842647731e-01
4.491945213359561095e-01
3.635361045846765560e-01
3.062793838174940331e-01
2.243895415846469676e-01
1.134077956381844381e-02
-2.753678385463237954e-01
-4.726582184546110343e-01
-4.821879292334282918e-01
-3.110772221659102166e-01
-3.512240965955615996e-02
2.143402495956630571e-01
2.950392617498632797e-01
1.655079195800440994e-01
-7.494050097185250836e-02
-2.947561198611008959e-01
-4.251349594357987094e-01
-4.432095633873680551e-01
-3.512685759117428752e-01
-1.891997488645773828e-01
-8.034645437122782397e-03
1.665645635141984326e-01
3.069291805594430711e-01
3.480518827380256197e-01
2.319695025534995458e-01
-1.391646646895301417e-02
-2.695963370399493408e-01
-4.049061008625857161e-01
-3.707374246565363074e-01
-2.157368538086346932e-01
-3.744392864941056831e-02
6.775995537050519268e-02
4.183902983207189730e-02
-9.253227788363722894e-02
-2.372319722849001167e-01
-3.177069783190827890e-01
-3.527395075956958892e-01
-3.802781869045487873e-01
-3.689637449461743990e-01
-2.623151321550916681e-01
-7.414290437622009233e-02
1.059531004411368299e-01
1.940599786765917489e-01
1.775784823063744633e-01
1.006500644799500355e-01
-6.308794325120423152e-03
-1.739813246062289764e-01
-4.267246317034960046e-01
-6.080177541231326366e-01
-3.502229918407324116e-01
5.318987969613279132e-01
1.552768775596065076e+00
1.837308835966068754e+00
1.130565021787492741e+00
1.463368291145218658e-01
-3.220766980214688768e-01
-2.257507347563476874e-01
-1.575437154751915120e-02
2.044136435421294029e-02
-4.910670868062376460e-02
-6.159552441744965690e-02
6.527477266473503265e-03
6.789045657643882903e-02
6.547171837310604425e-02
2.650131871057643564e-03
-1.158267169012272974e-01
-2.795301893616884970e-01
-4.280019183199097466e-01
-4.838387851692528274e-01
-4.257310609269978618e-01
-2.893744782478976374e-01
-1.148513662998833923e-01
6.214715401029426156e-02
1.820297962237561462e-01
1.837535388297729666e-01
6.676817832921932983e-02
-1.042226709755015857e-01
-2.519273512085870581e-01
-3.126452696614002713e-01
-2.383301906549319671e-01
-3.618765785247317346e-02
1.957621486679681500e-01
3.240551744608810569e-01
2.862535890114610293e-01
1.302907423858352398e-01
-5.290324399124149424e-02
-2.215145596954048168e-01
-3.832157741289059505e-01
-5.124618102019145027e-01
-5.211728618964727167e-01
-3.474625667366096349e-01
-6.323403633004234803e-02
1.548409484769570355e-01
1.965243126398985296e-01
1.107027290906288097e-01
-6.896947249393485524e-03
-1.343331984224460651e-01
-2.806357410080914105e-01
-3.996195440815944466e-01
-4.137980494173406631e-01
-3.015895832257827758e-01
-1.169186474752677146e-01
6.906240191582029009e-02
1.934594945725371939e-01
1.750302614562025405e-01
-2.102096317790365376e-02
-2.077767514381574643e-01
-8.592868946633188537e-03
6.830024295638877918e-01
1.342695150406225224e+00
1.300356137504805165e+00
6.075749781917383352e-01
1.151004275146388922e-03
-1.950266256044819180e-02
3.277087965270730208e-01
5.438026052636617536e-01
4.077903083000554152e-01
5.747219658700158246e-02
-2.564009549439448254e-01
-3.921826538430040476e-01
-3.607878616312371056e-01
-2.373195298966636335e-01
-8.271544304993003194e-02
5.041958958978851046e-02
1.009839299217981795e-01
4.208171748459663131e-02
-8.601305521217902927e-02
-2.252049604075986033e-01
-3.501526093075773560e-01
-4.376614263467703547e-01
-4.358116133874765374e-01
-3.128280617114939099e-01
-1.148908397234300049e-01
5.897668348070956440e-02
1.402110099003172350e-01
1.372612805440236450e-01
1.059209074872267953e-01
8.986876355611475575e-02
8.739286604441751094e-02
6.427374542210505248e-02
1.940936625884746684e-03
-6.124158170543828050e-02
-5.052195764409892625e-02
5.955344853463365867e-02
1.855192957133741383e-01
1.945151803857969874e-01
3.586002205457446829e-02
-2.007585698121866491e-01
-3.689029277378355620e-01
-4.030251857396455750e-01
-3.520748212324721349e-01
-2.793224675094139187e-01
-1.856179516029423104e-01
-5.597615977545438576e-02
7.408024835217030812e-02
1.365267857420641440e-01
9.112792256574421546e-02
-4.564434380776542788e-02
-2.090532030734197078e-01
-3.147035363014293319e-01
-3.124804415547004499e-01
-2.459837073454954059e-01
-2.219602632343216086e-01
-2.298200506999859838e-01
-1.008287282019496717e-02
6.738347968088332918e-01
1.511127858330110429e+00
1.719514070289481333e+00
9.620400335693475302e-01
-1.208541639328679085e-01
-6.314808456541860515e-01
-3.745737957456671263e-01
1.548706137595804999e-01
4.594907542300572523e-01
4.565715748134974161e-01
3.312880633698119803e-01
2.151403098030418570e-01
9.091726552429854613e-02
-8.382271700400953374e-02
-2.761879482465287583e-01
-4.071387375004684173e-01
-4.253379313229506686e-01
-3.356474835655930966e-01
-1.844116855580185121e-01
-3.408262521837328307e-02
6.286665804167201888e-02
8.254495069511837146e-02
2.622220957107305669e-02
-9.331882482383123401e-02
-2.484311592568227145e-01
-3.860891042390081074e-01
-4.434440757029935454e-01
-3.829563404127757087e-01
-2.072833927037262824e-01
4.649045647831741290e-02
2.999498751677484587e-01
4.360279456209907867e-01
3.624498124127755183e-01
9.831788312546148323e-02
-2.197216141634498188e-01
-4.400158974742788276e-01
-5.034410387117159713e-01
-4.445622475449962363e-01
-3.188632650015891246e-01
-1.614676304034733112e-01
3.508295212288056741e-03
1.440450206754013973e-01
2.115320366452855261e-01
1.566724828319883134e-01
-2.553362391187723179e-02
-2.630617777393393641e-01
-4.354807227271407233e-01
-4.543611440217518171e-01
-3.250366392930376658e-01
-1.311588781556245198e-01
3.350332696885918726e-02
1.185482821552425320e-01
1.210700541617750481e-01
4.227718649182879429e-02
-1.472186949952695723e-01
-4.305343657472460728e-01
-5.880018093526475642e-01
-2.575029050546433496e-01
6.110947206410516364e-01
1.430176643530494118e+00
1.484061028072788613e+00
7.974303949275058923e-01
1.006537604759262516e-01
-7.956281591787474350e-02
9.918857052176588418e-02
2.069065141495180227e-01
7.476359253830669460e-02
-1.435608966353895399e-01
-2.327204588435156651e-01
-1.308121215544214011e-01
5.596714004229516592e-02
1.790846621360730750e-01
1.759990697617204169e-01
8.791687002776077398e-02
-2.481843099456966864e-02
-1.448752054564086955e-01
-2.671058369918580255e-01
-3.496333111112640557e-01
-3.345493707727882904e-01
-2.117396042468820683e-01
-3.959427128003115137e-02
1.026253874057099086e-01
1.696263499928555019e-01
1.531744939626672186e-01
5.785667630335265821e-02
-8.989301032402183256e-02
-2.173200516317855546e-01
-2.413230648369247833e-01
-1.461958047752590084e-01
-3.358261038558692235e-04
1.056088540680925336e-01
1.280997012755223374e-01
8.843895119480812972e-02
2.336741581902310183e-02
-6.975931183131070523e-02
-2.097960455690051074e-01
-3.664892280804227243e-01
-4.613061547606171486e-01
-4.380964089049479426e-01
-3.095971096809162493e-01
-1.369919426219818881e-01
1.714162795897757052e-02
1.128552081773007004e-01
1.260030667564786544e-01
4.841285396408889080e-02
-9.015031164033346367e-02
-2.256980894672679094e-01
-3.032578421420654147e-01
-2.993116201046953084e-01
-2.033400563006247108e-01
-2.541609282487344856e-02
1.464693455448248527e-01
1.632420454827629153e-01
9.559778674040640689e-03
-2.795120078798263991e-02
4.016833226335930762e-01
1.163981399265771932e+00
1.554406852315124210e+00
1.078803274917384369e+00
1.525386889945996582e-01
-3.542706626490297328e-01
-1.333399688079502377e-01
3.566832607792480569e-01
5.778885726591456162e-01
4.678258094433344061e-01
3.040676409553907944e-01
2.429821600286346528e-01
1.613679060987177338e-01
-5.903588816283424773e-02
-2.953675639698679634e-01
-3.502651505326588310e-01
-2.051842104020570878e-01
6.753943482544697008e-04
1.341968185197801311e-01
1.385029594493642213e-01
1.830687563497481254e-02
-1.718449436613407044e-01
-3.409709643782956601e-01
-4.079214256486997647e-01
-3.483478808409072869e-01
-1.968290077127918258e-01
-1.609215963195162469e-02
1.354015912980295611e-01
2.255514546496051875e-01
2.492186491478892152e-01
2.121374735569609704e-01
1.249774424039117315e-01
6.310058313334570429e-03
-1.235521704809568744e-01
-2.390107098643995398e-01
-2.931220608171974384e-01
-2.421900186886280504e-01
-1.056124172229429836e-01
2.813978234624992664e-02
6.955694047693175563e-02
-7.826172905774322897e-03
-1.638051885217161885e-01
-3.313507336848386942e-01
-4.495782418930287516e-01
-4.751947444818173105e-01
-3.984922250027326251e-01
-2.557008430756236850e-01
-1.048967246587366592e-01
9.948730564764182716e-03
6.160954073555625909e-02
2.841271268654094184e-02
-8.722282716452800511e-02
-2.311985250891103738e-01
-3.290766655424119946e-01
-3.730923490768811024e-01
-4.280223861442823963e-01
-4.587946200075906922e-01
-1.962855258277979298e-01
5.860582191886579695e-01
1.555755743792453405e+00
1.905538068485384207e+00
1.251584308188692818e+00
1.666857865196573474e-01
-4.841595371134487236e-01
-4.510242085545530522e-01
-1.057852186527105665e-01
1.487550792615538742e-01
2.121927778201580794e-01
1.845179496935132335e-01
1.564064023048377938e-01
1.264229678588226768e-01
4.474336134559619982e-02
-1.109970508965808234e-01
-2.994110096972851243e-01
-4.396723640427080415e-01
-4.719842409269612293e-01
-3.958314338669901011e-01
-2.543903182935775553e-01
-1.022442804346815892e-01
8.332367143229071210e-03
3.959740379798274562e-02
-1.433800102803592380e-02
-1.294015415736088082e-01
-2.671096960536686882e-01
-3.789981485240176973e-01
-4.125597977666387584e-01
-3.344161902473212211e-01
-1.460502815512063624e-01
1.135205092274744615e-01
3.567451437192157848e-01
4.646884984075556613e-01
3.660705754284640512e-01
1.072484831920115927e-01
-1.632825131953082320e-01
-2.948093963945661589e-01
-2.598986501527672521e-01
-1.694141723190477067e-01
-1.192283857860173685e-01
-7.984879120975539590e-02
2.886539312808641001e-03
8.776455726517945477e-02
9.047075425527978387e-02
-1.184610212572086152e-02
-1.727400326234141970e-01
-3.275566528899077623e-01
-4.233167870371769559e-01
-4.234874317896327178e-01
-3.202508584722919549e-01
-1.506581692138082018e-01
2.303853733428734563e-02
1.549346868863349935e-01
2.047582745243057001e-01
1.003600929617777249e-01
-1.791492872186209728e-01
-4.168257296131272494e-01
-2.042710979368566881e-01
5.751564921485384785e-01
1.364506007049303138e+00
1.420864789727394051e+00
7.383081985678128234e-01
6.468590976592039632e-02
-4.543215383856044620e-02
2.306503025579683397e-01
4.083636342026645272e-01
2.807320131100777272e-01
-7.296561433980039424e-04
-2.043499846292613220e-01
-2.383508607205476748e-01
-1.495388084661389838e-01
-2.627095846433001591e-02
5.628028420151524880e-02
5.300548371977329559e-02
-3.420183058394340309e-02
-1.602558558560826241e-01
-2.737235975416453804e-01
-3.508960343218504585e-01
-3.952868764678951763e-01
-4.043680377268282777e-01
-3.461317123355404646e-01
-1.954081100638095370e-01
3.200827727600386030e-03
1.436282382961151516e-01
1.498167074329763704e-01
4.498820246281441670e-02
-7.610974981307659648e-02
-1.317591134397173569e-01
-1.121273223879279551e-01
-6.845478108606331547e-02
-4.734715885936070789e-02
-3.970289829080207722e-02
-6.284405205523408908e-03
5.476422695010491060e-02
8.871724984383039248e-02
3.665144866322667810e-02
-9.979320398509633483e-02
-2.513005667450137759e-01
-3.384403379526248479e-01
-3.246939361515565059e-01
-2.184927919279877340e-01
-5.757308971224693595e-02
9.753734695632541862e-02
1.836998263950202492e-01
1.704577652784597386e-01
7.048868873194449880e-02
-8.354990415695251471e-02
-2.540391219584705595e-01
-3.894644445835013236e-01
-4.297730734650586637e-01
-3.491230931049470465e-01
-2.027701853800371601e-01
-1.019276277668927089e-01
-5.861523861787071299e-02
1.473393129687554648e-01
7.372342329137057115e-01
1.451410759055641986e+00
1.615451699652485917e+00
9.553076717723252287e-01
3.322406924758358748e-02
-3.966347603546068190e-01
-1.794728726344707037e-01
2.722559668899894869e-01
5.325608907215017007e-01
4.965427784560933477e-01
2.976200404652186715e-01
8.024708016275551581e-02
-1.072584618722029759e-01
-2.673687326683590881e-01
-3.733683201022362508e-01
-3.674741506149625248e-01
-2.356180080272507193e-01
-5.209304791897856335e-02
7.804904879533416939e-02
1.132638371102003272e-01
8.659151039827489571e-02
3.194161027244715734e-02
-5.616322340971694610e-02
-1.789801107258874591e-01
-2.876086991579431262e-01
-3.106871406699084348e-01
-2.269162921242980635e-01
-8.130501971753553714e-02
8.735206288787071560e-02
2.811309201201208086e-01
4.525132754296207760e-01
4.411978436559512717e-01
1.148755827395807755e-01
-4.079462855975520830e-01
-7.874825498604812735e-01
-7.974460253855047975e-01
-5.354994627349538572e-01
-2.373745108999200937e-01
-2.598768627530438288e-02
8.818010016067540091e-02
1.031658358364157119e-01
1.252030960419688033e-02
-1.486573105550330620e-01
-2.832396144197176779e-01
-2.872769679356966810e-01
-1.663576958296694164e-01
-4.980320138348263287e-02
-1.789163251715135752e-02
1.363087357287986329e-03
8.584972448830911762e-02
1.877826967043807749e-01
2.196505383293870239e-01
1.599744350037078378e-01
1.415097215666663577e-02
-2.363941099130291434e-01
-5.335605891983186133e-01
-5.942677592572558343e-01
-5.767949076068897701e-02
9.929955183953862452e-01
1.801322564196843778e+00
1.644083665856092447e+00
7.178592456650992881e-01
-1.169680203329355184e-01
-3.757858007039194259e-01
-2.771554180094347175e-01
-1.816841803085703366e-01
-1.753979550158896450e-01
-1.726224194015803792e-01
-1.097826937916619172e-01
6.592343252609329796e-03
1.155524228995735425e-01
1.373269487969286107e-01
2.865278517387970930e-02
-1.784893218490583577e-01
-3.905037705075972143e-01
-5.188459476681910321e-01
-5.372766035339997526e-01
-4.660464584808454713e-01
-3.269899369488099006e-01
-1.439182794815294930e-01
3.703397007904896815e-02
1.593290508476553902e-01
1.802273615698188891e-01
8.448439108905173023e-02
-9.089755600995938489e-02
-2.428311811563596545e-01
-2.596728106328536900e-01
-1.170112187083210825e-01
9.557632854347188067e-02
2.445582493662900037e-01
2.516858716634017279e-01
1.442449076923296714e-01
1.222838257908333975e-02
-8.674951302525971131e-02
-1.676454336776272425e-01
-2.652783188118961188e-01
-3.637641606112636539e-01
-3.934796732934580099e-01
-3.015237623119844668e-01
-1.196075103372082893e-01
5.213545851340055381e-02
1.312415538656721559e-01
1.070511507615287405e-01
1.512779925053037502e-02
-1.074153334503299279e-01
-2.337177429584700317e-01
-3.377653499343178378e-01
-3.810367030536496724e-01
-3.135842054847370886e-01
-1.167647192437073767e-01
1.317582678285189324e-01
2.540534009191273701e-01
1.130379919400779920e-01
-1.502040583671618024e-01
-9.104465521618507196e-02
5.620976302257056911e-01
1.358796814689046784e+00
1.463801117331086976e+00
7.262792081871977112e-01
-6.401108414959530424e-02
-1.914013489792179556e-01
2.108284824810798264e-01
5.565097111606600588e-01
5.286523818699766508e-01
2.334416161975232107e-01
-8.430725744280290201e-02
-2.787280969311923262e-01
-3.319992125917061720e-01
-2.905231359580633943e-01
-2.083332357987137395e-01
-1.130292776903774887e-01
-1.235301326247791390e-02
6.425260758251805093e-02
6.416990374063655245e-02
-3.145066977465729025e-02
-1.795633637565086926e-01
-3.080983872783293886e-01
-3.545589837707048275e-01
-2.943089462159494962e-01
-1.637730619376718821e-01
-3.394171224454860247e-02
6.205553662851056446e-02
1.467187475323486201e-01
2.280121904103808994e-01
2.552069928560120049e-01
1.849954910000174424e-01
5.852442052810725992e-02
-4.154771897280921944e-02
-9.294500967318566897e-02
-1.390986031773427389e-01
-1.888158196195881544e-01
-1.694940050480517324e-01
-3.616538876002423075e-02
1.161057750191442639e-01
1.322046126478868822e-01
-2.694333726574861532e-02
-2.451699762329622723e-01
-3.756608317550224063e-01
-3.696420729896045532e-01
-2.815249259908873536e-01
-1.710369583066627119e-01
-4.136193009556035638e-02
1.042028807826948233e-01
1.978392205936834181e-01
1.589609337461205252e-01
-1.049489074013257653e-02
-2.117943550237952888e-01
-3.256907730767650277e-01
-3.216331536056158957e-01
-2.908671270274900689e-01
-2.884241272990124560e-01
-1.174053228368031609e-01
5.247239697025816163e-01
1.484561792691603710e+00
1.986522231858126819e+00
1.449604519067789754e+00
2.971251790653611780e-01
-5.054588548306111484e-01
-5.390052973555701232e-01
-1.526488695565482723e-01
1.735197905015153919e-01
2.868572647840828549e-01
2.797094072284732058e-01
2.444594968736211738e-01
1.822147302318960771e-01
6.185940866791706655e-02
-1.110400902075301399e-01
-2.926029398708808182e-01
-4.295651237026014146e-01
-4.755886808264103705e-01
-4.106168531622184648e-01
-2.633341695397138915e-01
-9.885922057885762615e-02
1.981039209058038306e-02
5.227028482652558428e-02
-1.712773612055198957e-02
-1.751835311059334044e-01
-3.720822136974454297e-01
-5.168835859842928482e-01
-5.076128534835178119e-01
-3.116686786824111044e-01
-1.482437025227149874e-02
2.433474802289982419e-01
3.710153174551247823e-01
3.449958833411983505e-01
1.823979607845115647e-01
-6.247675547854775191e-02
-3.020336097533882214e-01
-4.564071285990523030e-01
-4.946390667823372111e-01
-4.353646483534277523e-01
-3.165252719166747331e-01
-1.677185085386626584e-01
-1.168720126295150034e-02
1.143963127333924856e-01
1.589395182293289743e-01
8.988095437724336056e-02
-7.122370295921023886e-02
-2.506089529969437457e-01
-3.614796505912402091e-01
-3.523088796610207574e-01
-2.368599570458138626e-01
-8.359597130875096038e-02
4.400594490903290967e-02
1.324434540114876047e-01
1.695875011495331652e-01
7.220472332385503844e-02
-2.274909918606955461e-01
-5.364521055550778295e-01
-3.681230088397025590e-01
5.359152658470890396e-01
1.615837039932662922e+00
1.882065583355218674e+00
1.102302279829383558e+00
1.139081461196908562e-01
-2.518666425052494828e-01
-4.214470298069274146e-02
1.785551015901990501e-01
8.931867014528786786e-02
-1.837654722343959879e-01
-3.577936910550111316e-01
-2.938078143476456350e-01
-7.432964759386595510e-02
1.113622076180240950e-01
1.474342792433556149e-01
6.975174786513800573e-02
-2.800140187011767798e-02
-1.155908440281757377e-01
-2.195474206755068658e-01
-3.356744378937662754e-01
-3.962506930661885973e-01
-3.325625273614546962e-01
-1.575514296016269356e-01
3.094392337191684619e-02
1.340609701099690632e-01
1.262019676461064444e-01
4.382591900564924980e-02
-6.977561973924399641e-02
-1.772105953564387937e-01
-2.261109447296226205e-01
-1.733189574285375900e-01
-4.695913319008380993e-02
4.780676162955148356e-02
1.833268345059035215e-02
-1.059742945275425619e-01
-1.866765531754016605e-01
-1.468771033306649210e-01
-8.099627531333680741e-02
-1.254323596002930030e-01
-2.766149813114390787e-01
-3.966072952115055616e-01
-3.542760006112709581e-01
-1.449231377445119318e-01
9.735059450635231981e-02
2.204092108037791209e-01
1.953092354345649095e-01
1.107523371850910321e-01
4.756117903270655478e-02
-1.177587983253429102e-03
-8.778292535941527308e-02
-2.065273945174468107e-01
-2.618944296559267970e-01
-1.729952468442915170e-01
3.001217941971216774e-04
8.594567029220268051e-02
1.962038098586384172e-02
3.828787015530996096e-02
4.788530147981553409e-01
1.222994871120211879e+00
1.576349669759726790e+00
1.051334456237707826e+00
7.526429857930547196e-02
-4.790252945464147372e-01
-2.879432844221304633e-01
2.368114109462627903e-01
5.622339874135982019e-01
5.212002417798753395e-01
2.721434475574965872e-01
1.586396751507268207e-02
-1.696608102229326676e-01
-2.959820127975765214e-01
-3.845561918921264200e-01
-4.423849191073894183e-01
-4.453248004260059179e-01
-3.439668556217877482e-01
-1.507654277223212103e-01
2.019917819624799521e-02
6.829406893529260669e-02
1.613418253393131274e-03
-1.195453110394008450e-01
-2.496657064405616022e-01
-3.374451264081118618e-01
-3.213499365273788655e-01
-1.893792286034084449e-01
2.117663969800787083e-03
1.880775370174448402e-01
3.307727418019715260e-01
3.899054285631984307e-01
3.167953723713258785e-01
1.125751050587875668e-01
-1.436537948653558994e-01
-3.473346453804890266e-01
-4.283139004634125002e-01
-3.699982619777076875e-01
-2.096848415941000854e-01
-2.649996082158311700e-02
9.355941741105311404e-02
1.018047761327594003e-01
6.015849847921788535e-03
-1.496832479606698130e-01
-3.130570525315627406e-01
-4.313148061582919301e-01
-4.573211171969087108e-01
-3.745429874166174011e-01
-2.153101732748056163e-01
-4.512682744456485151e-02
7.232467095303807270e-02
1.037771306086026635e-01
5.938199684634444531e-02
-2.319163787348954564e-02
-1.280602261170255551e-01
-2.901188703167053573e-01
-5.149174002151533092e-01
-6.131729541821975271e-01
-2.197426441413238007e-01
7.669822119516582770e-01
1.759854826565299790e+00
1.903933310807550683e+00
1.080164539890505093e+00
8.508798723009233789e-02
-3.208499571628816716e-01
-1.427414916138647349e-01
1.342889888950708488e-01
1.804935702802565878e-01
4.577717956505434477e-02
-5.271408805552876831e-02
-1.294838782969182957e-02
8.289270222885190831e-02
1.040924657288658517e-01
5.979629853838402953e-03
-1.680976574369647258e-01
-3.508419871284794156e-01
-4.761293508440503364e-01
-4.854852085052956401e-01
-3.676819967341214968e-01
-1.818364473074913779e-01
-8.039024905024134277e-03
1.119102641757521582e-01
1.602971169684527797e-01
1.061355662749276924e-01
-6.034999489117476301e-02
-2.718373085142725132e-01
-4.092302165058536167e-01
-3.788476541201772907e-01
-1.706897643660962860e-01
1.178197586742388281e-01
3.281549605574129447e-01
3.663494116376265208e-01
2.810341708014200135e-01
1.798100782617590987e-01
9.241042093824144987e-02
-2.806365242475121827e-02
-1.866849102535587945e-01
-3.067473964874625758e-01
-3.222871214030427200e-01
-2.455166943783776146e-01
-1.273514523841374757e-01
-1.062957973153166175e-02
6.621208345565088305e-02
6.941840072565244601e-02
-7.036457536761544368e-03
-1.330497562785681598e-01
-2.587607914465477887e-01
-3.376764127407760885e-01
-3.408132180320991855e-01
-2.569374425006338836e-01
-9.386829062677938540e-02
1.009459721017702122e-01
2.171949630713694013e-01
1.268776320021386128e-01
-1.469467664455274547e-01
-2.860598720201850687e-01
1.025773927025314392e-01
9.252990661402297201e-01
1.463389592173111042e+00
1.153281505066723334e+00
3.385427575732831151e-01
-1.548246637834131134e-01
-1.485147249592628366e-02
3.611650871144111430e-01
4.932504097184463032e-01
2.937827702090283211e-01
-2.235650457331868346e-02
-2.425837652363757591e-01
-2.939149350677216499e-01
-1.961833390745468253e-01
-1.194867804936582817e-02
1.564746274120090985e-01
2.050115824486212768e-01
9.839181802217568384e-02
-1.009506799931700477e-01
-2.817202645578965603e-01
-3.836967875117267557e-01
-4.317484539665742416e-01
-4.521265509945430194e-01
-4.151069160475974185e-01
-2.904327612951996263e-01
-1.045742651476931906e-01
7.918409045505253596e-02
2.030366276031851935e-01
2.311698433735349945e-01
1.622345433083443311e-01
3.989928885962453625e-02
-7.732394209216998660e-02
-1.633670028864697421e-01
-2.156394604345277799e-01
-2.121348904225912602e-01
-1.310521643364309097e-01
-1.217741837094835078e-02
5.998542637722172055e-02
3.984975992112288479e-02
-5.614568170525930518e-02
-1.936259459833786500e-01
-3.346208155851372323e-01
-4.201157802350333204e-01
-3.917232221668814351e-01
-2.461456607986095002e-01
-4.983139016633755802e-02
1.101656233135107632e-01
1.811142716722069501e-01
1.508645907825005850e-01
3.217542482670628090e-02
-1.310370735602580106e-01
-2.637775310143175567e-01
-3.099082235817559594e-01
-2.910243597018338790e-01
-2.890711737788986824e-01
-3.346472502581386843e-01
-2.785839201850465185e-01
1.620939669949385820e-01
1.024237967258570414e+00
1.754963306265491019e+00
1.627038375450576391e+00
6.478327659384617299e-01
-3.431253219209466909e-01
-6.257478463095942356e-01
-2.722553763189811127e-01
1.900744485082089819e-01
4.089492780763933633e-01
3.824405295052101250e-01
2.528214794353089712e-01
1.072464804803904409e-01
-5.155114838201863003e-02
-2.320704029730276674e-01
-3.991241486312510633e-01
-4.917849709558209659e-01
-4.668729842445135114e-01
-3.196496745812967277e-01
-9.784561267132226015e-02
1.049430800021048105e-01
2.104199544807534850e-01
2.096487711906792895e-01
1.363649558708643628e-01
1.387498570639692820e-02
-1.352019450616349650e-01
-2.496249734148954791e-01
-2.566856131437987298e-01
-1.413722277239546077e-01
4.907698081634083442e-02
2.501425308956963800e-01
3.918180076349042640e-01
4.037744471230944598e-01
2.595399921881365590e-01
9.687676692477345530e-03
-2.414297500222621073e-01
-3.880845180114063098e-01
-3.719900377695244953e-01
-2.212893086793288333e-01
-4.291983635242467565e-02
6.572590602031909424e-02
9.199784119489975986e-02
6.501763306845410872e-02
-1.649614895863402153e-02
-1.624990141382950670e-01
-3.272803949712346783e-01
-4.122220450728145136e-01
-3.519414862158192769e-01
-1.948368602870862998e-01
-6.145876907985021315e-02
-9.624429714747818540e-03
1.245167436233556718e-02
7.140557574455728973e-02
1.498493852280421423e-01
1.356585176741194054e-01
-8.164248857571129725e-02
-4.170930908968860651e-01
-4.930719513848447755e-01
5.687551855306942350e-02
1.024208269326696952e+00
1.604260825417449299e+00
1.263932386650186590e+00
4.134193886548834795e-01
-1.326105589687090469e-01
-1.074944830935809226e-01
1.189998630119967482e-01
1.532081563152748460e-01
-3.489175588544358997e-02
-2.248447789959947263e-01
-2.291926533224328266e-01
-5.399138432545470129e-02
1.391327430694951073e-01
1.981959077357489385e-01
1.079955600983645986e-01
-4.072460676625119791e-02
-1.792460877163605248e-01
-3.251025512998014233e-01
-5.096622414905918053e-01
-6.642692982746454256e-01
-6.425894924295807442e-01
-3.990806329843807898e-01
-8.126681755111918315e-02
1.208721618675357296e-01
1.596234482859662518e-01
1.104269035284479311e-01
3.675492224188969814e-02
-4.832341058020192537e-02
-1.167137051743892678e-01
-1.061381376096009327e-01
6.169782339826625564e-03
1.491173641163426600e-01
2.186176382868334489e-01
1.889727666978745779e-01
1.207759378833139913e-01
5.251649498113904191e-02
-5.219656841150408649e-02
-2.194798549273078159e-01
-3.891449640205444371e-01
-4.698197200447933319e-01
-4.326162771337973556e-01
-3.138342109608799890e-01
-1.562842382645471540e-01
6.362400628329885344e-03
1.248012551901162004e-01
1.463730022067442071e-01
5.897475098349012901e-02
-9.962100237501402000e-02
-2.711066138988347252e-01
-3.957822975296828028e-01
-4.122766093116401742e-01
-2.849101201490689128e-01
-7.025894285296238606e-02
6.749241233924088701e-02
2.519301914392212821e-04
-1.295373836305896975e-01
8.037056808022750853e-02
8.002523256020890319e-01
1.507346318237203331e+00
1.429895230346550417e+00
5.563017822280506008e-01
-2.680034566461400036e-01
-3.644256096559073121e-01
1.166790746439858861e-01
6.020814293412664053e-01
7.317257262276427587e-01
5.118243028912912163e-01
1.358129469639728915e-01
-2.011549903128239114e-01
-3.981931746589124077e-01
-4.499178925391124073e-01
-3.896725546402423634e-01
-2.590856966654496718e-01
-1.121851658499781468e-01
1.542830457824627410e-03
5.616310284154370919e-02
3.413960321632358852e-02
-7.806839413297846086e-02
-2.587536304740408188e-01
-4.350187186284911744e-01
-5.163168250860806774e-01
-4.572092513512876488e-01
-2.948875069476612487e-01
-1.113586803562855443e-01
4.211937571453172602e-02
1.572909785291687901e-01
2.173079103715064575e-01
1.879947115147249936e-01
6.747745398375748493e-02
-9.724354229003823180e-02
-2.374216412299960388e-01
-2.880872418300646776e-01
-2.244172637585120644e-01
-8.466284426197449864e-02
6.730955459763397764e-02
1.795176293330039141e-01
2.017586370867908985e-01
9.547611245695916682e-02
-1.095571210188440309e-01
-3.019890004578303921e-01
-3.753485948286284235e-01
-3.217241459327947473e-01
-2.140761211972611877e-01
-1.103449646799112699e-01
-1.229913115274283188e-02
8.097728703242496051e-02
1.244209433442145102e-01
6.906172788853377764e-02
-6.251668051019070027e-02
-1.872635019598830330e-01
-2.651857218250084358e-01
-3.476561901937670895e-01
-4.391717648051180478e-01
-3.129560690872263962e-01
3.319445429919584134e-01
1.330997581820350772e+00
1.895916804347676399e+00
1.425431884677212491e+00
3.282804943525765573e-01
-4.415264485886418178e-01
-4.923724681177210627e-01
-1.875251822462398466e-01
3.707925565217239094e-02
1.029959925755357802e-01
1.340003278365612394e-01
1.936191592742924905e-01
2.402788873357784294e-01
2.122822040223657225e-01
8.443515297286394161e-02
-1.178952923621050947e-01
-3.197378356197950189e-01
-4.291310313220067507e-01
-4.000166686289328699e-01
-2.690721065501249787e-01
-1.179617998508501880e-01
-1.939209955661578416e-03
6.701201340159122777e-02
8.103118877084766747e-02
1.940454635786731732e-02
-1.195828396010623074e-01
-2.862293130524014018e-01
-3.894265191488142097e-01
-3.467514986969645885e-01
-1.440164104825130131e-01
1.352838096147688796e-01
3.499694129312986290e-01
4.018930787835353069e-01
3.010756768682254503e-01
1.184418943209836345e-01
-9.599398040884160599e-02
-3.081865829174824656e-01
-4.543013585682622035e-01
-4.717815985584277727e-01
-3.641706365201599072e-01
-1.918325722213563289e-01
-1.751286427025565764e-02
1.149572385064416141e-01
1.768582370934669024e-01
1.584260796043683861e-01
7.095450888855217575e-02
-5.722502580268101074e-02
-1.791599914376212077e-01
-2.406212848230758761e-01
-2.151688904203151731e-01
-1.185993408888605105e-01
1.918201634037814546e-02
1.675120187251524506e-01
2.574550911932624864e-01
1.724862897976250919e-01
-1.239482594886472944e-01
-3.888534545856850433e-01
-1.656852852667583809e-01
6.700310561398638010e-01
1.483351091692962864e+00
1.456371973558900246e+00
6.383647057488718302e-01
-9.834888012871934038e-02
-1.743163429289562583e-01
1.530896779650111617e-01
3.453702515181428234e-01
2.061446403424095908e-01
-1.014345381820358494e-01
-3.499616648521108320e-01
-4.309525313962729864e-01
-3.498252983492270984e-01
-1.646803151898199868e-01
3.361929045659008131e-02
1.372894018244336378e-01
9.343869799310434987e-02
-4.478341675410750511e-02
-1.818967176855761647e-01
-2.751859339655514103e-01
-3.333269992942256565e-01
-3.500041363614923018e-01
-2.882686735159730729e-01
-1.381467509772993929e-01
3.756144279551849874e-02
1.388837385559389126e-01
1.173628399414830825e-01
2.042202133743561618e-02
-6.407054982952219147e-02
-9.745181509338528281e-02
-1.102868248421427222e-01
-1.443512592978679898e-01
-1.941383881725501359e-01
-2.100787402471668841e-01
-1.559975998072324899e-01
-5.393116895295126112e-02
3.601843505933955553e-02
6.398809502069081889e-02
6.406072610752343299e-03
-1.323480938280752472e-01
-3.028948911879021377e-01
-4.207523570680041791e-01
-4.242595498141760735e-01
-3.159510630252853614e-01
-1.480162234207257066e-01
1.276160110605244202e-02
1.126998412796311189e-01
1.335902173550944649e-01
9.383906140044026567e-02
1.339064250852788074e-02
-1.003578227427381064e-01
-2.028409432998876383e-01
-2.137575415215297869e-01
-1.364632775162298584e-01
-8.775787506190597942e-02
-8.562368954941376731e-02
1.250432396923046863e-01
7.928714127695873914e-01
1.623337748307880135e+00
1.858371335060527318e+00
1.165285690139586494e+00
1.268451791268266904e-01
-4.346711145056929571e-01
-3.109008098520150698e-01
1.098716045009309750e-01
4.046633308804241658e-01
4.460094697211191006e-01
3.243898582356464777e-01
1.498776680864707389e-01
-2.804197928036713389e-02
-1.889487322805843139e-01
-3.092169988332167385e-01
-3.665174228785332833e-01
-3.496612236622280157e-01
-2.614924956299688463e-01
-1.269825006203825768e-01
2.969764724289652297e-03
7.157190300477511702e-02
4.800080685771145744e-02
-5.609768949414075528e-02
-1.938113521244692328e-01
-3.098828918485162509e-01
-3.689180613675102638e-01
-3.555584987748534598e-01
-2.531648364751926672e-01
-4.462462271417547144e-02
2.452203110925607055e-01
5.081437887024735645e-01
5.891110358188358376e-01
4.065270784635893753e-01
4.077706351995630252e-02
-3.100242448630051162e-01
-4.715221449358956707e-01
-4.159627540476840135e-01
-2.697328802671902226e-01
-1.866445679011380643e-01
-1.927981798039961336e-01
-1.855821168656617559e-01
-1.074729994659248400e-01
-4.346696220573752212e-02
-9.407519838081097874e-02
-2.387769438258207921e-01
-3.766440236816944731e-01
-4.286292220581267576e-01
-3.690132809104175182e-01
-2.179704051960911770e-01
-3.953572041281985805e-02
8.475548297274601572e-02
1.155426633767508982e-01
7.687622682216213588e-02
-1.012489199389933481e-02
-1.860190661043779614e-01
-4.484429196396469419e-01
-5.559530826452671048e-01
-1.314409526941129336e-01
8.021472297854362887e-01
1.559432425390133492e+00
1.464250730530192168e+00
6.900762145391052815e-01
2.362016058781149508e-02
-9.152352946574758563e-02
1.120676387526712836e-01
2.196193982265887967e-01
1.016014747377832345e-01
-9.390132950894594654e-02
-1.827990720990737561e-01
-1.128751593203663056e-01
2.566778368504871177e-02
1.010122388522938092e-01
5.102328772395352263e-02
-9.220285138675889114e-02
-2.587763781704728872e-01
-3.939526279129169639e-01
-4.663035849779860187e-01
-4.575711887231529995e-01
-3.633536060795392042e-01
-2.014716403511890297e-01
-1.344777590736418935e-02
1.411061585718955402e-01
1.980597976814651717e-01
1.209785267888430493e-01
-6.277365980149716973e-02
-2.598509669806219891e-01
-3.566125348190268829e-01
-2.907828312217739519e-01
-9.994775851809195588e-02
1.009864751865481997e-01
2.035435222348526696e-01
1.793045486308803005e-01
7.587933829001489161e-02
-5.268046888334187300e-02
-1.883522522788277087e-01
-3.196383731794119609e-01
-4.101604615614145577e-01
-4.200543910623087407e-01
-3.409824604186111330e-01
-2.034573264889233402e-01
-6.097772252573467611e-02
3.778406301727944144e-02
7.115237273147959063e-02
3.879275518101460429e-02
-5.464826153706141276e-02
-1.936774383560542212e-01
-3.380368367402593055e-01
-4.294113835784644229e-01
-4.127234952336876206e-01
-2.678364773588450265e-01
-5.462311852011748209e-02
8.483960579145020942e-02
4.227754014626744494e-02
-8.046411360831745574e-02
3.676091625515157113e-02
5.847699953867924183e-01
1.206973512889267575e+00
1.230690596166971407e+00
5.238482726726733096e-01
-2.354684474219221335e-01
-3.796180444591951142e-01
2.818226663735404897e-02
4.609295331194006584e-01
5.616417124434839314e-01
3.494142521454813854e-01
2.660483522306795329e-02
-2.328593845539394525e-01
-3.523814474777209327e-01
-3.365976482039312878e-01
-2.361731282642545449e-01
-1.064560712496492589e-01
2.108705131099837191e-02
1.267702237314499714e-01
1.740015818863920594e-01
1.234139382310540656e-01
-2.028729414688916488e-02
-1.960586951617108720e-01
-3.230639432356187668e-01
-3.473013742344405186e-01
-2.691498828279800803e-01
-1.443666460507327665e-01
-4.823775599118762525e-02
-2.689781993243406388e-03
5.187350476514395597e-02
1.604912035052576957e-01
2.526322226700473683e-01
2.086645129649834229e-01
1.269691996973037335e-02
-2.151935541623186954e-01
-3.287470398148290007e-01
-2.721770768856566214e-01
-1.074053652809633802e-01
4.899822289294191585e-02
1.180312177311005212e-01
1.001524495126945163e-01
3.669682539826120415e-02
-4.971982040514538043e-02
-1.576659402033954716e-01
-2.607127334150649012e-01
-2.915477526285462639e-01
-1.961143424684384240e-01
7.029592740788112581e-04
2.012434650098527400e-01
3.044824477007853081e-01
2.661813610142115261e-01
1.191821119129718165e-01
-4.424698549007849424e-02
-1.394284935403725945e-01
-1.788577175447304546e-01
-2.667238052002237625e-01
-4.127964102629329557e-01
-3.501856067809642759e-01
2.536903218243707903e-01
1.232606070250062746e+00
1.814256316029750904e+00
1.432610741727955217e+00
4.567830243705864879e-01
-2.565148651919493261e-01
-3.269351356528760744e-01
-3.996283968700867217e-02
1.988360511183825396e-01
2.638011262162765491e-01
2.438561263651194411e-01
2.226215637933635361e-01
1.935860915325360032e-01
1.145853544088861892e-01
-2.325156956162299088e-02
-1.814317604711964960e-01
-3.047826694581773910e-01
-3.545121234634096563e-01
-3.160206641898593016e-01
-1.965070269855045404e-01
-3.236710007032593539e-02
1.151764223970642015e-01
1.995230576950645374e-01
2.172735560222848195e-01
1.703173815338779873e-01
2.897333718365276145e-02
-1.934834947903283919e-01
-3.274408707981922295e-01
-1.329710570662719915e-01
3.821439013006107666e-01
8.445069467397300356e-01
9.032560432245060333e-01
6.129268547964802361e-01
2.636378051793348831e-01
1.561276734401919643e-02
-1.534787978754323101e-01
-2.995973077446374977e-01
-4.190640457723230905e-01
-4.528677753222060676e-01
-3.598108461472662722e-01
-1.809027215276490241e-01
-9.754040750691021777e-03
8.484745160979852152e-02
8.526935071425298385e-02
7.129262067429467317e-03
-1.150948560044649377e-01
-2.433446475732080616e-01
-3.488259148586501102e-01
-4.051617837139375733e-01
-3.871520502425828125e-01
-2.892946724442454487e-01
-1.318730028838157597e-01
4.626164066833258343e-02
1.720459827312642576e-01
1.293228872271906804e-01
-1.423961570625343898e-01
-4.626845429776418883e-01
-4.111627376536152179e-01
2.584487504956784476e-01
1.144501130102230091e+00
1.446130140382197782e+00
8.969233455866398863e-01
1.204402286687989154e-01
-1.710436057141400124e-01
3.645761185589824205e-02
2.662669949575580119e-01
2.022081549319437177e-01
-7.538979629546897765e-02
-3.212037132185948107e-01
-3.971499124987766804e-01
-3.236423722353167776e-01
-1.849089875301829777e-01
-5.947593464543428354e-02
-5.130892185185522911e-03
-4.073150697651418961e-02
-1.365756168840767948e-01
-2.505595619494287440e-01
-3.630828522116035795e-01
-4.565019193968313793e-01
-4.876454075951807132e-01
-4.208692460657357803e-01
-2.785844777102223779e-01
-1.282990664701754713e-01
-3.146762884800159699e-02
-2.141782930199058813e-02
-9.815346591903167939e-02
-2.140742097125650778e-01
-2.843337554984628479e-01
-2.423994969764978469e-01
-9.867739502362936344e-02
5.394582116524193616e-02
1.141225769676965929e-01
7.167727965921086297e-02
5.106420522678907503e-03
-3.178433607199745298e-02
-7.108745969048621549e-02
-1.709572649638969877e-01
-3.400804010012183909e-01
-5.209030016465794333e-01
-6.188712147929718022e-01
-5.618877869686215165e-01
-3.643998865477917071e-01
-1.305968047591654080e-01
2.631380732646747267e-02
6.147841708232653496e-02
-5.459807607240525773e-03
-1.345838238260883557e-01
-2.850779627714961073e-01
-4.114067179219132453e-01
-4.614314144483024349e-01
-3.927836819502221188e-01
-2.218419306528243151e-01
-6.400507827421625384e-02
-4.475676567365442088e-02
-7.733944934968761675e-02
1.739181838070290864e-01
8.560491418077510462e-01
1.479701623526774368e+00
1.327831865408302114e+00
4.191991551004076166e-01
-4.034024309324443225e-01
-4.789293971661634508e-01
2.018701378522716472e-02
5.089510916554587094e-01
6.509218337593913883e-01
4.910159131019957712e-01
2.028533536921137415e-01
-1.065490405500932602e-01
-3.736883823935843174e-01
-4.743722244950918099e-01
-2.679140514171302057e-01
1.741443322658412785e-01
5.076333223221003443e-01
4.712478009930959888e-01
1.928399306631283783e-01
-3.092559928166697947e-02
-1.049178979065169132e-01
-1.398411611041686653e-01
-2.318495794497137663e-01
-3.569398021817903888e-01
-4.269252446187820627e-01
-3.869867564442286412e-01
-2.501973727272740478e-01
-5.268138273967305774e-02
1.843078879511032553e-01
4.180994281025081083e-01
5.459288074669254032e-01
4.675140088710713626e-01
1.942445826792720820e-01
-1.386264003081149054e-01
-3.704139198652590115e-01
-4.162634046357496231e-01
-2.952587834959790047e-01
-8.912831830420575585e-02
1.102030045513568840e-01
2.239322091716933472e-01
2.087322268892763399e-01
8.571912950265489495e-02
-7.846879734956113683e-02
-2.293306113815893332e-01
-3.388527160512925795e-01
-3.781044308956066358e-01
-3.219285092519393321e-01
-1.848165360529488987e-01
-2.853399839320880371e-02
7.329612735510232513e-02
8.279446359660379284e-02
2.203105432755993881e-02
-5.456716468020640642e-02
-1.306125714955146955e-01
-2.573289705223054669e-01
-4.501336861975311909e-01
-5.170370172589240365e-01
-1.018757821765929189e-01
8.747612351492319860e-01
1.830123449391947599e+00
1.946246003775812250e+00
1.118335736096214061e+00
1.143687809630694052e-01
-3.330424273534537960e-01
-2.258130271330840710e-01
-6.555232784579992367e-03
5.909685227145258790e-02
3.004172174986290828e-02
3.587051788739790970e-02
8.518922754789473584e-02
1.088221245966022738e-01
6.888931211505885943e-02
-2.881947529978354239e-02
-1.715539156959045852e-01
-3.290755036339718664e-01
-4.340719696296680419e-01
-4.149220172797972728e-01
-2.502558149535761278e-01
-8.412213175660702980e-03
1.686472993015963595e-01
1.810400536153353168e-01
6.691006279545287649e-02
-7.352970628535360209e-02
-2.010948535268770876e-01
-3.194199479605165370e-01
-3.905378509739902970e-01
-3.397078745061966609e-01
-1.384527690523292831e-01
1.403730972072278760e-01
3.556507115123597185e-01
3.970181832145204259e-01
2.648758246750728684e-01
5.084095815381708267e-02
-1.554065040587602475e-01
-3.182069371730009144e-01
-4.248324038404525105e-01
-4.496369642251381027e-01
-3.736608090252627745e-01
-2.213126561588592001e-01
-5.744254278290295002e-02
5.256100198848579624e-02
8.134572209864165959e-02
4.381593238039289268e-02
-3.534960611068187902e-02
-1.436161402803591003e-01
-2.581520370156102917e-01
-3.243187335079514844e-01
-2.842380584603698135e-01
-1.292049176312925762e-01
8.077698165608553083e-02
2.455187494387379710e-01
2.635755852380803343e-01
7.598468991306966958e-02
-2.238392083260005716e-01
-3.053914483179006600e-01
1.519797339623471244e-01
9.535451544372125499e-01
1.396300539399155882e+00
1.080679398984241146e+00
4.287869120092954178e-01
9.404299781907859979e-02
2.001573000647617340e-01
4.130045117247826969e-01
4.317223345559341174e-01
2.095328435201118944e-01
-1.140637170895018176e-01
-3.597536943408796151e-01
-4.264609806463808273e-01
-3.302494810847892981e-01
-1.656930360406264069e-01
-2.818548576143304479e-02
4.968611558053682986e-02
8.616726348793314616e-02
7.387973057416115374e-02
-3.606651015831087437e-02
-2.373291112323448193e-01
-4.156894130989630676e-01
-4.493373315925442424e-01
-3.219978524870159564e-01
-1.129037872578008278e-01
7.810476758892892502e-02
1.819043082009720314e-01
1.827776956516332652e-01
1.176283274553784342e-01
4.054136875514924299e-02
-1.985681607979655761e-02
-6.584075477222853245e-02
-1.090757818877670510e-01
-1.507293906881945478e-01
-1.642439591867144166e-01
-1.105031933069066663e-01
-2.507410879694003253e-03
7.138670554242157462e-02
2.839616456620374860e-02
-1.237859216922305577e-01
-3.013315509716376628e-01
-4.191095968358883317e-01
-4.408380361986493079e-01
-3.792595723421320897e-01
-2.682943005426297600e-01
-1.383390917073416548e-01
-1.087240162927414003e-02
9.141566492095005991e-02
1.309049852352890397e-01
6.572531839682831112e-02
-1.003880688743783167e-01
-2.839601411919975837e-01
-3.691815140637630943e-01
-3.128432884508182132e-01
-2.000460026061283425e-01
-1.439863726723528137e-01
-7.247891600212512386e-02
2.991061276744333419e-01
1.066365873789794083e+00
1.733233751836442460e+00
1.597825106289494812e+00
6.563796568893016659e-01
-2.909410227618904887e-01
-5.588901341648422338e-01
-2.181010982643673268e-01
2.256023294317145989e-01
4.263382449244392802e-01
3.800549736174329007e-01
2.375715441745185341e-01
9.411472886995739251e-02
-5.409260016069909749e-02
-2.306278014758614825e-01
-4.049003157837049449e-01
-4.888938755347556064e-01
-4.032672835845573789e-01
-1.717989976906996730e-01
6.151728376554098376e-02
1.574473737618171665e-01
1.073790889420433714e-01
-5.893658966195203242e-03
-1.280509298849175082e-01
-2.600819226359903369e-01
-3.963445251230073851e-01
-4.877338960291614511e-01
-4.703188887413675134e-01
-3.087359848149124342e-01
-1.657849729198375768e-02
3.306187349031246558e-01
5.954895393966288530e-01
6.414570517420180584e-01
4.378376601753269926e-01
9.275877817816045867e-02
-2.285371678989279454e-01
-4.105746737617689268e-01
-4.314881501058935864e-01
-3.357012119076279721e-01
-1.875729086213873131e-01
-5.034887005032080698e-02
2.510202946725731410e-02
1.891144047614706780e-02
-5.444518457160595071e-02
-1.660825493040778145e-01
-2.885334131540064906e-01
-3.866485726369285891e-01
-4.107497596357681524e-01
-3.298052074865431837e-01
-1.709850857226293819e-01
-7.916781913564895079e-03
9.222079269810470881e-02
1.135311711487304726e-01
7.888762901343020217e-02
-2.192679183399128331e-02
-2.434748553747056732e-01
-5.287477253227717000e-01
-5.617565461558442497e-01
4.461976294526524139e-03
9.988629799488992766e-01
1.645386752633970939e+00
1.378001425333071461e+00
5.493160423368675938e-01
-5.423669485586804506e-02
-1.573721116272981946e-01
-6.725080815516001898e-02
-6.138330097911459671e-02
-1.089887803399445243e-01
-8.618604484445434311e-02
2.212741480218674214e-02
1.412339370076873823e-01
2.005017783441710444e-01
1.798526952721686833e-01
9.503934098110236595e-02
-3.527909026220767130e-02
-1.920115829164555088e-01
-3.376935523115945359e-01
-4.231017567427534654e-01
-4.176110415639810447e-01
-3.289992969031827474e-01
-1.984220599987148170e-01
-7.293664836848512412e-02
1.903986947670109620e-02
5.716198462776923145e-02
1.391996573812736074e-02
-1.155413075614332291e-01
-2.709258328851772979e-01
-3.437800590850778604e-01
-2.621352035223050159e-01
-6.319633987712558465e-02
1.318239287020383788e-01
2.203309514254260248e-01
1.911726631274279775e-01
1.003732941119139521e-01
-8.659288909473244339e-03
-1.363826104529690386e-01
-2.784979008063028783e-01
-3.873163323287436843e-01
-4.060843205542468137e-01
-3.193661927579985460e-01
-1.574726324963164337e-01
2.001511200734563956e-02
1.346416456999361411e-01
1.292292054377595922e-01
2.394573107231273007e-02
-1.024038352586347234e-01
-2.003548680638060631e-01
-2.833563027118590760e-01
-3.622491813452814458e-01
-3.857205738623789015e-01
-2.819354212498613177e-01
-6.531541334817489441e-02
1.088345832850246969e-01
5.841952074107720910e-02
-1.573388155909104247e-01
-1.280575752997837047e-01
4.889575224305360845e-01
1.346158105618019185e+00
1.585790859395586727e+00
8.983901646527777674e-01
-1.585386024611110112e-02
-3.290918879762357863e-01
1.161326826655699473e-03
4.400647867486939258e-01
5.847554634928006090e-01
4.153223664133161019e-01
9.998023289116335366e-02
-1.990652813642774799e-01
-3.793864209711902413e-01
-4.044792720204081760e-01
-2.979145378497199959e-01
-1.145271437206471510e-01
8.404798803531311757e-02
2.287847660639357461e-01
2.471143630823317283e-01
1.069675878491827131e-01
-1.344375323025799318e-01
-3.550440834630566034e-01
-4.532799941250332809e-01
-4.023535605125229675e-01
-2.436809305412498405e-01
-5.375277990425527536e-02
9.756893836701047151e-02
1.860426247507821207e-01
2.377533898879826968e-01
