-1.251927428076604065e-01
-1.423831432597289504e-01
-1.272713833101029868e-01
-1.077583120623166468e-01
-8.151219880511692550e-02
-5.555748924768499908e-02
-8.391100698495143617e-02
-2.119825801393239728e-01
-3.449674867530002076e-01
-2.513641827807924778e-01
1.230994486798873411e-01
4.059366875228871963e-01
2.058845348940525066e-01
-2.547573964855693318e-01
-3.763358899233574251e-01
-1.542735723576055262e-02
4.013507817952731149e-01
5.210074141115226265e-01
3.948513528730526745e-01
2.288688059413429288e-01
1.209339104770857931e-01
5.814166655252351462e-02
6.909813246436389417e-03
-4.364468287749222186e-02
-7.978713845464834031e-02
-7.571766314234373851e-02
-1.868815779916835340e-02
6.179926608053904619e-02
1.045773501589281201e-01
7.831677786457728885e-02
1.419289969384888300e-02
-4.310328521629628457e-02
-8.762924826396113753e-02
-1.273962760501981539e-01
-1.431043603731008418e-01
-1.123426266313021921e-01
-5.104457533074865244e-02
2.313746417643904041e-03
3.383468062252099895e-02
7.002361494145442622e-02
1.432304083469673750e-01
2.347922552209879277e-01
2.644213462293618089e-01
1.707034054004087642e-01
-3.025209599007774863e-04
-1.299488745715360882e-01
-1.495090546336873827e-01
-8.839299229634728361e-02
-1.087684149654287447e-02
4.809874284107922698e-02
7.574145796335698955e-02
5.168698999841715713e-02
-3.242744537507927238e-02
-1.341640849734541396e-01
-1.794218426262362553e-01
-1.251052746877497623e-01
3.583486635718339391e-03
1.184727483349973243e-01
1.071663120630582527e-01
-7.618651954988749087e-02
-2.891555547675465077e-01
-2.393747974966811132e-01
1.579327810485952610e-01
5.072054339810382340e-01
3.547751500028197835e-01
-1.352483030357213845e-01
-3.523207847637807588e-01
-6.541112445407742948e-02
3.508570622710453502e-01
4.862055947311332837e-01
3.270771420296345600e-01
1.083264790818115331e-01
-1.355047182007966707e-02
-5.615914266607397592e-02
-9.568662332665023307e-02
-1.475989375058913700e-01
-1.543859511284348396e-01
-7.189050933129241538e-02
5.086909420253874631e-02
1.191821262155531025e-01
1.021301274012602206e-01
3.722185338233154756e-02
-4.133537643379414650e-02
-1.162793226382545925e-01
-1.602526593972450897e-01
-1.509877114476862181e-01
-1.025364954949521262e-01
-4.677514256949551197e-02
6.145211235166828968e-03
5.971651883980687997e-02
1.037469568635164124e-01
1.291161135348606048e-01
1.391647724938661901e-01
1.188495146401633146e-01
4.041970832993831142e-02
-7.857690632722259816e-02
-1.688885429780612180e-01
-1.728506622224679212e-01
-9.424473634647650977e-02
5.159902058691608062e-03
5.282939894171005679e-02
2.317553762679466778e-02
-4.811429110292483186e-02
-1.059466231104192191e-01
-1.264795408182818048e-01
-1.258540392473240788e-01
-1.230959849558814767e-01
-1.083405196289720929e-01
-6.524325639861514037e-02
-2.496558255314629271e-02
-6.612044025662766611e-02
-2.014251608891532430e-01
-2.567149147269114362e-01
-1.599109496546619741e-02
3.856005807813812081e-01
4.650071582851295626e-01
6.077966599266786119e-02
-3.283547986069010882e-01
-2.148168160774495961e-01
2.318630349935506263e-01
5.112577257485013682e-01
4.284291136211477724e-01
1.682487074240071045e-01
-3.986378221811127248e-02
-1.335637762985922850e-01
-1.642345664607998690e-01
-1.744658533590686400e-01
-1.686687734189774024e-01
-1.515588226516028647e-01
-1.445484650811390548e-01
-1.604168304998032091e-01
-1.868069519502857934e-01
-2.035703910932028238e-01
-1.867403341766908365e-01
-1.039328035877210288e-01
2.852930831296110470e-02
1.076956888734258433e-01
5.478704814250111299e-02
-6.944527054909305219e-02
-1.404152615921800962e-01
-1.143480326165625116e-01
-3.941005991527722629e-02
3.103811476112787807e-02
8.405527084863770315e-02
1.182755409115169298e-01
1.133902491426986431e-01
5.767725828717790854e-02
-1.638124934511449998e-02
-6.421718661279411655e-02
-8.083048964449129903e-02
-8.118711527664830563e-02
-5.250029939227259662e-02
2.374877101372947427e-02
1.109068383673448982e-01
1.341340588057853556e-01
8.153668273760558693e-02
2.877791214978173140e-02
1.891093356772105549e-02
6.077093239050924446e-03
-2.672725587411987555e-02
-2.110648796480937492e-02
1.595331977281477798e-02
-3.775277296285552142e-02
-2.101443983762355527e-01
-2.519825818423219732e-01
1.233208546808757106e-01
7.292829379291201342e-01
9.054104043485570186e-01
2.898328986278237984e-01
-6.249368483017455622e-01
-1.009305174623386758e+00
-6.240834818596439071e-01
3.349085210511683341e-02
4.107720691003290403e-01
4.304019725002449226e-01
3.261712168437415071e-01
2.602758865396184174e-01
2.609243012566499487e-01
3.112175647484383689e-01
3.286061667723234603e-01
2.135647597956555066e-01
-1.978544785439222825e-03
-1.787537943050238332e-01
-2.314380217328059208e-01
-1.826310761299377305e-01
-1.050695826572996677e-01
-6.241249681808321015e-02
-7.740126240491905507e-02
-1.215453466786037828e-01
-1.369122604403709142e-01
-9.311407275662791916e-02
-2.406716237294391492e-02
1.059421971137876513e-02
-6.750820153111345041e-03
-3.445898874249175847e-02
-1.616250149292305927e-02
4.990027644807210755e-02
9.046733677421534003e-02
3.925606133917629303e-02
-7.310202513948861613e-02
-1.558506756757214173e-01
-1.679562262755961155e-01
-1.416648942908579345e-01
-1.083598008937209228e-01
-6.592458637163765844e-02
-2.989835342555347691e-02
-4.205847119538900364e-02
-9.894233123084290871e-02
-1.358139760276791674e-01
-1.097800232685117866e-01
-5.252224360363290379e-02
-1.561939376478797131e-02
-7.192643611970803326e-03
-3.046066889132060737e-02
-1.263784637680556433e-01
-2.639787595034600032e-01
-2.495723801026033251e-01
2.512700859836693515e-02
2.680062916615390534e-01
9.626891237199200480e-02
-3.165122425146988938e-01
-3.984261467080205676e-01
-4.005323746820561859e-03
4.311759133176570336e-01
5.320239089298034463e-01
3.491741984617999228e-01
1.220715260713772093e-01
-1.632846184672539364e-02
-7.427718614994824331e-02
-1.022690525942045181e-01
-1.255507602601990402e-01
-1.347266860337577032e-01
-1.113552094908861478e-01
-6.356720208657237747e-02
-2.769700010792993869e-02
-2.829430507210480700e-02
-5.416133316022130051e-02
-7.916702156521565614e-02
-8.984701005304296384e-02
-9.110858553378724245e-02
-9.100636838269696161e-02
-7.702580212620147027e-02
-2.448960870427154685e-02
5.194154159326595105e-02
8.689907780170111340e-02
4.167497827532772037e-02
-3.069370800933261118e-02
-3.304319872763020888e-02
6.095226168547970141e-02
1.555752225236452235e-01
1.362197232891090015e-01
2.543152837524514584e-02
-4.334068641639286096e-02
-1.230468955766999065e-02
4.689714074565495827e-02
6.308407393240662853e-02
4.269499921873830955e-02
2.139436955367945287e-02
1.391491274878969842e-02
1.168792440998565538e-02
7.305367415786092299e-04
-1.416865137078430516e-02
-6.641608243282453444e-03
2.985141513596852730e-02
4.345000811529212137e-02
-3.912782346914667198e-02
-2.148407866840654490e-01
-3.325510806412434461e-01
-1.472144312199509808e-01
3.986805729490400796e-01
9.014122383438254449e-01
8.237691958389640190e-01
2.282206121785619046e-01
-2.239104888643157765e-01
-1.220918961661535962e-01
2.629694797571801024e-01
4.567595193275540422e-01
3.242961039541543689e-01
6.723257827305770262e-02
-9.002521522006495802e-02
-9.937604834815128019e-02
-4.974720560057253882e-02
-3.277405527151548703e-02
-6.905068672885121550e-02
-1.206071060461820776e-01
-1.449746899176438675e-01
-1.390991390594153443e-01
-1.317689199942410072e-01
-1.416920866066176121e-01
-1.586113772758990792e-01
-1.590389608941399913e-01
-1.262614136751170069e-01
-6.206446099245213621e-02
9.121613471338489709e-03
5.419570827074962627e-02
5.963557349547275038e-02
4.120848878639055829e-02
2.318004541797000911e-02
1.831234440374039651e-02
2.770582297132805072e-02
4.297706151580405615e-02
4.589511063008679809e-02
2.449422007918988786e-02
-6.473316978837110984e-03
-1.810255072129210441e-02
-4.009942934633803358e-05
3.146020949774032405e-02
4.699414112898783746e-02
1.874743970337905755e-02
-5.519274641334836334e-02
-1.324285948233085153e-01
-1.573853951983816279e-01
-1.209594599211928634e-01
-6.282732551802672205e-02
-1.229506338566151331e-02
3.459161354366620950e-02
6.944775511830054981e-02
3.648302103989628509e-02
-1.046792521104868701e-01
-2.506165848274856112e-01
-1.890650107255633372e-01
9.822676333193650078e-02
2.973477041940617016e-01
1.704397486905440129e-01
-5.428146051547075995e-02
-6.722953000404704310e-03
2.899696556366154754e-01
5.166288764737493322e-01
5.217045300966444143e-01
4.160026146303230088e-01
3.000593080202258456e-01
1.288629907589137480e-01
-1.140968975108502537e-01
-2.798623783821057587e-01
-2.299584067167619872e-01
-3.751356873720647356e-02
1.236903056344769020e-01
1.793651174798285841e-01
1.447065074638270443e-01
3.812319556638003870e-02
-1.034872758929323844e-01
-1.946064428480899222e-01
-1.591812995348816095e-01
-1.712112736149574294e-02
1.234793451816994236e-01
1.808840365888497170e-01
1.745588387101698613e-01
1.656897202323434903e-01
1.725090025550117534e-01
1.766587551542824763e-01
1.770172668120938153e-01
1.941405478322595635e-01
2.212202406397089094e-01
2.117281815503099796e-01
1.409835352895110749e-01
5.204212701406109309e-02
1.258845673436083563e-02
3.876788579735140905e-02
8.261043789374319934e-02
9.251094076162678925e-02
6.442851455095768842e-02
2.282956091613777549e-02
-2.237293844734901394e-02
-6.930608924504171042e-02
-9.679504220697042471e-02
-8.522008632158745156e-02
-4.739440472213558159e-02
-1.065525828119711846e-02
-7.408110912697566698e-03
-9.549267833085711699e-02
-2.970366840693642874e-01
-4.588869829330842753e-01
-2.969973532226249380e-01
2.266622937686268713e-01
6.661963124702405814e-01
5.676814639977528776e-01
1.133364645549709004e-01
-1.191896376436886174e-01
6.345707311076201340e-02
3.402068884436222351e-01
3.995082822938729183e-01
2.454921657858565864e-01
4.551806057082663504e-02
-8.908727988071109272e-02
-1.437171793766420236e-01
-1.388330448127151340e-01
-9.728684508276151666e-02
-5.174832786161877307e-02
-3.868918662326058244e-02
-7.377481216675116360e-02
-1.409830824698675711e-01
-2.053564490690711064e-01
-2.397167094455215641e-01
-2.457545859179325609e-01
-2.413533252039014865e-01
-2.171670910745852334e-01
-1.290371056540477179e-01
2.325853985767126209e-02
1.356106692881717535e-01
9.909176304076414143e-02
-5.353191602868977161e-02
-1.769086468177622495e-01
-1.719364707435521722e-01
-6.973558364426948875e-02
1.955723662658907791e-02
1.576240485759890231e-02
-7.404109450437638962e-02
-1.941843996626604618e-01
-2.913270277060183711e-01
-3.245832333329838892e-01
-2.929400946107718617e-01
-2.540314186482072190e-01
-2.617205766899600161e-01
-3.071803573202782078e-01
-3.495779163708355175e-01
-3.643930947640430795e-01
-3.504798372766368963e-01
-3.209272309938623335e-01
-2.805592414677809954e-01
-2.042253293850638529e-01
-8.298454922784108401e-02
-2.265673882012743043e-02
-2.258499302308397128e-01
-7.274130836038305015e-01
-1.159064834842285396e+00
-1.095295683409864163e+00
-6.877008834738490561e-01
-4.601885695691240730e-01
-4.755012682843273719e-01
-3.505698234017473047e-01
-9.689932775605598902e-03
2.116130967745401825e-01
1.167819875802805912e-01
-1.426559894290195807e-01
-3.502595322440499870e-01
-4.528244518242553474e-01
-4.962992215083810721e-01
-4.809670173061493803e-01
-3.814162605751265644e-01
-3.208982556462363633e-01
-5.723670800604960807e-01
-1.094175810459240727e+00
-1.182206311429901291e+00
-2.742113860805981407e-01
9.478994193801201229e-01
1.236728817868947283e+00
4.446812594339519253e-01
-4.382544645284511819e-01
-6.678010280931859777e-01
-4.577252069187970895e-01
-4.447221454151764064e-01
-8.463092546125018378e-01
-1.247697633804667694e+00
-1.119841927624897648e+00
-4.091783029548654582e-01
4.535171739050350981e-01
1.005033296903993456e+00
1.084972093532771575e+00
8.362598496120363656e-01
4.612866472118071770e-01
2.006941334123267529e-02
-4.288576612917530673e-01
-6.624546345592743357e-01
-5.076534926390217084e-01
-1.084533846461414042e-01
1.721546469449110328e-01
1.387103135461978387e-01
1.637039627263253000e-02
1.554533084860390546e-01
5.261716676327962139e-01
8.042519915203431013e-01
8.718889632065985884e-01
8.609447940835031066e-01
7.888806940380808097e-01
5.671213585207335317e-01
3.700760067671193254e-01
5.713744837106967678e-01
1.151489995694804369e+00
1.530001855097920416e+00
1.272438906708388773e+00
6.875610843931665439e-01
3.926206084843802957e-01
5.189469259059525941e-01
7.058861264437678029e-01
6.966921279648471410e-01
5.811473024470271698e-01
5.324826320446939265e-01
5.687814628416687501e-01
5.865348225541847649e-01
5.175413766297276563e-01
4.007997680031255006e-01
3.034176273065787854e-01
2.252490689089492182e-01
1.280859743353798819e-01
3.680834196688906323e-02
4.455682126179943969e-02
1.650437734967813708e-01
2.529549487605258218e-01
1.897467057723145889e-01
5.618594484501809871e-02
1.957881055520749314e-03
6.083337593512495867e-02
1.532435053888483445e-01
1.767598286240480154e-01
1.226829676643426403e-01
1.610808400035637633e-01
4.866433244704419514e-01
9.847678567498293623e-01
1.244983689170029884e+00
1.053018084941544918e+00
6.265614066354363576e-01
2.595564155188129218e-01
3.216105926944951704e-02
-8.078582331388720061e-02
-1.011006589378174308e-01
-9.114389883289594763e-02
-1.350419121261256239e-01
-2.384336953982236773e-01
-3.111423559549709728e-01
-2.768533723465503305e-01
-1.902030586450113581e-01
-1.987735570248090056e-01
-3.412860139697369566e-01
-4.492947827130477356e-01
-3.603712553119468587e-01
-1.598753939652990952e-01
-4.263459378082115614e-02
1.982728757524570423e-02
2.244951916123797686e-01
4.982323110000137500e-01
4.718563349988527666e-01
9.648708525239380052e-02
-1.536245417605459074e-01
2.941185124086640595e-02
3.584290890444365996e-01
4.366604647155767349e-01
2.520803924196464707e-01
3.729129169297555613e-02
-6.118773994520937398e-02
-5.900024009293231703e-02
-3.795246229764542845e-02
-6.888406674425399945e-02
-1.740543988590539382e-01
-3.046786854734626626e-01
-3.799802969054101864e-01
-3.760556091553283187e-01
-3.492390649159636817e-01
-3.626145792207696172e-01
-4.150574363849498516e-01
-4.501887400833974873e-01
-4.233076694653388761e-01
-3.458233799060907443e-01
-2.659837272049737078e-01
-2.266777238356742774e-01
-2.381244265133322102e-01
-2.710729823893615054e-01
-2.772486793162954877e-01
-2.208343651892301918e-01
-1.104384426909028744e-01
-2.489793487732740174e-02
-6.379390596598967511e-02
-2.245640478902244386e-01
-3.779869788106622330e-01
-4.141897494472011609e-01
-3.655748018908432928e-01
-3.412167819128185675e-01
-3.814772832406413405e-01
-4.306449870889613729e-01
-4.356978098225907092e-01
-4.098297201991014105e-01
-3.812510538098313195e-01
-3.359425429924989270e-01
-2.530666998994012262e-01
-1.595104059484366010e-01
-1.045392470379287453e-01
-1.050452537173549722e-01
-1.628799687099390381e-01
-3.041731393896897617e-01
-4.879816834234657064e-01
-4.725793318107937013e-01
-8.998598875640358846e-03
6.904032290474326761e-01
9.852196596066308265e-01
5.841918296404015054e-01
-3.098076040620392768e-02
-2.427531284050470917e-01
-2.016096517431133911e-02
2.315899956489590183e-01
2.392852387311772133e-01
6.619581271882293838e-02
-9.291837917812620362e-02
-1.467698760417112114e-01
-1.377761074040605160e-01
-1.322264772058845406e-01
-1.474296807798140263e-01
-1.711222191948554017e-01
-1.982520721640823047e-01
-2.280982233840867790e-01
-2.470786687388328851e-01
-2.328356669844486859e-01
-1.756000533076064740e-01
-9.803502752255321973e-02
-4.432147823196369574e-02
-3.299200762425923139e-02
-3.820689661802998544e-02
-3.466448771507534693e-02
-3.346686193897117911e-02
-5.471812936365227226e-02
-8.231151498327324290e-02
-6.052782324544132148e-02
5.201137186882735797e-02
2.029341006660637103e-01
2.287895247302944579e-01
-9.036961477946997556e-03
-4.078194379992120533e-01
-6.387777059587382844e-01
-5.132923125389535768e-01
-2.218401130944529231e-01
-5.891551448902809796e-02
-6.201465805317710189e-02
-7.395615492911217226e-02
-1.995838888506640263e-02
2.632395294402080713e-02
2.586037053085563087e-03
-8.924694584487621873e-03
1.404911298539424092e-01
4.297776174808564664e-01
5.950153066892053255e-01
4.097405131073383888e-01
-2.585389961157827377e-02
-3.626884583409580309e-01
-3.035177520953227237e-01
1.239754389323538125e-01
4.898263738325546734e-01
3.600486115960246924e-01
-1.204465804643467114e-01
-3.667571431005634541e-01
-1.249669607377215386e-01
2.774962531120682696e-01
4.498795821278042117e-01
3.566101614171460210e-01
1.994671817494171884e-01
1.198487119105197812e-01
9.587965908351181454e-02
4.196188086374320197e-02
-6.714745675068431452e-02
-1.741029669820474413e-01
-2.142088128041156059e-01
-1.832215637577863376e-01
-1.202564090123950657e-01
-5.480963200046029549e-02
8.570980977306191014e-04
2.830775264798800206e-02
9.643340109874561084e-03
-4.237232848846150812e-02
-8.198232432004901038e-02
-6.199920231480529620e-02
2.551916823468033946e-02
1.225978636037988595e-01
1.425404849530462481e-01
7.565910382951196445e-02
2.352234064143343684e-02
7.169373862231540051e-02
1.711245671489786402e-01
2.048370139430184256e-01
1.340417229784301167e-01
2.318736129740378571e-02
-5.334229526134659505e-02
-7.317201742944171028e-02
-4.938946550537257063e-02
-7.254000173703365958e-03
2.700584681737767251e-02
4.732659641803116379e-02
6.442087201751031666e-02
6.661602507018329900e-02
1.654955824850375817e-02
-8.808009018551433977e-02
-1.805207835810592465e-01
-1.891780695857652461e-01
-1.300740584634758612e-01
-1.128225563522284036e-01
-2.261675370752340986e-01
-3.754037993096047687e-01
-2.789002896625610295e-01
2.020660269118919328e-01
7.215157761170336581e-01
7.415348311907838941e-01
2.585786345099791994e-01
-1.427846570239582613e-01
-6.866949543003367240e-02
2.581395130581315422e-01
4.329689132655357153e-01
3.560921311313067772e-01
1.901396280725796140e-01
8.848909565035804892e-02
7.787477374240456274e-02
9.447367529653513674e-02
6.128067837264925682e-02
-3.258892507668012528e-02
-1.201052675141257575e-01
-1.421651940117382162e-01
-1.073971399260747611e-01
-5.372180908672889027e-02
-4.398141118504242386e-03
3.034243471658060187e-02
5.029308242408808000e-02
6.633970389694134051e-02
8.500686723667132128e-02
9.018369445092680459e-02
3.978429245816685056e-02
-9.967716671008040874e-02
-2.760764862484365589e-01
-3.369911476488147706e-01
-1.690562276141882037e-01
1.522205611241481127e-01
4.074687397969476987e-01
4.311791190995217238e-01
2.495223466000940360e-01
2.805183986121449410e-02
-9.519020035273223490e-02
-1.043940424719620036e-01
-5.738606176434697670e-02
1.246253102995081852e-02
1.156098380597435082e-01
2.285082944159938234e-01
2.627083598935980313e-01
1.688929802445753858e-01
1.619312174698043019e-02
-9.295799518520703186e-02
-1.341751329502672285e-01
-1.416807191996097837e-01
-1.430206352997096253e-01
-1.657296351556955816e-01
-2.396775065809959027e-01
-3.049030397738319298e-01
-1.872137063041336702e-01
1.429773434957216094e-01
3.364766943686470224e-01
5.918194336625061391e-02
-3.788406811522316842e-01
-3.220843678207688243e-01
2.662681990323963466e-01
7.294359009983651942e-01
6.382301561356451547e-01
2.373527552280965958e-01
-5.867532152694351216e-02
-1.474710272101674435e-01
-1.446542950595784693e-01
-1.359964398277784814e-01
-1.336045587912815524e-01
-1.345858323238718346e-01
-1.428338018401985043e-01
-1.595379686921633566e-01
-1.802923951113944989e-01
-1.951473126287245619e-01
-1.820443848331310677e-01
-1.205142756060493814e-01
-2.684429279471224963e-02
4.700769117292818294e-02
6.223973375140496450e-02
2.348644250361307459e-02
-3.672034695364506662e-02
-8.245630558513994401e-02
-8.758106381226019033e-02
-3.801767316078862036e-02
7.105216846632186889e-02
2.163580616328729667e-01
3.185769729129445116e-01
2.815209795272604065e-01
9.438135857195831258e-02
-1.354180967044468498e-01
-2.797104246519529491e-01
-2.992432776045197418e-01
-2.371286893786775929e-01
-1.330392299218591812e-01
9.219467698688829302e-03
1.592851426801272230e-01
1.942910881946831037e-01
-2.733449950051108218e-02
-4.448172644054255720e-01
-7.397288129368984055e-01
-6.653917677592036117e-01
-3.374483892367125537e-01
-5.581760799490729369e-02
1.539236979591165552e-02
-8.907572202374255954e-02
-1.886655586305291676e-01
-3.964355305858884015e-02
3.867951297374813691e-01
7.033129389712214907e-01
5.043731457356696035e-01
-3.437352047500012719e-02
-3.278573919000810077e-01
-1.322603345814085396e-01
2.399908620735672349e-01
4.071477514500563832e-01
3.073362353128009650e-01
1.174856117132687255e-01
-1.559859299244598096e-03
-2.820334245799095002e-02
-3.150270074428825756e-02
-6.197490247277076536e-02
-1.028319736877919277e-01
-1.122399319186695443e-01
-8.387483461149400354e-02
-4.920572254031434223e-02
-3.201017224943037559e-02
-1.857493542842421352e-02
2.236886609105265267e-02
9.053745929420162208e-02
1.361143176384929376e-01
1.114491061182020654e-01
3.450690249255818770e-02
-2.740817379833822287e-02
-3.101838681877419970e-02
1.871809151850350669e-02
1.067446277868828036e-01
2.160868922478108856e-01
2.889762932481602653e-01
2.462124638334842186e-01
8.665457653425838458e-02
-7.726512319812678387e-02
-1.271246005914803412e-01
-6.220199290323490116e-02
1.915551928942757151e-02
4.960927864012351640e-02
5.061676579007132887e-02
5.590911760649588252e-02
4.643763608932943709e-02
-6.677423865936411157e-03
-8.411520312253135956e-02
-1.417957576832021005e-01
-1.638891022886090065e-01
-1.586822443718887421e-01
-1.249615902673694851e-01
-6.942854095458049490e-02
-5.092414623814905950e-02
-1.291040935183996874e-01
-2.245184802877668029e-01
-1.483763754060886675e-01
9.089742105682867279e-02
1.760159300650885050e-01
-7.011599384188929585e-02
-3.213165462300038300e-01
-1.630283088430032057e-01
3.163571974369138173e-01
6.574563406509799091e-01
6.134878020988333569e-01
3.513878851761905731e-01
1.374769685685593990e-01
4.252948130792388870e-02
-7.590846264045632633e-03
-5.143385843999662144e-02
-5.935440461669402173e-02
-1.752577385030373858e-02
2.932746776433531322e-02
1.999069446606817693e-02
-4.954336164334818132e-02
-8.750507671619958683e-02
2.303708440861695558e-02
2.506567363949124272e-01
3.715805467483577762e-01
2.305296237223342093e-01
-2.853943079966663604e-02
-1.507734447213850693e-01
-8.690514617447768486e-02
2.532092931229957405e-02
8.196424404908587980e-02
9.690661213126716689e-02
1.304046241216429147e-01
1.901653074083574924e-01
2.033750525215539673e-01
1.090397514148151031e-01
-3.978576321653063547e-02
-1.249583204512585977e-01
-1.056563609568082346e-01
-5.272392289591228132e-02
-3.763833030278491282e-02
-4.347103919034984998e-02
-2.227475455908479313e-02
-1.412497410707791966e-02
-1.322610075813082653e-01
-3.796540219324200938e-01
-5.651715312794506341e-01
-5.177473718019214299e-01
-3.045105969687644243e-01
-1.212439029589856831e-01
-7.253993236723343951e-02
-1.486837503371546687e-01
-2.701708887087765354e-01
-2.594772906439560267e-01
3.940398037156044725e-02
4.579898029543731930e-01
5.513442304208140410e-01
1.801641346766379159e-01
-2.101679098367274512e-01
-1.524887400174528285e-01
2.520904916943835228e-01
5.398125408142668835e-01
4.667645423283608430e-01
1.884313171648460128e-01
-2.207605339909373549e-02
-6.751171397220960546e-02
-3.446854893718331175e-02
-2.484056651022957876e-02
-6.476645619062409986e-02
-1.276828847020388680e-01
-1.647571647880254064e-01
-1.345649371167161323e-01
-5.023985242434238219e-02
1.988547481340382367e-02
2.118407147661197434e-02
-3.230616690069175456e-02
-8.088429142780102776e-02
-8.479571160745977276e-02
-5.751185205265384182e-02
-3.651232857090849770e-02
-3.409230075647437519e-02
-3.043160023561047867e-02
-6.241625368546005123e-03
4.122083862057598913e-02
1.044706769401174129e-01
1.557452112737115479e-01
1.476360777131098256e-01
6.637308070012533368e-02
-3.647291356743366519e-02
-1.103330313149280956e-01
-1.682215633117773446e-01
-2.282848798009343150e-01
-2.442801689819882327e-01
-1.719025919716312689e-01
-6.248538211805029080e-02
-1.152869537146420861e-02
-3.948273821020576585e-02
-8.759354289008990102e-02
-1.153189696715149620e-01
-1.348016147490431471e-01
-1.397944942873218244e-01
-8.486856162403152992e-02
2.103967515229752516e-03
-2.591582664439471065e-02
-2.287177813957156636e-01
-3.721472059580580027e-01
-1.778913784019171274e-01
1.680226944068310135e-01
1.524870866802799374e-01
-2.595407079086933244e-01
-4.828916827140009027e-01
-1.730954093818832529e-01
3.228722471549929640e-01
5.284382361946617923e-01
3.877166180926494565e-01
1.457366195417284516e-01
-1.492790736866189683e-02
-9.499740855849429788e-02
-1.566079881901403514e-01
-1.991102130024664241e-01
-1.830442703486956091e-01
-1.227144663055571711e-01
-8.359719429542893099e-02
-9.339217907303164201e-02
-1.152139905363752520e-01
-1.130276201092050847e-01
-9.246167716906329714e-02
-6.968206688914550806e-02
-4.225822662500116483e-02
-2.184842249672699389e-03
4.061225559552986836e-02
5.722095499382963413e-02
3.411503882093917805e-02
3.779996674553118968e-03
1.720499146774952248e-02
9.266426782775570581e-02
1.974249997614556940e-01
2.593643799720606880e-01
2.175466741284628192e-01
9.476012348209313096e-02
-1.183606377124787543e-02
-3.597419359755545110e-02
1.619127106861984258e-04
4.287374572513168169e-02
7.462886721238196075e-02
1.060700782154104793e-01
1.339663829799468964e-01
1.364128639611324190e-01
1.029235973609537724e-01
4.932034686814141394e-02
2.919823510265082134e-03
-1.028653133219317208e-02
2.939041580374171514e-02
1.086169859822499056e-01
1.528868113287511488e-01
7.679093188122922131e-02
-7.337788853771268216e-02
-6.484780931573674856e-02
2.644537624604804127e-01
6.670945911844406995e-01
6.846079419081655404e-01
2.828754571585882505e-01
-5.958419640582517801e-02
-1.065511341722204068e-02
2.337308483220172928e-01
3.300040235407118994e-01
2.277644060890681721e-01
9.704959527326538493e-02
3.133986632613450229e-02
-1.010126182261132308e-02
-6.215671343600732979e-02
-1.001383090032097745e-01
-1.054631285513728534e-01
-1.017140551650800723e-01
-1.166944816475934954e-01
-1.443895160454875537e-01
-1.572725052478213814e-01
-1.449206301588041312e-01
-1.266246615260375463e-01
-1.228258524025310078e-01
-1.302779437919080463e-01
-1.348507496377126802e-01
-1.290534664356673134e-01
-1.086167052434870300e-01
-7.655045464453605342e-02
-5.496067627569052594e-02
-5.861833932729600127e-02
-4.912043106074912707e-02
3.275157830949096405e-02
1.440880729286549422e-01
8.921233277393025851e-02
-2.875014345302194241e-01
-8.009027836194996253e-01
-9.906238440002191892e-01
-6.522223978260910382e-01
-1.091040801110733649e-01
2.075982837261017289e-01
2.134631357228745363e-01
9.379648385151026502e-02
1.212182755245527072e-02
1.671675759600824152e-03
1.796817462252368186e-02
1.670639278566627903e-02
8.808508354683150521e-04
7.488107958913216983e-03
3.172474108032926482e-02
-1.153008717980993220e-02
-1.653165890585794606e-01
-2.573409299496050573e-01
-2.953315127078659161e-02
4.220838967013926801e-01
5.963595676319440875e-01
2.562699127754579642e-01
-1.588869570684689481e-01
-1.331702642766917632e-01
2.372776211120029843e-01
4.720808172096930821e-01
3.578377118188518780e-01
1.034109560144974432e-01
-2.826704413425405391e-02
-1.793098661110053421e-02
-2.073466241968784790e-03
-4.863126007926122513e-02
-1.055516760208366212e-01
-1.026801991219582627e-01
-3.951246823519011936e-02
2.509718431403781119e-02
4.331672254118906079e-02
1.442403335914963468e-02
-3.811018000654457089e-02
-9.019702624554863657e-02
-1.165389970432712252e-01
-9.705382064657178121e-02
-3.444449924336479008e-02
4.427446614953995524e-02
1.036006345952724533e-01
1.175366853348714796e-01
8.821552559339093658e-02
5.621032346403531665e-02
7.072209095006497248e-02
1.239306657160381686e-01
1.368539167762385100e-01
5.142128417647522098e-02
-7.696346641136256328e-02
-1.286605451875506290e-01
-6.642144280831800696e-02
1.895393724646917896e-02
3.089288813433033187e-02
-2.104507823746896988e-02
-6.768626659656395983e-02
-8.560063122712235906e-02
-1.071946222518559422e-01
-1.529203159322898575e-01
-1.935239947188385490e-01
-1.770987250677854286e-01
-8.277219337019317558e-02
3.385044438902918423e-02
4.313005174105203482e-02
-1.517126899914708060e-01
-4.470318054982473921e-01
-5.247322665278827403e-01
-1.561461911930200341e-01
4.290893026212190264e-01
6.808407200408320703e-01
3.877808827366600042e-01
-3.014831789522433303e-02
-7.568076252295831419e-02
2.336316526459992771e-01
5.142190145887370889e-01
5.249976705109234976e-01
3.385410275889186860e-01
1.422403882751429594e-01
3.843705813308449792e-02
1.542019689122270734e-02
1.205528687689569854e-02
-1.348910745697549755e-02
-4.851551684248918417e-02
-4.987289517381912618e-02
-5.388950273074540401e-03
4.160549092601337900e-02
3.233660808241375917e-02
-5.833068420598482712e-02
-2.021894208194959519e-01
-3.169513099050846883e-01
-3.135096250791996053e-01
-1.918217411667368366e-01
-5.242537397859250298e-02
2.494020306482790800e-02
5.787097469055677013e-02
9.652237921500762818e-02
1.558270786426922683e-01
2.233070740430009027e-01
2.620940764467504791e-01
2.174257740342958323e-01
8.935026796678732786e-02
-3.564216565419148219e-02
-7.924532379906201740e-02
-5.152253272920850891e-02
-1.235414660090191491e-02
2.924928051624246794e-04
-3.483745647472576319e-03
1.337294862236908938e-02
5.585797668604424587e-02
6.599916633400987331e-02
-3.765162905896829622e-03
-1.041773902420590620e-01
-1.367104334689330514e-01
-7.352551453294665917e-02
7.846050961042520117e-03
-8.091453638092351713e-03
-1.636927705868967964e-01
-3.271479619632526870e-01
-2.541139258612685192e-01
8.358929611431836770e-02
2.919754073026470387e-01
1.373307117538640799e-02
-4.550970043182051006e-01
-4.933576804940822402e-01
-3.996723784799808415e-02
3.789401444266108920e-01
4.261139607520655348e-01
2.880298478798656303e-01
2.587154454673459281e-01
3.296873446886720571e-01
2.997278233692427518e-01
1.110542584013869266e-01
-9.864859035555674505e-02
-2.092195206448269063e-01
-2.262098914005614692e-01
-1.990950659733809192e-01
-1.503604969648381640e-01
-1.051626394107454954e-01
-1.152486204158521682e-01
-1.963681491529764289e-01
-2.736516321062406054e-01
-2.489826238519119717e-01
-1.146489787216528194e-01
3.872651050108221610e-02
1.137485796446637415e-01
7.700389832248992483e-02
-3.191790935749068414e-02
-1.239917558333762659e-01
-1.223494002253784213e-01
-4.336182631215959593e-02
3.477627323000831439e-05
-7.903995130993127227e-02
-2.175768004629724250e-01
-2.582908999205478784e-01
-1.426251590199135721e-01
1.729389660655863276e-02
8.048797138429408804e-02
2.469356945659610322e-02
-7.168059817375876941e-02
-1.353812544348796942e-01
-1.527441886747807898e-01
-1.509795903675175688e-01
-1.547582292579645635e-01
-1.603207721161986621e-01
-1.449750675822776003e-01
-9.972026738884819108e-02
-5.847092327695718045e-02
-9.275940374257508891e-02
-2.303383618095377061e-01
-3.302829625796116497e-01
-1.350684036607787963e-01
3.681425633404247777e-01
7.367726273022470185e-01
5.547138790227780225e-01
4.165326689549081474e-02
-2.155721358677907817e-01
-2.318275724243510499e-02
3.094166014886020610e-01
4.622799987108244246e-01
3.801348319622466776e-01
1.680401241852675920e-01
-4.899749737215858963e-02
-1.722357523773651866e-01
-1.560984787768332216e-01
-3.848898773254928740e-02
7.726406749578378086e-02
1.027546691153279346e-01
3.155406225131821008e-02
-7.460372903535149314e-02
-1.431002266732313566e-01
-1.348378369883591055e-01
-7.720885889083226039e-02
-5.018813487664190026e-02
-9.009746424792580699e-02
-1.294474557652667834e-01
-8.445522862334924052e-02
2.802293043828537819e-02
1.095870370660495113e-01
1.053244220811861004e-01
7.469472045530997639e-02
1.112674060240814999e-01
2.041614000035179011e-01
2.405053562691141233e-01
1.617513841699915744e-01
4.415219223320049347e-02
-8.752942158950961435e-03
1.330312811721511869e-02
4.937642110480509883e-02
5.489980500961556820e-02
2.833941468079449050e-02
-1.375056343401155623e-02
-5.260153468820374933e-02
-7.443428779848340615e-02
-8.053278885900855277e-02
-8.058201121831364000e-02
-7.063452241837371581e-02
-3.194213951639168075e-02
3.499128382164676948e-02
8.091501073150485224e-02
4.245846070026548097e-02
-5.162449356965394948e-02
-2.604154908298023791e-02
2.464419296728520559e-01
5.409338305690384319e-01
4.518794459466569102e-01
1.531576938843087765e-02
-2.394859159443982477e-01
-2.757680333602286968e-02
3.405538035963342480e-01
4.589623307257130191e-01
2.938225790871706877e-01
6.884588414314202209e-02
-5.381651155923031227e-02
-7.368688511694389265e-02
-5.352170226900898609e-02
-3.116919301511657595e-02
-1.732256794435329053e-02
-1.646599475268436391e-02
-2.985151993389187700e-02
-5.579441764796569392e-02
-8.971087519766168805e-02
-1.158235301017528779e-01
-1.124881056513306332e-01
-8.096860955023876816e-02
-5.094872734288777294e-02
-4.106171396118509648e-02
-3.870606546183601171e-02
-3.823869343303071960e-02
-6.657425410920130016e-02
-1.316733341466730101e-01
-1.732989133410875737e-01
-1.249149081964052305e-01
-7.952192893972694770e-03
9.035631373007470268e-02
1.126510209040009203e-01
6.481730809897928713e-02
-1.535885083408581979e-02
-8.290025177243957877e-02
-1.055285871429559458e-01
-9.522653031875766283e-02
-1.012401283592921503e-01
-1.519884084051896234e-01
-2.227564793679786548e-01
-2.681486616148276991e-01
-2.678515443308533972e-01
-2.330159558615526039e-01
-1.815185118172225331e-01
-1.224715292893993474e-01
-6.484664561321890064e-02
-3.826503901891802756e-02
-1.049461468791028362e-01
-3.034414622499076453e-01
-5.103853867174190651e-01
-4.264036626487348047e-01
9.304266056506632632e-02
6.790937167554301768e-01
7.368337429456067733e-01
2.087859458096674170e-01
-2.926676529471267663e-01
-2.317273217764632964e-01
2.956945380040150728e-01
7.840681329112354492e-01
8.302072815757156610e-01
4.393581406888528718e-01
-3.687471778017538393e-02
-2.612547953281120217e-01
-1.947401496969773382e-01
-3.722747462291265547e-02
1.702011535885749119e-02
-5.540937144352876126e-02
-1.333515804520799819e-01
-1.104498389775805806e-01
-1.442153229956305571e-02
3.487940042072792263e-02
-2.637790582470788542e-02
-1.283111196336071957e-01
-1.524341675379531080e-01
-6.520953227791917439e-02
5.147834604072897696e-02
8.558562606507173764e-02
4.727976349994437999e-03
-1.158426934716734608e-01
-1.663944015133552445e-01
-8.732566399941645019e-02
9.188758244352845939e-02
2.573863185951318910e-01
2.870620837592184893e-01
1.631773776038116519e-01
-1.473021884348372015e-02
-1.318430670924287396e-01
-1.334018122805463447e-01
-2.976492426021425802e-02
9.857640059942679445e-02
1.334081911107939111e-01
3.698380632867293016e-02
-9.935124160854513775e-02
-1.755253506268419361e-01
-1.861281220315665619e-01
-1.753230034582321795e-01
-1.622417314140502664e-01
-1.370569443153554501e-01
-1.028167382974687905e-01
-1.156296781922702827e-01
-2.442496892112922813e-01
-4.109124810294007557e-01
-3.370211341404541483e-01
1.142908245224172059e-01
5.556144640904754350e-01
4.503184619391675803e-01
-7.803535183101908967e-02
-3.431317781708070891e-01
-5.499956847522785575e-02
3.714090517177724426e-01
4.859569961058428644e-01
2.991857186832499460e-01
7.161759269645098791e-02
-4.294113223145738789e-02
-4.474791251212753562e-02
2.183917555883289202e-02
1.009425459784952378e-01
1.282920381871599236e-01
8.593651427714300850e-02
2.385080012143791367e-02
-6.190967879534333730e-03
-9.815301616055874950e-03
-2.340345015516302057e-02
-5.573643894814962751e-02
-8.192911506567164548e-02
-7.684926684044451894e-02
-3.381764054583966811e-02
2.596693963600697763e-02
5.442278944235541538e-02
2.632828093748820764e-02
-1.480490160791978968e-02
-4.216490827967332537e-03
6.446996987632014342e-02
1.393502478547339607e-01
1.646102992544550281e-01
1.193392761123756862e-01
3.406808118903675853e-02
-2.840188895677759479e-02
-3.239543897275539569e-02
-3.381905364863917011e-03
5.803063955736398674e-03
-2.709915758920973874e-02
-7.026258482356799451e-02
-7.034941224926469228e-02
-1.037328364471917612e-02
7.342621264041397644e-02
1.302157894118199377e-01
1.359018028000175127e-01
1.081185779611472803e-01
9.141955736504972507e-02
1.012429008682239617e-01
8.033226789783208532e-02
-2.807951155772931903e-02
-1.233745785492969121e-01
4.763735256875858970e-02
5.560397488115952358e-01
9.975067221242646109e-01
8.566225774206385202e-01
2.165734772066240654e-01
-2.795029682095963586e-01
-2.323489891412189035e-01
1.230751584922923914e-01
3.482407745974017699e-01
2.938212289678633904e-01
1.081195861563475635e-01
-3.144142431330038123e-02
-7.977017100374302061e-02
-8.796464589510782917e-02
-1.065501392171867567e-01
-1.398049171396867629e-01
-1.650861248760595867e-01
-1.811759302943430350e-01
-2.176387707981040642e-01
-2.764508761487362021e-01
-2.974745832684416724e-01
-2.291957965062434155e-01
-1.057945700686013235e-01
-6.789179497568739036e-03
2.985935954957444002e-02
1.783034729595914941e-02
-1.902591264393778403e-02
-6.419624530407196106e-02
-1.033179159963859423e-01
-1.197572164533023120e-01
-9.643411203131614651e-02
-3.690021823322875427e-02
1.374707158679566027e-02
2.527942070461940138e-03
-6.893755744040468147e-02
-1.450815837375699635e-01
-1.754603042155049863e-01
-1.498528706976685887e-01
-9.834582782261878930e-02
-7.767295807661414586e-02
-1.214544606196094889e-01
-1.930942286415835707e-01
-2.260026547953738196e-01
-2.027915816109768232e-01
-1.627003414188828712e-01
-1.501094823949560841e-01
-1.753633016168925363e-01
-2.100857638673216399e-01
-2.239717794816818985e-01
-2.369513168472698605e-01
-2.876561994433648461e-01
-3.129237849411148908e-01
-1.720447264781124475e-01
8.467899711780740857e-02
1.497704410946270048e-01
-1.012102584815290224e-01
-3.278454053867226881e-01
-1.858033747328976804e-01
1.745472009169250494e-01
3.537114612585727791e-01
2.169433509987307163e-01
-5.739605397062206432e-02
-2.616567212357920336e-01
-3.265115772852209552e-01
-2.920416181742199191e-01
-2.002330503193115174e-01
-4.049512018249256523e-02
1.554427650942533379e-01
2.397671147021376570e-01
1.127734188186605840e-01
-1.150895574073476091e-01
-2.628161759580501244e-01
-2.877806740394934781e-01
-2.659344785440924119e-01
-2.620551514008770955e-01
-2.735480099329267722e-01
-2.413180754264469263e-01
-1.152366540665448608e-01
3.854621380108164824e-02
5.114042738199879590e-02
-1.340714145817561154e-01
-3.336388514999659716e-01
-3.316017388392954457e-01
-1.502944365924524517e-01
-3.924942242723997859e-03
-3.332343182983355662e-02
-1.854200917969571205e-01
-3.279371793223040399e-01
-3.928369269609288117e-01
-3.973465969415292398e-01
-3.823316842603790011e-01
-3.670490759930281621e-01
-3.588048114134423927e-01
-3.715120708572965946e-01
-3.921419258940406216e-01
-3.460145771928478942e-01
-1.990461597026880469e-01
-1.231258946675336252e-01
-3.651488841218035741e-01
-8.372310769570724398e-01
-1.102772035064630174e+00
-9.334831477931508914e-01
-5.572486872362331090e-01
-2.003805968305279739e-01
1.647606188158262097e-01
4.138155025410087950e-01
2.343438335785152371e-01
-1.854000121020343839e-01
-1.749612752994679776e-01
3.797354753123021731e-01
8.390460287844025977e-01
8.365877422977847644e-01
6.411295104206675699e-01
4.821474897444233410e-01
3.372288132232026947e-01
3.144856231495101184e-01
5.800089495588688360e-01
1.009376515933892771e+00
1.316260972640262761e+00
1.374640365527362018e+00
1.237858265464060192e+00
1.016890502256798445e+00
8.291403691701114687e-01
7.530023227077026204e-01
7.645093467484329608e-01
7.690363875255358250e-01
7.277565899456754916e-01
6.779343441878582510e-01
6.224593559896893780e-01
5.336421692631316827e-01
4.579630354371154177e-01
4.503704745832881606e-01
4.428135559150027101e-01
3.544151918729223638e-01
2.615871352658566962e-01
2.827093666053546728e-01
3.640460055428211827e-01
3.299318587449236451e-01
1.072029136767613938e-01
-1.846346517111737973e-01
-3.514292693744201501e-01
-3.101212224923514116e-01
-1.548026485304813404e-01
-2.707245809072220122e-02
4.489978457911541349e-02
1.201146419391701109e-01
1.974464526441134793e-01
2.035852058444170276e-01
1.249075129220269531e-01
5.149036218280808597e-02
7.355764536777312235e-02
1.778935660134754460e-01
2.434296650854145261e-01
1.464935474031714979e-01
-6.016070800918686678e-02
-7.755122627445747152e-02
3.268119576512658053e-01
8.432458558259402492e-01
8.275111584994296887e-01
2.059240800725362919e-01
-3.258918072872704630e-01
-2.524678597460417451e-01
1.696841722741273539e-01
4.387091416932396015e-01
4.068782869947468184e-01
2.137932734645129895e-01
-1.589118879630047054e-02
-2.369816091281126691e-01
-3.968066297969770617e-01
-4.402528339683851599e-01
-3.910893115403579756e-01
-3.453386631825105524e-01
-3.709526485892855052e-01
-4.400952366683508199e-01
-4.630292149456228801e-01
-3.877103153729265506e-01
-2.580478184560736077e-01
-1.678913390057704402e-01
-1.791376950989327366e-01
-2.895622486953866592e-01
-4.446785084118315967e-01
-5.654688749876974896e-01
-5.939286438819160185e-01
-5.305272897596732262e-01
-4.183032793857255904e-01
-3.013783145447523903e-01
-2.188497693834503544e-01
-2.108089706326787549e-01
-2.875335639005852095e-01
-4.002481937899062259e-01
-4.739625343265079782e-01
-4.742910026353864272e-01
-4.259706301727090860e-01
-3.664662960380295487e-01
-3.093089203063621451e-01
-2.583084533901293112e-01
-2.171137860752133109e-01
-1.747044275302333805e-01
-1.259132011496537640e-01
-1.060393450494063472e-01
-1.527889213182817008e-01
-2.352200035261523825e-01
-2.746241986825236348e-01
-2.536280095486027619e-01
-2.655064485622737891e-01
-3.986685034786552340e-01
-5.435804488240525423e-01
-3.965762060886023344e-01
1.584056306647519674e-01
6.985184242495859896e-01
6.465814667059736065e-01
6.525452722445071463e-02
-3.742466161732306840e-01
-2.725975334157619279e-01
1.064124548241670160e-01
3.320359274368345215e-01
2.795753805175892337e-01
9.424530062691312271e-02
-1.515231326405475087e-02
8.389750665915637895e-02
3.131912361635038611e-01
3.964172639653867347e-01
1.761395429231153165e-01
-1.531107381706011128e-01
-2.837197974744982698e-01
-1.529362605689894294e-01
4.956380398322404734e-02
1.239288293565595084e-01
3.723249683860790915e-02
-9.560392506509426958e-02
-1.572500193038460781e-01
-1.211363993374842268e-01
-2.464172995723624623e-02
7.145863060759162499e-02
1.035759046553351992e-01
6.899209508054028606e-02
4.289967593665013762e-02
4.816178039511839759e-02
-1.458773906087614328e-02
-1.863850853752865300e-01
-3.145952291786955346e-01
-2.627139336173127115e-01
-1.224439825263726050e-01
-5.369548243173114660e-02
-6.304536185787298908e-02
-6.905121676171857570e-02
-4.975631539419464455e-02
-3.392738306738278531e-02
-3.098074249512460659e-02
-2.586748549008582518e-02
-1.353394657607374582e-02
-1.368798067773644572e-02
-4.827620970469820305e-02
-1.039143084186356925e-01
-1.306651221051624845e-01
-1.056386184580773574e-01
-1.011128599035394648e-01
-2.236961955144109726e-01
-3.916737899271374723e-01
-2.391659423136094087e-01
4.602460424479716816e-01
1.215379305987875025e+00
1.192717875410960193e+00
3.917652683448280548e-01
-2.394402418796612309e-01
-9.624303524133200061e-02
4.183140181593936746e-01
6.612258495490088706e-01
5.107123873871974862e-01
2.353403016748475407e-01
5.551375993183481350e-02
4.004137251763012842e-03
2.016511854121573119e-02
2.593053966984931388e-02
-3.935206636893184839e-02
-1.655753150784580463e-01
-2.660836611676534735e-01
-2.704091423349898049e-01
-1.980785166072055181e-01
-1.122217009177865349e-01
-4.780163522184156105e-02
-2.521690609954814477e-02
-7.916017674963496398e-02
-1.912779848574847064e-01
-2.032773438629216223e-01
6.640136653351495777e-02
5.149964335964637430e-01
7.333257902708129050e-01
5.020698346106653442e-01
1.104697621253938888e-01
-5.372144359112891038e-02
1.466810096786106896e-02
7.225113148553337361e-02
2.828915767502774431e-03
-1.200808341566698689e-01
-2.019143693792327943e-01
-2.161596386496797695e-01
-1.743304144836191616e-01
-1.023954199559615336e-01
-4.258040075222784687e-02
-2.607333585595213860e-02
-4.321567112834106411e-02
-6.423886883543343529e-02
-7.910243607580434710e-02
-9.999165692394496041e-02
-1.285072470777471332e-01
-1.342095442374512393e-01
-9.187849279841882322e-02
-4.719276855691494077e-02
-8.368779515391087942e-02
-1.603531622247016397e-01
-5.667115218688362210e-02
3.400351874496279625e-01
7.120355736572139271e-01
5.894564466323441998e-01
2.608377879319204173e-02
-3.818032609473697159e-01
-2.587759411501480700e-01
1.362527663252081356e-01
3.439521871842267098e-01
2.413328847816670619e-01
4.168521781599729414e-02
-4.798724094428795384e-02
-3.178760652293344258e-02
-4.335576074421799986e-02
-1.656916147795516880e-01
-3.440816612004977681e-01
-4.417958278007664275e-01
-3.822443176331697390e-01
-2.268744311883749143e-01
-9.368911037165567057e-02
-3.808485591497458994e-02
-3.990865150784462384e-02
-5.781915432874065036e-02
-6.387167836640270102e-02
-4.999912109570036484e-02
-2.597055648130445343e-02
-1.157678728522299957e-02
-1.736984342041101442e-02
-2.834517769034719525e-02
-1.519762539391503881e-02
3.760705626910035987e-02
1.134970624471612760e-01
1.654181244675934914e-01
1.504813001029199904e-01
7.900796125652795321e-02
8.285576405488232626e-03
-2.309643546835256356e-02
-2.857449651679041733e-02
-3.774481175365865249e-02
-5.571384129027493609e-02
-6.682663186863062321e-02
-6.261551507730964139e-02
-5.438402072182660363e-02
-5.618233440355693137e-02
-6.283535114266269872e-02
-5.980699111496371595e-02
-5.053173779669913046e-02
-5.250630879285599073e-02
-7.410468373654920116e-02
-1.224126865173128936e-01
-2.021173555191131677e-01
-2.373159878115011501e-01
-7.316202619596459678e-02
2.586674586533186937e-01
3.998809431653998492e-01
1.248031758755200754e-01
-2.204138221783277785e-01
-1.520172101219716132e-01
2.752224412494381767e-01
6.096806639076512990e-01
6.062884358544958774e-01
3.865112373224544040e-01
1.588062483819742965e-01
1.093201526480998796e-02
-6.244575154149896445e-02
-7.853652895109272669e-02
-6.353402521870561703e-02
-6.121519076528980641e-02
-8.779430647886188321e-02
-1.099549430554385143e-01
-9.654912468431667283e-02
-6.090050147070208419e-02
-3.426980888771277711e-02
-2.581644854403664091e-02
-2.617583152778496861e-02
-3.205881197097286417e-02
-4.624781881507658565e-02
-5.732987487791371684e-02
-3.960282115460599106e-02
1.825262709673844061e-02
9.467537525484723271e-02
1.561654063711499785e-01
1.917948922633119224e-01
2.115843219204941172e-01
2.106282297205286924e-01
1.587699878383704855e-01
4.515669493160701792e-02
-8.105310260756967700e-02
-1.464370110125301494e-01
-1.319187693208954126e-01
-8.958798055569759666e-02
-7.842089047429061377e-02
-1.075822881678153986e-01
-1.477043449641770589e-01
-1.705069112686370680e-01
-1.660248810226247762e-01
-1.442942190440152095e-01
-1.241661843515155655e-01
-1.008121370453378823e-01
-4.175485600971297340e-02
4.540016764736357069e-02
6.093725022329202906e-02
-8.058599762674729938e-02
-2.467783688616138893e-01
-1.251298638758962245e-01
3.480479094156898601e-01
7.190320590496127595e-01
5.199881728547337545e-01
-4.031954462224333902e-02
-3.121749376582734770e-01
-4.622818982298182444e-02
4.099035074410085633e-01
6.369906825490034841e-01
5.269993451170545962e-01
2.327580864140771366e-01
-3.591549874263413877e-02
-1.669844826086612777e-01
-1.815474922990895079e-01
-1.575081591918641999e-01
-1.415739035239661492e-01
-1.300330350207544450e-01
-1.061049489715650690e-01
-7.747208877230316038e-02
-7.331840637476562395e-02
-1.108013963942806601e-01
-1.731120751204432151e-01
-2.178255025504983455e-01
-2.074566727889802786e-01
-1.417103072921830353e-01
-5.655485572641386072e-02
1.205081712918182855e-02
5.017280792207071127e-02
5.916401663745621958e-02
6.301724275928628771e-02
1.118060542642566463e-01
2.137672870660604629e-01
2.739354437236016238e-01
1.898821762079636877e-01
2.144628692156324429e-03
-1.428422628614513246e-01
-1.676246312611007205e-01
-1.204768292153242243e-01
-7.654800372320227919e-02
-6.024203071128327036e-02
-6.662444153203193886e-02
-9.558901068596535600e-02
-1.381946382552263763e-01
-1.673173516521337945e-01
-1.696726670023541161e-01
-1.587997336077093813e-01
-1.394484471120760738e-01
-1.006380485995308355e-01
-6.957668581716172640e-02
-1.195838475652974409e-01
-2.488076752497799804e-01
-2.754026412993573758e-01
-2.377778986014135454e-02
3.148703397053675412e-01
2.927464900581648877e-01
-1.369849344960960558e-01
-4.476167230634821026e-01
-2.568124950443213539e-01
1.871385273371214131e-01
4.248411345531503680e-01
3.263659365713291738e-01
7.726930440797558086e-02
-1.025057558533171292e-01
-1.090397675869965721e-01
1.430038547996861226e-02
1.169045314446228029e-01
9.321887939237080700e-02
-5.445949412042638133e-03
-6.527529423669502229e-02
-5.412654306608565002e-02
-2.183975601867865074e-02
-2.014761660483720823e-02
-5.863903165969068521e-02
-1.097418995198255892e-01
-1.386208358135235796e-01
-1.276847767884043416e-01
-8.128612324123839217e-02
-2.229514488079685844e-02
2.216064002009937237e-02
3.851608197337746259e-02
2.418935679060239125e-02
-1.340727856993821285e-02
-4.269744021405600526e-02
-3.037728226158570646e-02
4.642930192935961452e-03
5.104413632420395051e-03
-3.945337812990298149e-02
-7.150815892864879897e-02
-4.506967165624327365e-02
2.257221560045662850e-02
8.890998461945681663e-02
1.291297146214201996e-01
1.317967153088112353e-01
9.321907206113706768e-02
3.117512124185610120e-02
-1.792208831764493387e-02
-2.650007996476804947e-02
6.579724731118533239e-03
6.606343574698439469e-02
1.286428977238126825e-01
1.449482949141628896e-01
5.300612909184681393e-02
-1.099868978955726162e-01
-1.296859824595384403e-01
1.726650531285886803e-01
5.863058040163016127e-01
6.389297861381558752e-01
2.345297894377313397e-01
-1.527874088503202721e-01
-1.006647892044594261e-01
2.650497219463892051e-01
5.420937051655632111e-01
5.393498651344894590e-01
3.510202305028563563e-01
1.336053749449869765e-01
-2.895851604853915545e-02
-1.103963580972609632e-01
-1.268022800029537100e-01
-1.261958906535307623e-01
-1.294387404096459249e-01
-1.060593791260491248e-01
-3.623865858938135620e-02
3.864583972188497668e-02
5.464439760048880185e-02
5.776188183097965417e-03
-4.468921146143600698e-02
-5.193436778336470161e-02
-4.796187602913502823e-02
-7.179029118643717733e-02
-8.665327176908042828e-02
-2.887743737458219745e-02
8.561787942561170650e-02
1.649033711044153028e-01
1.494734416450899661e-01
7.277296418907232278e-02
7.232540651523639702e-03
-1.755076179534743180e-02
-2.927314098436642129e-02
-5.540287941890838230e-02
-7.241761284587355796e-02
-4.355120097620046593e-02
9.948592543385500683e-03
2.904846676904402486e-02
-5.826203412308474973e-03
-6.450743172540453207e-02
-1.154677811327877307e-01
-1.518741758735661640e-01
-1.829454727394053959e-01
-2.101304271678806623e-01
-2.042533537914867081e-01
-1.287006063980015713e-01
-1.677189320086280508e-02
-2.557843900774320334e-03
-1.955083563912698996e-01
-4.660726193791827621e-01
-4.676310662461004575e-01
-8.367178349288173500e-02
2.629355161786701145e-01
1.191271315369763217e-01
-3.034818286118007302e-01
-4.176771902024351002e-01
-1.070745442798400338e-01
2.005601849472947174e-01
1.933122660870396636e-01
-7.163913102383949461e-03
-1.625647701392932687e-01
-2.202720647676222610e-01
-2.061099448110992605e-01
-7.296150517973090666e-02
1.629532537099529221e-01
3.115181696939094413e-01
2.255390929624520036e-01
1.013409342468173102e-02
-1.193243677083365151e-01
-8.122577954082450813e-02
4.201727338539877621e-02
1.224402843597954954e-01
9.928097974130684067e-02
1.596390936218251150e-02
-4.580223025167031586e-02
-5.860159966771158468e-02
-5.858309711451985952e-02
-8.038405789903593779e-02
-1.080174972895603797e-01
-9.203920091777094414e-02
-7.176003087908940786e-03
1.097632178405617276e-01
1.786514062935257996e-01
1.437461842651423238e-01
3.124922919305702512e-02
-7.402813748983033681e-02
-1.111667403310678814e-01
-8.701654879607653714e-02
-4.930575304082180504e-02
-4.026858927085772560e-02
-7.070504974843339063e-02
-1.184906337392901271e-01
-1.495209679744913256e-01
-1.495466155809766773e-01
-1.347037233321672633e-01
-1.241142329266899796e-01
-1.116239786792337096e-01
-8.254079786836750199e-02
-5.769888791969349229e-02
-1.017997432453855988e-01
-2.505810023514749574e-01
-3.829733908209803084e-01
-2.280733393288655875e-01
2.987198577191020887e-01
7.824915547710507013e-01
6.938058412216898674e-01
1.343263064244661353e-01
-2.456625839703619196e-01
-1.076768203896147774e-01
2.493297778257410890e-01
4.098216706869159398e-01
2.789869507916121760e-01
-1.889758124891782742e-03
-2.586664259788971632e-01
-3.541541013440650532e-01
-2.571723071949423289e-01
-8.458487691750551929e-02
1.894351446090696348e-02
1.567548338853530857e-02
-4.555021330727024309e-02
-1.000279875032207555e-01
-8.738986000177639824e-02
1.268786375281388476e-02
1.330601299571831098e-01
1.754885172305505614e-01
1.278775384848510055e-01
6.690927420404563231e-02
5.243224046291213025e-02
7.351687367027069653e-02
9.225911851184254164e-02
9.983102145175429265e-02
1.207530911538296503e-01
1.757824533233491304e-01
2.434793810582631113e-01
2.638353988464383626e-01
2.008010096714455961e-01
9.801349703569357807e-02
3.954847577974691941e-02
5.011112606001756620e-02
6.288294661697696464e-02
7.102604859071520726e-04
-1.229451356801439382e-01
-2.110440673086016461e-01
-2.005596289600957982e-01
-1.315920493401800395e-01
-7.709453499481351557e-02
-5.600372186898113641e-02
-4.043550718393266324e-02
-4.075537741257894211e-03
4.839937674350462682e-02
6.544898779667687738e-02
-2.323893679758087458e-02
-1.930240435722745396e-01
-2.400372655189105808e-01
3.684848708419637131e-02
4.710693909816341396e-01
5.789910571802694417e-01
2.007648284146415496e-01
-2.022568770085177159e-01
-1.668912914791033375e-01
1.835899199302247764e-01
4.197611071253180559e-01
3.704616771390953911e-01
1.910204540806838269e-01
6.434525171642112296e-02
2.221471084672178853e-02
5.880628598606831361e-03
-2.084110520916231460e-02
-4.065696148331676696e-02
-2.270897509299143330e-02
2.422962581456008721e-02
4.415951714488972057e-02
-3.456192271767412685e-03
-8.323512086765047502e-02
-1.173874223633908642e-01
-7.692861969631621666e-02
-1.063290597395490436e-02
2.101086962999792335e-02
1.686886096554521958e-02
2.780639957286906369e-02
8.505823593677747096e-02
1.445821286105313241e-01
1.190924650890773095e-01
-1.770709904772099774e-02
-1.677886452213547819e-01
-1.931456226573989299e-01
-8.466900406251018363e-02
1.756576387908577799e-02
3.652208822668335034e-03
-8.980772038458420536e-02
-1.631879555729513209e-01
-1.744937589985502968e-01
-1.569015905213019535e-01
-1.540669840975838201e-01
-1.644682297980757657e-01
-1.602795604334181223e-01
-1.398227509826037718e-01
-1.323280603883920936e-01
-1.602916014979631210e-01
-2.043315631856737480e-01
-1.841909756374000007e-01
-1.416946943962535226e-02
2.380297199328819113e-01
3.242385965721840679e-01
1.278780251342955254e-01
-7.250203415071032609e-02
7.948087628667038773e-02
4.580199787087643748e-01
5.520587206155427307e-01
1.966092985194786702e-01
-1.761610994065617442e-01
-1.570649242703462956e-01
1.442603836846989007e-01
3.636788355003170992e-01
3.323793872413655648e-01
1.306632303399272999e-01
-1.069941761657871998e-01
-2.987654553049461925e-01
-4.026297539892542132e-01
-4.043372854643322301e-01
-3.240832613353703540e-01
-2.178618721547669335e-01
-1.595288273178702976e-01
-1.770367620058158065e-01
-2.091178460753612967e-01
-1.760848673343712867e-01
-8.327025966941770108e-02
-1.010429158133488783e-02
-5.683955205609690815e-03
-3.676593264138480754e-02
-4.936601568082196745e-02
-4.430992266766165671e-02
-5.918926951727668945e-02
-9.723963776474832399e-02
-1.090272952867272632e-01
-4.626326047892549698e-02
7.162654655767505818e-02
1.518121387220886243e-01
1.134560974605708650e-01
-1.974956269943918888e-02
-1.413207522150213835e-01
-1.753411803995874874e-01
-1.399280368468215630e-01
-1.012352339291064940e-01
-9.780396189609644186e-02
-1.210204657820006802e-01
-1.444870532934021956e-01
-1.510208135399534746e-01
-1.391101655622459243e-01
-1.197301729682214710e-01
-1.063118746306405821e-01
-9.743198297768929095e-02
-7.399844412159774232e-02
-3.340876208683873916e-02
-2.789125072627896690e-02
-1.190050776315542402e-01
-2.384205264187056472e-01
-1.748860927380176400e-01
1.208477318401293965e-01
3.092786341579465970e-01
7.873418895450452759e-02
-3.048564277037280057e-01
-3.143200635820003197e-01
8.381109078205353780e-02
4.364291680643046512e-01
4.393695354234057326e-01
2.131815662798255406e-01
3.120709507364245738e-02
-3.154419893645534628e-03
-5.733591383543077194e-03
-9.175417306584468524e-02
-1.268654410834073876e-01
1.665716900735391692e-01
7.314349974939448051e-01
1.041409140757840079e+00
7.368280722456950205e-01
1.288258517622692390e-01
-2.454573962578823765e-01
-2.554901232683481349e-01
-1.171442961937092520e-01
-1.281151912625418457e-02
2.553180180160444929e-02
2.743314826801460105e-02
1.316447969440318402e-02
-1.813462152821368120e-02
-6.824510089926449918e-02
-1.102906077135208385e-01
-9.188848644487870865e-02
4.901056792384325678e-03
1.103242896186026056e-01
1.150930565732244809e-01
-9.009840964469960356e-03
-1.655181957843749330e-01
-2.342674235355257650e-01
-1.974405489340879671e-01
-1.383639324991376429e-01
-1.309983095890489835e-01
-1.662211938250195420e-01
-1.815792997682009469e-01
-1.369197342648731663e-01
-5.606751815440975256e-02
1.858593979940946495e-03
4.775376180397169004e-03
-2.627534281306209349e-02
-4.792230292052020169e-02
-5.240412954348810937e-02
-9.724448351313862149e-02
-2.315070684020462122e-01
-3.412674738131731278e-01
-1.695389612879970587e-01
3.162859077044942735e-01
6.807724049721067816e-01
4.983514014905035538e-01
-4.090768693013488444e-03
-2.164720936744579105e-01
3.772318431932553118e-02
3.767961302840024396e-01
4.442837804453282358e-01
2.731874567873188164e-01
1.177408257731982211e-01
1.344460036082650300e-01
2.591288436666935313e-01
3.260917243377388086e-01
2.574788040274395007e-01
1.131521003934612135e-01
-1.470629445191653367e-02
-8.482877653120625416e-02
-9.389941800817000472e-02
-6.291334253881919469e-02
-3.937767253422019831e-02
-5.309145081492348817e-02
-7.628665787793663389e-02
-6.068107117890482460e-02
3.335611212394840042e-03
7.646040820765905022e-02
1.056139626388878927e-01
7.396108028827041991e-02
2.290727136932906027e-02
1.733105082534504640e-02
8.313962414385654698e-02
1.733168733203118428e-01
2.008545613755017833e-01
1.236322416400257029e-01
-3.134196201887831656e-03
-7.213455230248673467e-02
-2.578904821120202653e-02
8.494493365547939323e-02
1.514712487996387191e-01
1.248132390265894037e-01
5.638910956789797146e-02
1.221636414728396319e-02
-6.314493858419837832e-03
-3.304686245025240110e-02
-6.962543267407471370e-02
-7.629172388087319956e-02
-1.832397306159398720e-02
7.998755548368313706e-02
1.203349049114336294e-01
5.055997056045265226e-03
-2.063270501486687003e-01
-2.377948426880314714e-01
1.179759411002351682e-01
5.788100073842230575e-01
5.509324151138490500e-01
-9.033742048764040189e-02
-7.719672181874024375e-01
-9.235572983645121692e-01
-5.348531359075354707e-01
4.010986103033964412e-03
3.149553919991102124e-01
3.003736494923578970e-01
1.288498325485133156e-01
-9.790658699020557409e-03
-6.611970989448577585e-02
-7.189508417859771794e-02
-5.154032536013415655e-02
-2.550536320244923758e-02
-2.370285811100687756e-02
-5.819764996857117179e-02
-1.120826599066071377e-01
-1.611014268762282209e-01
-1.842908379015010534e-01
-1.659156257593862593e-01
-1.133204297782799408e-01
-6.221626549224079650e-02
-4.188328075356006347e-02
-4.665306846634042354e-02
-6.080199503373010655e-02
-8.511933068294819105e-02
-1.075657967896167244e-01
-8.202899559278760411e-02
1.559224100991366685e-02
1.269631953983062778e-01
1.562612101512385887e-01
8.253610815873137219e-02
-1.566211268962664979e-02
-6.140106784661747419e-02
-5.805046829808405834e-02
-5.150445656717890508e-02
-6.105419032522600015e-02
-7.190376555125600755e-02
-7.011355396098337134e-02
-6.006433167419870933e-02
-5.158099050569711630e-02
-4.871789881724271354e-02
-5.581029578659609663e-02
-7.542811414892183763e-02
-8.998395249055540779e-02
-7.548960988455023779e-02
-6.304550182836894667e-02
-1.383610451011854092e-01
-2.861575013605639484e-01
-2.704148013234031200e-01
1.098362694682297608e-01
5.923799855274505255e-01
6.324067324046805938e-01
1.681697254792990093e-01
-2.156681390907113638e-01
-6.957780457413291486e-02
3.801675044332740172e-01
6.203101076493572341e-01
4.780344156282790302e-01
2.055701824158372437e-01
7.332993825371730834e-02
5.987729972180810822e-02
-1.659871668678868095e-02
-1.986853529002934049e-01
-3.457870889887408872e-01
-3.422933984227475857e-01
-2.372697982323750121e-01
-1.597282324327583269e-01
-1.633483720187097477e-01
-1.966845668367201705e-01
-1.956229311873979027e-01
-1.541436710514320074e-01
-1.044138467329573106e-01
-7.200047316586496993e-02
-6.419250338796750333e-02
-7.644193169388362186e-02
-1.015659874364231025e-01
-1.334218946243453108e-01
-1.485962303537909368e-01
-9.846829581444355162e-02
3.498560045084232045e-02
1.744969665601721065e-01
1.999631618295094060e-01
8.679285795785987578e-02
-6.392164709519697341e-02
-1.493351499178804942e-01
-1.610251122939123924e-01
-1.469153892730717392e-01
-1.396816878897053082e-01
-1.482956466744373147e-01
-1.764520028592846956e-01
-2.140605644445528755e-01
-2.209815158027869098e-01
-1.393613427056083487e-01
5.251961605670990574e-02
2.689731395544795456e-01
3.431774030090143923e-01
1.948009349483691144e-01
-8.616774718904271491e-02
-3.514013662476613287e-01
-4.506342281766884672e-01
-2.191809930271139129e-01
2.973463959491274289e-01
6.431660634638411977e-01
3.999733876130903143e-01
-1.689766492956351895e-01
-3.955024144645130635e-01
-8.793685994427946628e-02
3.243882195322360662e-01
4.371246544782463883e-01
2.667842323544386551e-01
5.749784320121941600e-02
-3.258789811015424392e-02
-1.980262081437707267e-02
2.654211278259014858e-03
-1.880488747360016186e-02
-6.897947805863159643e-02
-1.129860710904447563e-01
-1.350944517379889798e-01
-1.209600328851920259e-01
-4.768316473395096955e-02
6.368557570156890835e-02
1.291581743055985054e-01
1.029049128372484245e-01
4.572646577988680877e-02
2.122963759091417782e-02
1.222019143584679272e-03
-5.242348773481878693e-02
-1.026992550708283741e-01
-1.013829245765832943e-01
-4.927408534942981366e-02
4.957638503107379691e-02
1.926076280528368767e-01
3.099740387577680778e-01
3.018636388454559727e-01
1.758326372603319365e-01
5.597186205953307014e-02
3.184888287348237867e-02
6.710796689217909949e-02
7.509288207057925046e-02
3.080639608159177825e-02
-2.154520181091872794e-02
-3.961337751552011094e-02
-2.346588651327641967e-02
9.482007794053091271e-04
6.218429104551184694e-03
-2.003592815702758684e-02
-5.828210000038604177e-02
-7.047184843623902073e-02
-5.754017099349247044e-02
-8.518540251459430501e-02
-1.946260338182142224e-01
-2.619018236578932179e-01
-4.578840557762851177e-02
4.647915598360030653e-01
8.452092140963918254e-01
6.841867453550710687e-01
1.747099927000539399e-01
-1.160040280228941262e-01
1.787648624055325139e-02
2.882713108322600970e-01
4.165142062837481340e-01
4.206405026275539805e-01
4.072158132204083403e-01
3.414997155344767221e-01
1.414181864757632912e-01
-1.274940937584001233e-01
-2.893074285391986633e-01
-2.617094524011340240e-01
-1.325228368864770911e-01
-3.798760516946068228e-02
-3.220674584152001529e-02
-6.361667453503322411e-02
-2.789758883562915709e-02
9.815956073301369822e-02
1.189360497555511098e-01
-2.363163024068178353e-01
-8.720351755440080010e-01
-1.234615347213637637e+00
-9.508581194319039032e-01
-3.299920388043736663e-01
7.101600260514587259e-02
1.062562816964102985e-01
1.485546003768478673e-02
-2.441756082466156955e-03
4.084908066374035723e-02
4.767966929391147940e-02
-1.389600320318552622e-02
-9.950463777655919884e-02
-1.526477861106112499e-01
-1.531221742037194022e-01
-1.252028532615985235e-01
-1.050265381035668522e-01
-1.009159811369017140e-01
-9.797046801259713666e-02
-8.883262414787451711e-02
-7.755280666671386658e-02
-6.160922267431098720e-02
-2.741068561251162536e-02
3.300066462240385662e-02
1.007496173440329129e-01
1.226313561173734135e-01
3.834369036451565349e-02
-1.241427603192195722e-01
-1.619836825554013537e-01
1.259028527764532723e-01
5.509491358240673486e-01
6.037167569118960797e-01
1.575403534748033851e-01
-2.568181474263137587e-01
-1.672468394807296310e-01
2.416272983108541383e-01
4.936649583473101122e-01
4.293857099162473601e-01
2.343926589502304259e-01
9.195935086604604958e-02
9.259366851090621367e-03
-7.341351342084330434e-02
-1.471743340456824201e-01
-1.597434311480727676e-01
-1.104161060953578605e-01
-5.198426200524243479e-02
-3.027732400390851369e-02
-6.288437343810666935e-02
-1.313537789383210919e-01
-1.748767643685499584e-01
-1.513563895540907533e-01
-9.968439120709854384e-02
-7.999064092215811550e-02
-8.183769100941201691e-02
-5.334333094799815350e-02
7.561746120346288756e-03
4.572950178888524064e-02
2.959785877884124963e-02
4.379262062844915121e-03
3.996456641168118218e-02
1.331815820453632615e-01
1.944985000821868038e-01
1.468315823751291382e-01
1.600079517302870069e-02
-9.739453326423253010e-02
-1.223877961967306943e-01
-7.154076834393618967e-02
-5.840689359345140053e-04
5.048531963412827145e-02
6.592973743908565887e-02
4.128536827645581941e-02
-1.083530353943653636e-02
-6.468983749730082555e-02
-1.092775393752365570e-01
-1.525037197261577826e-01
-1.857777297553355189e-01
-1.738974830575180375e-01
-1.171659628425568977e-01
-1.023166584657416306e-01
-2.035364014658217202e-01
-2.895777498222249502e-01
-7.429966061245220355e-02
4.422537484056968671e-01
7.491210154170566682e-01
4.303524688355121475e-01
-1.522290484935314159e-01
-2.775603269512763593e-01
1.736264618327232334e-01
6.567568755336600228e-01
7.273795553308444184e-01
4.542545946596105444e-01
1.407946789225095197e-01
-3.838395810291107130e-02
-8.600049297020841144e-02
-6.695595101630162638e-02
-3.794365023431443829e-02
-3.252036497485347177e-02
-5.879448389291766497e-02
-1.028139640678547156e-01
-1.394299662073569812e-01
-1.495341587402809203e-01
-1.328900320968973425e-01
-1.010547261237265959e-01
-5.906471980068216804e-02
-4.085540472092920664e-03
5.331917527629874420e-02
7.597738382405319624e-02
2.695858939637172172e-02
-7.305216151585999795e-02
-1.294973637591774751e-01
-5.726031893020382818e-02
1.196530107775470586e-01
2.820891277601980662e-01
3.210734702415399267e-01
2.223279565394687685e-01
6.715654587337156756e-02
-4.337347946457839609e-02
-6.720527461544573145e-02
-3.448599793772020444e-02
-2.385635341389217776e-03
-5.512324740005554100e-04
-1.870691232877223775e-02
-4.176191018844090802e-02
-6.934484323884593238e-02
-9.405211237050141448e-02
-9.846387592484164009e-02
-9.016360852585261765e-02
-1.005565324754857937e-01
-1.285445519044274842e-01
-1.432102345722662540e-01
-1.657828241935740132e-01
-2.299701632680974106e-01
-2.147922197622024187e-01
5.580504874284634986e-02
4.225980347816357119e-01
4.364095154672685273e-01
1.306129554496382461e-02
-3.515587915581471767e-01
-2.546927153326223325e-01
1.258335469766312109e-01
3.866900766660477107e-01
3.831734862425164034e-01
2.321296391391868830e-01
8.088106073601761259e-02
-1.005428496949395054e-02
-5.655071933843307252e-02
-9.757891505764823559e-02
-1.462671031207827543e-01
-1.816222389512165136e-01
-1.782643461418466357e-01
-1.348331278132396394e-01
-7.479183440814787809e-02
-2.649152051946274122e-02
-1.120264315818103248e-02
-4.098512718423238249e-02
-1.011529326551658808e-01
-1.425294318610322020e-01
-1.256078648799199837e-01
-6.932330365788400006e-02
-2.718071812634948597e-02
-1.788153183831495130e-02
-6.920501323493730844e-03
4.184477936792832531e-02
1.168635865100502852e-01
1.607827900964753642e-01
1.185771620698177625e-01
-6.977870243929720773e-05
-1.148536920471092682e-01
-1.555958692053260317e-01
-1.299285037573005841e-01
-8.787430172749101376e-02
-5.266548169945007435e-02
-2.077283079479822284e-02
-3.550256283430339860e-04
-2.080522840060834711e-03
-6.344577230573930290e-03
1.038973176953929267e-02
2.447128854922626245e-02
-7.365689644873947561e-03
-7.024944431776418419e-02
-9.692367369985555037e-02
-7.410528629579792026e-02
-8.464101951010977176e-02
-1.584799438204206601e-01
-1.223500355118088828e-01
2.038454982790992853e-01
6.209339845720990292e-01
6.658774819928473532e-01
2.547250134818070388e-01
-1.360322235590302187e-01
-9.781240734150768723e-02
2.362081527038236428e-01
4.792847127401896334e-01
4.654343038990190196e-01
3.054583351811135383e-01
1.507360200638560022e-01
4.519808339979725087e-02
-3.389257653599170306e-02
-9.316036849520203944e-02
-1.128696500889933285e-01
-8.342871687200108244e-02
-2.305894585918531747e-02
3.424861218573672234e-02
5.797921551135969825e-02
3.679274537380182453e-02
-1.715729794233080557e-02
-8.093247975823866791e-02
-1.347240670727816725e-01
-1.609674799960855440e-01
-1.448367554723926642e-01
-9.679057122893157394e-02
-6.196967045486128506e-02
-7.241291834452499854e-02
-9.734403636365163148e-02
-7.489512113328918030e-02
5.972650666122271412e-03
7.622526985004933475e-02
5.607635431293101630e-02
-4.901471841379407418e-02
-1.492238931655723577e-01
-1.726231486692953176e-01
-1.365548954944822424e-01
-1.077102425701236821e-01
-1.156719543088729762e-01
-1.291695754864110868e-01
-1.121984755875337497e-01
-7.419255426547768928e-02
-5.539893960469425421e-02
-8.272251997481556984e-02
-1.462803266046421302e-01
-2.000715619292353920e-01
-1.768005593000074593e-01
-4.801409537370938257e-02
6.378368774592166335e-02
-9.643551858265547727e-02
-5.713533266400993016e-01
-8.860744522823145175e-01
-5.103194181319313794e-01
2.535891043582890747e-01
4.330679249697066413e-01
-2.943753904262106369e-01
-1.028876688487736502e+00
-7.807687643441706404e-01
1.877531459374669198e-01
6.954783303960772045e-01
2.368151977221570614e-01
-5.283829750734581054e-01
-9.042196017732320179e-01
-9.096667490216621133e-01
-9.125105613161056395e-01
-1.050442172436182764e+00
-9.856262750852587962e-01
-3.148133809862003196e-01
7.299050334121894856e-01
1.434281688009138023e+00
1.462604005030077925e+00
1.113656425286457363e+00
8.207673659498956331e-01
7.747969525877727026e-01
9.261595288569776097e-01
1.103012140693511611e+00
1.148313554344591036e+00
9.987687041798321008e-01
6.726705006256453734e-01
2.715355187584572727e-01
-3.705301918483481366e-02
-1.454121200498863231e-01
-1.148274840712572853e-01
-1.253051957259844473e-01
-3.184374803807736298e-01
-6.474178312822066461e-01
-8.774285833092662079e-01
-8.382219644099360156e-01
-6.532414668004988823e-01
-5.664350935587618707e-01
-6.098285225474551208e-01
-6.246384431773525092e-01
-5.455708042792412060e-01
-4.795184384503572983e-01
-4.839756003163357967e-01
-4.329634138839080215e-01
-2.385558945682423326e-01
-4.401950741764996955e-02
-3.476321425216750798e-04
-6.519124693945441140e-02
-1.987018353157022355e-01
-4.506461511761387650e-01
-6.876898281433057036e-01
-5.659419987008948993e-01
-1.691885046815503474e-02
4.767904326481314237e-01
4.419211646587616893e-01
9.451003707634930695e-02
2.990339138311428474e-02
3.896145770075674641e-01
7.854596069390283875e-01
9.029785345283034559e-01
7.903441435081214328e-01
6.293260035355493498e-01
5.022348643459441098e-01
4.026554155391534051e-01
3.296570602199149769e-01
3.077931309801804072e-01
3.480503272161882267e-01
4.356969387601798971e-01
5.467080880651566943e-01
6.246347596982203543e-01
5.765201488764303273e-01
3.839951833117772884e-01
1.695521429729854590e-01
4.958423410813442983e-02
-7.561817823481191414e-03
-8.736774841549738158e-02
-1.839478551584159960e-01
-2.261078735168267073e-01
-1.741343906305562739e-01
-4.412382853795938226e-02
1.101857867204060204e-01
2.161831683731984810e-01
2.151286333806914086e-01
9.968280219791321450e-02
-7.229479429839744120e-02
-2.092883830498148967e-01
-2.531131041524706804e-01
-2.197967294854347720e-01
-1.646962661336504596e-01
-1.170440776159386020e-01
-8.135723775152399473e-02
-9.051878714812219839e-02
-1.829344923934778377e-01
-3.168917041900657927e-01
-3.899603727056657476e-01
-3.590122618022140166e-01
-2.660913818705837874e-01
-1.423122867077150355e-01
2.008942382687753728e-02
1.654695847213250026e-01
1.537981873313291614e-01
-2.911390259060805258e-02
-1.162152540834194975e-01
1.269078809666850938e-01
4.366132992433732207e-01
3.131090995627752727e-01
-1.816700590438214691e-01
-4.230266394344542324e-01
-1.183087809071959595e-01
3.368343879832380594e-01
4.689764560937032534e-01
2.611251658806091891e-01
1.155884533933586311e-02
-6.972824345312804428e-02
-2.531275355882588521e-02
-4.976658807826137704e-03
-5.539453443525264864e-02
-1.033790755516381527e-01
-9.815932521297141000e-02
-6.862547210263891806e-02
-5.206931664051544367e-02
-4.838845824635477910e-02
-4.079985419201590663e-02
-2.293157018275196468e-02
-7.927405619921626401e-03
-1.318179464838928686e-02
-3.052818667198264890e-02
-2.414456465807227406e-02
2.562433805882058727e-02
8.407498328280900435e-02
9.095143551665686721e-02
3.238748196243040195e-02
-2.775664305005695609e-02
-5.390807922747001268e-03
9.745797084124335763e-02
1.608784048459823146e-01
6.634383402161898868e-02
-1.437686555278646638e-01
-2.751153388248100407e-01
-1.947125223829739016e-01
6.258875325046459048e-03
1.255531478883762375e-01
8.334571928045578226e-02
-2.535935648239804815e-02
-7.882045149902454362e-02
-6.058369466252171848e-02
-4.102781810254131634e-02
-6.904054701532957861e-02
-1.082251567520556845e-01
-8.253724795440001150e-02
1.767949433919150520e-02
8.048034614809244924e-02
-3.149168664238870957e-02
-2.534670684989294154e-01
-2.419542914679805867e-01
2.427474908705269385e-01
8.517807486315748244e-01
9.261706412811719913e-01
3.851879701577032300e-01
-1.289724578759384177e-01
-1.268299981964133016e-01
2.016462581271204757e-01
4.259068795355500092e-01
3.967255413813121079e-01
2.305294198397525030e-01
6.371811388484356631e-02
-4.934533599385215741e-02
-1.034357347863656684e-01
-1.093742971526644736e-01
-8.976435670488311369e-02
-7.129925094075534320e-02
-7.287650111210600135e-02
-1.032112232141176034e-01
-1.624098163463139066e-01
-2.367658252311687916e-01
-2.957164958763655038e-01
-3.045170477828116340e-01
-2.422334763042440775e-01
-1.260294804825136949e-01
-3.538532884620783359e-02
-6.489163964103089599e-02
-2.093364456313726585e-01
-3.420022152550599159e-01
-3.471156146303911449e-01
-2.274729721880286437e-01
-6.257675993823871852e-02
6.602753363975832901e-02
9.830513951698487130e-02
3.429665421624381733e-02
-4.662188220242686337e-02
-6.681491911395232020e-02
-2.861767186300755161e-02
2.025242631054535031e-02
4.913012010948614172e-02
3.585091079988832197e-02
-4.893466182895313266e-02
-1.856476443742269833e-01
-2.753196533191392126e-01
-2.376399104515713734e-01
-1.046058984274617076e-01
2.574159771662087870e-02
6.553602552197865250e-02
-4.192597743027728918e-02
-2.744903011887446787e-01
-4.923900353911283556e-01
-5.126450782312935717e-01
-2.267162180368136881e-01
2.673036238712711010e-01
5.852322103076913473e-01
3.830047397824889455e-01
-1.168171462776608355e-01
-3.076742126209635053e-01
1.509285430789152754e-02
4.512172634394198689e-01
5.765958391860074306e-01
3.747868436624920419e-01
9.189376575480182052e-02
-7.989491979829524415e-02
-1.108030852213579137e-01
-6.035032867405272505e-02
3.946661201946666600e-03
3.514205845454610594e-02
1.501510022791206246e-02
-4.185918111082242987e-02
-9.959117280887798407e-02
-1.289173553412577833e-01
-1.287758381487294213e-01
-1.178822580669305620e-01
-1.040275645508573210e-01
-7.273255431184852404e-02
-2.077012435078695596e-02
1.362693236495398502e-02
-1.440157589382629749e-02
-9.256517291917171208e-02
-1.506473206822176447e-01
-1.351865760478079825e-01
-6.376986965330219692e-02
9.837640472327829552e-03
5.140822417481625412e-02
4.856800941794132964e-02
2.660564002861957877e-03
-6.079844030925718457e-02
-1.065430943648316559e-01
-1.216914724570183903e-01
-1.189393863838553445e-01
-1.160351108722160879e-01
-1.202260724880316600e-01
-1.270275890852854694e-01
-1.314941644713355784e-01
-1.369464345255613780e-01
-1.472058635456447162e-01
-1.567531924065561910e-01
-1.531453385121322452e-01
-1.250413111731194793e-01
-7.872043159105056309e-02
-5.800619167836395390e-02
-1.181091420750667031e-01
-2.251955567805439540e-01
-1.981503123837960179e-01
1.065631120802663229e-01
4.969031590603132931e-01
5.739307833261323433e-01
2.824363555435386308e-01
1.124504075285935600e-02
2.721873330285423664e-02
1.823747988414176624e-01
2.538132502188003570e-01
2.163947634356004623e-01
1.309843507017810493e-01
2.626339796857288245e-02
-6.311677584242926520e-02
-8.377402568976111130e-02
-2.834120905803254320e-02
4.027797170652307884e-02
5.436124138202140521e-02
1.034958082085230338e-02
-4.505810603726955604e-02
-7.654267812921093650e-02
-8.648640490230183331e-02
-9.063913880455562455e-02
-8.608177219663974700e-02
-5.785143318698936221e-02
-1.545855781155534153e-02
6.227114963419790733e-03
-6.514831727297764989e-03
-2.647028498029219482e-02
-2.323464377198516603e-02
4.685715718704308759e-03
4.523568763919501301e-02
9.398165539987157757e-02
1.460474113474534985e-01
1.898674540015880818e-01
2.191394587488592338e-01
2.289863384070372210e-01
2.133095862034823376e-01
1.996441359940300253e-01
