-1.188963806394199990e-01
-3.572339965747317603e-01
-5.341374649786931883e-01
-6.564211521069719391e-01
-6.316045882582576043e-01
-4.104742325984790385e-01
-1.091768583162937012e-01
9.877238405469034033e-02
1.368921952287099342e-01
2.640668277217655957e-02
-1.763515784806002906e-01
-3.897916642138923304e-01
-5.165686305922583266e-01
-5.131725447090654812e-01
-4.459035349888714750e-01
-3.952621381203936246e-01
-2.401971497428441460e-01
3.306325926359638401e-01
1.335655061652787134e+00
2.111890465025273222e+00
1.873618724121154822e+00
7.234707699732148001e-01
-3.643955584326377117e-01
-6.275330024708293264e-01
-1.663077045858041836e-01
4.554117701712873112e-01
8.395096689850911620e-01
9.176606403684094415e-01
7.698580980848012123e-01
4.697716223915378575e-01
8.939980245826413541e-02
-2.659749580087201748e-01
-5.163454052546375683e-01
-6.624634821073589475e-01
-7.188898608413576419e-01
-6.409167341528223538e-01
-3.948116633663558694e-01
-7.612594373255199276e-02
1.260807337175308684e-01
1.066941536617089098e-01
-7.564471036049347230e-02
-3.107882254311794545e-01
-5.412220846078154013e-01
-7.172792834102080795e-01
-7.323055233122233165e-01
-4.925600447805919546e-01
-5.704076240845436935e-02
3.538551192383186939e-01
5.285104766688307754e-01
4.228376600101853011e-01
1.460007350469837706e-01
-1.659912367448752035e-01
-4.390906693499216917e-01
-6.520390608183657122e-01
-7.780563283324891666e-01
-7.656866479019575067e-01
-5.903558304739539020e-01
-3.106477829644455624e-01
-5.160161177574081048e-02
7.189019574074084762e-02
1.913526852475463252e-02
-1.646071057932868009e-01
-3.909340908564364891e-01
-6.038305890945430132e-01
-8.047753456292396912e-01
-9.456930401370486905e-01
-7.904383217269863593e-01
-4.161380710649666137e-02
1.183331624632763424e+00
2.119619393236375160e+00
2.012876688730107944e+00
1.026763713191366723e+00
8.953270207129657154e-02
-1.407136667213860215e-01
2.095016632830093706e-01
6.425581474603300203e-01
8.412712645915154663e-01
8.085230540195427196e-01
7.067755949399764370e-01
6.549476678791090745e-01
6.171056021515047840e-01
4.536302960310962251e-01
1.034355050657684988e-01
-3.121474103431971514e-01
-6.009548322900623019e-01
-6.646565996648726715e-01
-5.306958873223700524e-01
-2.966279843015340867e-01
-7.429681962801729100e-02
6.867292461416432681e-02
1.310717052513246106e-01
1.149501000653609106e-01
-2.144336419024354262e-02
-2.793450808202302404e-01
-5.161685623175281679e-01
-5.298695368709580578e-01
-2.751916777416699156e-01
7.530117572177850993e-02
3.050619909168377775e-01
3.317029394670405473e-01
2.076839286198547962e-01
5.998589918738691379e-03
-2.407405910637429036e-01
-4.971534062323238468e-01
-6.925762639650964170e-01
-7.679222811380612690e-01
-7.136524767549375925e-01
-5.443395830379285094e-01
-2.906238017506895255e-01
-3.665800799776117169e-02
1.018152650839143913e-01
8.078339016619207058e-02
-3.685811424847655615e-02
-1.900277346894218289e-01
-4.068770498946772673e-01
-6.718075896007699166e-01
-6.928241772264004394e-01
-3.485998269182708637e-02
1.233377840589354735e+00
2.217945515904060194e+00
2.046597849844419503e+00
9.638701399288310823e-01
3.509555929235394500e-02
-1.241206206346242014e-01
1.979218290819158288e-01
4.535635559149073237e-01
4.428375847489776085e-01
3.120986373222199850e-01
2.566025852997142476e-01
3.108193943934298153e-01
3.496272562052281097e-01
2.357015404367562295e-01
-4.140130166832887981e-02
-3.647248833043106875e-01
-6.125742179338478088e-01
-7.481553098945317171e-01
-7.829829606306776268e-01
-7.152977573328818117e-01
-5.498178233753812094e-01
-3.350614992502430889e-01
-1.431394032147896289e-01
-4.024435479204470367e-02
-7.632109646970522410e-02
-2.470209069968505311e-01
-4.525959868196315350e-01
-5.467878022788710268e-01
-4.621182273394301987e-01
-2.712737570570209478e-01
-1.050313496813151670e-01
-2.505429752622834877e-02
-2.713790828830039970e-03
-7.672813426932125619e-03
-6.845114143514945126e-02
-2.298365910333305118e-01
-4.811801513225256177e-01
-7.393665141789574902e-01
-8.853832935811916105e-01
-8.287655617040212697e-01
-5.784863589687853080e-01
-2.621369227843532990e-01
-4.163268699619089575e-02
1.249056054910107141e-02
-4.877474330342013165e-02
-1.671777835422457725e-01
-3.859712395871911506e-01
-7.046376876209498041e-01
-7.907293302441870120e-01
-1.543352790449423473e-01
1.102177953409878564e+00
2.037277699140602749e+00
1.874017683457710248e+00
9.975911802760962788e-01
4.213192383082036696e-01
5.338960668091884409e-01
8.873539813913782215e-01
9.663744922744049726e-01
7.020408449938920770e-01
3.361770713765423468e-01
9.733497491515832878e-02
4.298465237978271042e-02
9.493710537199040456e-02
1.542473133325523438e-01
1.591718381036651420e-01
7.129225686621801228e-02
-1.233116531948961758e-01
-3.914072564820567091e-01
-6.570105515136267504e-01
-8.234588537342673042e-01
-8.060833138112478702e-01
-5.938048256681381920e-01
-2.855612098225395745e-01
-2.586730772001918227e-02
1.090342046335856102e-01
1.462134691020572641e-01
1.404382946934133736e-01
9.585150143857540384e-02
-1.107552620303086516e-02
-1.578451627285153147e-01
-2.666775098192923354e-01
-2.640011679422672453e-01
-1.379429904823561981e-01
4.618364120103102960e-02
1.793856174715652563e-01
1.745189486533017253e-01
1.887549510230372360e-02
-2.244270335864115840e-01
-4.574870500614730551e-01
-5.908976491063597791e-01
-5.725806673235094291e-01
-4.086924901309242908e-01
-1.572536761014358131e-01
1.181686027572907693e-01
3.672523821062038119e-01
4.927226290074367410e-01
3.478146633821730394e-01
-4.781336379594826325e-02
-2.953429692742963741e-01
1.062636925085121836e-01
1.069030085685897857e+00
1.760190306612843258e+00
1.503342162746027943e+00
6.304016597319919146e-01
4.472322783380197619e-02
1.623513795817213556e-01
6.441484089927366208e-01
9.437928482085760074e-01
8.072791977832406429e-01
3.593820914948118173e-01
-8.773013325212468405e-02
-2.990671955383351621e-01
-2.549665694235051516e-01
-8.741809365554464861e-02
6.014563549352441862e-02
1.047642918322888583e-01
1.927988283723197638e-02
-1.822777689185580419e-01
-4.468261910519660263e-01
-6.973151864260032085e-01
-8.605161885530567822e-01
-8.835808251356427334e-01
-7.494222789573430354e-01
-5.031528062529782019e-01
-2.470181980796261612e-01
-7.382254850098951549e-02
-4.804770362550262255e-03
-1.052736164385433340e-02
-7.349965966315107069e-02
-1.954877023031485195e-01
-3.549039852835604858e-01
-4.881038571805189075e-01
-5.166151297889455263e-01
-4.038487366382566557e-01
-2.025364904568270619e-01
-3.209293257972995611e-02
4.894195643716429608e-03
-1.140646062108557207e-01
-3.321956941196749225e-01
-5.641196643263889365e-01
-7.451322248616600863e-01
-8.272559468094258239e-01
-7.559746229504611392e-01
-5.078739094660028597e-01
-1.685569533427304367e-01
6.197285611758667628e-02
9.162129292907463668e-03
-2.498280798141781223e-01
-3.188729784068130013e-01
1.527178078407101236e-01
9.243626832743585542e-01
1.273592678508435938e+00
8.913526477725913777e-01
3.324145932386904922e-01
3.005001270389910384e-01
8.277794981982518063e-01
1.395194131360111056e+00
1.570454430465924478e+00
1.318365969703650276e+00
8.508667387256948489e-01
3.778872558227226452e-01
1.040400246072252857e-02
-2.089663734562732245e-01
-2.612401172494205337e-01
-1.532072626008069705e-01
4.777429895739099958e-02
2.188675983799305558e-01
2.515777245705080323e-01
1.156276751071943776e-01
-1.370671058176366752e-01
-4.094912433017500186e-01
-6.041521321075218331e-01
-6.560093400651005879e-01
-5.447882602444545919e-01
-2.952153626849826629e-01
2.468539035491982420e-02
3.188329212032590676e-01
4.943115278705288440e-01
4.861916768071844475e-01
2.788534572254971478e-01
-6.396266876537314017e-02
-4.031321669724303169e-01
-5.976267667765428060e-01
-5.868443093836837043e-01
-4.052529768124652487e-01
-1.448259480025661239e-01
8.380008957765233690e-02
1.857583828048252339e-01
1.169116059033666333e-01
-9.887144504410760870e-02
-3.819233036697556871e-01
-6.242542013442105020e-01
-7.151457117018276133e-01
-5.803827703186603681e-01
-2.535445130649274237e-01
8.241880523388653290e-02
2.057825934365682674e-01
1.258275095407086208e-01
2.213409613135882137e-01
8.477021571806524491e-01
1.669439198130989732e+00
1.787231982902154348e+00
8.667393408628089047e-01
-2.963978372895431090e-01
-7.001674374102473397e-01
-1.929356685164365648e-01
6.301444403560327867e-01
1.157083276400427962e+00
1.168545368935133721e+00
7.904016795392051487e-01
2.702564324618016434e-01
-2.021652436231128891e-01
-5.350083396910948474e-01
-6.785021646134338225e-01
-6.059949516743090570e-01
-3.715628486214469506e-01
-1.370041336872334092e-01
-7.637416923092367471e-02
-2.206052029992911501e-01
-4.317542187272278009e-01
-5.786240197276024677e-01
-6.773543682863644166e-01
-7.927006666412459435e-01
-8.818657593433509856e-01
-8.171041575000729251e-01
-5.295673317601788943e-01
-9.662642469983712123e-02
3.047978788024072183e-01
5.112431123802223532e-01
4.393326073923072284e-01
1.081926877906317086e-01
-3.424358525450139634e-01
-6.997774854739111650e-01
-8.171828154882336825e-01
-7.154475763352635687e-01
-5.243557190662498924e-01
-3.380318874139705554e-01
-1.713157502075637051e-01
-4.768350273974916731e-02
-4.536473183058417624e-02
-2.128276043301920994e-01
-4.870569589770807895e-01
-7.303036535609904734e-01
-8.290445744155140462e-01
-7.695189136358659976e-01
-6.534782520082267343e-01
-5.981413007817734107e-01
-5.252719518192717763e-01
-1.095614670598066276e-01
7.990956816992400569e-01
1.675270828749464869e+00
1.692534626675642695e+00
7.867543806106482851e-01
-1.415567689122670392e-01
-2.761565278080184149e-01
3.214530082144562706e-01
1.045680003328454344e+00
1.427734346506143837e+00
1.379640020918742493e+00
1.058896692624194280e+00
6.551319697952426857e-01
2.626014083712966407e-01
-9.949873372597903276e-02
-3.939290872082122363e-01
-5.487368959070794139e-01
-5.253203341626250245e-01
-3.581952894101885776e-01
-1.314396866622082050e-01
5.858945111034458142e-02
1.314133223374786552e-01
5.137275572605244645e-02
-1.532238297166014784e-01
-4.062808319496795662e-01
-6.217962727143576673e-01
-7.200789398845927058e-01
-6.292890297182242021e-01
-3.249859044519911033e-01
1.114335980792900971e-01
5.125151622667659668e-01
7.248062542632101035e-01
6.720719108914506856e-01
3.620051640064441689e-01
-8.991823872187082456e-02
-4.799754888895683691e-01
-6.526615384731645486e-01
-6.085753259216821753e-01
-4.436600760350378758e-01
-2.306763223837970389e-01
-9.634452407492870990e-03
1.483546803806878589e-01
1.547645451159005980e-01
-8.688280807235826408e-04
-2.145629032001233338e-01
-3.529178974627149024e-01
-3.802984785411370194e-01
-3.865672038409443956e-01
-4.094393927349718187e-01
-1.879307060964929277e-01
7.028389054030331762e-01
2.161760528099549994e+00
3.166448351409245632e+00
2.664612373957180314e+00
9.003663427765558058e-01
-7.464165650958232145e-01
-1.258547098151133303e+00
-7.804948580412978121e-01
-3.340845677605491781e-02
4.876341993757595250e-01
6.878049303281167370e-01
6.528364751960278323e-01
4.758143085118924920e-01
2.200865291879454400e-01
-7.427598397563545118e-02
-3.767965311572077924e-01
-6.432123813474289742e-01
-8.099367887189292681e-01
-8.235417094070693889e-01
-6.782205801341035789e-01
-4.317528383229695121e-01
-1.916719755216364507e-01
-6.419514074250889935e-02
-8.880172185403906182e-02
-2.369325284881711735e-01
-4.819973639008423016e-01
-7.950914781998192904e-01
-1.026099786163495953e+00
-9.300168016776210189e-01
-4.517224207772063682e-01
1.304767902766161558e-01
4.764945669131558925e-01
4.872193634336589030e-01
2.622373430855108323e-01
-8.294462714403869064e-02
-4.551459865013165462e-01
-7.557507518789293721e-01
-9.098611834070927662e-01
-8.932649350234405095e-01
-7.233091120360676252e-01
-4.505704918436431172e-01
-1.572828788452982074e-01
5.028260658923149051e-02
8.137773226677230687e-02
-6.963930591577074947e-02
-3.041751348049174797e-01
-5.064715753884163618e-01
-6.533904711441713697e-01
-7.864294547919029599e-01
-8.124612837249869379e-01
-4.038397752557494336e-01
6.502363884534078098e-01
1.909173356331363314e+00
2.460032772237950471e+00
1.905002934241830648e+00
8.636737965305743003e-01
2.372136007195749519e-01
2.781631196296687758e-01
5.982022240623454667e-01
8.016092534483324483e-01
8.352850414688486325e-01
8.137277990038227493e-01
7.630049110829350001e-01
6.304453467087525187e-01
4.056004272334889915e-01
1.253996988274636848e-01
-1.747125647508278590e-01
-4.501699730358306173e-01
-6.222172278299797910e-01
-6.194101354413155125e-01
-4.533161907852940598e-01
-2.226663247078103369e-01
-3.078746394676763060e-02
7.499522759252150172e-02
7.728096663461572757e-02
-4.410849634901251731e-02
-2.683451385244268739e-01
-4.800177042930819926e-01
-5.222147943931647607e-01
-3.317728757257509264e-01
-7.483353273275920869e-03
2.724628210258893679e-01
3.937739206531578051e-01
3.573701301791718521e-01
2.111395994326381031e-01
-1.612980808167424965e-02
-2.807561253646170818e-01
-4.747924935287352044e-01
-5.027032276038505554e-01
-3.979783568597721199e-01
-2.753349187897773942e-01
-1.785506766729766381e-01
-5.638468022815892877e-02
1.105168004657256370e-01
2.202835546307713166e-01
1.449855732496298788e-01
-5.843175339359044096e-02
-1.037856052000595830e-01
2.068351806753910282e-01
6.213809432727317450e-01
6.425745180606705631e-01
1.838566460773350397e-01
-2.578425693363984861e-01
-2.039120043025166307e-01
2.562206886038534415e-01
6.159220132915912416e-01
5.496319870009143127e-01
2.778818770350933720e-01
2.680162846439677615e-01
5.935606393742298703e-01
8.160692009806865821e-01
6.145098194158300497e-01
2.226025371801481634e-01
3.179450361543208897e-02
7.426265391413944261e-02
1.070127778300588306e-01
-3.834264143116149215e-02
-3.395382973971523555e-01
-6.644847679446357347e-01
-8.604248852155887972e-01
-8.301512610289327743e-01
-6.004951003329972448e-01
-3.022754103587605434e-01
-5.796639887171280842e-02
7.350346846333455364e-02
5.030266121047542033e-02
-1.470135543385347743e-01
-4.272220953231964380e-01
-6.024295251109622606e-01
-5.552139491698704354e-01
-3.526683143152313238e-01
-1.629552989395325058e-01
-8.311454094089418265e-02
-7.082415055778798485e-02
-4.288675392142919651e-02
-1.332679688724183395e-02
-8.354615373542227663e-02
-2.953089497264154151e-01
-5.642793547499158624e-01
-7.688446575290178719e-01
-8.346626401768393322e-01
-7.416628278441519395e-01
-5.246461442393142161e-01
-2.630413830603975378e-01
-2.995610265870820438e-02
1.270060257356080968e-01
1.417544605876553399e-01
-7.752294444996937761e-02
-5.365870371052248178e-01
-9.770037290795828833e-01
-8.759037754980598667e-01
9.201545523805346183e-02
1.459116209999930192e+00
2.200938929632560548e+00
1.844074413110953437e+00
9.878129234073768083e-01
5.056701798065347253e-01
6.292476153654382731e-01
9.833071036824367894e-01
1.133912221707612078e+00
9.288422581218919172e-01
5.232984972121712541e-01
2.034119679712852735e-01
1.335134948663860288e-01
2.377732311778413266e-01
3.159296140419490251e-01
2.383755276418982050e-01
1.392869424850323203e-02
-2.764092585997237617e-01
-5.467282527006345205e-01
-7.231062479904610818e-01
-7.521751688746605158e-01
-6.219901934376430575e-01
-3.796271743759514483e-01
-1.243416585537659297e-01
3.619757380885178788e-02
5.138918967081778505e-02
-3.811480936724247898e-02
-1.438844279222769029e-01
-2.111539282456469657e-01
-2.451663682190723115e-01
-2.652578511278729234e-01
-2.607383378166863164e-01
-2.058398893568924026e-01
-1.040658877172870589e-01
4.487038764875597371e-03
7.347099306376929373e-02
6.111743146143202438e-02
-7.987730016734878591e-02
-3.719903354574726206e-01
-7.368427602580386315e-01
-9.667896267077481509e-01
-8.536063733725893776e-01
-4.198150368964915780e-01
4.020422441550074166e-02
2.630451815405355220e-01
3.339611041339245467e-01
5.705992359265211755e-01
1.020537717659735666e+00
1.236443806810626933e+00
8.082704932670370379e-01
-4.722006082639534918e-03
-5.136917170104637886e-01
-3.750080329524411171e-01
1.599319793617703378e-01
6.493113840354617361e-01
8.598841248103623602e-01
8.014869686924420700e-01
5.657177035143623467e-01
2.332850490995001524e-01
-1.098180507672813916e-01
-3.662218365550412025e-01
-4.710902023248140780e-01
-4.231348628319372973e-01
-2.766634180563513068e-01
-1.169407661296662931e-01
-2.685521012801874233e-02
-5.491896441092886799e-02
-2.051638308619711248e-01
-4.430150473283800405e-01
-6.992080447167408064e-01
-8.808970019184014788e-01
-9.074392769870672781e-01
-7.585932352392077416e-01
-4.955405227529248724e-01
-2.240237719143598205e-01
-2.084385372265746758e-02
1.040584566522458065e-01
1.671917210531660425e-01
1.513973411795993818e-01
1.798002925361192467e-02
-2.200630293472565779e-01
-4.644232616136532710e-01
-5.862182607826593728e-01
-5.176145674761410964e-01
-3.037794952908197676e-01
-8.198784529807566501e-02
9.465642210148058483e-04
-1.089822555638511742e-01
-3.323463620536670216e-01
-5.302934012339797221e-01
-6.177396188882952055e-01
-5.985804786433445157e-01
-5.131062372456123288e-01
-3.748185472413820829e-01
-1.720514146129498712e-01
5.852900074734222746e-02
1.808465787786687762e-01
5.912700125367176957e-02
-2.009185969757122936e-01
-1.714857833360469708e-01
4.805395678076346266e-01
1.416384636040241451e+00
1.810997134702054590e+00
1.334586430207138186e+00
6.018021014344916431e-01
4.008920567009307545e-01
8.130341893052422941e-01
1.311810789225806850e+00
1.443757886397798007e+00
1.185789154475642260e+00
7.698594402317848751e-01
3.782538866013662737e-01
7.772128385137593021e-02
-7.638018680687271023e-02
-3.717624627931411657e-02
1.324914585302327807e-01
2.602077696631290293e-01
2.045973095445204615e-01
-2.780752117931924519e-02
-3.146404337323379097e-01
-5.431270164515991095e-01
-6.738388346589783140e-01
-6.934587234244357079e-01
-5.782368406451396936e-01
-3.458515307758362467e-01
-8.155693877271140424e-02
1.422232527529564416e-01
3.145250071520030999e-01
4.065274218695165143e-01
3.279576780468412278e-01
4.129973365356443687e-02
-3.364451265172049843e-01
-6.091954853504776279e-01
-6.530558127458561124e-01
-4.825276823964087525e-01
-2.136657977870453085e-01
1.557715735235788018e-02
1.132581789691692736e-01
5.943554363538780527e-02
-1.049329775727319003e-01
-3.035067885335572813e-01
-4.619789318466409611e-01
-5.525545221129394280e-01
-5.824924205042213421e-01
-4.937391799050587227e-01
-1.255508071396330139e-01
5.635575063642895843e-01
1.199058596591258574e+00
1.166029602176685831e+00
2.989306442350995185e-01
-7.756337105881553340e-01
-1.216472230285826628e+00
-7.905114984666157252e-01
2.189786372760973987e-02
6.293665777372822179e-01
8.599041173573702679e-01
9.064790188554905370e-01
9.277375074637221886e-01
8.299807948151924908e-01
4.377701537002275378e-01
-1.718098832701947798e-01
-6.323850763396042796e-01
-6.901926596016193516e-01
-4.841461231450472358e-01
-2.828994904582033953e-01
-1.520941473268059840e-01
-2.645480000652663047e-02
8.472320413337461331e-02
1.025416369776879361e-01
-1.508840542075119175e-03
-1.749294440067833412e-01
-3.538381366495478852e-01
-5.097549474730790342e-01
-6.132254093977901332e-01
-5.955427793327945363e-01
-3.927110287532731281e-01
-2.887092014820902275e-02
3.660335884677989315e-01
6.308398750927731724e-01
6.546950743751596136e-01
4.111129340844252855e-01
-1.455643994503180022e-02
-4.281243195007627955e-01
-6.381503396261721806e-01
-6.006689417246754426e-01
-4.308704235865942200e-01
-2.731548689920590967e-01
-1.842105767917701920e-01
-1.422820686645758503e-01
-1.379323305460400384e-01
-2.129255191225010724e-01
-3.948910129148555659e-01
-6.244847085113273133e-01
-7.774606789036647703e-01
-7.601571101896568150e-01
-5.877297695387668774e-01
-3.855012736522550609e-01
-2.816595821199481819e-01
-2.024363424570311543e-01
1.896660562387247895e-01
1.087308634902879767e+00
2.012067834107908570e+00
2.119720124974363795e+00
1.238334574476477323e+00
1.814399600887728614e-01
-1.707745041409816089e-01
2.806357191077646918e-01
1.013851093117904112e+00
1.505096523383197216e+00
1.551635167433650375e+00
1.222682914537814636e+00
6.929581359893131065e-01
1.368467006510330486e-01
-3.021495173180955285e-01
-5.280226712267434008e-01
-5.213571396590679363e-01
-3.530748513894308993e-01
-1.440414471103884653e-01
7.690279563295578102e-03
5.349854490817492619e-02
-2.686566245583314055e-02
-2.155876412305809953e-01
-4.370064318743458465e-01
-6.085268089558388827e-01
-6.963748783602213832e-01
-6.767663953700107093e-01
-4.923010543215446955e-01
-1.204438048831726060e-01
3.294129780358725501e-01
6.439393112338624992e-01
6.581803640040987391e-01
3.795431681632102650e-01
-3.571378613163548460e-02
-4.040418669861187140e-01
-6.093779766302329648e-01
-6.266809320455475341e-01
-4.981745124487960141e-01
-2.901685753007938740e-01
-6.290858838699397992e-02
1.285229999123460032e-01
2.253334849074848656e-01
1.730656770136823341e-01
-5.365375953876315440e-02
-3.943241033818105645e-01
-6.267563908660995775e-01
-4.422234018570329050e-01
1.974652884213205506e-01
7.988694362061815601e-01
7.490506248508440601e-01
7.329557662428146103e-02
-5.308078928232350391e-01
-5.097210520886585883e-01
-2.369197305692280486e-02
3.706830033588163764e-01
3.729251697193772253e-01
1.580835344476591575e-01
5.569849319288134454e-02
1.746497751012413280e-01
3.802590163698901793e-01
5.023648236267284073e-01
4.665146021081425509e-01
2.844653001610729093e-01
3.906677952730371051e-03
-3.129520101422152423e-01
-5.880689632573855574e-01
-7.452979849871358420e-01
-7.459068423199510800e-01
-6.049611223687453299e-01
-3.856933482327997709e-01
-1.796135874771780383e-01
-6.008759725581175326e-02
-4.654784900962617017e-02
-1.338826590557221086e-01
-3.238275300340656138e-01
-5.719486270362726943e-01
-7.311339308409086080e-01
-6.326951487765433146e-01
-2.663940628821997447e-01
1.614930510799514052e-01
4.095073012589196537e-01
4.091127021065478764e-01
2.434018160517856522e-01
-2.067452750491194369e-03
-2.833980746357592229e-01
-5.518365484405691745e-01
-7.392848687287231213e-01
-7.877625161437479262e-01
-6.811733350345949844e-01
-4.586143780727677810e-01
-2.026451310500468617e-01
-6.992910180714163870e-03
6.130511637746499654e-02
-9.228766236116438260e-03
-1.696814906047599547e-01
-3.464730713378854077e-01
-5.042252176624215654e-01
-6.677355158571613991e-01
-8.246926847063766886e-01
-7.550817926486099729e-01
-7.609322743845969850e-02
1.260289524568792396e+00
2.514249341472732269e+00
2.673167081702396253e+00
1.617321198495669243e+00
3.296680050704949849e-01
-2.172385564889815490e-01
4.862085730080895757e-02
5.825985953081350699e-01
9.356835000990715301e-01
1.021950308543451591e+00
9.519212961252221383e-01
8.185402444527856147e-01
6.295238426850885416e-01
3.585367378461491450e-01
1.804325580787559738e-02
-3.194147140617027425e-01
-5.556110497393664804e-01
-6.165873910984678297e-01
-4.913832430491227310e-01
-2.439956190903233291e-01
1.426474479050364452e-02
1.758872685439313299e-01
1.782758776817725266e-01
2.208615293123169718e-02
-2.300057599473625258e-01
-4.690974166244450960e-01
-5.684236685646339993e-01
-4.404227388403360588e-01
-1.149801882371123962e-01
2.422144268709840453e-01
4.336199600644757290e-01
3.818605696020417883e-01
1.765481810500217907e-01
-3.922704606080929662e-02
-2.095695169001432212e-01
-3.678201495606385207e-01
-5.282457342008530787e-01
-6.259509018602658070e-01
-5.680450568996431304e-01
-3.328614654111604620e-01
-2.560416998894320117e-02
1.728261390441818701e-01
1.474002868275803846e-01
-4.437300022771467622e-02
-2.081773894491216748e-01
-1.516215929707460663e-01
1.332148940688472338e-01
3.385085090331234614e-01
5.953502948609089990e-02
-6.570337901268707981e-01
-1.169881086785675928e+00
-8.884820107439527215e-01
6.158869804272405768e-02
9.818642412824900578e-01
1.306833326217959002e+00
1.035066299003263079e+00
5.436276264210624376e-01
1.758578969307487694e-01
5.443945405186281783e-02
1.329567189229870494e-01
2.881964715717097447e-01
3.862079175210482163e-01
3.509335002633445222e-01
2.006213017810376809e-01
-5.791094526928271952e-04
-2.127374927213496747e-01
-4.177952868794680974e-01
-5.773397551857059051e-01
-6.314217084924312884e-01
-5.387346069455850595e-01
-3.181027002835639106e-01
-5.902073912306134845e-02
1.223035558300573089e-01
1.529647677260872474e-01
3.518479000925205102e-02
-1.671642054403189026e-01
-3.536537438524934851e-01
-4.283279505683822430e-01
-3.565161264993321200e-01
-1.870729317140838455e-01
-1.354419349938967843e-02
8.953552685417680290e-02
1.031538859424622756e-01
4.982100091635002781e-02
-4.732980574568682736e-02
-1.879367612719475555e-01
-3.750763479181004056e-01
-5.739295893026180595e-01
-7.034986996664537307e-01
-6.788488807038777217e-01
-4.722642279784185493e-01
-1.541371963044605720e-01
1.350275810123244269e-01
2.789507389827517447e-01
2.502033634957315233e-01
8.685238684965992939e-02
-1.666525868785909692e-01
-4.701346712239998227e-01
-7.027395098164610499e-01
-5.869315656444363816e-01
1.189011052488104514e-01
1.187180094776252304e+00
1.882139017155839422e+00
1.696958281432370264e+00
9.860597879641757046e-01
5.045923350962790987e-01
4.987506853355743175e-01
6.076456675724226653e-01
5.072662226999919977e-01
2.900935851881085159e-01
2.045348305889358176e-01
2.995155310799870740e-01
4.395409765477439334e-01
4.995797408573725562e-01
4.354099740904824323e-01
2.496642626501593965e-01
-3.231391314541921800e-02
-3.566776910505107256e-01
-6.309939696637472117e-01
-7.453150899185041478e-01
-6.413570961841852380e-01
-3.739758702287679926e-01
-7.973664879380298887e-02
1.156722756705190619e-01
1.461085661909503897e-01
1.653777424905650967e-02
-1.830954097063009212e-01
-3.196885496360532541e-01
-3.166584407300011561e-01
-2.050654912508102223e-01
-8.101396967258062132e-02
-1.526043071453103001e-02
6.262093911499134677e-03
4.432156356521470969e-02
1.136936390680018394e-01
1.476242357724905918e-01
4.890747970117004240e-02
-2.061175533963500173e-01
-4.743988214870556441e-01
-5.156072506452825666e-01
-2.600909246008359377e-01
4.512735301308016395e-02
9.547678573260653945e-02
-8.144845141896384089e-02
-1.114147638561916176e-01
2.851206741791469934e-01
8.378549661628484913e-01
8.575312051531509550e-01
9.947209482553759363e-03
-1.144087209965322982e+00
-1.634406169407560228e+00
-1.069598523329783335e+00
4.516653863619898845e-02
9.387983386718045109e-01
1.342583467672515685e+00
1.530530137251180811e+00
1.680916327463550575e+00
1.528572394940415968e+00
8.581754321368301186e-01
-7.219245216865816106e-04
-5.109075655178532127e-01
-5.163225489172870164e-01
-2.556997004327859480e-01
3.562286025786828847e-03
1.517781140429678433e-01
1.623494968280524697e-01
1.738021917939716263e-02
-2.387729457638348429e-01
-4.657865849457480945e-01
-5.605448523878824307e-01
-6.314396914667687044e-01
-8.975850456675323885e-01
-1.286081094721917228e+00
-1.335200679852895256e+00
-8.013859144160979664e-01
-1.445452619450734444e-01
-1.920527614176852776e-02
-4.424248945776497743e-01
-8.263755237673306997e-01
-7.754110225925430200e-01
-4.974242011570108035e-01
-3.488948379755120732e-01
-3.316483066570563021e-01
-2.360375477202709682e-01
-2.845429025895333808e-02
1.164044933997937931e-01
7.338487792220566019e-02
-1.076404542856812807e-01
-3.274346190867891693e-01
-5.483273971939273128e-01
-7.410909529917593108e-01
-8.255489505092725722e-01
-7.238073602958766672e-01
-4.417141342920750113e-01
-8.491087847076678186e-02
1.734564101595852670e-01
1.589514228808205920e-01
-1.430660820100871367e-01
-4.023658823640385296e-01
-9.276160931200774784e-02
8.752883315751558424e-01
1.773657071670006857e+00
1.767324515679089991e+00
9.777053569016175283e-01
3.356766713479652497e-01
4.274079429249286188e-01
9.658961251258441072e-01
1.330454008075111050e+00
1.219464648268084206e+00
7.699040473058506029e-01
2.904968444359585789e-01
-2.266500500555336528e-02
-1.708121175103878009e-01
-2.435276840248125074e-01
-2.708942428910261491e-01
-2.078799768243040358e-01
-6.472192644302680875e-02
2.683753416163313366e-02
-5.745944742902885094e-02
-2.943316223029206480e-01
-5.487637463095507151e-01
-6.985269077912853453e-01
-6.938939631688688658e-01
-5.439534390618356863e-01
-2.935588505842168239e-01
-9.204136806507376423e-03
2.436398291337222022e-01
4.126066063989304866e-01
4.400585091619098055e-01
2.738418750104921751e-01
-5.539478008167584427e-02
-3.935813446823808182e-01
-5.599247424002675722e-01
-4.932788250388172036e-01
-2.740978410753690531e-01
-1.146418413473319214e-02
2.325662114981880413e-01
3.907531967757384428e-01
3.604301133451117134e-01
1.180173156092103881e-01
-2.032312640491455991e-01
-4.395754674374523496e-01
-5.264283089629123724e-01
-4.292645697324870557e-01
-6.157587709734865106e-02
5.594659535416292018e-01
1.085628269068655616e+00
9.926732185082237647e-01
1.473614337339217983e-01
-8.884285851744689877e-01
-1.318244514985697613e+00
-8.601856777527926434e-01
5.827784439419456120e-02
7.994069123171305691e-01
1.085690166942264945e+00
1.071071773133146943e+00
1.001916548325531675e+00
9.469249580550136436e-01
8.208782544209307641e-01
5.516444033968965766e-01
1.835586626514592867e-01
-1.529892365078404648e-01
-3.430911544686192638e-01
-3.538763904241720160e-01
-2.293066438821232400e-01
-5.084005921631649244e-02
1.015009179714568832e-01
1.749267137448041187e-01
1.469666819726705986e-01
1.576589531221614035e-02
-1.966895015327350393e-01
-4.323443830951628208e-01
-6.067532762677059210e-01
-6.462417063637141412e-01
-5.232997298383101903e-01
-2.655210117683647342e-01
5.933004898427337442e-02
3.615716262720856111e-01
5.400265477919569124e-01
5.062168833437956650e-01
2.397614290868390896e-01
-1.680132012659006635e-01
-5.434334820892154916e-01
-7.260654392750593988e-01
-6.614101517376709261e-01
-4.230080444751163071e-01
-1.487310224031587746e-01
4.529580479676982574e-02
9.652450798756850858e-02
-1.287320175247030213e-02
-2.478566287210109409e-01
-5.123933116179084646e-01
-6.904310689952872782e-01
-7.044740488778660215e-01
-5.420368410781327695e-01
-2.790566751130026946e-01
-8.361087839315609060e-02
-6.711236914988369384e-02
-4.138625885259070158e-02
3.979309647722957810e-01
1.296406555364497448e+00
1.994864976685581492e+00
1.760710673650476288e+00
7.311295034260408832e-01
-1.690611016521654797e-01
-2.350300638503719786e-01
4.117110211461664226e-01
1.152041990733638777e+00
1.490966607151010148e+00
1.332581117280485117e+00
8.652366579741096464e-01
3.380760551193068841e-01
-6.590175322715509376e-02
-2.770053797142537633e-01
-3.679229227043882000e-01
-4.791482513608643079e-01
-6.139117004861123217e-01
-5.980237256118837719e-01
-3.645119950625994032e-01
-1.179776891160350394e-01
-8.102053436307465883e-02
-2.589677465731147765e-01
-5.198526897525215240e-01
-7.162015699194810292e-01
-7.192463422354474778e-01
-4.917355869810348667e-01
-1.322175915262321644e-01
2.253786120647890967e-01
5.089205713600578607e-01
6.558981557757582737e-01
5.690442739010520556e-01
2.219731234094504957e-01
-2.540295723312387399e-01
-6.572973952428005084e-01
-8.503516182466018813e-01
-7.986853414629989656e-01
-5.571715837131335780e-01
-2.508386744582196681e-01
-1.147290604507858816e-02
1.000255230028904568e-01
8.695351660845213049e-02
-5.442811182855036845e-02
-3.233394978520427454e-01
-5.931610700097204036e-01
-6.030982259241003396e-01
-2.391090676282335847e-01
1.761397828774840801e-01
1.166501528337314381e-01
-4.835695469912094091e-01
-1.035258135387092882e+00
-9.499700790245620974e-01
-2.733013492865122851e-01
4.883488337771713650e-01
9.359888748874833908e-01
1.004366236450333849e+00
8.226501211581036532e-01
5.783514106030517299e-01
4.432505726882796648e-01
4.653498502845506701e-01
5.442206560023069573e-01
5.469299001033212093e-01
4.090699787625421413e-01
1.430802528219312919e-01
-1.856307131421923162e-01
-4.727619780519516368e-01
-6.127732966962748939e-01
-5.689607752534945329e-01
-3.919599550739960581e-01
-1.672544068714182097e-01
2.342460420850624170e-02
1.079889199197901634e-01
3.835187754698920343e-02
-1.803254560177483534e-01
-4.674328414828256562e-01
-6.875268144387409741e-01
-7.217460577283457690e-01
-5.357573154029909857e-01
-1.939429370305799372e-01
1.746458964131382963e-01
4.326645081499380097e-01
4.886518666144745726e-01
3.251478592150175428e-01
2.413631715083325302e-03
-3.581987500307299843e-01
-6.332107017459712717e-01
-7.624211528982901553e-01
-7.419453122136603351e-01
-5.865018872045557607e-01
-3.462312465223680857e-01
-1.217987305295734901e-01
-1.331523066577073103e-02
-6.417732932138306423e-02
-2.432997549914794333e-01
-4.521001579288617123e-01
-5.829835761861026366e-01
-6.248107514504653848e-01
-6.761925206566039570e-01
-7.354055045410995417e-01
-4.752278989812700472e-01
4.896171051034755584e-01
1.892584412489432655e+00
2.708480958053272047e+00
2.201098420437136660e+00
8.498024017093565030e-01
-1.895263495934491893e-01
-3.099278992701701707e-01
2.067096364780416085e-01
7.803047515180833171e-01
1.074746740482683816e+00
1.071934345146747569e+00
8.999023310667020326e-01
6.662211459367026745e-01
4.025649312807462743e-01
1.081181125689123224e-01
-1.984459552406586669e-01
-4.686572432697087010e-01
-6.343437087844484568e-01
-6.348994595242271055e-01
-4.685577413113667378e-01
-2.143331816982785853e-01
1.304337179995230384e-02
1.225383533703976041e-01
7.122447441208192009e-02
-1.282943534482678394e-01
-3.982579361886596225e-01
-6.069745705916420597e-01
-6.245861451502946471e-01
-4.039208943893247139e-01
-3.036011195463517859e-02
3.152403681351237941e-01
4.749459040541467170e-01
4.135011656093363630e-01
2.048073309852253554e-01
-5.816769937902446092e-02
-3.165165489931064391e-01
-5.269622708969455838e-01
-6.368799343982634031e-01
-6.005563683794421515e-01
-4.154841663100197202e-01
-1.461576540148488146e-01
8.407021656535240695e-02
1.587706058164228828e-01
8.695502167095767176e-02
5.684951686152722727e-02
2.365156052175192980e-01
4.109563536050440113e-01
3.789176899050272079e-02
-1.013354829168846338e+00
-1.985800383938381097e+00
-1.950629657242546555e+00
-8.600133377600196471e-01
4.798598345204553861e-01
1.294257240475011006e+00
1.398229068664465391e+00
1.057828939063794049e+00
6.086598066807527019e-01
2.432944165394186065e-01
2.338628350633336836e-02
-3.489990828453957278e-02
5.867593266354445558e-02
2.291939080482720825e-01
3.463901353413286199e-01
3.154394728865297370e-01
1.477295365707280428e-01
-7.695166640017478410e-02
-2.995816357129090224e-01
-4.935235946613549807e-01
-6.088029191328004908e-01
-5.824344314652494248e-01
-4.123297270183264307e-01
-1.699746040029458949e-01
5.145351476869115814e-02
1.701137327653486631e-01
1.318602917943275665e-01
-5.052879690520770128e-02
-2.720061134980096829e-01
-3.886121362852635319e-01
-3.262363080634094192e-01
-1.382233136340208501e-01
5.177263682848091964e-02
1.591786644242739468e-01
1.822137433808725671e-01
1.511917780452332882e-01
6.904718753009909948e-02
-8.262961179367254994e-02
-2.928931002803967787e-01
-4.955264591781602945e-01
-6.054140126175597825e-01
-5.804008346162318199e-01
-4.421638275516842631e-01
-2.486622631451648191e-01
-5.955395675953689683e-02
8.331059135729475262e-02
1.599231418520326020e-01
1.535308169607260409e-01
1.598258992681072729e-02
-3.018818556239617479e-01
-6.760112313488219060e-01
-6.766166079284360313e-01
1.233371513221108440e-01
1.491466151306332533e+00
2.449689846812248550e+00
2.240937488706024716e+00
1.213249178980480458e+00
3.697432874107891010e-01
2.434340339592772073e-01
5.578842136279852371e-01
7.901114406297736759e-01
7.285938188214022837e-01
5.191112330751749271e-01
3.789064426211810610e-01
3.715652323044338345e-01
4.210494261009148365e-01
4.325080585533559452e-01
3.454464914067740811e-01
1.364481051414980495e-01
-1.512897879295701520e-01
-4.076942870984716638e-01
-5.438340425114798204e-01
-5.571394788960881694e-01
-4.670179841590798575e-01
-2.330556981970954289e-01
1.644572189930509354e-01
5.506367150593389770e-01
6.133487144076810171e-01
2.654428301200799645e-01
-1.855223359924732529e-01
-3.852344823850367694e-01
-3.059344285482400450e-01
-1.529288655136843977e-01
-6.077906259755835178e-02
-3.023831011073681296e-03
8.077680292385860938e-02
1.670305792693032587e-01
1.667973511591338831e-01
2.480974791824096248e-02
-2.242928268112351353e-01
-4.817388440086523560e-01
-6.452665716420766806e-01
-6.593687082830558266e-01
-5.408935715642229081e-01
-3.626176080986581729e-01
-1.748283597311861004e-01
7.057922524934484576e-02
4.293192482704516477e-01
7.084740589369799002e-01
4.466897413922171767e-01
-5.674594080191218692e-01
-1.792090259321780454e+00
-2.273674828184960361e+00
-1.575122259333165742e+00
-1.762696949197015417e-01
1.063137703662493383e+00
1.655511495750743522e+00
1.665811675569755845e+00
1.362032317860901953e+00
9.171928361009169528e-01
4.263931677940066556e-01
1.211407955683370397e-03
-2.568718971190979139e-01
-3.182334822701923804e-01
-2.182533377814527831e-01
-2.420088145195195897e-02
1.687973357979671019e-01
2.540620617052772312e-01
1.761134666003565385e-01
-2.833240979042305971e-02
-2.733128973337984879e-01
-4.945435752273265595e-01
-6.575130677183836925e-01
-7.173175272535953217e-01
-6.229266414691670972e-01
-3.784479744741206519e-01
-7.402657403784418388e-02
1.564940638776084469e-01
2.202668003023249832e-01
1.380860328201299336e-01
1.486538146305250996e-02
-8.906426904189826410e-02
-2.062215629798516692e-01
-3.590208290949782888e-01
-4.783839545339778621e-01
-4.633445277479132374e-01
-2.988823861740572130e-01
-9.541466115374952484e-02
8.688640877499522776e-04
-6.994555258415344201e-02
-2.635630208600885926e-01
-4.989583829398630543e-01
-7.002881438653306700e-01
-8.026554914439248956e-01
-7.685074608411353037e-01
-5.965746720159263994e-01
-3.133947481284919956e-01
-2.972011626607406250e-03
1.529142266179885357e-01
-1.928945631094489133e-02
-4.037739116427914166e-01
-4.799729367408515079e-01
2.104841702027577532e-01
1.348357214919920777e+00
1.961759286317670714e+00
1.560206908164226913e+00
7.626211914268352654e-01
4.655772707349289941e-01
7.911052519420260776e-01
1.195379678443116100e+00
1.245682197398306768e+00
9.366407356909625115e-01
4.702209979291989139e-01
3.889750094750811515e-02
-2.243465340662987584e-01
-2.681128345106391087e-01
-1.414523266409523083e-01
4.103533416316230281e-02
1.586618821445578698e-01
1.252320446200226034e-01
-7.806114209643302826e-02
-3.833848018470125685e-01
-6.708918050773521324e-01
-8.406832947370336262e-01
-8.550831724147373025e-01
-7.328662918191769515e-01
-5.266631178154884685e-01
-2.952213738126855946e-01
-7.514578555720666242e-02
1.137706427708214951e-01
2.281750320392965381e-01
1.957893350198898208e-01
-1.554266207213002987e-02
-3.279649262411722943e-01
-5.822036563261420161e-01
-6.491471082172094453e-01
-5.091794863910186208e-01
-2.408111391717779048e-01
2.997272394047445498e-02
1.793364755037780700e-01
1.443482978004919648e-01
-4.418824322957301542e-02
-2.992850598792912709e-01
-5.382988554714853713e-01
-6.940888673955114552e-01
-6.750664156336845245e-01
-3.567334668255686125e-01
2.682348907193085608e-01
8.620204136337215051e-01
8.696104042023367064e-01
1.242620175897847373e-01
-8.182588461400586155e-01
-1.205815383614633696e+00
-8.353446100017030140e-01
-1.084588187798236486e-01
4.876175207174621162e-01
7.746697447068697784e-01
8.599800366926662054e-01
8.921605892543689187e-01
8.906019653661756408e-01
7.774865701299541465e-01
5.112762124253990015e-01
1.491348707637261128e-01
-2.002188715022286680e-01
-4.464895486337074892e-01
-5.432392830546109996e-01
-4.830880146397997787e-01
-2.991837744622859452e-01
-6.956997908988889201e-02
1.033482506968486786e-01
1.411370138781471717e-01
2.721263707144040006e-02
-1.980384243749896966e-01
-4.614308733273880248e-01
-6.707202303374455443e-01
-7.402777431031795086e-01
-6.345411825831165364e-01
-3.797121990503193878e-01
-3.548810783687891823e-02
3.198505477578426071e-01
5.790494387894759010e-01
6.248115903302754459e-01
4.058983008186539121e-01
4.178505179010853776e-03
-3.930532841592027649e-01
-6.053109096545374879e-01
-5.705443476099656408e-01
-3.753664129979696895e-01
-1.657511535819400916e-01
-1.409458890986545719e-02
9.101388753021699696e-02
1.281579884570834826e-01
1.666044119442457519e-02
-2.513002565766570551e-01
-5.319625880065300683e-01
-6.346213026436204885e-01
-4.874495192735335269e-01
-1.973590212783509767e-01
3.563694205760414152e-02
8.292167267991969182e-02
5.211846688054572879e-02
2.946257536827001089e-01
1.036331792751467695e+00
1.887357319593421234e+00
2.039321282180189598e+00
1.214693264324383515e+00
1.220072594495433815e-01
-3.071352644197259396e-01
1.298977994282769499e-01
9.051741402669952752e-01
1.419736232584436264e+00
1.440603977452111772e+00
1.068260725554456503e+00
5.341427956252404741e-01
5.011921080879655488e-02
-2.760261706509216095e-01
-4.444209799657948268e-01
-4.757361810365096644e-01
-3.534466457177377618e-01
-9.455592747344183924e-02
1.705038993268471470e-01
2.540991565583354261e-01
5.311983720070809212e-02
-3.490487579272528174e-01
-7.162477863547588308e-01
-8.548997382374760035e-01
-7.757578251155496929e-01
-6.017809819873166655e-01
-3.711016527995036896e-01
-3.884770993592754490e-02
3.531901043266813534e-01
6.235655756837110708e-01
6.031554726608472361e-01
2.897713736431744014e-01
-1.631893814595272718e-01
-5.658133823358011405e-01
-7.852757874314673092e-01
-7.745670665629988960e-01
-5.694644323837949607e-01
-2.692304681693059587e-01
1.122686185292440242e-02
1.923965833291176875e-01
2.305581143577606351e-01
8.950966435978441327e-02
-2.252865542101334662e-01
-5.671341957815430046e-01
-6.520345303985147778e-01
-3.243291611924339901e-01
1.253713860826828064e-01
1.178687577658725366e-01
-5.333977937150524706e-01
-1.256035328013408892e+00
-1.281138918469010068e+00
-4.790731671829795979e-01
5.484925643300684328e-01
1.121251628040361714e+00
1.073564864032958699e+00
7.448585408243829642e-01
5.347773912160799226e-01
5.602970322150330196e-01
6.931632740100776013e-01
7.723690096627067181e-01
7.139988796914649161e-01
5.070465145236972004e-01
1.915930170630021356e-01
-1.513905472202180247e-01
-4.100037755515486548e-01
-4.863380886265131209e-01
-3.766295814234186246e-01
-1.868178352520455388e-01
-3.170988491771448842e-02
5.477953618316044881e-02
8.604916298540341013e-02
4.980416166896782515e-02
-8.573351555939254243e-02
-3.101356179992681428e-01
-5.455704541355405057e-01
-6.829934629924572231e-01
-6.319542821216723727e-01
-3.589512361695330611e-01
6.880873749278254570e-02
4.693539284177455362e-01
6.356501442410333880e-01
4.885668639186692697e-01
1.303971050530677855e-01
-2.622210416016849677e-01
-5.626401703686761957e-01
-7.125918482522299868e-01
-6.958864689817126914e-01
-5.414283034079017121e-01
-3.145345553453754439e-01
-7.739756732755526114e-02
1.178623111382964134e-01
1.961868906621157538e-01
8.303799902834532731e-02
-1.905065981638632000e-01
-4.643490912414667271e-01
-6.179861938432816837e-01
-7.179388900042269483e-01
-8.502178212697587556e-01
-7.588855723485858906e-01
1.187077588557214486e-01
1.881790904557912203e+00
3.508906533564430053e+00
3.618329032814494362e+00
2.073805937810851319e+00
2.216421712600132321e-01
-6.295251535615515870e-01
-3.778981695906087346e-01
2.751099567599833984e-01
7.564404916232828624e-01
9.263402035765954112e-01
8.668079683118417034e-01
6.843406765154167459e-01
4.472404179728233231e-01
1.688208783102568278e-01
-1.616481460080839150e-01
-5.075355829709948807e-01
-7.565851374811213281e-01
-7.905119819884428578e-01
-5.990303620095367432e-01
-3.027070851009783792e-01
-4.535854354998768156e-02
9.591846299310617663e-02
8.982311714038329620e-02
-6.847582617117579928e-02
-3.089758078206358838e-01
-5.089810905034433119e-01
-6.443665450654608717e-01
-8.130806795619851535e-01
-9.712812254051925720e-01
-8.311864122394085896e-01
-2.852824472675639655e-01
2.897205384688771312e-01
4.467917390766277808e-01
1.598443321974369613e-01
-2.849294244488156935e-01
-6.455015537967515593e-01
-8.398590376589666340e-01
-8.689928577871043336e-01
-7.447281388921106471e-01
-4.851013062790058838e-01
-1.571088804510087644e-01
1.020134733932845650e-01
1.567898232448262097e-01
1.270585072497167761e-02
-1.241861767989563825e-01
-2.616485169851027678e-02
2.210156529222896127e-01
1.852509054965085777e-01
-3.864254128074401384e-01
-1.107098776147222852e+00
-1.285613352693846245e+00
-6.696884962234671557e-01
3.275784431946687780e-01
1.062981403342821096e+00
1.199078448701932365e+00
8.643607133787312158e-01
4.107671275544967915e-01
9.860021533057480858e-02
-8.820581888384682739e-03
4.008415707526161165e-02
1.898275150789315857e-01
3.738604595011559839e-01
4.442504827848439697e-01
2.343012570850994125e-01
-2.229123928081951089e-01
-6.471134087763483755e-01
-8.018237523970348501e-01
-7.287129825771496705e-01
-5.967522277685267662e-01
-4.654503775847472768e-01
-2.970813093066774768e-01
-8.645592559386754139e-02
1.002012446496401837e-01
1.693710573757194748e-01
6.802363887808375587e-02
-1.506755693327204160e-01
-3.360305276919643980e-01
-3.651342264783518088e-01
-2.509133901557984436e-01
-9.229489719799062464e-02
4.619371528831373030e-02
1.566966112142159362e-01
2.113230652202217619e-01
1.365053595944365761e-01
-8.694509177943603173e-02
-3.506616245876236770e-01
-5.239024119222589482e-01
-5.879755539162353495e-01
-5.902938822070655789e-01
-5.258894027152819506e-01
-3.554150297685715332e-01
-1.064282186056444424e-01
1.180658375112774994e-01
2.319392349078982785e-01
2.220131841030752451e-01
9.682479954588081583e-02
-1.706189764986072444e-01
-5.518586305014525628e-01
-7.663396433564839683e-01
-3.302330445037630069e-01
8.995244327738224355e-01
2.238631842590242726e+00
2.663578369834208370e+00
1.929729198159735981e+00
8.204870617028188207e-01
2.032006172529763899e-01
2.286392668715749310e-01
5.014223338440642053e-01
6.542450874996348364e-01
6.159943756073175125e-01
5.113093259197768470e-01
4.580381976721487058e-01
4.662603110279283647e-01
4.679791558387840222e-01
3.897971439049374709e-01
1.973785013618492568e-01
-8.780255821368751490e-02
-3.897955520767344417e-01
-6.104148944609427696e-01
-6.770369331928340895e-01
-5.677488765519930203e-01
-3.181550716044707072e-01
-2.508094115866921214e-02
1.819080488510258220e-01
2.113206651785856094e-01
6.990836424108266833e-02
-1.404331002171708420e-01
-2.903121584791263365e-01
-3.121846232299336776e-01
-2.400193554967123832e-01
-1.492725691356103501e-01
-6.357773259653820563e-02
4.417662761414192785e-02
1.653065611759108045e-01
2.163965312781746808e-01
1.101062468197291366e-01
-1.417485731928192216e-01
-4.221658683286810265e-01
-6.135181840007735143e-01
-6.697142961513544712e-01
-5.892256924489041037e-01
-3.958225953807237296e-01
-1.579694133067468254e-01
6.246619481598391505e-02
2.977217134912846785e-01
5.767916100429169024e-01
6.730486919739334661e-01
1.730730589824952814e-01
-9.497759259584646063e-01
-1.993038483135456174e+00
-2.086204453353953880e+00
-1.066656895024344687e+00
3.877662665162763256e-01
1.434316587713141633e+00
1.733797977485263653e+00
1.506761191106764652e+00
1.115949027697646034e+00
7.307714120086887810e-01
3.620637434324153192e-01
4.281820939982922819e-02
-1.398057125803982004e-01
-1.387422054576627484e-01
1.016929243279158374e-02
2.288171693019570851e-01
4.155991500025371654e-01
4.225914248655102123e-01
1.254177194586571509e-01
-3.877588910810305101e-01
-7.968982567098454872e-01
-8.643911959372125864e-01
-6.700024063305420885e-01
-4.241373882504704262e-01
-2.134521065810690843e-01
-3.367891372149856011e-02
9.426177746706702887e-02
1.463800578702419419e-01
1.438844799695552235e-01
1.140669192026979722e-01
4.297738343738358169e-02
-8.981701379093504078e-02
-2.401638180528304634e-01
-3.068714807458923222e-01
-2.375260245073352594e-01
-9.506383618149283343e-02
1.711902081347552521e-02
5.452804062575952043e-02
1.754271010041458245e-02
-1.062452736093598138e-01
-3.264560549053381888e-01
-5.872802851058512852e-01
-7.631702123883195021e-01
-7.480415483345655980e-01
-5.366710918524704166e-01
-2.072236370658181448e-01
1.214424719193696878e-01
2.805697468588275179e-01
1.051439575926528536e-01
-3.186895250721421546e-01
-4.447797678138950550e-01
3.605611699437638040e-01
1.927207420153218331e+00
3.068733395228709249e+00
2.771324977181834015e+00
1.393849375917043387e+00
2.109707207962372155e-01
-1.167571568857701456e-02
4.338763106978514306e-01
8.329088090125540411e-01
7.951798987571515598e-01
4.139893124190304752e-01
-1.432571715162470408e-02
-2.891635031725436344e-01
-3.781851271551791571e-01
-3.235448102181180952e-01
-1.817537339723956369e-01
-3.949837657033439253e-02
4.752180219744051026e-03
-9.053390543421818704e-02
-2.897981080563690748e-01
-5.320591883345435757e-01
-7.637030163690596840e-01
-9.054488598445800118e-01
-8.466914918298050763e-01
-5.553970794936379241e-01
-1.751240601956875753e-01
8.710140029030412345e-02
1.758750985561620128e-01
1.970157761739285696e-01
2.061941381461080691e-01
1.080959338569051076e-01
-1.712741299329668399e-01
-5.075417149064272992e-01
-6.756577795794023178e-01
-5.874143882943281270e-01
-3.529770633817194692e-01
-1.346723080703123299e-01
-1.946510765811658092e-02
-2.829619616539218174e-02
-1.599672684478667672e-01
-3.742474227476630388e-01
-5.823767713246940092e-01
-7.150295487320394994e-01
-7.654476937312050255e-01
-7.013715140646468171e-01
-3.887512759618216296e-01
2.261969341816020274e-01
8.018770342255008288e-01
7.192003863157045984e-01
-2.157704342335212133e-01
-1.349958667328725603e+00
-1.770441246415959791e+00
-1.215347480605627473e+00
-1.947051894073771050e-01
6.396636249147653608e-01
1.024613360818127372e+00
1.077266631413735132e+00
9.892676101473858452e-01
8.317224939119980398e-01
5.956689309404419319e-01
2.987484075497873204e-01
2.776224297487889237e-03
-2.277086052194032817e-01
-3.477494517989135336e-01
-3.359036506683069634e-01
-2.065903686960046115e-01
-2.053917551604794722e-02
1.341919382571749864e-01
1.860832223586521283e-01
1.098233594604446223e-01
-7.349168765764522993e-02
-3.095744906710229394e-01
-5.362512045606772082e-01
-7.059847682129472002e-01
-7.684954756772083284e-01
-6.564815218358818205e-01
-3.487159380201096393e-01
6.318646377127938585e-02
4.112854368447194653e-01
5.392747150544814350e-01
3.754757448429376088e-01
-7.045475888898811156e-03
-4.093968702170688312e-01
-6.447671236806401529e-01
-6.580199119414961162e-01
-5.062826783686885657e-01
-2.741095368082572814e-01
-3.272721041424923871e-02
1.578782642847109396e-01
2.364798730564854623e-01
1.332187599350090623e-01
-1.810470150820411850e-01
-5.928712754055183165e-01
-8.649899188047690535e-01
-8.510069374244478846e-01
-6.297083599410885357e-01
-3.563024080125212212e-01
-8.544555769212039409e-02
1.809753155534218616e-01
3.724317262311107601e-01
3.864723361372374710e-01
2.356321132666369667e-01
7.365852644527717819e-02
4.643063025312117037e-02
1.797503448171786089e-01
4.285178139025230815e-01
7.579796812410661833e-01
1.132660646510950775e+00
1.457868172103052640e+00
1.585147459988077046e+00
1.406611949361006531e+00
9.488245268084759543e-01
3.852225641344964591e-01
-3.413276877358817352e-02
-1.241281722765805173e-01
7.218122095965635865e-02
2.958031656761193062e-01
3.476003835016473476e-01
2.861460948566256768e-01
2.594760760352144424e-01
2.651758687607886356e-01
1.867362651131526385e-01
-2.957343098939591713e-02
-3.153307514247646326e-01
-5.394929189497462696e-01
-5.682262384208602857e-01
-3.146835272390637872e-01
1.658015420868293455e-01
6.392272514500015879e-01
8.600303797816976070e-01
7.656070924914742948e-01
4.511696894028751625e-01
4.556454752212513171e-02
-3.308261617870259519e-01
-5.805593026819890756e-01
-6.467100849999519729e-01
-5.089717095820839310e-01
-2.172837458310361847e-01
7.679655208777072528e-02
2.193174322976210733e-01
1.913490935436028550e-01
8.096052518571611456e-02
-6.232719021788286212e-02
-2.697134401565066675e-01
-5.162724711436377234e-01
-5.950923459885106848e-01
-3.106847495735153841e-01
1.061234991384891746e-01
5.970467418490437578e-02
-6.544598439321996919e-01
-1.404944793655056090e+00
-1.375862014025880598e+00
-5.102514572187385467e-01
4.740166167177981005e-01
9.228977035434922094e-01
8.689717564286950635e-01
7.987430244951605474e-01
9.785601564229956528e-01
1.200200805420693184e+00
1.177549006463455505e+00
9.266725894305816169e-01
6.265912256468807451e-01
3.426713575614344087e-01
4.996571999044041590e-02
-2.247735856030521895e-01
-4.066159246726205323e-01
-4.500570716035465768e-01
-3.599873554170132661e-01
-1.764954770283843621e-01
2.901525613411071874e-02
1.706851318156262787e-01
1.902527292226469380e-01
7.830954096358536121e-02
-1.376894926368231464e-01
-3.986159942845134418e-01
-6.116235585850797740e-01
-6.748110173346242302e-01
-5.238995627273166367e-01
-1.769633527167922271e-01
2.383751561992614731e-01
5.200806620444616835e-01
5.224621371611509746e-01
2.794446716190671087e-01
-5.041651416522135304e-02
-3.792736598413917748e-01
-7.447883910083850090e-01
-1.105712072677899060e+00
-1.221207038132269940e+00
-9.170631706342796674e-01
-3.678346331312833395e-01
7.186061410381433534e-02
2.200499173651359330e-01
1.296606298801629698e-01
-8.912411515176246746e-02
-3.877202884931279514e-01
-7.185137963044797571e-01
-9.188057945372801738e-01
-8.086526085109480011e-01
-4.632185203031515264e-01
-1.677286822803725763e-01
-2.019947910424350207e-02
1.515428324172828356e-01
4.457090376862388181e-01
7.365362912400653661e-01
8.742092528345355440e-01
8.505245887564663043e-01
7.668868678744157341e-01
7.238729088534687772e-01
7.561023534921332834e-01
8.392284588985969851e-01
9.158069626121634332e-01
9.118458286380513034e-01
7.738434079388487596e-01
5.127879503049469490e-01
1.902822001004364216e-01
-1.344755472141173913e-01
-4.052864036928102709e-01
-5.347537727317976941e-01
-4.498095138154094008e-01
-1.971863954642718020e-01
6.233676444745023248e-02
1.981412857741061129e-01
1.941944669572740478e-01
8.774343855397249980e-02
-9.223385183727510206e-02
-3.111881718418618714e-01
-5.054969101711537238e-01
-5.761522520746020781e-01
-4.215874237712890493e-01
-4.488457479754480450e-02
3.721230765650921923e-01
5.835950552110460432e-01
4.958061588928745489e-01
2.210237606396188714e-01
-8.213478829487443067e-02
-3.506542807709696619e-01
-5.821587077884986527e-01
-7.231191850430565005e-01
-6.622144101097213742e-01
-3.684728356829399809e-01
5.532713556456382575e-03
2.386634903744120073e-01
2.446221454600765455e-01
9.477073660308979464e-02
-1.159383414853017991e-01
-3.184374310489063165e-01
-3.939311243633449311e-01
-2.169417823698476799e-01
9.113077926892879099e-02
1.179990214578775787e-01
-3.396566049442695245e-01
-8.465798258734078541e-01
-7.617566380561991979e-01
-3.533819674096473629e-02
7.466264682931772478e-01
1.042278513596982314e+00
8.166073849546074959e-01
3.962793201139797605e-01
1.069968387383803676e-01
7.275635959148862852e-02
2.193187696293015243e-01
3.894834339168089521e-01
4.611840855940104178e-01
3.893102474768211918e-01
1.870539490443539066e-01
-9.833729699402490865e-02
-3.996836565507629335e-01
-6.348812357832487319e-01
-7.169983476146418733e-01
-6.047172545581551706e-01
-3.603073943985823924e-01
-1.175055906875952516e-01
2.408633170240604554e-02
4.906722364054963426e-02
-1.264556390992116128e-02
-1.323916245922945600e-01
-2.810892812471609825e-01
-3.959524833768414132e-01
-3.838104642171054071e-01
-2.024090953127906378e-01
6.865454631706285893e-02
2.862156841717874989e-01
3.684317236923945194e-01
3.181776165779567900e-01
1.395753310481259168e-01
-1.848062903217831676e-01
-5.912288958659835947e-01
-8.963094910586493214e-01
-9.586816789266124905e-01
-8.138711004108341029e-01
-5.780276237974688591e-01
-3.223006456249460361e-01
-1.019404160986138036e-01
1.511643033542215894e-02
3.153322744536085631e-02
4.077155771115339999e-02
4.625918659046261011e-02
-1.766336084412273022e-01
-8.146375165833646959e-01
-1.583097018082084917e+00
-1.841422794020120213e+00
-1.250890984174392706e+00
-9.760648455660266010e-02
1.045922041383290813e+00
1.751261102967765160e+00
1.890664430105354565e+00
1.611266354433831927e+00
1.185374494162801273e+00
8.134898788697628724e-01
5.569728644229711145e-01
4.110294289809955370e-01
3.664957152984539279e-01
4.053992383322524429e-01
4.894072470307946343e-01
5.615042825057604547e-01
5.416812792391118014e-01
3.526463901619009689e-01
6.371220583369977680e-03
-3.505851671301998262e-01
-5.375158004528494127e-01
-4.846026056388183512e-01
-2.576099093533009143e-01
2.598247563660677217e-02
2.666951818710563971e-01
3.897665095498212273e-01
3.438461790348474878e-01
1.449102179677924929e-01
-7.985797979515982248e-02
-1.565923986163424431e-01
-3.402202446984885220e-02
1.496171037366449963e-01
2.354726098104818199e-01
2.254303293586099322e-01
2.222549685024990396e-01
2.547445264252388153e-01
2.416694628226460362e-01
1.019055409514513649e-01
-1.481443575354208231e-01
-4.072478130395159601e-01
-5.703799329240597515e-01
-5.842152503396105256e-01
-4.546140842040538033e-01
-2.384447299084215821e-01
-2.554642390537376767e-02
1.165094849153537199e-01
2.223209686387275785e-01
3.930041852644796108e-01
5.579626028464380605e-01
3.552102859318440609e-01
-4.676138850971546801e-01
-1.508366247932333426e+00
-1.898932783100210964e+00
-1.183128779488878290e+00
2.123394356935429939e-01
1.450680039423989154e+00
1.994871358909446446e+00
1.808066716566152365e+00
1.152776818982574891e+00
3.880095295200408634e-01
-1.666431036800783971e-01
-3.551614234216382560e-01
-2.246185374416362346e-01
5.712411705579075599e-02
3.135546445501565804e-01
4.301498273433428943e-01
3.768461995282471055e-01
1.887709358630677570e-01
-6.623545219826457164e-02
-3.156963405356130181e-01
-5.090862706485370648e-01
-6.205105983409107129e-01
-6.257343520839996343e-01
-5.056025896605733649e-01
-2.898009860423816919e-01
-7.396659108966444074e-02
3.697360437454616511e-02
1.152170212769840912e-02
-8.267245769383015086e-02
-1.379196677080470335e-01
-1.027335787790893823e-01
-3.116164966777390521e-02
-2.185560103809499818e-02
-9.409268513662115418e-02
-1.605631724716706232e-01
-1.390628593920621714e-01
-4.468400977033710336e-02
2.991493237802231309e-02
-1.094989981001933538e-02
-1.900833558003129087e-01
-4.294652892069826811e-01
-6.148401873448074983e-01
-6.901906895727383251e-01
-6.666660400662727248e-01
-5.488118923639768720e-01
-3.005768931698458157e-01
6.830452516566264121e-02
3.607613602636618455e-01
2.239015742914879925e-01
-4.853748034309959825e-01
-1.369580666643894329e+00
-1.769519892863705257e+00
-1.393396325534098645e+00
-4.829250047028864623e-01
5.324375706426477395e-01
1.325745235732467053e+00
1.745210620537558377e+00
1.804829319805865584e+00
1.603107980196371241e+00
1.230148660532767391e+00
7.695776855264102601e-01
3.366715236253797761e-01
4.981757112429478773e-02
-3.572425725774103222e-02
5.155725235980729293e-02
2.343377001516345204e-01
4.240859831960373527e-01
5.346076858590902425e-01
4.977358831442047493e-01
2.974237429586480963e-01
-8.703110406863161230e-03
-3.089322043880277091e-01
-4.888393936090772995e-01
-4.894638000134933220e-01
-3.393839935951838971e-01
-1.285771085755029186e-01
6.070069153281849872e-02
1.999869791766665794e-01
2.951106968048109458e-01
3.337691382700467835e-01
2.731064441713991764e-01
9.477605343252637482e-02
-1.387533251041082882e-01
-3.099390794966916940e-01
-3.366299452513085155e-01
-2.294950099466452897e-01
-6.712001031630551728e-02
6.005038798968123648e-02
7.814816124107476503e-02
-4.953538713452230319e-02
-2.851862422411617914e-01
-5.147642942697858714e-01
-6.154781768216858184e-01
-5.357606452762417870e-01
-3.355911597542267644e-01
-1.611409947449514435e-01
-1.068422243810648598e-01
-3.517490453306984510e-02
3.420213786922134958e-01
9.710270644088767611e-01
1.140905695499786043e+00
1.543680648422099400e-01
-1.545671732825093070e+00
-2.489757466331109725e+00
-1.762071966383116806e+00
-1.536594039278085799e-02
1.390014008596726303e+00
1.812492611216360183e+00
1.572043455033848902e+00
1.176872280528763026e+00
7.848775105418069886e-01
3.439976461034615629e-01
-1.020920629493983767e-01
-3.934173722516629002e-01
-4.311619510415779510e-01
-2.653525555153024018e-01
-2.396496882987177168e-02
1.743500919445718778e-01
2.484309216104177154e-01
1.719088745840062771e-01
-1.668927500338598588e-02
-2.498210189657013303e-01
-4.740590434638755069e-01
-6.453378507559454080e-01
-7.126237431354529583e-01
-6.403711183698618248e-01
-4.390439678247170519e-01
-1.622262606083758330e-01
1.150146114258767394e-01
3.141372027116680066e-01
3.666704239204847116e-01
2.323323254825890860e-01
-6.695963628948306545e-02
-4.215174674497639273e-01
-6.714782264565920533e-01
-7.054280995276098754e-01
-5.361160190691092176e-01
-2.790696626139552716e-01
-6.434454449331544756e-02
2.372997105829007664e-02
-4.474128230912001458e-02
-2.445586564806470353e-01
-5.035799584257860673e-01
-7.295358502891419183e-01
-8.195399152365906437e-01
-6.763376496860526998e-01
-3.112234007440247696e-01
3.409760982124412920e-02
-2.379182453757538312e-02
-6.319332263417497542e-01
-1.402714137728854116e+00
-1.692803542460555422e+00
-1.235956221757493090e+00
-3.287450548637194103e-01
5.656606410048437006e-01
1.182730897138956516e+00
1.498680218754973703e+00
1.618258002390791317e+00
1.639674331229560966e+00
1.570953100883965670e+00
1.363028977434950439e+00
1.005566816658099993e+00
5.752382712709722679e-01
1.958691505579194525e-01
-4.716502369828236285e-02
-1.470706938714399503e-01
-1.207763696104176276e-01
5.623811901281394743e-02
3.944327538344339357e-01
7.544711444947003187e-01
8.730527609377095599e-01
6.243443367651356768e-01
1.754592886142041785e-01
-2.076893902716585583e-01
-4.117860432367370649e-01
-4.685407570283394163e-01
-4.099087628638070635e-01
-2.228686337053423228e-01
8.196272207060509296e-02
4.084866036910169695e-01
6.035027095685197018e-01
5.615846578933423316e-01
3.032467897849969174e-01
-5.781576388033886349e-02
-3.937475186213099665e-01
-5.892177903242918902e-01
-5.632887623694322610e-01
-3.367773618176286843e-01
-4.657809305613414691e-02
1.545631197382771049e-01
2.060762937853350130e-01
1.446088385357725825e-01
3.103916855067794661e-02
-1.048940040050635597e-01
-2.578088245440247617e-01
-4.013504015084417009e-01
-4.337950840924032492e-01
-1.824447209811476678e-01
4.026218627012491669e-01
9.810645563536865010e-01
9.805605360316599350e-01
2.586056321210765674e-01
-5.900004231297997226e-01
-8.407582498445553831e-01
-3.977192004558482985e-01
2.400196421356503296e-01
6.102028818006577371e-01
6.843442631137589549e-01
6.953997334587438406e-01
7.759489861889790063e-01
8.484317644279251169e-01
7.735369837181647057e-01
5.072658940439741526e-01
1.248324618951469900e-01
-2.513814622274784805e-01
-5.234660044568202331e-01
-6.410164462215470760e-01
-5.973666642679194005e-01
-4.308376380527376148e-01
-2.208381935625758907e-01
-5.773840123315034101e-02
-4.059845045622019477e-03
-7.905379813189077065e-02
-2.621273702680474438e-01
-4.955977370181269270e-01
-6.964134767770152612e-01
-7.854139867579750245e-01
-7.114183355403801423e-01
-4.615573041762691120e-01
-8.200824283116528446e-02
2.980134267860964359e-01
4.978767229236504832e-01
3.952730272801918132e-01
3.571888671746829141e-02
-3.711670886175751916e-01
-6.014784484608802773e-01
-6.028288206892902235e-01
-5.102206757885739963e-01
-4.476379297202007779e-01
-3.859662887681715171e-01
-2.498982053447430796e-01
-7.612101972586357568e-02
-1.501703003101494821e-03
-1.312621876512137242e-01
-4.219269956747134787e-01
-6.700688009787958421e-01
-6.737051096134346606e-01
-4.885462923189570761e-01
-4.523695753496052019e-01
-7.803963458056910607e-01
-1.191037489157830587e+00
-1.171190737212411737e+00
-5.741678666028560141e-01
2.634108105985845105e-01
9.142079921812530374e-01
1.186620290934807809e+00
1.164906389039992218e+00
1.068857017420422384e+00
1.044508682498101582e+00
1.064551653887284566e+00
1.039033276104013748e+00
9.528771023982519628e-01
8.344642117511988921e-01
6.668066097510637613e-01
4.193741612517956630e-01
1.226601534570326835e-01
-1.451669182068663078e-01
-3.043901976180449775e-01
-2.806348588550711121e-01
-3.315250946969713897e-02
3.570290503810409910e-01
6.612582299565279431e-01
6.407639110986935727e-01
2.387936288942776875e-01
-3.373374345773060279e-01
-7.439990432666000464e-01
-8.006171295022367351e-01
-6.214555605522378290e-01
-3.813592168096126001e-01
-1.032547910808838398e-01
2.295730977269853368e-01
5.179389762289433596e-01
6.209026645283067802e-01
5.064911824968245657e-01
2.493339177614969371e-01
-6.724154942071593200e-02
-3.682580616465291334e-01
-5.603982425547228141e-01
-5.822124601188826132e-01
-4.596486628311587386e-01
-2.650103228627533336e-01
-5.152189539551011582e-02
1.476584147202095187e-01
2.837819645317422590e-01
2.769612618954093719e-01
5.333078810230443279e-02
-3.414816193220595042e-01
-6.145998836784534181e-01
-3.421372438288996509e-01
4.881701097775606457e-01
1.072280599864602779e+00
4.898691298826149954e-01
-9.625767848296038487e-01
-1.798931929623948323e+00
-1.095151745645585928e+00
4.103779208242723797e-01
1.349159902187906379e+00
1.266549358031992645e+00
7.396788694759606209e-01
4.181938943280892884e-01
4.197483590589005109e-01
5.259997033288765778e-01
5.802931467375442853e-01
5.653072337096700650e-01
4.652251314378190727e-01
2.390988073343884857e-01
-8.326482418693599563e-02
-3.850416946312854583e-01
-5.496505403919609289e-01
-5.273495788734481327e-01
-3.455340221476018714e-01
-9.561637012422971593e-02
1.033579319931200308e-01
1.664087136171437942e-01
8.922466579530126396e-02
-6.840929354720451383e-02
-2.467949356154847951e-01
-4.126416368497686782e-01
-5.151413240585831499e-01
-4.742362695406536766e-01
-2.670039340932156557e-01
9.278515429185209273e-03
2.075550862015389242e-01
2.453471112221472239e-01
1.310963398055091933e-01
-9.356520011915249457e-02
-3.975461942701698503e-01
-7.260498416523519793e-01
-9.528494211906095579e-01
-9.430687819504527392e-01
-6.948469812980443416e-01
-3.694373558816630432e-01
-1.541631240325841423e-01
-1.270230619533025962e-01
-2.298841502725164909e-01
-3.086967291164743887e-01
-2.585215646455894523e-01
-2.495699955650133028e-01
-6.592030038693489358e-01
-1.541902904632833415e+00
-2.309390186444946647e+00
-2.244590565292655437e+00
-1.257130924269846739e+00
9.696411645811431335e-02
1.201919965357564068e+00
1.769726251755871616e+00
1.813190476652149830e+00
1.504275409535527519e+00
1.066965637755662666e+00
6.946577732754805057e-01
4.975832025876552045e-01
4.818807376258154029e-01
5.704715095287807847e-01
6.639171437239625995e-01
6.842180634628886038e-01
5.779494535953865197e-01
3.301750095926769268e-01
6.406483495246369231e-03
-2.392922463350866946e-01
-2.580399263113462016e-01
-6.032104035664755809e-02
1.703131129657538267e-01
2.858740745409273365e-01
3.163114933087152192e-01
3.346059510367437873e-01
3.043224110382853342e-01
1.528097687338036970e-01
-8.653196669911468464e-02
-2.785822281288706237e-01
-3.125839755555075983e-01
-1.896444883830868955e-01
5.031428486067350547e-03
1.819065644828992134e-01
2.967393341315290312e-01
3.444970152544055697e-01
3.194108727955223270e-01
1.978189916399202553e-01
-2.457639126846680733e-02
-2.891579269515935913e-01
-4.962103903953184458e-01
-5.817594962974973472e-01
-5.487391260829644901e-01
-4.091789193975758354e-01
-1.587781142089686459e-01
1.296099987576682933e-01
2.704314575421892797e-01
1.700778313103208095e-01
5.518141267079711143e-02
2.974863966597643405e-01
8.557102937575863377e-01
1.069034088105934366e+00
3.827468945729473604e-01
-7.605246413506985270e-01
-1.235439957084398799e+00
-5.320214584376861122e-01
6.859662682116169918e-01
1.412288235849858076e+00
1.303478247679014324e+00
7.416426204616134443e-01
2.289133006509639079e-01
-4.123271975256207617e-02
-1.292912951459479209e-01
-1.143695609802409946e-01
-1.533453914779520783e-02
1.303462531364354415e-01
2.239126268945372811e-01
1.756889632490456210e-01
-1.395722126017174408e-02
-2.631000743236838746e-01
-4.825450247487363953e-01
-6.260690315793365768e-01
-6.721734169020644467e-01
-5.937016501792654610e-01
-3.875527247179236245e-01
-1.226316848229197509e-01
8.417233093241474617e-02
1.488117722952604360e-01
7.063626244911794250e-02
-8.217372398387318144e-02
-2.221413426977849603e-01
-2.894836371656228091e-01
-2.769805497924903159e-01
-2.185428829157083086e-01
-1.473578251175745868e-01
-7.243052134412543419e-02
-2.407564005077336179e-03
2.642236170183946339e-02
-3.545392774438218403e-02
-2.058417942545980317e-01
-4.452285406183425498e-01
-6.785691332022186772e-01
-8.294719071402953947e-01
-8.365465346816507441e-01
-6.799947786716159515e-01
-4.052323340768996807e-01
-8.838343246454560820e-02
1.981397977553683298e-01
3.197194964932466021e-01
4.308010392210833567e-02
-7.302472067879294260e-01
-1.655640655438431308e+00
-2.097125729068820554e+00
-1.686355202393311714e+00
-6.071122612036332633e-01
6.335752475465298295e-01
1.564659712205525466e+00
1.968093879389313683e+00
1.910795894991498933e+00
1.595744390920659450e+00
1.184051344901604574e+00
7.611128010855414683e-01
4.008664503872486629e-01
1.867653979315252732e-01
1.626327026374460860e-01
2.851262459529608773e-01
4.446935710588056367e-01
5.469076865398240228e-01
5.623452773868725663e-01
4.874940454668739154e-01
3.026024192176348104e-01
1.872755478553283365e-02
-2.645707592816373133e-01
-4.079873495188631738e-01
-3.448250836348016879e-01
-1.304822943416965308e-01
1.140219321425886834e-01
2.936904085380525609e-01
3.725008205226684743e-01
3.482181450008048351e-01
2.400421810652015875e-01
9.124851897220803698e-02
-5.333265595387402802e-02
-1.638874205308096799e-01
-2.139146956588061921e-01
-1.858580537658917620e-01
-9.443266500910398042e-02
2.240018156168880475e-02
1.312456487289288820e-01
1.856676581648359081e-01
1.021140515927045911e-01
-1.582894327772902399e-01
-4.854095245622569998e-01
-6.844194747186784777e-01
-6.458849716997566714e-01
-4.246178774329923411e-01
-1.859421865283279462e-01
-5.284107366500076508e-02
6.917629377744821673e-02
4.321088233552481950e-01
9.903789905319952958e-01
1.074695308755018397e+00
1.688192489131160046e-02
-1.722429158606492372e+00
-2.642398451206136922e+00
-1.808066656138891615e+00
9.387805937614876473e-02
1.623743364851162774e+00
2.063438581232589275e+00
1.710883424395359009e+00
1.132591196108963638e+00
6.043409008820809225e-01
1.714095606414703932e-01
-1.358833962780093552e-01
-2.710814644276490770e-01
-2.344454390572023872e-01
-8.498452763984346015e-02
9.954734483231861275e-02
2.506912112636930368e-01
3.082336784124582452e-01
2.300080354687372153e-01
1.826929818398282182e-02
-2.748830223194336786e-01
-5.618820170545563153e-01
-7.322772924271908623e-01
-6.954033082898094520e-01
-4.683361935894583272e-01
-2.007195547069453856e-01
-4.690789388728483500e-02
-1.487121133012746579e-02
4.384721626484717680e-03
5.499268526659061712e-02
4.225706448509611302e-02
-1.126240533724803539e-01
-3.265582166948530762e-01
-4.428693006606265192e-01
-4.036640578396725187e-01
-2.671436549956872630e-01
-1.135188842065242842e-01
-6.072203108637730731e-03
-9.845337037290215199e-03
-1.677259486463514304e-01
-4.372998368446676665e-01
-7.003060869716806192e-01
-8.664969996683954401e-01
-9.142013046202028814e-01
-7.983435436108652361e-01
-4.505319613980093840e-01
-3.718722810736627832e-03
1.087535891915519942e-01
-4.524371569339093457e-01
-1.416326639631095397e+00
-2.036731764303355341e+00
-1.820518690722637833e+00
-9.211445705663262595e-01
1.741428918211646026e-01
1.078217160456098167e+00
1.616570749929020057e+00
1.771610621544400521e+00
1.645332826762206269e+00
1.393286649891094520e+00
1.107340949049657075e+00
7.813892079537930746e-01
4.115681144847965212e-01
7.061024067001395177e-02
-1.399621749414123317e-01
-1.625723429056948888e-01
-1.245688946568376462e-02
2.203705405548376517e-01
4.074532098239785349e-01
4.553949155981487640e-01
3.521222217158779810e-01
1.475072474207911599e-01
-9.139811708027598125e-02
-3.002216010502767318e-01
-4.174587803285551568e-01
-3.989577852530284963e-01
-2.464175773200256159e-01
-1.304233089096647202e-02
2.307344897560278385e-01
4.351111048078119548e-01
5.609973477156322552e-01
5.395948873159741588e-01
3.004698050975523893e-01
-1.091119682409616987e-01
-4.820570669510155781e-01
-6.049729815310997960e-01
-4.365020958713295984e-01
-1.123015073918730428e-01
1.759629458251604772e-01
2.973132180055989560e-01
2.330724598011008064e-01
5.701610405980069018e-02
-1.217050677667870090e-01
-2.360183948767456408e-01
-3.252086437020509369e-01
-4.617756415086861077e-01
-5.298314456782896587e-01
-1.697251016376157828e-01
8.046276761653240461e-01
1.866203712698639938e+00
1.998171612206281811e+00
8.020511229961312383e-01
-8.271929894469342015e-01
-1.541130710657961034e+00
-9.358858759625604540e-01
2.149054065744657460e-01
9.640772335119492942e-01
1.066744205975444615e+00
8.914079642600311049e-01
7.944827933666684938e-01
7.776631419532398226e-01
6.567783903212782715e-01
3.621537575649163565e-01
1.052035482871996330e-02
-2.535391708643434105e-01
-4.291723373757642124e-01
-6.233391088739802521e-01
-8.116116266385888789e-01
-7.644912412455128203e-01
-3.707687986301819727e-01
1.092439863995783578e-01
3.101130518353130139e-01
1.462573588938881342e-01
-1.969188822788431603e-01
-5.020454393260626036e-01
-6.530131286163407545e-01
-6.372798286673818646e-01
-4.957267108374910913e-01
-2.605094076656069291e-01
5.201604417421071269e-02
3.775610027545883707e-01
5.775368714731723419e-01
5.250893480284435366e-01
2.179179020495863872e-01
-2.068891408802329135e-01
-5.624951174648338270e-01
-7.136999046087194598e-01
-6.269316372416566807e-01
-3.770752523975122728e-01
-1.090272229612667676e-01
5.372948943519125636e-02
7.376003370547927485e-02
-3.881859089560545095e-02
-2.762615774816193359e-01
-5.692323908030065827e-01
-7.180072793006674337e-01
-5.558959917131324202e-01
-2.596072705003593661e-01
-3.043912152894965861e-01
-8.774313390320501727e-01
-1.487031116455607371e+00
-1.466768154016151904e+00
-7.432382456136804594e-01
1.777771686121126793e-01
8.159508361549181465e-01
1.054648699235058995e+00
1.043234257995889758e+00
9.993016830645973236e-01
1.061295324040610444e+00
1.198735347259120898e+00
1.257630807256570060e+00
1.131054835351048560e+00
8.481774020040090400e-01
4.933545435083043218e-01
1.306857426726632798e-01
-1.736970313013381784e-01
-3.400949170379676256e-01
-3.270725421553570267e-01
-1.713534995159717300e-01
4.443255658272259045e-02
2.484096427387912087e-01
3.873241257617446864e-01
4.111386885885853770e-01
2.902029336401165116e-01
4.706342988796886895e-02
-2.410202791316188586e-01
-4.732350878431259011e-01
-5.594210530121129787e-01
-4.422489464120197278e-01
-1.304275666288894076e-01
2.714587967900407572e-01
6.035719197088191823e-01
7.472410425021460689e-01
6.699688513228974074e-01
3.895363870463991463e-01
-6.227054759188199728e-02
-6.054675352393975585e-01
-1.038428744671208825e+00
-1.103087569141451452e+00
-7.491474612058324212e-01
-2.442700260727462269e-01
1.015799741643827192e-01
2.083081583479244603e-01
1.506818706755256587e-01
-3.647425327167305720e-02
-3.516115474526135265e-01
-6.362863656738688700e-01
-5.216119041863646055e-01
1.879905064502677137e-01
9.953275299709404278e-01
9.495239063498048804e-01
-2.171965769563855286e-01
-1.490015374909147594e+00
-1.608557160754996884e+00
-4.951461782822505486e-01
7.968521888566508782e-01
1.341795393989609453e+00
1.118835749404293756e+00
6.771320151526918352e-01
4.593759701243797511e-01
5.336638561427171634e-01
7.203196141352612436e-01
7.984602466319261627e-01
6.540919899370711832e-01
3.307107943699169050e-01
-3.402231910704744955e-02
-2.994850344800699671e-01
-3.773177935300969787e-01
-2.851344081108089790e-01
-1.444633785429530470e-01
-5.374621467744974262e-02
1.655167785503728825e-03
6.271608224350030958e-02
9.126466930173154912e-02
6.054480411503382689e-03
-2.085048093253688839e-01
-4.637332520992252238e-01
-6.375601865852754679e-01
-6.535786171278624712e-01
-4.849772891716878087e-01
-1.499479272601984825e-01
2.450677109221867378e-01
5.074244468757674875e-01
4.787873461964045063e-01
1.682819339378167078e-01
-2.510354232572694633e-01
-5.853177671808571514e-01
-7.582863845173185569e-01
-8.088021048818090364e-01
-7.831556292189312263e-01
-6.722070850306722800e-01
-4.580239001924000242e-01
-2.076720560615149536e-01
-8.687975308718967615e-02
-1.978010714754090682e-01
-3.968264989835289525e-01
-4.462836424060591112e-01
-4.274615358197144666e-01
-7.346183102013289501e-01
-1.453801402499262485e+00
-2.041738312518169618e+00
-1.892271304190861647e+00
-9.726213993533109337e-01
2.664766855024627290e-01
1.318502298816096596e+00
1.850587244933008080e+00
1.789901269771653869e+00
1.342846523578253848e+00
8.587912144634410883e-01
5.921105482873857406e-01
5.514639150443795268e-01
5.759892614473537398e-01
5.549206498901839701e-01
5.119339596007939086e-01
4.754887199826055566e-01
3.994844127432081726e-01
2.550419245505593513e-01
7.681492253793364977e-02
-1.029899122597768002e-01
-2.562235875773004601e-01
-3.127912400203631260e-01
-2.130424929323284089e-01
6.588373589783563800e-03
2.229913112007586296e-01
3.042342905284217691e-01
1.836229534106550987e-01
-9.498346493060681739e-02
-3.884363189772463976e-01
-5.399410653826478557e-01
-4.741660144096488949e-01
-2.164161904604579023e-01
1.428156607032076142e-01
4.677857733440780041e-01
5.997878464134280829e-01
4.457290509474335916e-01
8.953207631632259522e-02
