-1.400212471524211466e-01
-3.250859203100879835e-01
-2.921294385838376084e-01
3.449760122110637761e-01
1.435834278013341070e+00
2.114062616348264978e+00
1.679496067132489445e+00
5.275523499795514715e-01
-2.732445962702350628e-01
-1.994424069522354737e-01
3.248823444484817413e-01
6.003671307887614716e-01
3.925812947130431496e-01
-7.836093441606815924e-03
-2.506822812218451046e-01
-2.716669060635888422e-01
-2.174958570483919440e-01
-2.202695253932250019e-01
-3.053887744738472132e-01
-4.209698033582134347e-01
-4.940664347804831213e-01
-4.855498154732269533e-01
-4.140224388156337199e-01
-3.252595665098271804e-01
-2.489242891784839706e-01
-1.888921381665457089e-01
-1.439043630898084181e-01
-1.234858770414364870e-01
-1.272527325261719466e-01
-1.216916064319267798e-01
-7.750991259323168625e-02
-2.593168389150159181e-02
-3.103486364987576712e-02
-9.617715626157349873e-02
-1.440350996194968980e-01
-1.197260111428674889e-01
-6.941793387093504741e-02
-7.036389246488354565e-02
-1.282835418558930241e-01
-1.952356053682624826e-01
-2.449789938229480768e-01
-2.830679828835933054e-01
-3.087954259181794892e-01
-2.953493714913466017e-01
-2.105795592184433185e-01
-8.086977964670753749e-02
-3.231207485723560507e-02
-1.664979307761550176e-01
-3.062749052056043531e-01
-1.186628710835952241e-02
8.620383581667205863e-01
1.691943274443364675e+00
1.634930153447603507e+00
7.166752781512856219e-01
-1.468691667840027471e-01
-2.857538838335029197e-01
8.218539839431125704e-02
3.745587421738265643e-01
3.307179730718293742e-01
7.916044979422635908e-02
-1.655424518882922524e-01
-3.023812973754300693e-01
-3.449189666073183003e-01
-3.499733919311297514e-01
-3.479512862295996989e-01
-3.187166855111929209e-01
-2.451175868466905217e-01
-1.711881983067757573e-01
-1.676716954506585755e-01
-2.416466511599642542e-01
-3.182023135101385569e-01
-3.289016241801860363e-01
-2.851137280534186691e-01
-2.362742517295009226e-01
-1.886273798648956668e-01
-1.048915372084357617e-01
2.898852507575465018e-02
1.717831400088088989e-01
2.632548378667234901e-01
2.664817233623347770e-01
1.752274697080405952e-01
1.431890297605272963e-02
-1.566051940821759914e-01
-2.678000119550195124e-01
-2.848415510790391902e-01
-2.249367734140680086e-01
-1.367961021016795287e-01
-7.497895794787398649e-02
-7.432411528340844564e-02
-1.219288597193139839e-01
-1.603126177035215649e-01
-1.504146609122128386e-01
-1.409943084297723137e-01
-2.279459575061750509e-01
-3.605992285548786924e-01
-2.030985054659533995e-01
5.634022092104022938e-01
1.619977037226524530e+00
2.046186590348104239e+00
1.378000859681346224e+00
2.712447564484917750e-01
-3.178449878919669125e-01
-2.159515667191461707e-01
7.128604558445199302e-02
1.472422754625033747e-01
4.214733039707166395e-02
-5.319933919752906082e-02
-7.839630207231357284e-02
-1.086578486032788310e-01
-1.886812671597868363e-01
-2.377806220427459705e-01
-1.453516249746339972e-01
4.196860721619952161e-02
1.136462509126591469e-01
-4.012546853308635725e-02
-2.607290448488679968e-01
-3.311487444262339319e-01
-2.353826913395521137e-01
-1.141282749230937837e-01
-7.422727779486767985e-02
-1.118511914581168942e-01
-1.556180764966570707e-01
-1.397060391637989785e-01
-5.691226720992688393e-02
4.148106618225672060e-02
9.702569925821191710e-02
9.269369455092972554e-02
5.656541200609038061e-02
2.408043048541685938e-02
-8.311189913749812870e-04
-3.509673703026641722e-02
-7.800064195215516971e-02
-1.172325019593336015e-01
-1.626720560737920929e-01
-2.326262070286403694e-01
-3.044904823134729210e-01
-3.110198747320042090e-01
-2.160339305388536690e-01
-1.026752374303402798e-01
-1.343001754724126307e-01
-3.248415704125807157e-01
-3.417813802947849422e-01
2.408175998503791770e-01
1.279362102152627800e+00
1.897245587075468753e+00
1.426359769577574710e+00
3.231596737189190716e-01
-3.663410998055869894e-01
-2.536305099461036994e-01
1.709764773309409569e-01
3.500017906195933559e-01
2.245892232827792212e-01
4.655237187935186427e-02
-3.804148808470848159e-02
-9.155314995724521399e-02
-1.952289022169136912e-01
-3.140051769970960693e-01
-3.615791954906807382e-01
-3.143967865680332707e-01
-2.355230879570191505e-01
-2.141970452469140196e-01
-2.831855960065987610e-01
-3.880373512221641508e-01
-4.430519254263496354e-01
-4.122849044800637186e-01
-3.302001317252769019e-01
-2.537629683644156975e-01
-2.015847209811786889e-01
-1.416329177611866941e-01
-4.416068064833549023e-02
6.113136143086486674e-02
1.033437879103055040e-01
5.758645985057119637e-02
-1.394749603932430096e-02
-5.418100601267392125e-02
-9.532686674887948242e-02
-1.452516349340052804e-01
-8.367473644336673178e-02
1.388935270818255352e-01
3.193189986348576870e-01
2.457694330534376803e-01
-6.280665252808112498e-03
-2.051851226408655526e-01
-2.477471337080571212e-01
-2.021725250628038928e-01
-2.019464154585293159e-01
-3.275868560425522769e-01
-4.334530946150683683e-01
-1.146005092784468798e-01
8.343347690193572141e-01
1.849424961665620870e+00
1.967980851689101751e+00
1.010441573324079023e+00
-1.169145376467260189e-01
-5.306979107297569165e-01
-2.619874255874414803e-01
1.150410649934628105e-01
2.427364404663389097e-01
1.600891352300513326e-01
2.836118153664068942e-02
-7.846962073910325464e-02
-1.595264499169957162e-01
-2.173546722379709195e-01
-2.585921101922296628e-01
-3.061722696183701853e-01
-3.635010754475817008e-01
-3.961255112293744496e-01
-3.736193703651210507e-01
-3.019879416512853409e-01
-2.097368350629954248e-01
-1.311827679194302321e-01
-9.601342619055798500e-02
-1.068436804844824090e-01
-1.326913939865946301e-01
-1.395882018254194501e-01
-1.171178192215825281e-01
-6.835154288684600066e-02
3.241008430205068267e-03
8.270452838442277077e-02
1.389569446493081617e-01
1.453436670526978003e-01
9.841914479806339322e-02
1.634382716784079509e-02
-7.439820681143127779e-02
-1.508804657641890368e-01
-2.010808191180095128e-01
-2.295075799124642602e-01
-2.477744199886321441e-01
-2.444878436490765528e-01
-1.818682120208493236e-01
-5.561129994742380900e-02
4.187907621821092274e-02
-3.511459239823653405e-02
-2.911324909496619817e-01
-4.056820420205337618e-01
6.668150770624935164e-02
1.063049021210266565e+00
1.767278246797451269e+00
1.462592237462466471e+00
4.937139084010813694e-01
-1.602972550819459496e-01
-1.019178850670476311e-01
2.321636798318833517e-01
3.332999446785240849e-01
1.396204152895333395e-01
-1.240336428033845945e-01
-2.775255048391581658e-01
-3.026875794639752870e-01
-2.771829733887343772e-01
-2.709825364336446163e-01
-2.934439747115220598e-01
-3.150579231509107458e-01
-3.186893039266621153e-01
-3.134877058783392956e-01
-3.112699457713486995e-01
-3.121363944647976840e-01
-3.077380832091667351e-01
-2.838324308349188252e-01
-2.298330359508041765e-01
-1.536674423980706194e-01
-7.369212162502322694e-02
2.507623567255102756e-03
7.305835081127817765e-02
1.198174935864685930e-01
1.138856847389597970e-01
4.712065172393513357e-02
-5.565476951492098756e-02
-1.553426385235190110e-01
-2.162029391621799190e-01
-2.140565916920226519e-01
-1.535851100659005875e-01
-7.825699262507440634e-02
-4.300348209509850111e-02
-7.242518244197866661e-02
-1.432641986361659903e-01
-1.964673756798575588e-01
-1.807974983720984086e-01
-1.175193710230707650e-01
-1.158981243016216078e-01
-2.472632635838839799e-01
-3.218508117736014196e-01
9.297806667624303190e-02
1.122473600854352993e+00
2.072591089158438926e+00
1.994234175419130839e+00
8.973697624959474650e-01
-1.806624389176479384e-01
-4.470253100828917581e-01
-1.032974639771650355e-01
2.313457553447550441e-01
2.827100362679539347e-01
1.723019510764168538e-01
6.294260221647531017e-02
-3.066301430218374910e-02
-1.587661272828044257e-01
-3.102994346717716789e-01
-4.161727052716941433e-01
-4.340463909897875894e-01
-3.861925562546387192e-01
-3.217739979637799785e-01
-2.674284043038304137e-01
-2.186506965370755284e-01
-1.689341244994607694e-01
-1.365553734691450916e-01
-1.527147087482959020e-01
-2.176487309408509097e-01
-2.815211727810285058e-01
-2.862030955091285356e-01
-2.132674319337047042e-01
-8.223396686324034588e-02
6.571176517471635781e-02
1.720510048502977840e-01
1.871741705459061822e-01
1.089587937054101313e-01
-1.825641334358331716e-02
-1.445208896736744630e-01
-2.460955934869237249e-01
-3.177546763493420690e-01
-3.507094522591979180e-01
-3.342565604614330388e-01
-2.679075249711264650e-01
-1.594749244778601860e-01
-2.864639710086974711e-02
7.537752263481874160e-02
7.443189935126148793e-02
-9.265821865124124201e-02
-3.528797119659501380e-01
-3.790230771135940646e-01
2.199784396551754673e-01
1.308292802556707768e+00
2.021436873196361006e+00
1.640906075054768376e+00
5.351194719608779460e-01
-2.750573489182304154e-01
-3.188482687468490173e-01
1.525413289120951255e-02
1.824189205662579416e-01
6.231296938921040279e-02
-1.301005048111980034e-01
-2.180047863933176067e-01
-2.161786805288249680e-01
-2.048274379049280225e-01
-2.003493881153581846e-01
-1.854281914243028906e-01
-1.779209542343645756e-01
-2.080878267607116916e-01
-2.618346787681984922e-01
-2.922729350510604451e-01
-2.796949032868249474e-01
-2.458248072162446951e-01
-2.065190113611665157e-01
-1.487362542062280746e-01
-6.641665089374329534e-02
2.003464370995823238e-02
9.291454432668946883e-02
1.500332983796189013e-01
1.829122863492965156e-01
1.724942689974279242e-01
1.097168962798473896e-01
1.047020062321984447e-02
-8.031020909769501226e-02
-1.053887450969195755e-01
-4.787474223521887701e-02
2.684761623171792386e-02
1.215529040530241231e-02
-1.318296456222713964e-01
-3.198830061117362011e-01
-4.243062973479035382e-01
-4.034756696766784723e-01
-2.960441917874577777e-01
-1.441602153993305768e-01
-2.743557980159496909e-02
-6.808647670777261129e-02
-2.000244175898740207e-01
-2.110127941076615429e-02
7.784000965402392280e-01
1.767506892760041470e+00
2.002198494152208852e+00
1.179571045606805590e+00
9.955750325595968953e-02
-3.642685829841064149e-01
-2.459772213770022309e-01
-9.588393359699251550e-02
-1.249205638812203312e-01
-1.561437716650452001e-01
-9.245942330413484123e-02
-4.216600064691573141e-02
-9.920986472708138992e-02
-2.272393784015175333e-01
-3.358457325770645707e-01
-3.756962055441134263e-01
-3.550346770248249961e-01
-2.997407255293353945e-01
-2.167830984154346385e-01
-1.015437506985510524e-01
6.163577394489500039e-03
-2.179533360185690466e-02
-3.068999802045023206e-01
-7.363848528150935824e-01
-9.464299194064579313e-01
-7.156171647692535220e-01
-2.448020391338767698e-01
1.248189194436813282e-01
2.830271688812531772e-01
3.113402002553384285e-01
2.707071724186915773e-01
1.579152373400841969e-01
-5.728338654783563660e-03
-1.339262539511397454e-01
-1.489053849018348863e-01
-8.090655669356737467e-02
-7.309900621986599456e-02
-2.484140871103820147e-01
-5.287763238270537514e-01
-6.644947828372201881e-01
-5.382089034539048189e-01
-3.077550477982515242e-01
-1.762610710085526777e-01
-2.131544671229439747e-01
-3.590315631578891997e-01
-3.453164573688546346e-01
2.243681404672549784e-01
1.309052835651294933e+00
2.100662728708870386e+00
1.813412984063263123e+00
7.369618149972485543e-01
-8.969901095522361811e-02
-1.559885409233553732e-01
1.481209521923987638e-01
2.845914209419887486e-01
1.502067744717550668e-01
-5.178418252388025667e-02
-1.523292171323845368e-01
-1.386206188314321741e-01
-8.311356065116357050e-02
-5.204356120168322081e-02
-6.785123093726036503e-02
-1.139453896708488428e-01
-1.632882958769702464e-01
-2.094503155429753294e-01
-2.629367197825407398e-01
-3.139706421366512124e-01
-3.220088939918658855e-01
-2.575565947094303199e-01
-1.420207277076172836e-01
-3.445806583989236699e-02
2.191962885154429344e-02
3.930796582032795167e-02
6.465964306438720666e-02
1.159014147722105814e-01
1.562256780785561128e-01
1.418279201824186320e-01
7.546212660654552651e-02
4.200645887171611595e-03
-2.646228331291653607e-02
-1.793338673472962691e-02
-1.293644044976553081e-02
-4.265611772091210119e-02
-1.046791566345032509e-01
-1.878354234586213645e-01
-2.710588570216240778e-01
-3.008725391718889974e-01
-2.283459385727383828e-01
-8.917891783059292421e-02
-1.710911634866588149e-02
-1.193365224859850166e-01
-2.630190629338556851e-01
-4.070312545605768439e-02
7.864555272178983536e-01
1.732276519052563080e+00
1.884965611860763390e+00
1.015539396738673439e+00
-5.179270534793176117e-02
-4.458831921246814711e-01
-1.686746043278058438e-01
2.045238421864480072e-01
2.964740512494811742e-01
1.519549114136183321e-01
-3.551976881644322570e-02
-1.674886720793227202e-01
-2.548894701875505375e-01
-3.284121063994455691e-01
-3.833290471739755345e-01
-3.899931226794184358e-01
-3.355878511503046502e-01
-2.441834287061499520e-01
-1.547893988006059374e-01
-9.511844262716745435e-02
-8.088916823161332315e-02
-1.171143686163710895e-01
-1.874326938052831293e-01
-2.582882701210112431e-01
-2.989097379026502410e-01
-2.829986074628609849e-01
-1.848725428374228819e-01
-1.148230401798300618e-02
1.666690505727764782e-01
2.559341073899627506e-01
2.190585949743490968e-01
9.577268435475973229e-02
-5.091972789416585737e-02
-1.811882370228301009e-01
-2.719993378907800130e-01
-3.033858205005190989e-01
-2.718276626629917980e-01
-2.029332803602212909e-01
-1.385063765890166831e-01
-1.024312327172001991e-01
-7.491445661727579031e-02
-2.876122296344053170e-02
-1.139119402100429064e-02
-1.333975940595717724e-01
-3.902411581661994755e-01
-4.925315538437958773e-01
-1.820001312886722344e-02
1.043138948188957471e+00
1.954274452671847850e+00
1.870722134430657047e+00
8.904918695673598172e-01
-3.111722756325360773e-02
-2.556448645651716034e-01
-2.471769690448923085e-02
1.353587125612690512e-01
5.840308573900009070e-02
-8.887745592871020006e-02
-1.447162373110587597e-01
-1.110245019683673423e-01
-8.402118737856971442e-02
-1.312775574316841776e-01
-2.312566577711825944e-01
-2.975833037699014971e-01
-2.669194430776477001e-01
-1.812669344671996585e-01
-1.543776507432213785e-01
-2.250125065873374575e-01
-2.960927435397154861e-01
-2.642213236169762558e-01
-1.506119094643139089e-01
-6.129942683557688954e-02
-6.046297067205624182e-02
-1.138345495634032617e-01
-1.391774551482588274e-01
-9.453456666888587767e-02
-1.897570403657663357e-02
1.145325804653751257e-02
-3.071950469209226708e-02
-9.409206051397867032e-02
-1.091927545862810683e-01
-6.193541563922747711e-02
-2.860192408873996409e-04
8.694558314285123768e-03
-7.312848458789504569e-02
-2.156211741353988576e-01
-3.304990926917790728e-01
-3.479509054228946963e-01
-2.681759692781863769e-01
-1.437156213140994010e-01
-6.937506879930725734e-02
-1.503091363114492374e-01
-3.280750553562624128e-01
-2.373761663927305143e-01
4.766693144631659607e-01
1.509327303088652927e+00
1.924093426035533350e+00
1.233636601116637976e+00
1.075610882922956313e-01
-4.444321426603892178e-01
-2.282379512332803895e-01
1.873534080275508773e-01
3.126557808028487262e-01
1.449282054702252798e-01
-7.876695539492299669e-02
-2.208341041420204265e-01
-2.964184346721370211e-01
-3.416193328525202744e-01
-3.502698941330766869e-01
-3.226624298376553623e-01
-2.906399247627110549e-01
-2.763878863919798090e-01
-2.713791503195793764e-01
-2.622463179302233494e-01
-2.483743823710972132e-01
-2.373487064846879491e-01
-2.388876312598710305e-01
-2.527134945741551508e-01
-2.566864882143228832e-01
-2.190437172063066373e-01
-1.263645235347076734e-01
-7.692380981186236824e-04
1.053357734828387904e-01
1.377646746897820684e-01
7.684495383490604070e-02
-4.834627942738237150e-02
-1.802278603238481880e-01
-2.696768971465769993e-01
-2.993745480301654438e-01
-2.762908061064133780e-01
-2.143109388280791949e-01
-1.387737086699549482e-01
-9.329545111030329574e-02
-1.081268869329348736e-01
-1.580121514040655761e-01
-1.831955869893564515e-01
-1.741173903476264384e-01
-2.114319271799414701e-01
-3.484365938338587210e-01
-4.002227839262607612e-01
2.153414421916908031e-02
9.958037087123413622e-01
1.866778675877339921e+00
1.797083472314242147e+00
8.298671031439208701e-01
-1.080992711359489156e-01
-3.374581810748560895e-01
-5.835236172064835192e-02
1.798738173096199877e-01
1.809372980712227741e-01
1.360835130472625720e-01
1.993149270193846079e-01
2.590836198465204521e-01
1.554209025041540237e-01
-7.007701244818542730e-02
-2.658378804693944386e-01
-3.741418539977789393e-01
-4.332051089283256440e-01
-4.688832995034560303e-01
-4.605549714083683188e-01
-3.820487237267879421e-01
-2.481423314693726179e-01
-1.189571826747649191e-01
-5.201368952175138005e-02
-5.589791040464701932e-02
-1.031608848050013794e-01
-1.683098965094400323e-01
-2.147327570948406039e-01
-1.558493671110686707e-01
8.391911755982209287e-02
4.121822864511948681e-01
5.737425707420681364e-01
4.296679517951573768e-01
1.320831578250048488e-01
-8.531127776942123986e-02
-1.637315904833323565e-01
-1.864324670547843621e-01
-2.204744929951866217e-01
-2.689196002310351719e-01
-3.077949954460756921e-01
-3.065096181386190999e-01
-2.324469285450090905e-01
-8.676340878795298084e-02
4.473945765381701078e-02
1.702436219740610657e-02
-1.981824692518396602e-01
-3.166820452734941393e-01
9.667080175010563103e-02
1.024179148872414569e+00
1.716446307033207219e+00
1.454886746006921694e+00
4.983708104445779274e-01
-2.217076007124336723e-01
-2.355320138501078575e-01
1.147806332042395350e-01
3.179880604494030316e-01
2.349836622197738478e-01
2.347717118828025751e-02
-1.556367147341457535e-01
-2.539358688766662486e-01
-2.872787552948735113e-01
-2.776366479880616467e-01
-2.414223571552373826e-01
-1.995508454030655576e-01
-1.726323020772757288e-01
-1.710856585688436127e-01
-2.099508139847773291e-01
-3.028607735872206885e-01
-4.034430196511044064e-01
-4.104733979746766903e-01
-2.932251029972492429e-01
-1.463945259655195785e-01
-6.098463215083418237e-02
-1.430270829376174835e-02
6.108079772002028562e-02
1.661953504954238603e-01
2.350345501840336859e-01
2.070113527509048201e-01
8.362295760511437304e-02
-6.680101892566193966e-02
-1.615804751296860409e-01
-1.722439518087920951e-01
-1.369815223148022065e-01
-1.064547708006911564e-01
-9.549458471579889973e-02
-1.004770322154115159e-01
-1.404297631774882593e-01
-2.326227099774618723e-01
-3.284074859890475095e-01
-3.487655915663859241e-01
-3.192322575450808331e-01
-3.676653453143946537e-01
-4.637277347376906333e-01
-2.434187323164925254e-01
6.064036658440139504e-01
1.684976504823697763e+00
2.021245515177244823e+00
1.224165148829940986e+00
7.022147593577474090e-02
-4.494671008358921416e-01
-2.274051480872784636e-01
1.494173420599327895e-01
2.469281313128247612e-01
1.047443635909093562e-01
-4.648680685845245353e-02
-1.021423614257885304e-01
-1.194427631996009959e-01
-1.745308834828565858e-01
-2.681070187009592098e-01
-3.489656450414815314e-01
-3.749553981072877296e-01
-3.454208201286054214e-01
-2.946350844407693570e-01
-2.530645849370801725e-01
-2.146602590299431235e-01
-1.583969739407964927e-01
-9.927771922680193872e-02
-8.750197468371047338e-02
-1.429100895067656196e-01
-2.110120761496878106e-01
-2.076759194103818262e-01
-1.088480274363269606e-01
2.023157643171885622e-02
9.434946405438338068e-02
9.017743588365853546e-02
4.790794780492181604e-02
1.086963850864717564e-02
-2.237229698503587216e-02
-8.507638634892242258e-02
-1.805894823383244474e-01
-2.571757256583940277e-01
-2.680637904552445328e-01
-2.292403474191237744e-01
-1.845951159090187255e-01
-1.355243195323032057e-01
-5.147395041683150430e-02
3.701456640882072602e-02
7.650708281470779831e-03
-1.838727827177890906e-01
-2.682080237603206019e-01
1.966420623900990428e-01
1.190747704929107753e+00
1.931177619493110509e+00
1.672880101345278758e+00
6.892447129531945604e-01
-7.035357086908777813e-02
-1.472064136155559200e-01
1.208433433015811131e-01
2.717767255727326359e-01
1.927405807197405396e-01
-2.740435324429790764e-02
-3.259413624232396223e-01
-6.090905090074812955e-01
-6.905001432986305199e-01
-4.993396616934069332e-01
-2.282455038471214170e-01
-1.083596981890566635e-01
-1.582066214602150245e-01
-2.579236968375611116e-01
-3.343989295172250520e-01
-3.808009877563263701e-01
-3.813721210663834071e-01
-3.050352710027673941e-01
-1.672223194953723346e-01
-6.246101328882393278e-02
-9.767277456431175398e-02
-2.347726006111870156e-01
-2.151552820400692012e-01
1.979515030977131440e-01
8.158567925907135310e-01
1.080463342928289716e+00
7.145438230879219699e-01
8.378241549823171874e-02
-2.802350798055394110e-01
-2.508250594766404662e-01
-5.838203720952475639e-02
6.441625978067770653e-02
5.041276442490461029e-02
-5.029752749113600152e-02
-1.663649431874694440e-01
-2.477953574755046295e-01
-2.627405671756947170e-01
-2.143687129875935238e-01
-1.772958554710204748e-01
-2.426311351386679638e-01
-3.247608936206565766e-01
-7.601097681241947290e-02
7.431781727327307907e-01
1.711337034576813521e+00
1.946582872697401934e+00
1.148196879238937873e+00
5.352414429071547519e-02
-4.500722616078603466e-01
-2.675677379905938014e-01
9.403943609910951629e-02
2.467678613123338860e-01
1.804782137022736266e-01
4.947446969186970051e-02
-4.911420692002813754e-02
-1.172790999790657707e-01
-1.919200061330353091e-01
-2.815820613719149379e-01
-3.568014293759869116e-01
-3.814340984525753098e-01
-3.463234490337617766e-01
-2.749630789685866272e-01
-1.965703517579980852e-01
-1.226782727684468804e-01
-5.806418051736535885e-02
-2.126133798313940837e-02
-3.431726700643120131e-02
-8.526228451734942093e-02
-1.172424770678378858e-01
-7.978739138568841094e-02
1.893189890754188795e-02
1.275840913565798596e-01
1.943728278134299881e-01
1.867037391457309070e-01
1.069898533157724596e-01
-3.003429992757548211e-03
-1.016746084197031469e-01
-1.853936472334417329e-01
-2.621825771287656925e-01
-3.103980098405706989e-01
-3.013575102819347484e-01
-2.450260224335568393e-01
-1.792952007082873334e-01
-1.266122219359230028e-01
-8.670987692661694113e-02
-7.757210950163719032e-02
-1.679728188381005294e-01
-3.930367283432917858e-01
-5.550839924987427398e-01
-2.356306275331725986e-01
6.924603819963817131e-01
1.594356697024887470e+00
1.599470728479612358e+00
7.077964121902297068e-01
-1.657687288492779576e-01
-3.478689027517982701e-01
-5.435087094860521773e-02
1.612661231344791612e-01
9.294476794946239517e-02
-9.526971778566001303e-02
-2.117740911708133056e-01
-2.338559297710750828e-01
-2.518121628695809688e-01
-3.224451728436511511e-01
-4.033019780694026557e-01
-4.271126137719670202e-01
-3.983573855791212037e-01
-3.770341990495389983e-01
-3.994532726363035913e-01
-4.416779171693033801e-01
-4.435294800644746793e-01
-3.698251893778240484e-01
-2.536778797696304100e-01
-1.638304050583921923e-01
-1.284165922322623721e-01
-1.108535649052050376e-01
-6.579067114460387944e-02
7.890714653386501215e-04
3.933404486198630035e-02
1.278818718592086845e-02
-6.450516243535754646e-02
-1.387898277450572149e-01
-1.670604768047638800e-01
-1.538926795899793754e-01
-1.299284077555325212e-01
-1.113576099404142983e-01
-1.098961281546516344e-01
-1.550826254530135173e-01
-2.504403744849405533e-01
-3.237518917135256968e-01
-2.852718183847547939e-01
-1.439252301724911753e-01
-3.150566714133602730e-02
-7.889499517569124876e-02
-2.093513302516821772e-01
-6.330055775570972432e-02
6.545203708286555511e-01
1.603203566096172761e+00
1.906666744673593650e+00
1.175319965624999297e+00
8.913241154190304494e-02
-4.249036252874952013e-01
-2.261178487307209939e-01
1.580658720398835371e-01
3.054591983995818549e-01
2.206805233526574206e-01
8.217451618096102695e-02
-3.729382436169655785e-02
-1.661483517384759190e-01
-3.044868528186380763e-01
-4.012914079298806058e-01
-4.222963948807065271e-01
-3.842328745995010064e-01
-3.287549658122421170e-01
-2.821716698932855150e-01
-2.428323868983841005e-01
-2.046141102613208418e-01
-1.794961872708549788e-01
-1.836132351003117724e-01
-2.097372602923613938e-01
-2.264138282690142945e-01
-1.998795169645876391e-01
-1.130698344099258928e-01
2.577992958135763221e-02
1.798258294231014631e-01
2.900550813572901898e-01
3.033440721524747197e-01
2.106456086248436055e-01
5.732283877313631981e-02
-9.010458763398819515e-02
-1.919105873465930256e-01
-2.520551838488400143e-01
-2.828515365235422796e-01
-2.686618443144564994e-01
-1.963168637236103464e-01
-9.929726046019904384e-02
-2.354481688025475764e-02
2.351226452168555733e-02
3.509323033109856133e-02
-5.148820830901598006e-02
-2.685014301083136767e-01
-4.150236617500749903e-01
-7.333937178655691724e-02
8.914918531622544329e-01
1.862411683272705565e+00
1.961763368882245784e+00
1.139443834247933829e+00
2.501083797643472995e-01
-5.248715708218979620e-02
7.169882551481340793e-02
1.734397464292142255e-01
1.005134826264680592e-01
-2.969265970623218009e-02
-9.715884474777977675e-02
-8.679051201520392167e-02
-4.651580121955584124e-02
-3.008553688163859846e-02
-6.798856602493545676e-02
-1.511737437396510064e-01
-2.364431153341321201e-01
-2.832117663061601842e-01
-2.857276779121022958e-01
-2.626991865024075334e-01
-2.224274121128127502e-01
-1.555435179354388020e-01
-6.735191063105466780e-02
5.927705518715603583e-03
3.785758202430646036e-02
5.710124330429530021e-02
1.205589400950103779e-01
2.297518637117466900e-01
3.024291492068373888e-01
2.659090731007040520e-01
1.545421973364421719e-01
6.303197743381129536e-02
3.223041652246930872e-02
2.973490459091359533e-02
1.142884346779042722e-02
-3.431878407947242665e-02
-8.533136975310748329e-02
-1.167652666489189389e-01
-1.364922427511384428e-01
-1.686467913521552675e-01
-1.963110142323223062e-01
-1.663843979517960481e-01
-8.672737874242859857e-02
-7.346654109520349418e-02
-1.995016650518593726e-01
-2.596186802593253296e-01
1.429920904426804640e-01
1.030422885611362638e+00
1.707718071495495371e+00
1.445747099067915764e+00
4.633954209311491046e-01
-2.935787576772590501e-01
-3.048664755396407466e-01
9.271083840262446529e-02
3.403200528960058646e-01
2.645861650659501740e-01
3.787114783329129097e-02
-1.493819517902655880e-01
-2.464833459306587093e-01
-2.895986830846923321e-01
-3.122691079335235265e-01
-3.187268207214668525e-01
-3.055332796376989402e-01
-2.803867162909637889e-01
-2.576938911726051051e-01
-2.486837692297373392e-01
-2.555763557019842258e-01
-2.703609474320514683e-01
-2.864066879608478944e-01
-3.045919968561820457e-01
-3.101617466518116206e-01
-2.637076687119851992e-01
-1.479713473233821019e-01
-3.844162463172288643e-03
1.057962060356500145e-01
1.465133719042752136e-01
1.175218297726816352e-01
3.410484999254595473e-02
-7.938961341047900966e-02
-1.883590664568703943e-01
-2.590838796059042881e-01
-2.786040024007357396e-01
-2.546036275608609123e-01
-2.038691814164855787e-01
-1.549293690627377429e-01
-1.386701865459787908e-01
-1.555488992499932666e-01
-1.754205452253796427e-01
-1.933111489613424383e-01
-2.724453926847077434e-01
-4.685494496419091437e-01
-6.297804187333836401e-01
-3.455927840246362792e-01
6.117909481573354791e-01
1.704857316609316609e+00
1.940587333861892194e+00
1.057559091770379434e+00
-7.351238349947597506e-02
-5.298913401663313261e-01
-3.023156977163838910e-01
3.579490012342573246e-02
1.163075192559086535e-01
-9.907027494299062292e-03
-1.475911466984632381e-01
-2.054549850577639114e-01
-2.160888182976548610e-01
-2.387320950467676506e-01
-2.979031056049949444e-01
-3.837181234171438970e-01
-4.577721855953751362e-01
-4.593750184884239918e-01
-3.578602043756924367e-01
-2.108026948035240100e-01
-1.188797432455703379e-01
-1.130978377449672473e-01
-1.351753019669180156e-01
-1.289029990781888346e-01
-1.055326776343208650e-01
-1.106579097830445446e-01
-1.507022091807311281e-01
-1.753732900032186071e-01
-1.405592085923361989e-01
-6.933249354084862481e-02
-2.900617690531760370e-02
-5.498163048391599417e-02
-1.173383413748813470e-01
-1.654658723249393115e-01
-1.882980994716540457e-01
-2.155760227686811248e-01
-2.706869238427361823e-01
-3.420507047676314416e-01
-3.942438045762566290e-01
-3.899334363766682743e-01
-3.109500482807602828e-01
-1.882522579444731725e-01
-1.180802383515777432e-01
-2.017899947892169976e-01
-4.000839576780809148e-01
-4.311794580471262073e-01
6.220764963026354649e-02
1.030670447508510890e+00
1.763863050706369950e+00
1.533665177349963660e+00
5.386516634552455107e-01
-2.701108371965924015e-01
-3.246879619456952693e-01
7.450647749270651599e-02
3.552179050506561464e-01
2.901805506300235704e-01
-8.137691281843023594e-04
-3.033287732513964552e-01
-4.089767795171240228e-01
-1.805087667220749148e-01
2.491767789361288843e-01
4.771900644564153193e-01
2.734089821157658640e-01
-1.228086759579018611e-01
-3.460709066942214140e-01
-3.389449352799637771e-01
-2.850419779642295870e-01
-3.021349374659007547e-01
-3.425450723260561325e-01
-3.209842322478534404e-01
-2.411823372430322854e-01
-1.679180783243575392e-01
-1.192681054232219706e-01
-4.913082726223105823e-02
7.351565560325716564e-02
2.128415705643999789e-01
2.880830166617468491e-01
2.369042632653623470e-01
7.891782730884788766e-02
-8.898745644467973004e-02
-1.785333092253075793e-01
-1.752079617255331845e-01
-1.192835799508215611e-01
-5.378753295317938166e-02
1.539701950357760460e-03
3.871606328283934417e-02
4.487473288129029125e-02
1.874747853764548861e-02
-1.449833223067755958e-02
-4.672966759941411113e-02
-1.191542846541613632e-01
-2.152641286792389974e-01
-1.055631971185330004e-01
5.146562310105952109e-01
1.517762939029322578e+00
2.140285244230963002e+00
1.724039244147671734e+00
6.000659815684776799e-01
-2.524813063527917567e-01
-3.477071293027083621e-01
-3.007545850115164732e-02
1.907835981901911115e-01
1.858157049445742781e-01
1.051387469047932038e-01
5.599366434168718404e-02
9.742532213795576657e-03
-7.616743109472595696e-02
-1.688702752942121965e-01
-2.199865576950592039e-01
-2.619782950542754452e-01
-3.707967244575174348e-01
-5.141192353469135057e-01
-5.323971515048981917e-01
-3.514952539935068954e-01
-1.095458814424223326e-01
2.404871350630901489e-02
3.741711192245941731e-02
5.826956607070624128e-03
-3.895923970885990101e-02
-8.508262389831067196e-02
-7.728042768888532255e-02
3.309211753339315332e-02
2.039528937996984981e-01
3.256167437218170368e-01
3.240789999123545595e-01
2.182291634153754045e-01
8.184630505062444328e-02
-3.133711809912408108e-02
-1.185466936670152571e-01
-1.955688441024341639e-01
-2.565742107543666495e-01
-2.786404300603803064e-01
-2.522995602061937070e-01
-1.921455295391580054e-01
-1.203254444497532244e-01
-5.735335202904628948e-02
-5.048415990181728125e-02
-1.721973419791575088e-01
-3.693188557617192447e-01
-3.064593557972190574e-01
3.683628699726519962e-01
1.397125203882871647e+00
1.886235648922908625e+00
1.323331040068937314e+00
3.053499822798406149e-01
-2.096631000477547635e-01
-3.226802248888203245e-02
3.013636037052580541e-01
3.503161730866350410e-01
1.382938618333935665e-01
-1.053500202153163506e-01
-2.462123242448316374e-01
-2.761360327494140066e-01
-2.173084718381981806e-01
-1.117410794695860160e-01
-8.679700937388121207e-02
-2.929863619250999696e-01
-6.690246638230059606e-01
-8.947516510272526258e-01
-7.570489447624958457e-01
-4.295277003560011297e-01
-2.150205596324247515e-01
-1.814290006671524791e-01
-1.968798693700024027e-01
-1.655372918282631001e-01
-1.023054143790145670e-01
-4.637179077804148147e-02
3.299106965264061823e-03
5.559609387030075428e-02
8.157602200057269271e-02
4.064367609458433700e-02
-6.162894093893438174e-02
-1.684616806516587573e-01
-2.196824291803915474e-01
-1.951157267402984508e-01
-1.234010592320129718e-01
-6.018405868358359112e-02
-5.317314766730479175e-02
-1.129435288826606126e-01
-2.017724753497386336e-01
-2.555866716217555790e-01
-2.385243684981645518e-01
-1.869904380974391767e-01
-1.936122864483220685e-01
-3.065846900883112403e-01
-3.732882059010202425e-01
-2.913211232525356187e-02
9.038429353139656452e-01
1.909335598450291771e+00
2.070438131258974579e+00
1.161589316629660917e+00
2.511198222531924040e-02
-4.409068229906553116e-01
-2.195600540433182979e-01
1.278716616324077626e-01
2.375247259473915185e-01
1.481973514012104587e-01
1.857453926449584292e-02
-8.914375176885615260e-02
-1.904925997045057162e-01
-2.922926248724243559e-01
-3.727981654504703979e-01
-4.128958968223853665e-01
-4.119640105532034191e-01
-3.750379164451043690e-01
-3.073765381762067483e-01
-2.286144242961367090e-01
-1.737077809132784034e-01
-1.656147868675419133e-01
-1.965534408011108403e-01
-2.416132611851488921e-01
-2.757972941926245536e-01
-2.746566701671372401e-01
-2.181776325564023788e-01
-1.091998408527201231e-01
1.301120071344829751e-02
9.082394407231289546e-02
9.405340109386194081e-02
4.054255338163430256e-02
-3.627632139265851707e-02
-1.174606838675985032e-01
-1.889366297839817077e-01
-2.318199898714430884e-01
-2.343931544886653506e-01
-2.019596022195040974e-01
-1.539286702843205568e-01
-1.132316444847031450e-01
-9.108410011889442326e-02
-7.956070705536107124e-02
-7.859401708158067490e-02
-1.395198475518174552e-01
-3.082382468816267096e-01
-4.290333695945924286e-01
-1.100313686583092865e-01
8.176958063147332645e-01
1.791990185014115111e+00
1.926741082449072717e+00
1.098254776352021178e+00
1.423959291675861161e-01
-1.931791444379341305e-01
5.502313624997444419e-03
2.232891042367096401e-01
1.892083173076818670e-01
-6.573063045075912270e-03
-1.714858289575505457e-01
-2.106857562248407589e-01
-1.581479430533749286e-01
-1.083853741903806900e-01
-1.202575036700917754e-01
-1.740316771964786069e-01
-2.174190215601745080e-01
-2.322496325857581756e-01
-2.413681292143351198e-01
-2.616949443455136026e-01
-2.706567017646196449e-01
-2.285287548773132782e-01
-1.310388398646124553e-01
-2.872999696292014710e-02
1.955617720009789062e-02
9.132129503285700556e-03
-1.449116103156042161e-02
-1.657484872603925963e-02
-1.545488033445202147e-03
1.287469982489651207e-02
1.813723132581529507e-02
1.463647210313025714e-02
7.377455685296983867e-03
-2.144007216668579636e-03
-1.974033970326024429e-02
-4.968491910689429303e-02
-9.283775713119345185e-02
-1.481496353945622735e-01
-1.927454010193495049e-01
-1.752747932212725124e-01
-7.100974176881821864e-02
6.474404947877497596e-02
1.283550262790483787e-01
3.378114780977528597e-02
-2.111919020251041557e-01
-3.655925659340358291e-01
1.097942224802539793e-02
1.025046052155228926e+00
1.953184783687084147e+00
1.842475266538670109e+00
7.493467534032047794e-01
-2.445452193757853554e-01
-3.779885291277587656e-01
5.727577646491298358e-02
3.748100832719328257e-01
3.029145282008093298e-01
2.861447435152908447e-02
-1.939719478258712659e-01
-2.882375422319783942e-01
-3.168890520265150723e-01
-3.443163434920966104e-01
-3.684936853363121601e-01
-3.520992667959538802e-01
-2.870819578905668412e-01
-2.155989480303927008e-01
-1.907610301806041131e-01
-2.240438275494679166e-01
-2.784246656624587146e-01
-3.156402784367606240e-01
-3.379992629230731405e-01
-3.721634181828608612e-01
-4.130896722833017343e-01
-3.984070901294023415e-01
-2.719879068146543455e-01
-7.970872663767850086e-02
5.585513806331995901e-02
7.861643013440412775e-02
4.630700918317062764e-02
1.049225851126522890e-02
-6.559152791547158412e-02
-2.188622277417429374e-01
-3.795299589597821988e-01
-4.273331374007566796e-01
-3.386535797909573375e-01
-2.141151992839283313e-01
-1.571438494282009213e-01
-1.730883374838702582e-01
-1.946929473185161352e-01
-1.817259894323409730e-01
-1.916307061793783295e-01
-3.216050505539519988e-01
-5.019899605841057211e-01
-3.716245121623786840e-01
3.981575281049599124e-01
1.493396523225381411e+00
1.995519118159091665e+00
1.405130893917053037e+00
3.243733489469416975e-01
-2.901712160331429979e-01
-2.165501590875664184e-01
6.176467639893784556e-02
1.273353718178526495e-01
-6.389357453150789484e-03
-1.308170599736706852e-01
-1.497628270293416275e-01
-1.256322855738576383e-01
-1.378840256466030700e-01
-1.752551363101613191e-01
-1.797537814737011075e-01
-1.581260859101947247e-01
-1.843271229950101953e-01
-2.803805652864833076e-01
-3.684821651732714809e-01
-3.691431990275009234e-01
-2.807370348978274754e-01
-1.505364673593324321e-01
-3.119262198407190406e-02
2.931858135585001246e-02
7.136304802964075003e-03
-6.832866220325892193e-02
-1.228547065720490827e-01
-9.941259028124453667e-02
-1.481963248028898318e-02
6.516610049961077400e-02
9.871828497131229785e-02
8.948395280453264045e-02
5.437953117739003500e-02
6.253194559762732807e-04
-7.099985535184290264e-02
-1.526075968048357379e-01
-2.230236309656199456e-01
-2.593177182074858367e-01
-2.528943544145514366e-01
-2.081499904552557845e-01
-1.300069204461065941e-01
-4.038407256981568078e-02
-1.606610536344780030e-02
-1.330873198366051002e-01
-2.730998707341352749e-01
-5.974120101691870327e-02
7.410604828588843729e-01
1.684439514819676909e+00
1.900717331630098039e+00
1.137868073299031835e+00
1.465287424763240254e-01
-2.464106973272531254e-01
-2.465148724269086711e-02
2.779670758267675512e-01
3.095004506716512727e-01
1.242193121714672971e-01
-7.836421461971261604e-02
-1.980298214973543192e-01
-2.487180000203893793e-01
-2.639771871881224086e-01
-2.521283979250618645e-01
-2.195883289883635847e-01
-1.885121851538509585e-01
-1.771695571392134794e-01
-1.790741662980084581e-01
-1.747442460255730079e-01
-1.649583897670399146e-01
-1.776196115195851355e-01
-2.259911456985944089e-01
-2.728344029377153812e-01
-2.596459104693857323e-01
-1.705002395684031835e-01
-5.332685978785733916e-02
2.653724148430217783e-02
5.257940880592486960e-02
6.064499009762140680e-02
6.058326714852897005e-02
-5.709477118217838425e-04
-1.452012490675829437e-01
-2.874348151289202180e-01
-3.168115034386302376e-01
-2.212061382471122162e-01
-8.314120477505397566e-02
7.518463578230199368e-03
1.300133189958097187e-02
-4.426163778989090913e-02
-1.063272261178188072e-01
-1.218233533551691256e-01
-9.407812624542422064e-02
-1.052407824621931637e-01
-2.312861225171405355e-01
-3.361164421599620034e-01
-2.821410472655562149e-02
8.946418691681277124e-01
1.905124508814401985e+00
2.080560155792218868e+00
1.208460627638399121e+00
1.128472199333882819e-01
-3.537289788016723113e-01
-1.736767453352474067e-01
1.456213005397817839e-01
2.703464498595984367e-01
2.070350031970068228e-01
6.605414848761151370e-02
-8.807151025182180515e-02
-2.122640180222645778e-01
-2.742107040086723124e-01
-2.912563441460252478e-01
-3.119890034564818393e-01
-3.525584930719579679e-01
-3.836774830440506934e-01
-3.703109761628444740e-01
-3.083740268836440146e-01
-2.327997578721262839e-01
-1.888523761895663788e-01
-1.929017968763434843e-01
-2.330040801370029946e-01
-2.865436186989793188e-01
-3.101881381989074482e-01
-2.532112564009506572e-01
-1.187599966789660566e-01
2.337501253912449908e-02
1.090179350793475249e-01
1.312864963258120743e-01
1.076362702166339669e-01
3.845205794611274847e-02
-7.451377407821330179e-02
-2.002548867341192029e-01
-2.969570509549447901e-01
-3.437575566297148000e-01
-3.458550287842244164e-01
-3.217943852593342369e-01
-2.862454097377228890e-01
-2.354578889850599543e-01
-1.530836301114187337e-01
-4.662834870336914767e-02
8.113887338585196521e-03
-8.902762514330286869e-02
-2.426517757055972335e-01
-3.714738476868811867e-02
7.976084521148114614e-01
1.721307573887320697e+00
1.772109587903936356e+00
8.446966718231877502e-01
-9.215949225429129199e-02
-2.688258121911719090e-01
7.846061713763881340e-02
3.160568351026483147e-01
2.203228424426326715e-01
-4.364336380309471325e-03
-1.455195290105697481e-01
-1.869981620830216962e-01
-1.935831125210915327e-01
-1.806038187214872859e-01
-1.415151957757494472e-01
-1.086783914456418976e-01
-1.246097569910004504e-01
-1.869020947449119008e-01
-2.591721769146072551e-01
-3.144306559391873979e-01
-3.396109598086378134e-01
-3.221652555463704326e-01
-2.629919415092166202e-01
-1.861436798520318681e-01
-1.148334574316361850e-01
-4.973038481420775925e-02
1.901854446118096675e-02
8.875123436587492587e-02
1.390479934658490901e-01
1.441706952780088813e-01
8.985522960043232366e-02
-1.279736935470742951e-02
-1.235661529888883309e-01
-1.953346457129239433e-01
-2.118612504811671349e-01
-1.960445208269817052e-01
-1.798817694220696539e-01
-1.798532810003010962e-01
-2.019056902585934787e-01
-2.502232813082042595e-01
-3.085924220963602860e-01
-3.256153819066832100e-01
-2.739165805745385485e-01
-2.257716134610901759e-01
-2.544106272492049903e-01
-1.952573414657365058e-01
3.051277702634135891e-01
1.247483744695637498e+00
1.940986989540198993e+00
1.661220272335306891e+00
6.152503021136774830e-01
-2.495335694042573604e-01
-3.744388923000063207e-01
-4.650044601019635848e-02
2.002530788028261122e-01
1.736816239798267547e-01
-1.876844086473029166e-03
-1.680874284812755859e-01
-2.673934561501491447e-01
-3.183797158383798731e-01
-3.620199142140189674e-01
-4.243096349586936156e-01
-4.857797486150582378e-01
-4.785961591020287398e-01
-3.478519774693103472e-01
-1.408638143728996317e-01
4.579638281723582421e-03
7.319928982142032484e-03
-7.263988986717170859e-02
-1.409153752496291323e-01
-1.796723742715468641e-01
-2.062227860460532081e-01
-2.030279787257725788e-01
-1.366936925460581487e-01
-3.840598637680466346e-03
1.656605027505004823e-01
3.222229197425741654e-01
3.958759351491288325e-01
3.245776687113151038e-01
1.307057201436403193e-01
-6.918291293929594576e-02
-1.815358551586885028e-01
-2.165771694646739520e-01
-2.194338000630417507e-01
-1.915853723912250839e-01
-1.238803767209679108e-01
-4.698582750185439916e-02
4.461951766259891067e-03
3.803847186888356657e-02
4.415398411575394838e-02
-8.144334886182133526e-02
-3.991884638056801271e-01
-6.218808057213650597e-01
-1.944098611600606763e-01
9.676833995287124068e-01
2.001783715426524335e+00
1.927100758807433145e+00
8.838256904376615708e-01
-5.346491053633517510e-02
-2.173540420774395243e-01
8.914026948260839189e-02
2.779046834637721730e-01
1.710868813806522004e-01
-3.412476739349128152e-02
-1.364520860363495902e-01
-1.102548057931135861e-01
-3.675476711179193057e-02
3.827035016460551137e-03
-4.331434793168744551e-02
-2.029264784637075381e-01
-4.163077603212027022e-01
-5.421364348447921255e-01
-4.952454499815818201e-01
-3.451049931075907407e-01
-2.128076019779416850e-01
-1.323744575842040749e-01
-6.961044609449337783e-02
-1.196160736915261556e-02
1.823874932759943571e-02
8.715640664271162574e-03
-1.961430768889616330e-02
-3.141785749044814086e-02
-1.156605667779129001e-02
2.184992162366417023e-02
3.831231806930704420e-02
2.367777200214841310e-02
-8.934972704850325034e-03
-3.276331319504999229e-02
-3.924083961756383299e-02
-6.060397176439442229e-02
-1.451130849146666235e-01
-2.945958498806872106e-01
-4.359297757428030606e-01
-4.726618791899092065e-01
-3.700649530448704705e-01
-1.831960159343146710e-01
-1.968632259896388459e-02
-1.697018069430468110e-03
-1.765851944619408198e-01
-3.283661873479288285e-01
1.741197381601953045e-03
9.739250007469378856e-01
1.932596515326636677e+00
1.916206294404189991e+00
8.532312275998353845e-01
-2.599528858566973466e-01
-5.566650432520430236e-01
-1.643242316802573932e-01
2.510605215284407166e-01
3.097159593084354290e-01
8.949325978713576490e-02
-2.028133189477053511e-01
-4.448639837847615519e-01
-5.697698988817341270e-01
-5.528690824685654759e-01
-4.497027637660195865e-01
-3.474934661789645385e-01
-2.896824836071518749e-01
-2.767205398515684145e-01
-2.909605432659015944e-01
-3.059892967297967448e-01
-3.057878179490060577e-01
-2.984891227308844042e-01
-3.015580164332317126e-01
-3.160250975941459872e-01
-3.139705737270332975e-01
-2.532174871139085126e-01
-1.162346850844395152e-01
6.002849696980489674e-02
2.013836552821142156e-01
2.499729145178561374e-01
1.942280989895046051e-01
5.303636934572636408e-02
-1.360799741037662103e-01
-3.031581002343464171e-01
-3.642481565741649274e-01
-2.941833266408716008e-01
-1.610431041291864318e-01
-6.110154083251185392e-02
-3.890563157549584844e-02
-7.252224331275809732e-02
-1.038716694624236270e-01
-9.426179018639435636e-02
-8.646038882498775779e-02
-1.845771514303703731e-01
-3.821400478795541900e-01
-3.841259139336708484e-01
2.147690102517663402e-01
1.330205134200208361e+00
2.125530961308335520e+00
1.819320331889592968e+00
7.012401872760567478e-01
-1.868364750224396631e-01
-2.988648329188378638e-01
1.682250757984431189e-02
2.250727608270429725e-01
1.868531396386152454e-01
5.795904422942022710e-02
-2.648717058936388147e-02
-5.651645285200114499e-02
-7.970717106391220219e-02
-1.334000645524007489e-01
-2.229777450060052568e-01
-3.191049347822184634e-01
-3.720172973982189268e-01
-3.498519670658025715e-01
-2.728049459302858692e-01
-1.968651748619620334e-01
-1.550312661829843508e-01
-1.349873356281986736e-01
-1.197920684339063430e-01
-1.147859493916274509e-01
-1.249998981180032859e-01
-1.340577427070266392e-01
-1.113534514566736217e-01
-3.482513745637466629e-02
8.017811779530963079e-02
1.740496466044469670e-01
1.872283984538458679e-01
1.188441819757287826e-01
2.584880574291239033e-02
-4.403298423426963565e-02
-9.977200553373415104e-02
-1.693490321740976079e-01
-2.422872021250170593e-01
-2.852112315829700706e-01
-2.878636370048031079e-01
-2.540301522004557166e-01
-1.709420079833499639e-01
-4.214942748097905145e-02
4.183460459995756026e-02
-6.070843043491713775e-02
-3.298447107555599889e-01
-4.108481710505317297e-01
1.309377505992119495e-01
1.176980057981110050e+00
1.883454364550861238e+00
1.545602876322703878e+00
5.042345358589968018e-01
-2.588430551461664009e-01
-2.778849852004069976e-01
8.216956439755607189e-02
2.840031301379644102e-01
1.592333611010045280e-01
-1.386192816365282576e-01
-3.942668859752866961e-01
-4.833474574009658520e-01
-4.178079483197347233e-01
-3.013370251424468127e-01
-2.156389531927072889e-01
-1.706968866716999655e-01
-1.669879701158331620e-01
-2.362294239793149841e-01
-3.763869338795082786e-01
-4.948038544424024354e-01
-4.866004910353812218e-01
-3.534785024482203775e-01
-1.925215743154616022e-01
-8.524162152572768714e-02
-3.248124423275973449e-02
1.685792220234223066e-02
9.836517203312675206e-02
1.930358873213467163e-01
2.434492701019551897e-01
2.061709011073167841e-01
9.176809535942495599e-02
-4.488086616606624252e-02
-1.445269491873111822e-01
-1.741375227207049292e-01
-1.417753176521781011e-01
-8.881359032005611831e-02
-5.708499094805769003e-02
-6.957198376509886317e-02
-1.326386364891358194e-01
-2.218919719184250239e-01
-2.751056863840665168e-01
-2.486275913026060880e-01
-1.909155757728220326e-01
-2.105001560484905387e-01
-2.988300825317259934e-01
-1.818716783008771098e-01
4.670015387004525231e-01
1.469715005526145646e+00
2.021826879888087625e+00
1.540275705917416360e+00
4.594338210552709745e-01
-2.715325093202580753e-01
-2.800928771125512085e-01
5.258000697062945039e-02
2.583837807145353826e-01
2.243789615849772767e-01
8.298217135091530416e-02
-4.011809247992519784e-02
-1.196488101975642648e-01
-1.878866861455577020e-01
-2.709700446039978172e-01
-3.610953547693189769e-01
-4.194924954893007873e-01
-4.005413357868775615e-01
-2.945233834740846879e-01
-1.551406144040903268e-01
-6.325113424342876378e-02
-4.866627808631954211e-02
-7.542543730268543023e-02
-1.154486309334522842e-01
-1.776335032993209273e-01
-2.386284175271634334e-01
-2.179933552103617000e-01
-7.005196517044806614e-02
1.430841235410731660e-01
3.039335589334731802e-01
3.383746803910253620e-01
2.508777236014199108e-01
9.867093356971569362e-02
-4.900657805768018904e-02
-1.494268907169751248e-01
-2.030915915174952013e-01
-2.312948588321946664e-01
-2.432446694734279602e-01
-2.339188160647465153e-01
-2.025542888181836587e-01
-1.544904161509711438e-01
-9.188768820731832432e-02
-2.835255591974475409e-02
-1.158825065353525675e-02
-8.880062181891876238e-02
-1.931696040893691735e-01
-5.350658450131116212e-02
6.127657782805384645e-01
1.584264232882121481e+00
2.043714059503322300e+00
1.476794047236967611e+00
4.313031811574994934e-01
-1.475876921444341239e-01
-4.761570244418719677e-02
2.167540905711779486e-01
2.241260338758751525e-01
2.270565902071748632e-02
-1.534106289582201355e-01
-2.079678521908391309e-01
-1.973563123356186222e-01
-1.919606742494366636e-01
-2.056936251371049018e-01
-2.241026947926835489e-01
-2.520209944834392313e-01
-3.114048708024975132e-01
-3.929231824504211268e-01
-4.432007713584071307e-01
-4.259832574497189328e-01
-3.637384273091879838e-01
-2.939016832259565004e-01
-2.283562815993078754e-01
-1.753785959983817644e-01
-1.496465333513447571e-01
-1.442936066412253693e-01
-1.309229183839419886e-01
-9.560483509807503333e-02
-5.753051161693358700e-02
-5.006511977573907535e-02
-8.506579631133708019e-02
-1.350923152236515046e-01
-1.570920463836292802e-01
-1.355739175561899990e-01
-9.591947823755309077e-02
-7.983379441694007927e-02
-1.165812890797679885e-01
-2.021981584659206521e-01
-2.874148071824575990e-01
-3.024211328087214046e-01
-2.207879937416662997e-01
-1.003241847532998776e-01
-5.234281897700018144e-02
-1.472021500583111653e-01
-2.737408835371934468e-01
-8.584738656446645744e-02
6.758557556678981282e-01
1.640839915608488742e+00
1.929253150730663835e+00
1.171793650539167286e+00
6.867711008603682998e-02
-4.459807381327001718e-01
-2.358674169653135477e-01
1.588823250014728128e-01
3.004753032741657726e-01
1.780866292465410616e-01
-2.810276916258323820e-02
-2.023746315844067445e-01
-3.215013899626716354e-01
-3.903139599519717118e-01
-4.127336515722431765e-01
-3.956334272269715902e-01
-3.542950865779777581e-01
-3.066218345314422611e-01
-2.623643837304042714e-01
-2.238869554535275752e-01
-1.990826994913389159e-01
-2.029171821888859917e-01
-2.354624895679981178e-01
-2.696580243781598885e-01
-2.766355020569412626e-01
-2.504289890453038625e-01
-1.936288270044051740e-01
-9.837129793010339351e-02
3.509856416200485968e-02
1.649885581951972546e-01
2.128542991509647653e-01
1.249481965932581484e-01
-6.303393563490905516e-02
-2.396859634872801348e-01
-3.083541292209385776e-01
-2.624631753250100119e-01
-1.761995032065535594e-01
-1.227603799623828429e-01
-1.052103709446854662e-01
-8.232932846924009840e-02
-4.910805912801759904e-02
-4.982800254123258971e-02
-1.073496854256927591e-01
-1.807627139259916360e-01
-2.133813919104400048e-01
-1.696560395895012896e-01
5.178052795596171237e-02
6.227441189044835568e-01
1.427840065497263833e+00
1.846511731240881860e+00
1.387169516785183632e+00
4.235989537663805149e-01
-2.184462344019904023e-01
-2.391732326702737110e-01
5.870216287626905949e-03
1.259880198873861157e-01
5.950538292775718607e-02
-6.202666203052862454e-02
-1.359602518542291361e-01
-1.501815602746137679e-01
-1.426943430968372062e-01
-1.604389806290592857e-01
-2.287798659994651207e-01
-3.231196229179570945e-01
-3.844884139047854976e-01
-3.801989630755221450e-01
-3.281357771098206699e-01
-2.622864436711925262e-01
-2.007894500673486071e-01
-1.398762769695734154e-01
-6.760350837845580108e-02
4.578435957143479548e-04
1.439507810158739340e-02
-4.355834301513621110e-02
-1.090556236461496104e-01
-9.940381004555838562e-02
-8.970409386310322641e-03
9.443418370055113586e-02
1.475711874912158106e-01
1.350203951818312875e-01
7.053153020900233827e-02
-2.554431705164314503e-02
-1.174399115821603695e-01
-1.545802010436296836e-01
-1.302836437791824176e-01
-1.437449087242868573e-01
-3.213982285267024674e-01
-6.035388429023884616e-01
-7.097548891417643224e-01
-4.662913781341335162e-01
-8.600207202163642761e-02
3.604351594878896226e-02
-2.131564609124455001e-01
-4.423932561319086632e-01
-4.671741421195768629e-02
1.070087375175327926e+00
2.086986703530957943e+00
2.029555141539588270e+00
9.920976380102162206e-01
3.270421102492787613e-02
-1.642004011050161028e-01
1.137175732108622744e-01
3.319604953434731054e-01
3.820980423814465121e-01
3.810479740832288797e-01
2.871681984250971653e-01
2.712253834501379343e-02
-2.565373460006288298e-01
-3.691227873617470290e-01
-3.197791849786154050e-01
-2.450380310725568667e-01
-2.160359640731844000e-01
-2.277910779560821108e-01
-2.757522013375053871e-01
-3.467737946890804834e-01
-3.702218457476953994e-01
-2.729272060271671352e-01
-1.320481225084327859e-01
-1.817272591800784265e-01
-4.992565312708969749e-01
-7.702941322843891436e-01
-6.462798247499499382e-01
-2.324579504910019856e-01
7.991069738333089756e-02
1.104518716539343443e-01
-3.020001885662108171e-02
-1.867605466058034069e-01
-2.874643703309555098e-01
-3.130950416155230953e-01
-2.702298412486809354e-01
-1.953999606349308416e-01
-1.383496723200209888e-01
-1.291551437074961728e-01
-1.626831489820531329e-01
-2.052679981663834141e-01
-2.168441533158497470e-01
-1.934772105601378911e-01
-2.057916447782072722e-01
-3.348516485812347288e-01
-4.674870567310755454e-01
-2.112371827055289364e-01
7.045622872325957298e-01
1.825903169488871880e+00
2.169881054078788729e+00
1.356877301419258108e+00
1.612091792314591931e-01
-4.259487260892306226e-01
-2.708699728859527145e-01
7.250530588657742859e-02
1.850973572017639845e-01
9.205056294645708181e-02
-1.842212424195562026e-02
-7.397610487458862460e-02
-1.166594939550568560e-01
-1.834881513467692127e-01
-2.637463495655946177e-01
-3.338928008751865240e-01
-3.771208769953682260e-01
-3.717920136972598377e-01
-3.040336676802725679e-01
-1.970514026309294064e-01
-9.835013020841543163e-02
-3.643926744702358916e-02
-9.657482061742501955e-03
-1.468855295349346182e-02
-5.978815547738714625e-02
-1.314826099703023110e-01
-1.673776984604228024e-01
-1.025825431675955191e-01
5.253204081334233305e-02
2.121167469309306330e-01
2.935770238550603484e-01
2.721262022351192411e-01
1.701391093715597103e-01
2.898014542719110770e-02
-1.056981393125640961e-01
-1.972216099608292694e-01
-2.349942980995510800e-01
-2.369147841903701535e-01
-2.268347972275197022e-01
-2.044586687520747181e-01
-1.410546014270340764e-01
-2.442426532910468157e-02
8.319052306137435238e-02
5.973556157892047358e-02
-1.482508067412276476e-01
-3.505924449916545949e-01
-1.221580336783984061e-01
7.653984877241928331e-01
1.820799383739966748e+00
2.109035280093886744e+00
1.331413136592352053e+00
2.574160434882241666e-01
-2.158583106497634629e-01
-2.854353695990137496e-02
2.649187396905501868e-01
2.749829395855013514e-01
6.022945321668948110e-02
-1.368784502361012900e-01
-1.877191782655250607e-01
-1.301265369955114659e-01
-6.231357529647422316e-02
-5.048445187185401223e-02
-1.015013089554011871e-01
-1.744993217629978166e-01
-2.251050909359761931e-01
-2.564434130640914078e-01
-3.031886582295263977e-01
-3.563808570827332045e-01
-3.526175032454812452e-01
-2.591427589432485079e-01
-1.253951620496999708e-01
-2.891090877134312037e-02
1.346483208207634175e-05
-1.226851904298950982e-02
-2.222234431176102476e-02
-2.651658149602613597e-03
4.288728356588420582e-02
7.851675580769029716e-02
6.095484498229548909e-02
-1.253134638776576444e-02
-9.038453841522407772e-02
-1.215453760672578487e-01
-1.118786812428997496e-01
-1.098436323314620350e-01
-1.515381992360986807e-01
-2.298504202256618500e-01
-3.076517306193395918e-01
-3.521213491840872734e-01
-3.438095808625982186e-01
-2.710665847099768544e-01
-1.729895280402365121e-01
-1.596600165894618284e-01
-2.540191665242864660e-01
-1.927313746931328120e-01
3.781639472365903587e-01
1.301557903016660855e+00
1.771186427255873497e+00
1.226853156095412345e+00
1.648048779048831569e-01
-4.442001299950621429e-01
-3.016786789279823910e-01
1.113113231373147743e-01
2.977477926910077621e-01
1.915525475658892973e-01
-1.101103693523373603e-02
-1.530532594895108456e-01
-2.249596248143405641e-01
-2.923671752891322528e-01
-3.796781604189652937e-01
-4.351194343458944513e-01
-4.052114664628779228e-01
-3.112215219935426380e-01
-2.211358069858510023e-01
-1.701700316091359633e-01
-1.493525347550510030e-01
-1.521664123321830042e-01
-1.858033249180679469e-01
-2.421985218770117410e-01
-2.859118261998382926e-01
-2.694276874434817781e-01
-1.663925218939678874e-01
-7.292189760427255155e-03
1.323964929105451993e-01
1.980243722084314706e-01
1.951388796767481171e-01
1.528327961861408457e-01
7.203983617284237528e-02
-6.255091629078836368e-02
-2.249286176130650405e-01
-3.337628445925126530e-01
-3.208107779982480867e-01
-2.045604523431166777e-01
-7.278093637169055774e-02
-6.429688313123853045e-04
1.907948024457289948e-04
-2.934633234247094324e-02
-5.898208458976372109e-02
-1.396917219722534631e-01
-3.453378360086535315e-01
-5.436032865532389735e-01
-3.109256687800840413e-01
6.224402985765847829e-01
1.757528808503612483e+00
2.092103142588580322e+00
1.289569433161248835e+00
1.431570711026058929e-01
-4.139827774908002023e-01
-2.880168027477974513e-01
6.223058639306125461e-03
8.822010684070664965e-02
-2.557482587169122162e-02
-1.479880896174036176e-01
-1.844518414617856428e-01
-1.799105932162879395e-01
-2.045929260462899246e-01
-2.684554304045518869e-01
-3.389262193265642487e-01
-3.857007706289536930e-01
-3.958610651657609170e-01
-3.747615686658682388e-01
-3.415259515156274794e-01
-3.084384006271873591e-01
-2.615205343053511045e-01
-1.807532674490217595e-01
-8.593728509265505244e-02
-3.734168807215079711e-02
-6.985209166171060802e-02
-1.356982232059669446e-01
-1.403111825434467941e-01
-4.869660106780308861e-02
6.906596759878175229e-02
1.197989488254166818e-01
8.684996697589938974e-02
2.517113125127776532e-02
-1.655647497843126120e-02
-4.224022640752699703e-02
-8.179642989037540224e-02
-1.396658486613185646e-01
-1.894273149920747412e-01
-2.140180715471405870e-01
-2.241402062044376142e-01
-2.242056981942301130e-01
-1.827798629718432322e-01
-7.626397589070590954e-02
2.855535487981438955e-02
-2.769474137146783581e-03
-1.539611248798712084e-01
-7.443058750418320157e-02
6.056963801773734835e-01
1.599033595821717002e+00
1.973309623804125446e+00
1.229926070861592668e+00
3.740948109201006067e-02
-5.425147392824577475e-01
-2.610181406650898817e-01
2.718613689107253206e-01
4.658281152206952824e-01
2.753063099052946439e-01
-2.141759273694347071e-02
-2.187454547335196398e-01
-3.015745749684622390e-01
-3.365862269947876295e-01
-3.524593737442566210e-01
-3.197899110946381129e-01
-2.210208295114269028e-01
-1.122901439441763016e-01
-8.076767257928163524e-02
-1.444669305222026912e-01
-2.361715747613649663e-01
-2.852135426305891230e-01
-2.759747624667250876e-01
-2.366420304991382062e-01
-2.044237175229013659e-01
-1.864514805174755097e-01
-1.416016393827211617e-01
-3.134906796131266965e-02
1.054995596294813071e-01
1.720799343991681052e-01
1.246780607166121657e-01
2.373869708385295194e-02
-4.972947520257277321e-02
-9.002842126181295757e-02
-1.493038531510067768e-01
-2.480384489583244423e-01
-3.264601671002104188e-01
-2.970077799074676284e-01
-1.625310231391024762e-01
-4.508011662986709245e-02
-4.366637980827101084e-02
-1.105751650125891411e-01
-1.322160524682069183e-01
-1.009920014379294545e-01
-1.399861834755789236e-01
-2.978860233991570960e-01
-3.156629129767768438e-01
2.238032441240883907e-01
1.277121371910369785e+00
2.032108356684015682e+00
1.700594002620529288e+00
5.676446839267367261e-01
-3.134012494334491583e-01
-3.996544068856395238e-01
-5.687892626387654194e-02
1.867837730802936191e-01
2.074689603894825374e-01
1.289007688961629206e-01
2.904644863702298199e-02
-8.613013542675859724e-02
-2.046792172259114528e-01
-2.998430484880208469e-01
-3.553082483501396882e-01
-3.757977228952633642e-01
-3.775027912732156765e-01
-3.609343957128167135e-01
-3.050330609916665492e-01
-2.064933825186787419e-01
-1.070095275018723147e-01
-5.784051558963342055e-02
-6.861849808833377085e-02
-1.087094512456204393e-01
-1.442205629499924702e-01
-1.517227705963522244e-01
-1.122820971883951580e-01
-2.236050218104981141e-02
9.119535030341657800e-02
1.789805826163573810e-01
1.927738964478636630e-01
1.131364946246125464e-01
-3.015859982397341502e-02
-1.698679943201757137e-01
-2.486783276814486521e-01
-2.593216873621491669e-01
-2.401141638943647405e-01
-2.366585604326373882e-01
-2.589083093380414313e-01
-2.632191867373511740e-01
-1.917502319987033910e-01
-5.613087765259715256e-02
2.066391441413947816e-02
-1.028565925673756709e-01
-3.672090006833505504e-01
-3.827549414365905012e-01
2.679795601025052876e-01
1.386580736370029987e+00
2.054723137119314647e+00
1.604110209718231372e+00
5.044787630871785389e-01
-1.997963388575173527e-01
-1.225553051588438302e-01
2.485099209950102916e-01
3.284244001342876418e-01
3.498884420404897028e-02
-2.524020602765238985e-01
-1.331150870594414448e-01
3.401250928298651388e-01
6.606330326177408674e-01
4.746838633748601266e-01
2.119336980666131076e-03
-3.263189367662926998e-01
-3.893890995045885539e-01
-3.521228089279339057e-01
-3.524023272618718727e-01
-3.823612347299878422e-01
-3.845870360011667821e-01
-3.449495591796456484e-01
-2.833917676438872935e-01
-2.106529079734276444e-01
-1.278873418604180856e-01
-4.708663608376710552e-02
1.600149856041029051e-02
5.650414723109919296e-02
6.827840457777592520e-02
3.499941401625868143e-02
-4.333070464311206821e-02
-1.278102712204590152e-01
-1.678917145015270396e-01
-1.490799870512027336e-01
-9.936781257554107294e-02
-5.608492140247453572e-02
-5.048891437694505435e-02
-1.153599562579476906e-01
-2.572848328271776230e-01
-4.057509694131825051e-01
-4.427903973627634326e-01
-3.274328065637078233e-01
-1.729012085258929132e-01
-1.500956145187056501e-01
-2.533209574772726236e-01
-1.637990889132172057e-01
4.670365562239321422e-01
1.426280382241539302e+00
1.883680057281057696e+00
1.304605357629989859e+00
1.970306212992205541e-01
-4.738668363655745841e-01
-3.779138644584712492e-01
4.473933514642923492e-02
2.777808343816079995e-01
1.971538856094231240e-01
-2.810131243607950913e-02
-2.191017876917015772e-01
-3.240371490242330288e-01
-3.839669618593971601e-01
-4.370414202424413586e-01
-4.699417214924943020e-01
-4.523186788938178271e-01
-3.850980137272480563e-01
-2.981551685232627369e-01
-2.252687081704806693e-01
-1.920088400260665240e-01
-2.035450714944254391e-01
-2.339151300958707269e-01
-2.461059618914091252e-01
-2.302127712577318186e-01
-2.033597800354664531e-01
-1.678821736022663158e-01
-9.528220961228192620e-02
3.379476220292062377e-02
1.862041015497459540e-01
2.874793572194718760e-01
2.789514944772946148e-01
1.617687488522239758e-01
-4.878440033323577785e-03
-1.383401673645323904e-01
-1.881861975810041332e-01
-1.774598806178166455e-01
-1.650454692509236987e-01
-1.662770886505868240e-01
-1.514312907579468404e-01
-1.104229895494748676e-01
-6.697487342313579450e-02
-4.305434254794683613e-02
-6.354006816513135814e-02
-1.787149222919342251e-01
-3.807800989992783380e-01
-4.410732380897114946e-01
1.475715260686859612e-02
9.996964961880171474e-01
1.815559677516179971e+00
1.670857538792005714e+00
6.871956244359976873e-01
-2.015810999838286155e-01
-3.637322473153344893e-01
-1.029238354670408695e-02
3.137480531935211148e-01
3.343073304377411903e-01
1.389925164484498987e-01
-5.301211683248385764e-02
-1.189619204567666372e-01
-9.461942866546681208e-02
-7.825201334540897447e-02
-1.228746608136105922e-01
-2.181504942646786127e-01
-3.231340362905306129e-01
-3.907715294210616364e-01
-3.892389791747564720e-01
-3.245373472415757354e-01
-2.322732407486749473e-01
-1.379415609473243765e-01
-4.189651195286837881e-02
4.183147566272075318e-02
6.086229122167124278e-02
-1.210133994799106674e-02
-1.012408144569531127e-01
-7.945877710873000543e-02
7.493212581246497250e-02
2.226260747745225643e-01
2.139945204360793052e-01
7.036112161966087686e-02
-3.418812719961225599e-02
2.670906084062381336e-02
1.709946992981896119e-01
1.891825076214045664e-01
3.945635179943028648e-03
-2.379377817281222995e-01
-3.645991694903856217e-01
-3.497512048948909769e-01
-2.600142791122375119e-01
-1.500578210859191131e-01
-5.209905036379600118e-02
-2.291869613361412206e-02
-1.323016675719909108e-01
-3.002036837152355364e-01
-1.672571439075566657e-01
5.732081955940564466e-01
1.548900857324112978e+00
1.838701897495414572e+00
1.092024527690270919e+00
6.557258287317146994e-02
-3.417208112113667151e-01
-9.986147379014806424e-02
2.216401608735701079e-01
2.561753007681606409e-01
6.765320882825254234e-02
-1.367579058165450112e-01
-2.554029620130153222e-01
-3.016296363386030133e-01
-3.096540802129121861e-01
-2.948277897088302790e-01
-2.743402213620301233e-01
-2.688817169582318201e-01
-2.779950315818222051e-01
-2.866739915008141848e-01
-3.021632111161010603e-01
-3.577348774312010815e-01
-4.608445320801539680e-01
-5.464145775815572037e-01
-5.196472421035274181e-01
-3.704715301442705333e-01
-2.037372454036622815e-01
-1.150844437256744873e-01
-8.319076577386398663e-02
-2.950316562821741345e-02
5.102963055035389384e-02
6.549634237666195069e-02
-5.315784415743653180e-02
-2.054716483440284513e-01
-1.758809516680456264e-01
9.803308439046624911e-02
3.733892856197636445e-01
3.654272735899848357e-01
9.919190927771355526e-02
-1.685044323408197708e-01
-2.879630334470476560e-01
-3.061093228550598733e-01
-2.975822488433481627e-01
-2.724238453910724500e-01
-2.535614069339035548e-01
-3.100506199555394526e-01
-3.873798141699227870e-01
-1.696012204958646241e-01
6.048265517642720246e-01
1.574497989803057330e+00
1.892447020698325932e+00
1.242102254048046417e+00
2.966691427413667981e-01
-1.657811447821913586e-01
-1.132845189090360555e-01
3.784523220830868923e-02
5.837889750268675237e-02
-9.294061323658810853e-03
-8.292478769902272839e-02
-1.507914679703561411e-01
-2.302208558037174002e-01
-3.152730558428281649e-01
-3.807562470901627583e-01
-4.103274107445968877e-01
-4.058605542708221825e-01
-3.774644571332823051e-01
-3.311159178504094469e-01
-2.668673070847593642e-01
-1.894841789518863229e-01
-1.164445313738358412e-01
-7.522012663992889980e-02
-9.247034484018552825e-02
-1.682331726204460698e-01
-2.525047234555152786e-01
-2.667729029976176891e-01
-1.652234262203216009e-01
1.888992219671777051e-02
1.866243131920197196e-01
2.471573021449353091e-01
1.906157153570682550e-01
8.423213257856081160e-02
-6.166563915407641955e-03
-8.385210248400258581e-02
-1.977645079566865971e-01
-3.466222284361459294e-01
-4.372770049517175073e-01
-3.836884204851938041e-01
-2.304346739665192600e-01
-1.112132985738466806e-01
-8.352767580835122885e-02
-8.225320267305986921e-02
-6.726848068157223470e-02
-1.296397868208913617e-01
-3.230896996573659474e-01
-3.899933458527526375e-01
1.090195366085257161e-01
1.153796306211479328e+00
1.954460645023843091e+00
1.735686676909498738e+00
7.352614315072992790e-01
-8.230495843904134246e-02
-1.969221518794837811e-01
8.012946485152808163e-02
2.464297683830558028e-01
1.597479034355294425e-01
-2.520578361267247769e-02
-1.496727107060965012e-01
-1.823526466518257949e-01
-1.696095635740563212e-01
-1.542163417665828318e-01
-1.507218865531946839e-01
-1.611698039689681838e-01
-1.893643234449053359e-01
-2.338069096509147182e-01
-2.725666722343199622e-01
-2.760621305008722493e-01
-2.408900098729898631e-01
-1.889659923857119894e-01
-1.292514261976098755e-01
-4.686021992305769435e-02
5.606723881029923584e-02
1.295811532878820005e-01
1.230413481087501010e-01
6.352280801099821628e-02
3.451671415086263184e-02
6.115363459082545639e-02
8.129288621381039470e-02
5.199048869702577180e-02
1.083125062793697212e-02
3.986087944546028335e-03
1.880563176189167102e-02
1.532714262415386941e-02
-2.142338738028819189e-02
-8.284347842764634706e-02
-1.592450286035160811e-01
-2.375071419448487320e-01
-2.863180254637457400e-01
-2.620340954863664695e-01
-1.545581993308445534e-01
-4.791095719980106860e-02
-8.108446352760395603e-02
-2.314677512708877560e-01
-1.524192262390150210e-01
5.050139951240860681e-01
1.446681897993344235e+00
1.786963441051722334e+00
1.112310370403198245e+00
9.861521625249355938e-02
-3.378683688604147695e-01
-8.799657797101188839e-02
2.938250420608921609e-01
3.821752051718775856e-01
2.041407875069226885e-01
-1.503202562107200900e-02
-1.568846653335092267e-01
-2.509496819017109637e-01
-3.374509058983062859e-01
-3.839300949971279353e-01
-3.480193024451611050e-01
-2.626789591591927042e-01
-2.055599024164063704e-01
-2.044793829056560097e-01
-2.205701017999485702e-01
-2.155798188708173968e-01
-1.960562007942538987e-01
-1.901064573613169550e-01
-2.061474392256372745e-01
-2.192801479329608838e-01
-1.865899823129753554e-01
-8.220441803214773024e-02
6.782441867526919910e-02
1.957850311380450181e-01
2.508842919367317847e-01
2.314303685628084917e-01
1.534643582898270742e-01
2.704766140964395132e-02
-1.173823915972101867e-01
-2.238859965419683073e-01
-2.590105285988154593e-01
-2.359228093355673628e-01
-1.859033679362440961e-01
-1.355805615241808260e-01
-1.061131806921916804e-01
-1.037372304863639627e-01
-1.166115768905710420e-01
-1.490082362331596189e-01
-2.440295313924027987e-01
-4.024283298275553311e-01
-4.373836106357721909e-01
-1.196213652564117810e-02
9.686555602984214808e-01
1.963649903184205403e+00
2.116643452893096633e+00
1.224059119768283299e+00
8.042352925447251999e-02
-4.323208703896422866e-01
-2.590608708472935118e-01
6.132721887376409164e-02
1.537863732803523564e-01
5.549114081444436047e-02
-5.748569143197636289e-02
-1.193915538034306251e-01
-1.634705587261171822e-01
-2.154908418226552380e-01
-2.711231260141525046e-01
-3.317951455689709950e-01
-4.036265203037838201e-01
-4.657580445881078779e-01
-4.780193737980334978e-01
-4.263925323384053501e-01
-3.378022385903337588e-01
-2.490223442021089750e-01
-1.794676589403298994e-01
-1.349534309578858116e-01
-1.237642715061339077e-01
-1.542389870445919076e-01
-2.078163261747130730e-01
-2.289382945322099849e-01
-1.696800331675131779e-01
-4.631948365257994304e-02
6.930089307628499451e-02
1.142107978077067654e-01
7.617733403332119235e-02
-1.402801142814949151e-02
-1.099278010913045944e-01
-1.762914055863989138e-01
-2.060565985910867981e-01
-2.179371788539622434e-01
-2.372797243008668566e-01
-2.662720659220336739e-01
-2.649088759187554487e-01
-1.832802971099223022e-01
-3.998641888773172420e-02
3.895056297282709079e-02
-8.452155071023266519e-02
-3.478165777348427579e-01
-3.752204270895762028e-01
2.320294958385521189e-01
1.299772228942727592e+00
1.973731662456179592e+00
1.600552437217952928e+00
5.681071459602717866e-01
-1.691574375151840282e-01
-2.076300091280205151e-01
8.516052380490166107e-02
2.332220264050397784e-01
1.217851424093070595e-01
-9.371712857564115651e-02
-2.506518127862725764e-01
-2.986327926304305214e-01
-2.709636855734371963e-01
-2.160667444732066178e-01
-1.634421929073414381e-01
-1.327401060213307393e-01
-1.382134211539719493e-01
-1.718159280043513870e-01
-2.158530964868923263e-01
-2.687144015008595122e-01
-3.176102303938539428e-01
-3.186697108276573265e-01
-2.471050298525571398e-01
-1.316033309951191999e-01
-2.419120086685695031e-02
4.107304097822823963e-02
7.211140657501430296e-02
1.016783579206375215e-01
1.293237740510892742e-01
1.132179360728933215e-01
4.265729978931530331e-02
-2.607987109521874014e-02
-4.018046700108313801e-02
-2.326358524601207511e-02
-3.624490022958453544e-02
-8.795603267178551954e-02
-1.358687041637987591e-01
-1.620685608379922871e-01
-1.937662708848834070e-01
-2.469094919084696971e-01
-2.874009333050836501e-01
-2.662490767995620566e-01
-1.974418771702276809e-01
-1.838593597682778302e-01
-2.906072808866081436e-01
-3.307126685345092021e-01
9.523802955010586546e-02
1.077402171839584755e+00
1.958340196143322220e+00
1.879695967294958692e+00
8.693177611539673055e-01
-1.269085964033554170e-01
-3.900533591463258842e-01
-9.045211432846743393e-02
2.201444240390599549e-01
2.786622772417554073e-01
1.674938235955147625e-01
2.949674013953650434e-02
-8.810281790905945265e-02
-1.961231481791294307e-01
-2.948082000653806656e-01
-3.625196386361604350e-01
-3.788008800777931118e-01
-3.410908962198609951e-01
-2.672766453929320551e-01
-1.915190318018029914e-01
-1.511198227262780247e-01
-1.626893716990295835e-01
-2.062241222197527535e-01
-2.422655773195190598e-01
-2.480058528489066105e-01
-2.287636796032778141e-01
-1.965940904756849072e-01
-1.450499093748487955e-01
-5.020736282043474635e-02
9.155664289571580072e-02
2.309097172014483723e-01
2.941627479633841524e-01
2.458253402251540376e-01
1.094591823352884241e-01
-6.032821640649292660e-02
-2.062051647396710707e-01
-2.819099462228966124e-01
-2.678975990058702350e-01
-1.843194268151462922e-01
-8.666668041114110321e-02
-3.877478060014451222e-02
-6.287031457840973336e-02
-1.067183201851126945e-01
-9.917193819185120274e-02
-7.129930371870339678e-02
-1.699980030862091318e-01
-4.292441883203622632e-01
-5.061153020746542719e-01
1.006648814687387816e-01
1.292275825111757204e+00
2.100177444789307124e+00
1.706945119190054205e+00
5.324833148786060066e-01
-2.922605195616592155e-01
-2.987062048034820894e-01
4.508976576432845162e-02
1.795494832349393000e-01
3.110059774555749487e-02
-1.683581930935196258e-01
-2.555369835306270931e-01
-2.429721848166466192e-01
-2.130084697929103821e-01
-2.169931714396315936e-01
-2.589207802258267632e-01
-3.218323083440551846e-01
-3.872522830292472462e-01
-4.316981091420347139e-01
-4.257264585583806493e-01
-3.603414686136363621e-01
-2.685040363618755310e-01
-2.015437743812128479e-01
-1.847909215236971103e-01
-2.047734268405527747e-01
-2.333540050444474212e-01
-2.487884711835549600e-01
-2.342469728594121225e-01
-1.761696490170262530e-01
-8.180496130584878622e-02
-8.665427475268772974e-04
-5.129195315969831484e-03
-1.095212888841071847e-01
-2.293584211116691529e-01
-2.667911260444050803e-01
-2.204076668167457842e-01
-1.642742499848768578e-01
-1.551681968642502907e-01
-1.886241422947392832e-01
-2.071191649382403965e-01
-1.600536253355716310e-01
-7.493398405660110784e-02
-1.985343220222516442e-02
-2.109563534155737066e-02
-8.985111972075496278e-02
-2.258644291530510773e-01
-2.587944992981979775e-01
1.593343912803739104e-01
1.092936532276516770e+00
1.909139730392454437e+00
1.801328325127705909e+00
8.253428405402938317e-01
-9.523097839404376375e-02
-2.897472321464745204e-01
3.327290505841093426e-02
3.031561621362173775e-01
2.622573663645043074e-01
3.684144879906595116e-02
-1.646765647443561853e-01
-2.571066637483085948e-01
-2.660544169179800966e-01
-2.384225320662857472e-01
-1.999532182006220626e-01
-1.716424581788482118e-01
-1.851220534158011244e-01
-2.423182763354860825e-01
-2.651770909731855363e-01
-1.583288682595323515e-01
3.055193980064334000e-02
1.047828307691074101e-01
-2.998205844486163604e-02
-2.136690230706598526e-01
-2.398513715170427218e-01
-1.023720028721321340e-01
5.424501656329679122e-02
1.299223581740311106e-01
1.389933218533132009e-01
1.347498815034727793e-01
1.241901268511936413e-01
6.238134743445290786e-02
-7.947294027514459347e-02
-2.308964568762931491e-01
-2.377732838817345762e-01
-4.629177418760099805e-02
1.631011823523245696e-01
1.697530805092000161e-01
-1.019121206483652314e-02
-1.934806294830681839e-01
-2.791753746163560534e-01
-2.872387160481257307e-01
-2.559878881500975978e-01
-2.308664391097154933e-01
-2.789002573936175677e-01
-3.567188042024118655e-01
-1.757907250466715643e-01
5.411825135139252119e-01
1.502449937230432742e+00
1.867478444752571409e+00
1.196093248117350738e+00
8.926909773253280389e-02
-5.076812230093181721e-01
-3.366453618904399203e-01
1.531351888899168401e-01
4.812944597467650465e-01
5.096134305451435198e-01
3.306559940512271978e-01
7.934167638229724928e-02
-1.389239495499625943e-01
-2.807093226933106145e-01
-3.653999081351189671e-01
-4.180127988937315520e-01
-4.340371645537423606e-01
-4.066172402373963157e-01
-3.511138859863111583e-01
-2.924926338774644363e-01
-2.458974735387740584e-01
-2.130359654264535607e-01
-1.919480312904818242e-01
-1.882123231541046326e-01
-2.093219839538476568e-01
-2.462918426699812757e-01
-2.726450804204039735e-01
-2.628435217311793082e-01
-2.011086387015397492e-01
-7.985309637835784347e-02
8.359511521694638903e-02
2.212363303516480251e-01
2.376432391701478186e-01
9.466187338263247486e-02
-1.293938752976687423e-01
-2.935003918148974544e-01
-3.227756325296222140e-01
-2.710502045607862676e-01
-2.371503872557582937e-01
-2.322447536401838486e-01
-1.695749239882829162e-01
-2.251020482224021409e-03
1.744307294772790839e-01
2.179933236838788591e-01
9.649329130905176521e-02
-1.340835811768122388e-01
-4.187164561847689370e-01
-5.696013161786488421e-01
-1.534932472600352149e-01
1.029871891437079912e+00
2.270188059064674579e+00
2.398477860260560313e+00
1.242216927239504720e+00
-6.016354972663048861e-02
-5.066383506352313271e-01
-2.459021161947669565e-01
7.160083765292830915e-02
1.997364683109168482e-01
2.488711444545125551e-01
2.474417410033697418e-01
1.267373633224522511e-01
-6.549262749494824676e-02
-2.067919228745983828e-01
-2.681213586363890844e-01
-3.032233900983803410e-01
-3.443237187004091204e-01
-3.771267278450487481e-01
-3.726628623193645184e-01
-3.190574039061200295e-01
-2.391637135551515636e-01
-1.717085581665746541e-01
-1.340421119006592332e-01
-1.205486372832500486e-01
-1.283541485043030728e-01
-1.552323017121167714e-01
-1.729014157177555522e-01
-1.392973144065394464e-01
-5.227649802239482668e-02
3.898925494405994924e-02
8.554356768123626276e-02
7.628435490082202675e-02
2.925078124288626319e-02
-2.982076775783090716e-02
-8.686596219637035543e-02
-1.476275868877510444e-01
-2.147954105154094018e-01
-2.634589436125145956e-01
-2.653368174028116755e-01
-2.285787481148348066e-01
-1.789879760550891208e-01
-1.136434135940461859e-01
-2.698007531382320967e-02
1.156745406209405344e-02
-1.090568432834734119e-01
-3.255702406405405758e-01
-2.578349366719401847e-01
4.548611830568728420e-01
1.518311597724526951e+00
2.019184738967315429e+00
1.455815374618399716e+00
4.193832727030303298e-01
-1.500954442865760630e-01
-5.552560117069964274e-02
1.848095935593806749e-01
1.510122734187545335e-01
-8.287578832937518569e-02
-2.492460043745646781e-01
-2.564820162920038449e-01
-1.997117474329001552e-01
-1.819331974940641417e-01
-2.142071152362207132e-01
-2.429314424072396839e-01
-2.359582226502803803e-01
-2.246762416249400984e-01
-2.506633035462387249e-01
-2.994773074654006328e-01
-3.214972750412947722e-01
-3.044951748455501650e-01
-2.879035565943270925e-01
-2.992730506735856721e-01
-3.052450963517661653e-01
-2.523431200910765670e-01
-1.455840432113472693e-01
-4.669769353620181057e-02
3.347909050808119472e-03
1.417893055943129574e-02
3.577551808571145797e-03
-2.721727405244602979e-02
-7.596906678016331071e-02
-1.288221776635149751e-01
-1.674128183923926372e-01
-1.757357276979422123e-01
-1.495354505004894419e-01
-1.096856704287022255e-01
-1.024901249558848038e-01
-1.664636561723961683e-01
-2.799918912368125068e-01
-3.586323661663415874e-01
-3.362159085253797475e-01
