-2.354330845513383508e-01
-2.872330521602498576e-01
-2.701704724832760252e-01
-2.005092747886127735e-01
-1.106854854968430391e-01
-2.250657440487935368e-02
5.861358605593239984e-02
1.398254380119327567e-01
2.188419022987333762e-01
2.567478902475519020e-01
2.066100691170629500e-01
8.278376770600115453e-02
-3.828192586318096557e-02
-9.900837047782612421e-02
-1.085044132618498414e-01
-1.023333245261565244e-01
-8.931892157583787295e-02
-6.303807419983478710e-02
-4.352313683490321300e-02
-6.617105364271497203e-02
-1.317347022664275835e-01
-1.996956962493550147e-01
-2.300019401230883609e-01
-2.120728171193793921e-01
-1.595552809856768672e-01
-9.320328344225299599e-02
-3.607873703654312925e-02
-2.428408921439346654e-02
-1.003249286819231784e-01
-2.479336056063371208e-01
-3.114355341451067738e-01
-8.440219264227950824e-02
3.838376513744684027e-01
6.993220539013045300e-01
5.752244380772297827e-01
2.243218105254450867e-01
5.421953199041449484e-02
1.513584322466522136e-01
2.852962785785278510e-01
2.657574291030955216e-01
1.143210864327191961e-01
-4.267293969396802888e-02
-1.226938262670004415e-01
-1.315138524114871643e-01
-1.254099319798695211e-01
-1.355686428729940829e-01
-1.041021882283195282e-01
6.293984262944890551e-02
3.170961462249211049e-01
4.243811025396996839e-01
2.339478392479834024e-01
-9.923160485816087673e-02
-3.029477339375367673e-01
-2.943906780359465958e-01
-1.868119428844242924e-01
-9.143899158904304769e-02
-1.444089515681456007e-02
7.890725691263220098e-02
1.690808151813681937e-01
1.839617441205281256e-01
8.315553529453689752e-02
-8.369941408767181401e-02
-2.169158923403721184e-01
-2.586078286058990927e-01
-2.265317656338457497e-01
-1.647579372313888180e-01
-1.000930106959478233e-01
-5.796409812697839170e-02
-6.899905037062083191e-02
-1.225814086965403699e-01
-1.582533393040376490e-01
-1.385616468114879984e-01
-9.174143671494612573e-02
-6.211602560310394011e-02
-5.005856525858134315e-02
-1.598811711439353245e-02
5.608378463380028767e-02
9.701115655301902063e-02
6.459974998680451108e-04
-1.907922761883153462e-01
-1.976538725660509643e-01
1.964937133759579735e-01
7.248010658619687963e-01
8.252958994605507081e-01
3.597056570585520641e-01
-1.877556116284778975e-01
-3.334496878777975515e-01
-1.033252616783725542e-01
1.519452228702532492e-01
1.924518078166992385e-01
4.665449115866820984e-02
-1.245685661987091380e-01
-2.098152393432758389e-01
-2.068016028821925423e-01
-1.677963144999676803e-01
-1.339463165240239728e-01
-1.184607732530860019e-01
-1.141547320712958946e-01
-1.057635246682420982e-01
-9.342964184647584158e-02
-9.859845474466802373e-02
-1.371578313482980649e-01
-2.007793504398434625e-01
-2.605008891915419067e-01
-2.712492784723422035e-01
-1.896111425660601535e-01
-1.896956432843294529e-02
1.630572746612713175e-01
2.517281615527903194e-01
2.044319533004721468e-01
6.967407186207327796e-02
-6.923228063734365723e-02
-1.588859761885308697e-01
-1.953245410152962269e-01
-2.012749608182999028e-01
-1.887347717517100787e-01
-1.533640470720155913e-01
-1.029793912010804752e-01
-6.253150205568878961e-02
-4.463238185273751130e-02
-4.049823283442226252e-02
-4.604235189666988637e-02
-7.073555757737505501e-02
-1.069373081723972718e-01
-1.180193059394149535e-01
-8.482892869128083602e-02
-4.861314100994031800e-02
-6.640729838244198435e-02
-8.981397248292166680e-02
6.557893200676696843e-02
4.795840945850857184e-01
8.599858107851485745e-01
7.876338577077968139e-01
2.840072694563754441e-01
-1.720045260701640322e-01
-2.324994840688087427e-01
-2.169942053528321757e-03
2.244668977752497796e-01
2.994186271568919921e-01
2.604822163730632356e-01
1.909017956750450329e-01
1.236225869509437747e-01
4.612422839793044183e-02
-5.372459681492680605e-02
-1.544489646017570550e-01
-2.106895590840570931e-01
-1.989986348550048523e-01
-1.412647254174018707e-01
-7.834793036227188923e-02
-3.566762964325550372e-02
-1.678767751214747111e-02
-2.071961683490736172e-02
-5.427679700525236961e-02
-1.129500600622482531e-01
-1.548778949536414040e-01
-1.248268834660361953e-01
-2.042023722464145208e-02
8.714007272124540959e-02
1.228966361991954692e-01
8.258659347672525630e-02
1.375257777434354609e-02
-4.968566903034552645e-02
-1.016627911395290018e-01
-1.422366349431675447e-01
-1.744245647042104441e-01
-2.032018019584825308e-01
-2.189899115375822103e-01
-1.965793575692210970e-01
-1.231194607444938693e-01
-2.462944179496564731e-02
4.297657163066002928e-02
4.210435660167279742e-02
-2.963096814191842551e-03
-2.726476716745263040e-02
-4.124866078651041011e-03
-8.114468681493420838e-04
-1.195706065390572254e-01
-3.072582851935086734e-01
-2.575987351919265533e-01
2.736774087196820471e-01
9.956632408998268291e-01
1.243660833974563396e+00
7.727044934201805493e-01
6.845094107848165299e-02
-2.805739209058289441e-01
-2.028413148014086564e-01
-1.202072572330951244e-02
6.417180653367877963e-02
4.768041043408614843e-02
3.277903055666566562e-02
2.726185388779767821e-02
-6.653015776793860109e-03
-6.295197495879321925e-02
-1.139654392616522016e-01
-1.678770865905081788e-01
-2.403086296543915923e-01
-2.992884567417768982e-01
-2.890840559082332728e-01
-1.983041532020639874e-01
-7.657621157972012427e-02
1.251993595489424467e-02
3.842840686742482470e-02
1.346341296523905634e-02
-1.816862818565423768e-02
-9.372459445152013860e-03
4.441578541830227406e-02
9.678828921216399428e-02
1.078211880236829290e-01
9.116985618888209797e-02
7.842446477162730301e-02
6.767630151225181856e-02
4.209547505602240919e-02
8.571636481788545356e-04
-5.917534335172894983e-02
-1.494043359055493292e-01
-2.502122135588676910e-01
-2.968710083350615259e-01
-2.386758370908171611e-01
-1.117627547165757212e-01
-1.527398698465866345e-02
1.051416634337551566e-03
-1.637720519796247165e-02
-2.364435328079199893e-03
4.246464949393947280e-02
4.093953953190559297e-02
-9.712715957203933714e-02
-3.319062932618981887e-01
-3.984524118458037112e-01
-3.724063448949110899e-02
5.714568908601193042e-01
8.718221131724915862e-01
6.194983193521179654e-01
1.914766433352501074e-01
3.531350068990504742e-02
1.478105412410291586e-01
2.515576019711178724e-01
2.041806792406769822e-01
8.290676434104962689e-02
1.565751148927571612e-02
4.698052786591694341e-02
1.294429214373512549e-01
1.850567498374686148e-01
1.698874378771857985e-01
9.500043197768195946e-02
-6.965485404648349543e-04
-8.459657740464830711e-02
-1.411735839239021961e-01
-1.683251431057957159e-01
-1.694165096137774107e-01
-1.421452404776364642e-01
-8.226753456358204541e-02
-5.653886472066098345e-03
5.495454025834552864e-02
8.827281036234861655e-02
1.086929954120438580e-01
1.082512136551037341e-01
4.831561447302649276e-02
-7.006574637809953598e-02
-1.663875045389885121e-01
-1.618942860495730385e-01
-8.025466480106074885e-02
-1.269538371961657745e-02
-8.335234981255608411e-04
-1.295210727225959771e-02
-2.118730918662248969e-02
-4.245947859106220107e-02
-9.942034640053329375e-02
-1.789611743571110913e-01
-2.365668878511489881e-01
-2.265761340994146555e-01
-1.347075185360897265e-01
1.177540202066189659e-02
1.634553249073426862e-01
2.532050023665886607e-01
1.888736433067808307e-01
-6.617713115640919130e-02
-3.318220609238606289e-01
-2.496168587552633211e-01
2.920637398503688753e-01
8.465949625716567839e-01
8.565299515735510516e-01
3.628306213029033334e-01
-8.510952943120882186e-02
-1.451395197090654954e-01
2.526983983305039483e-02
1.176161290423381189e-01
2.963797786911207682e-02
-1.378198350883345635e-01
-2.593427858946462661e-01
-2.828330040766153797e-01
-2.227523474193845721e-01
-1.284610814793285816e-01
-5.404197978114436834e-02
-3.106758261454837730e-02
-5.753690020080939882e-02
-1.093781377603685323e-01
-1.650374507657930423e-01
-2.169053654630898609e-01
-2.592139125339832928e-01
-2.783777403866933287e-01
-2.566197862831648968e-01
-1.756548375997580014e-01
-2.932249113544155295e-02
1.472301120507376881e-01
2.669803879226523291e-01
2.406697406517616100e-01
6.713506859102652546e-02
-1.365296956884145818e-01
-2.432933969896809434e-01
-2.597068651037501841e-01
-2.997118703997454503e-01
-3.976804527967080505e-01
-4.361598555363598861e-01
-3.138327645391105758e-01
-9.590769896811084105e-02
6.208735670406878571e-02
6.802013617118565780e-02
-5.342775635752363556e-02
-2.042744463876766670e-01
-2.937334817021210465e-01
-2.855278618967888593e-01
-1.893381420760807954e-01
-6.028665107376070253e-02
-9.207920441113303517e-03
-1.126729370361858606e-01
-2.392874235711149877e-01
-9.344980018394122290e-02
3.738053587346677475e-01
7.336112697658925264e-01
5.745441837194404933e-01
9.031505433389472315e-02
-1.834985383208906917e-01
-6.123075624733544803e-02
1.875251058799592141e-01
2.812944785288015725e-01
2.052549258756558859e-01
9.161380343332625742e-02
1.123820697017986932e-02
-5.314457099545749630e-02
-1.033046213093153365e-01
-8.539676431466058926e-02
2.794508739744221149e-02
1.574511058861282342e-01
1.742823730850993902e-01
5.588053345212623535e-02
-5.259687642331357244e-02
1.135638100753621170e-02
2.012778875012815050e-01
2.662244877432250467e-01
6.897469853845050736e-02
-1.871471355260307390e-01
-1.858248810088334868e-01
1.067638280355427127e-01
4.039158242332666071e-01
4.408579544475356160e-01
2.386729278755304606e-01
-6.013506542898588991e-04
-1.412618948927593376e-01
-1.890169401872287269e-01
-2.048286386236062850e-01
-2.185323031275753780e-01
-2.129914904220563676e-01
-1.604259415141152112e-01
-6.331231351001957719e-02
3.630901805404129074e-02
8.221292213330688714e-02
3.980766399132384253e-02
-7.925007616037516023e-02
-2.131693845643872487e-01
-2.783838297549091068e-01
-2.248347913418567989e-01
-8.641542253495708426e-02
1.784538853239107936e-02
-1.587194419973344400e-02
-1.022497637840834583e-01
5.125893036534705238e-02
5.924081517966547361e-01
1.150768782005294755e+00
1.134767340502059962e+00
4.866015426873974148e-01
-2.040488055406343704e-01
-4.153173562065476943e-01
-1.970290373645444681e-01
8.002618050566065455e-02
1.846974406903067467e-01
1.406942535589901511e-01
5.744912235531493550e-02
-1.658179634416138970e-02
-9.614775068830780369e-02
-1.930329057099174628e-01
-2.818078701870297409e-01
-3.229733114426066032e-01
-2.992732679660345951e-01
-2.227522865767712079e-01
-1.224017683361818126e-01
-3.460965072975544232e-02
7.943911753571486142e-03
-8.290727038546342673e-03
-6.982758908434186229e-02
-1.370128316741259511e-01
-1.518481791475891907e-01
-7.070269420090127821e-02
8.170669066535232727e-02
2.073775130965249958e-01
2.235559615987351978e-01
1.486775378600115327e-01
6.904422851268605943e-02
3.660798087256898758e-02
2.667032054789353693e-02
-2.126811443001373758e-02
-1.342729190074182788e-01
-2.609946708652542968e-01
-3.068532369920025094e-01
-2.359528681416924456e-01
-1.088432026203083880e-01
-3.291973377366417750e-03
5.305269439973670648e-02
5.926586962938047015e-02
1.093558744606849473e-02
-8.163409549152095268e-02
-1.862913668681375756e-01
-2.884369155392605966e-01
-3.957103081827492153e-01
-4.360919572381010134e-01
-2.146270758030992820e-01
3.319595714344695803e-01
8.596670983508392094e-01
9.040266913570859098e-01
4.736468117561483115e-01
4.048207879177735669e-02
-6.282483855327881950e-02
5.963875291718567784e-02
1.498413230544773378e-01
1.219856947474462355e-01
6.776697052803769272e-02
7.700657059605638122e-02
1.325978262816856212e-01
1.606608281619494871e-01
1.265811849512808451e-01
5.185334976927000183e-02
-3.266449474345123338e-02
-1.075589628193787811e-01
-1.532704875772136766e-01
-1.560175655070874245e-01
-1.224907074105052313e-01
-7.063824219117420533e-02
-1.396611163784955423e-02
3.732079797196104221e-02
6.732244016936259068e-02
6.149596207640551510e-02
3.641526471081724114e-02
4.016585298051714853e-02
9.134586483868080420e-02
1.406027920349200711e-01
1.258952879711193462e-01
5.173651582112480385e-02
-1.463445770402966445e-02
-2.610391195976627388e-02
-8.494227834999474105e-03
-1.902875635124780598e-02
-7.627243824303087116e-02
-1.485091556767789422e-01
-1.956408721374086890e-01
-2.035610457559373088e-01
-1.782490362566338249e-01
-1.252626296926817873e-01
-5.493914900090662856e-02
5.575878888929010520e-03
4.159174078220544829e-02
7.692146044489496515e-02
1.097574784715355106e-01
4.685413053078659601e-02
-1.650018456415058288e-01
-3.125112390966600651e-01
-3.532058034280085440e-02
6.535031724450709456e-01
1.183843779033451060e+00
1.050550604845573055e+00
4.282515847017944188e-01
-1.136366101319382510e-01
-2.865504788467538866e-01
-2.203643360434363596e-01
-1.370525968939554640e-01
-1.202773825815349473e-01
-1.320282920397554682e-01
-1.203791479795192354e-01
-8.157292993657271063e-02
-4.819405687080463574e-02
-5.356831003864907792e-02
-1.070573480731814298e-01
-1.852249301588527186e-01
-2.487656731694013190e-01
-2.747145704174123737e-01
-2.700007815227279395e-01
-2.548060544060914978e-01
-2.393588636208107412e-01
-2.180381348816984866e-01
-1.807663305880511939e-01
-1.244425319403448388e-01
-4.898178834767247247e-02
4.246454346681296371e-02
1.160611202473236236e-01
1.094459920787320545e-01
7.227166504634084665e-03
-1.148299295102357398e-01
-1.643157153214211685e-01
-1.264744679209202083e-01
-6.031411420879215918e-02
-2.460606221326602783e-02
-3.194306001761874209e-02
-6.951008903009124607e-02
-1.334809799457665480e-01
-2.202885244256609365e-01
-2.986611901321872264e-01
-3.204811179731372195e-01
-2.704392683520467355e-01
-1.861497852911257467e-01
-1.100815591518026909e-01
-4.790974978095212389e-02
-1.409958949943705860e-02
-8.291869641789638423e-02
-2.890702388477584539e-01
-4.464366696501606002e-01
-2.274171556096440672e-01
3.934048582418128159e-01
9.212931742699329574e-01
8.734737414596288607e-01
4.050990730067058898e-01
6.513544705838036908e-02
7.965894489912615783e-02
2.113377631668409140e-01
1.974996416833864621e-01
3.698042576550621130e-02
-1.236729715379922545e-01
-1.941948899725960409e-01
-1.814753379266497713e-01
-1.229121107657789591e-01
-4.754842331424449786e-02
2.092133585608073679e-02
5.999321767742898937e-02
5.340367805209558089e-02
-4.498993489242784916e-03
-1.090279625073070774e-01
-2.342029215355459215e-01
-3.218333278404423847e-01
-3.185286384371422974e-01
-2.278438675547488357e-01
-9.215556003419714259e-02
5.678870658941771038e-02
1.874649625076704740e-01
2.433311233457497724e-01
1.890987505350343323e-01
6.785778068375779293e-02
-4.060299510483948021e-02
-1.025445200339697716e-01
-1.269308227776412001e-01
-1.147885156286647806e-01
-6.096918966736226964e-02
1.948924258552586775e-02
9.288786660869786937e-02
1.271545935664366023e-01
1.159679072029567160e-01
7.633671209419902459e-02
7.362023185018780336e-03
-1.139370437476446007e-01
-2.560306157375562552e-01
-2.969770226273235614e-01
-1.463685560060314361e-01
1.019430452141875248e-01
2.168652030559732879e-01
8.509665157788137702e-02
-7.850386869803649414e-02
1.140338167040165912e-01
7.006151658229912149e-01
1.135187225684122003e+00
8.947424186116994527e-01
1.941065915507957373e-01
-2.781357930277691959e-01
-2.036130482145931953e-01
1.281874102659951720e-01
3.060860308160847643e-01
2.229852218286767773e-01
2.826651028228309090e-02
-1.372185443839007979e-01
-2.532906413567915793e-01
-3.374030606708412483e-01
-3.720234907303071048e-01
-3.393159219556907691e-01
-2.597192960937355077e-01
-1.719943959757699592e-01
-1.117247830722684770e-01
-1.031397863070184495e-01
-1.340328234895722392e-01
-1.539556842321990748e-01
-1.368112818643602846e-01
-1.186527567710568554e-01
-1.240067083725376190e-01
-1.008593945918194179e-01
3.993104658572253947e-03
1.499709959172714491e-01
2.427018304873173604e-01
2.367251595205618064e-01
1.571814118057741072e-01
4.275958206201607714e-02
-7.648961298489537208e-02
-1.309034658795173167e-01
-2.720343256670016557e-02
1.985891185961468075e-01
3.365400789888549626e-01
2.479444375349612317e-01
5.162189031699188774e-02
-5.897939057069895297e-02
-5.511527149718559171e-02
-3.775845933237326896e-02
-7.609206664044076973e-02
-1.445164459298152182e-01
-1.763439661261815006e-01
-1.570306055016932323e-01
-1.526156081667788544e-01
-1.976805009726774198e-01
-1.522385861677394148e-01
1.872804233464967771e-01
7.177173211628691263e-01
9.694200189900804565e-01
6.624674379346403574e-01
1.152669083036884090e-01
-1.695051491206990002e-01
-9.706057799462793068e-02
6.881655133232747468e-02
1.208123432655051482e-01
6.474598338459580660e-02
-1.242965337561251910e-02
-6.786023998902082632e-02
-1.097703005430417378e-01
-1.523721585124194755e-01
-1.867623493230304854e-01
-1.915345908849457046e-01
-1.575002327827674520e-01
-9.445922545212974419e-02
-2.909467597528622718e-02
9.047427015892334570e-03
1.875153876254638183e-02
2.282217207210572932e-02
2.199333815079929783e-02
-8.180891369664411092e-03
-6.607735750888224513e-02
-1.051285719023776905e-01
-8.009221168626073917e-02
-1.522577208794607256e-03
6.957357403771748106e-02
8.740110663701276816e-02
6.480668729618214996e-02
3.636897572855617156e-02
-4.241162107785242247e-03
-9.953966879832419623e-02
-2.492183345603420364e-01
-3.667208213970114539e-01
-3.568050636043487711e-01
-2.206931606643320332e-01
-5.331252678266845679e-02
4.640004540680282841e-02
5.048130103256498469e-02
8.506061488302955886e-04
-5.318820384421080183e-02
-8.963951689860072403e-02
-9.038983259448531149e-02
-5.021032867784559761e-02
-3.203446123689370623e-02
-1.181077763704857647e-01
-2.194768831676887633e-01
-3.944102088688669627e-02
5.524678726578400312e-01
1.153301110733022439e+00
1.170371307942368100e+00
5.690653698038554698e-01
-7.141312068227284593e-02
-2.779694385122480349e-01
-1.307151648836802627e-01
2.904490370473115923e-02
4.313692428429003606e-02
-9.014050403973912495e-03
-2.612791411498611299e-02
-9.935603974977268507e-03
-6.375094056567555748e-03
-2.578039655557717511e-02
-5.793589271052331652e-02
-1.134857382521723829e-01
-1.960589317960466649e-01
-2.599096528789477945e-01
-2.521397718982877345e-01
-1.856744171031467217e-01
-1.227607910459095203e-01
-9.364633433283563180e-02
-7.406298478050866996e-02
-3.868237123069019623e-02
4.935022156609908915e-03
3.834147705624951080e-02
5.354550092558435503e-02
4.701891616479841191e-02
2.068473646405098038e-02
-2.710697518376105689e-03
1.148469550587342264e-02
7.140917793885516451e-02
1.367694265190946279e-01
1.438960546404545737e-01
5.986288587103623382e-02
-8.421137932116128100e-02
-2.148382998615503969e-01
-2.715103960715297138e-01
-2.478083502160894069e-01
-1.849023727431373665e-01
-1.247688745301832464e-01
-8.010439866160271039e-02
-5.035649871672849553e-02
-3.898512954023734822e-02
-5.232057686534116042e-02
-1.123608380682929592e-01
-2.470972093060354591e-01
-3.917062544724711493e-01
-3.294649433859938581e-01
8.507689217291608541e-02
6.033851355671073780e-01
7.546267310951129126e-01
4.455130013363808872e-01
8.224842146212681115e-02
5.028319463182936294e-03
1.171012230198804627e-01
1.482719357639881441e-01
2.825389809137233976e-02
-9.927654817586800684e-02
-1.093457148427029874e-01
-4.695914642690687119e-02
-4.702202293504344210e-02
-1.382057672162314843e-01
-1.875568735750149929e-01
-8.790135180136152138e-02
6.896882995510784931e-02
1.031113646663043559e-01
-2.311813064963561676e-02
-1.833270055551817490e-01
-2.552959538485347624e-01
-2.239736464609420608e-01
-1.400851531443749465e-01
-4.827683458106041964e-02
3.880602930591656174e-02
1.197592594586171094e-01
1.589887769165035936e-01
8.909644658541097939e-02
-9.235504337829397725e-02
-2.626256430869525760e-01
-2.927599319792845711e-01
-1.971009271939464791e-01
-8.906188772388010100e-02
-3.627898262844909266e-02
-2.727458832588466886e-02
-3.414093255181429448e-02
-5.265856583541402014e-02
-9.971544245580850341e-02
-1.851738071182306711e-01
-2.678746333423289716e-01
-2.653185531781428463e-01
-1.548170658704661473e-01
-2.467615742406659846e-02
3.795617622510109868e-02
5.085931608506183421e-02
5.354517372228460859e-02
4.948038604519339190e-05
-1.318880950964626542e-01
-1.552940865760321087e-01
1.824128897403230198e-01
7.605789622676444317e-01
1.048993626737937390e+00
7.379060506456111002e-01
1.601953312385046568e-01
-1.420765415242861152e-01
-4.106538650091255682e-02
1.711221856097623062e-01
2.107827742113716762e-01
6.035752735839314959e-02
-1.266415312114850256e-01
-2.274119098214993917e-01
-2.203027491743491106e-01
-1.380492347184517909e-01
-2.949268419735728841e-02
4.898722255959844785e-02
5.972157548950673966e-02
9.412462004836018650e-03
-6.780127183289616499e-02
-1.433013110613527707e-01
-1.995754288770481277e-01
-2.224467049281073083e-01
-2.073334240262338091e-01
-1.597120830506990052e-01
-7.522438112570903335e-02
5.466797772925585663e-02
1.917365335501301782e-01
2.355111717204238231e-01
1.122850585319806055e-01
-1.147052593603967580e-01
-2.771033792860008171e-01
-2.728286052748984947e-01
-1.581251121986650965e-01
-4.686866956135407603e-02
1.488779021351051973e-02
4.772201029331481908e-02
7.500499861987097727e-02
9.370685718947466269e-02
8.480610654324344244e-02
3.626886004959845727e-02
-4.134186139306354757e-02
-1.181542868771746219e-01
-1.584616500587705812e-01
-1.322268302235551918e-01
-4.106361223853172149e-02
4.516289839667119582e-02
2.857794740641602868e-02
-6.069752058754711993e-02
2.930976175274985565e-03
3.754061527955627198e-01
8.000635174831643992e-01
8.045763975994640882e-01
3.323089155382971116e-01
-1.327328408659022574e-01
-1.783778143895990986e-01
9.172522526695500722e-02
3.095763797962431396e-01
2.929353365364210093e-01
1.357150516659463568e-01
-1.242224865989133807e-02
-1.128670545788802715e-01
-1.904325082753560716e-01
-2.325460916530665278e-01
-2.049304676893322907e-01
-1.236365634706023398e-01
-5.048896047369204332e-02
-2.439184766390198322e-02
-3.015304315922105044e-02
-3.370433160589391547e-02
-2.720100187719242876e-02
-3.729936568301974592e-02
-9.475363448923970755e-02
-1.866200884233607249e-01
-2.405679325238454791e-01
-1.823776849766657604e-01
-1.921496254556467539e-02
1.487223653020776637e-01
2.102672711535455985e-01
1.374564447587029170e-01
-3.592512425802787956e-03
-1.277613020205695948e-01
-2.018309571381305956e-01
-2.439560462222047366e-01
-2.714813471204973183e-01
-2.652957153563409998e-01
-1.976754045194934473e-01
-8.345954718501391589e-02
2.295339077745132267e-02
7.520579802774278455e-02
6.036400478388211088e-02
-9.272212298963975266e-03
-1.028590888879241522e-01
-1.673376614675501639e-01
-1.482510407032713307e-01
-5.407680856277938264e-02
6.612683183997439956e-03
-6.175369762257298945e-02
-1.186591567839150319e-01
1.756933025604233423e-01
8.589902970219680522e-01
1.371332724029615591e+00
1.156135905785140361e+00
4.083727559768228765e-01
-1.773046038714219119e-01
-2.434082115404508084e-01
-9.131487174344747604e-03
1.774842702261383853e-01
2.084602602259991444e-01
1.536967450444598760e-01
5.636317354631661253e-02
-9.717540744602609637e-02
-2.740855640010473881e-01
-3.820941518250967617e-01
-3.777685185067287676e-01
-3.107005297619791495e-01
-2.411943186364555181e-01
-1.771979288427796284e-01
-1.063578452692709314e-01
-4.046262097266768026e-02
-7.427674368357792614e-03
-1.975629125138060951e-02
-6.334309033757103136e-02
-1.062581115358177952e-01
-1.111513692097166328e-01
-5.794742161681960130e-02
2.716645219442365145e-02
8.386208744478962362e-02
8.432801081359912743e-02
6.893567290911695178e-02
8.700288714235468457e-02
1.249586885360039340e-01
1.246988043329704393e-01
5.640651351530286128e-02
-4.640804393483981272e-02
-1.144753927273958194e-01
-1.020988830989952301e-01
-2.542120718250659439e-02
5.725759927815364525e-02
9.863036133930357108e-02
9.424559606806739986e-02
6.852705602832831477e-02
3.718995408331939728e-02
-9.122057451639955725e-03
-8.864090110885022855e-02
-2.065126568490605330e-01
-3.242417402066671839e-01
-3.188454455099042906e-01
-4.665694113587156439e-02
4.229921291640657555e-01
7.280696955848966478e-01
5.980449902506845827e-01
2.261556441599159029e-01
8.764182490807098658e-03
4.275002867247741645e-02
1.115591889910851203e-01
4.600936774388680872e-02
-9.324275848967625291e-02
-1.494736609752121692e-01
-7.083495517141692732e-02
4.890607814200408077e-02
9.374681536169246487e-02
4.122856486928698494e-02
-5.409772776888108897e-02
-1.407757860170278374e-01
-1.947022781973317407e-01
-2.022646561468488535e-01
-1.683393901686244531e-01
-1.217218920322618581e-01
-8.181877828003032704e-02
-4.513981435679960408e-02
-1.873803662808079876e-02
-1.994541566019714801e-02
-3.235678476692906841e-02
-1.918250326261215430e-02
1.052740783318691781e-02
1.788533340069453853e-03
-6.490919448635582012e-02
-1.262119398613497923e-01
-9.870507271099250579e-02
2.050943462724493654e-03
1.752179487875240790e-02
-2.128347254455112969e-01
-6.041958730029310942e-01
-8.238518364104686631e-01
-6.749049129299289351e-01
-3.488970782745424715e-01
-1.430666226678713182e-01
-1.030186242296228655e-01
-8.949997779113809393e-02
-3.167584104901112474e-02
2.345750987552327332e-02
2.806135635728527339e-02
-1.299845154331524463e-02
-1.003901335452445087e-01
-2.547109041676960950e-01
-3.879881774925254545e-01
-2.423079325036413822e-01
3.162538097899630918e-01
9.442267342769111726e-01
1.088738182297017243e+00
6.719284380195866824e-01
1.737099324357654906e-01
3.014115453899568475e-03
1.027555272306497486e-01
1.891943955270910249e-01
1.239502927981356306e-01
-1.627333599646704765e-02
-1.035702796852431273e-01
-9.561005829972021863e-02
-3.481690112497322354e-02
2.029774392545785275e-02
3.936723128232952340e-02
1.540135600508492353e-02
-5.116333126287356259e-02
-1.425552720177183375e-01
-2.157336266884525566e-01
-2.316523332935706558e-01
-1.894477584294524397e-01
-1.230950797575683375e-01
-6.831946896534217550e-02
-2.957056370199687145e-02
2.380084944751393108e-02
1.130538057785746425e-01
1.959039689123344696e-01
1.870517801918768763e-01
5.472745810665977095e-02
-1.240166022741357038e-01
-2.247498134034763839e-01
-1.857823681883219447e-01
-5.327795830257366777e-02
7.416756787155841246e-02
1.350768557236456113e-01
1.362490752539105565e-01
1.115094161524262523e-01
7.235547107289312663e-02
5.528002588961369868e-03
-9.061397110598508331e-02
-1.817244192756400367e-01
-2.140683712926146898e-01
-1.570806848979974524e-01
-3.767174162097826351e-02
6.369663860699556479e-02
5.577304791596258277e-02
-8.889112434259649476e-02
-2.423304198591218206e-01
-1.526185369521862178e-01
2.618174146916008582e-01
6.707613846109521383e-01
6.538762929885159059e-01
2.638921780607375034e-01
-3.884654972696653663e-02
6.214145383853451540e-03
2.160718898069883265e-01
2.985986447705348823e-01
1.824166276970115852e-01
-3.490554175019307953e-03
-1.257117870717736341e-01
-1.581239238835161487e-01
-1.446915470810366533e-01
-1.145932490333264886e-01
-6.195492325411659090e-02
1.191746114207248297e-02
7.409703737607348240e-02
8.821962076893645477e-02
5.325558735240652070e-02
-1.424504956269700626e-03
-5.918991519830727605e-02
-1.309481408005330194e-01
-2.105990226952179911e-01
-2.414549529942717487e-01
-1.695297276398712860e-01
-2.254020061530309996e-02
1.120307653977981044e-01
1.754748649598565635e-01
1.544265824512984220e-01
4.977289189230396649e-02
-1.039306654169253330e-01
-2.272823042724696208e-01
-2.590429985592314632e-01
-2.056086923840840519e-01
-1.116761892968487074e-01
-1.766082427288489035e-02
4.598006336550174850e-02
5.745172955192582448e-02
1.344692547309870104e-02
-6.684299950163603843e-02
-1.519960249375414685e-01
-2.124718483726550922e-01
-2.213000277234259128e-01
-1.529350646658685919e-01
-2.059771741786715210e-02
7.398986244800614953e-02
2.359317036017467752e-03
-1.842566001137583009e-01
-1.627878854795569707e-01
3.309268452588927101e-01
1.025411636206909449e+00
1.264889163343646539e+00
8.014232351171086677e-01
1.291135488065829617e-01
-1.520494387045632778e-01
2.728559107313816012e-03
2.263054955292826131e-01
2.635297190008629720e-01
1.483131772648467739e-01
7.703580278946324175e-03
-1.062040506980809484e-01
-1.781489579670397227e-01
-1.597460180304474675e-01
-4.415863229570045345e-02
5.648381180339179242e-02
3.670758369429925200e-02
-5.421578658983829818e-02
-1.021997874518644767e-01
-9.064167791824409570e-02
-8.408711948248889789e-02
-1.213016352516698981e-01
-1.860090685956230783e-01
-2.381752046344698948e-01
-2.319478275342176932e-01
-1.304468425220744465e-01
4.908401904371493402e-02
2.087491821145862070e-01
2.384561969303082840e-01
1.277585638203947160e-01
-2.488735414785634564e-02
-1.236087961268105967e-01
-1.595702237521963440e-01
-1.761529473151439429e-01
-1.920624743192669848e-01
-1.850765114916962939e-01
-1.321905790801355673e-01
-4.696015728839228465e-02
2.260893084767010008e-02
3.617302323178118312e-02
-6.344636604281804135e-03
-8.173465833715340412e-02
-1.651681551129050851e-01
-2.213116858351099336e-01
-2.172958238727301372e-01
-1.760086007796709817e-01
-1.780158379931382762e-01
-2.457113438421212048e-01
-2.283217039064920351e-01
7.008284390672944730e-02
5.455637668086501524e-01
7.592172876527609748e-01
4.689877091655907382e-01
-8.589687690846031787e-03
-2.106463475872314417e-01
-7.253331565948117898e-02
1.342457475683381252e-01
1.928136088808405646e-01
1.080761099799486813e-01
-6.280855713519314931e-05
-5.006650219938032359e-02
-5.464966424647443172e-02
-7.355114867380729837e-02
-1.332097430791676917e-01
-1.948663238821699561e-01
-1.998099240702318480e-01
-1.372896447076946691e-01
-5.231051376527152963e-02
1.249813571912057608e-02
5.189930741847968709e-02
6.383349699273041522e-02
2.589942866576580571e-02
-6.067464565711985780e-02
-1.372524121384864904e-01
-1.342422654010654581e-01
-4.497190020212662315e-02
6.193042651516406094e-02
1.101329086822339515e-01
8.892953071477825711e-02
4.506021068261931162e-02
1.392763867271279432e-02
-1.596289258866101166e-02
-7.545674948657837833e-02
-1.675665276038252882e-01
-2.471210598753758869e-01
-2.530843143565313924e-01
-1.755408473807570924e-01
-7.518792887036371275e-02
-1.317726358205080321e-02
7.154755986281075529e-03
3.144851835827744413e-03
-2.917568117250134152e-02
-8.518779591319779187e-02
-1.297145067373702831e-01
-1.472168064829777745e-01
-1.884267062924889213e-01
-2.956577070653159112e-01
-3.407060168748741735e-01
-5.885771910480006031e-02
5.689880264751643324e-01
1.089424382397269575e+00
1.039262280204222177e+00
5.290985843054403226e-01
5.452316912567627127e-02
-1.165835775998586288e-01
-8.925830392202044328e-02
-4.451694391729167644e-02
-4.074313704044210671e-02
-4.775939589305856076e-02
-3.999547516835471467e-02
-3.836138329334033009e-02
-8.416350524005158928e-02
-1.746000567974251849e-01
-2.448428204458351909e-01
-2.454490990443428666e-01
-2.111130797326631892e-01
-2.046084635156343867e-01
-2.178371379672110197e-01
-1.838243292461476663e-01
-7.415117115336262998e-02
6.389581505174965481e-02
1.641910832063199766e-01
1.997459720986652643e-01
1.863002349235353683e-01
1.527362405567176673e-01
1.078081803018035717e-01
4.012348833755474686e-02
-4.029244109591585687e-02
-9.223062469083093129e-02
-9.284196663572226449e-02
-6.209458311315725620e-02
-2.979885649007906270e-02
-8.447106946476665504e-03
4.792503590129385937e-06
-5.379962794310550779e-03
-2.167496883352573386e-02
-3.966603177178863043e-02
-4.631345080156679117e-02
-3.404494690157754133e-02
-1.240399145780078302e-02
5.478367343613894762e-03
3.034149556857685531e-02
7.796601970724759134e-02
1.106065133425046254e-01
3.613121153270675012e-02
-1.690397558205690431e-01
-3.164494076985783222e-01
-1.131886317466953285e-01
4.330119957846388923e-01
8.572266688265101076e-01
7.510003952580119879e-01
2.908761536676302550e-01
-3.232362857764207315e-02
-3.683774190295663331e-02
6.823596970064642331e-02
6.397764525534128943e-02
-5.340552045622423694e-02
-1.650106939109659554e-01
-1.903612056751873283e-01
-1.402822901694473490e-01
-7.606714621475867133e-02
-5.049271974962564469e-02
-7.455268591965513725e-02
-1.224091606295764634e-01
-1.663526041227441077e-01
-2.004972308003496462e-01
-2.239040123347005584e-01
-2.209143940119868421e-01
-1.764357150860944579e-01
-9.884130509391264585e-02
-1.593494815963047984e-02
5.296487309993647835e-02
1.152586627816829939e-01
1.767871261513216108e-01
2.006762738591338635e-01
1.342977570453185998e-01
-1.386820379862037031e-02
-1.584987677558880037e-01
-2.149019495964293036e-01
-1.772013042325022991e-01
-1.068646742556757512e-01
-5.550997104990814529e-02
-2.533775161024303182e-02
-4.972149780592032345e-03
-7.693507188248601206e-03
-5.075954481056093454e-02
-1.145985681559034824e-01
-1.526463857134655044e-01
-1.431381043692353250e-01
-1.059995974469317148e-01
-6.169089123830685806e-02
-2.895867573725166219e-03
6.456067363002757076e-02
6.863912158361225313e-02
-6.974540926893726955e-02
-2.581636493472880267e-01
-1.924863410599050306e-01
2.996444017590115805e-01
8.897565038232818635e-01
1.029511722063541246e+00
6.431678580402426793e-01
2.067979108648150821e-01
1.070985589352389522e-01
2.483282786043682910e-01
3.247787538259415685e-01
2.085664014853756409e-01
-7.276092441005205941e-03
-1.871391385667076357e-01
-2.694849069773099792e-01
-2.573566823973459927e-01
-1.828738549659213730e-01
-9.521830777463569095e-02
-3.565521373689697904e-02
-1.000922602183998422e-02
-1.277708820353018991e-02
-6.599499653448621939e-02
-1.880677210140187516e-01
-3.245375244607118792e-01
-3.633423218921840170e-01
-2.524817203619912354e-01
-6.448096713732898166e-02
9.748179444471784250e-02
2.059621107440789967e-01
2.711138948480208422e-01
2.634737314825323917e-01
1.480638477740180980e-01
-3.592973793586959341e-02
-1.883994415367656050e-01
-2.416959227773889940e-01
-2.099588607301281495e-01
-1.446894399859513791e-01
-7.038175031434693030e-02
1.798131225426036206e-02
1.049335167121751844e-01
1.351656741724776567e-01
6.789663795907743826e-02
-6.187578750083948254e-02
-1.566637363950099948e-01
-1.344151368382678347e-01
-6.196231593961742598e-03
1.216345795017907128e-01
1.476102256632257914e-01
6.086869038042720670e-02
-8.255223591116485349e-02
-1.815589776884002082e-01
-8.395276732266643283e-02
2.539406384359349511e-01
5.689566653089841441e-01
5.173589789449177800e-01
1.483583071997187641e-01
-1.361041445914438763e-01
-1.035042232228053222e-01
9.870553721619967913e-02
2.258261174431741847e-01
1.996234114123959236e-01
8.633603928209138134e-02
-3.620197871663433792e-02
-1.322132051000643738e-01
-1.891528891852151117e-01
-2.051525680174330624e-01
-1.917170230707688772e-01
-1.636006561233334655e-01
-1.231787076757804161e-01
-6.669610585829911786e-02
-5.627120422810738889e-03
3.564804730375356612e-02
4.179422194779881111e-02
8.384369659969354363e-03
-5.899887736555923384e-02
-1.241542319031148922e-01
-1.265580197075146240e-01
-3.800039010434484027e-02
9.466439006200820516e-02
1.800786821516497105e-01
1.608457103035837166e-01
5.588735408447316477e-02
-7.356105288412136123e-02
-1.799666322866784740e-01
-2.404999352260722978e-01
-2.401182883017718983e-01
-1.846982200075701075e-01
-1.199166217822340008e-01
-8.876504106480015421e-02
-7.662084885422459912e-02
-4.253670789101172967e-02
6.921165149992099426e-03
1.554987483554523542e-02
-5.225856448633160040e-02
-1.606402627865950172e-01
-2.304002206737696123e-01
-2.195328566986557428e-01
-1.763101418100329054e-01
-1.976772928159469811e-01
-2.866466559637066980e-01
-2.400820991803815918e-01
1.801919622433933721e-01
8.341736025924192388e-01
1.162408322563189600e+00
8.170941297310985174e-01
1.335029144507374477e-01
-2.916958225072905364e-01
-2.702768246120831330e-01
-5.664709499684374844e-02
6.822628870413222080e-02
4.382475120774230459e-02
-3.633572645378412708e-02
-8.932883962736337669e-02
-1.205119925960905503e-01
-1.761379475960459517e-01
-2.626388159624625795e-01
-3.382922253185582373e-01
-3.594512180205352014e-01
-3.068597673264151227e-01
-1.935706315256385257e-01
-7.508615163162829509e-02
-2.269524403310935190e-02
-5.322006464036094231e-02
-1.079291114575102045e-01
-1.243394350964864420e-01
-9.665120260782930628e-02
-5.099579055137944822e-02
-2.413298576278819288e-03
4.971802350022423711e-02
1.097072265697741911e-01
1.680309270120407261e-01
1.875393354842752602e-01
1.329402950381285975e-01
2.159409295886602353e-02
-8.466869586635261680e-02
-1.384934366348132828e-01
-1.328481171948277251e-01
-8.529841853075632863e-02
-3.063089939814014895e-02
-9.344111778811729080e-03
-2.485569074043124035e-02
-3.067678352546624604e-02
6.142982920527565588e-03
5.310339039414645190e-02
5.402797129797065612e-02
-6.649240460727862817e-03
-1.140634415550828146e-01
-2.536685026645698060e-01
-3.536200913573669946e-01
-2.323741600868693136e-01
2.148638521023020220e-01
7.260761449912066512e-01
8.286036845143115448e-01
4.253132175100815537e-01
-5.358161167352927523e-02
-2.094640915100141054e-01
-9.256523463201365987e-02
2.782473902391752185e-02
3.638529652177352469e-02
-1.230645510765639682e-03
-2.587597721270740864e-02
-5.734201476473800574e-02
-8.442277464395624154e-02
2.460810495134907374e-04
2.345571253097140652e-01
4.195988966592775204e-01
3.145836897743246596e-01
-1.970911554447660197e-02
-2.763572206292461697e-01
-2.790398150016200618e-01
-1.217502219304299055e-01
2.895551190028456193e-02
1.029311041435169161e-01
1.122305733959833990e-01
9.926694818991320390e-02
1.095161225577530456e-01
1.457926992947048694e-01
1.515379586989619165e-01
7.433596685632230805e-02
-6.029124878816256167e-02
-1.602318237312017890e-01
-1.587587900151113396e-01
-8.177313169664626735e-02
-1.368133968974329442e-02
-1.561472706926633758e-02
-8.721643772751937196e-02
-1.820503491535037377e-01
-2.446060318085389318e-01
-2.466177281475360195e-01
-1.975708793065362179e-01
-1.250189097212561495e-01
-5.367809447569783787e-02
2.633001759911937460e-03
4.512792578837782065e-02
7.883269791600311382e-02
7.195202932310251764e-02
-5.164372122525268810e-02
-2.878915064632133758e-01
-3.946758476642421298e-01
-4.288213400226061067e-02
6.983878878931186751e-01
1.232113321632318348e+00
1.084023706800134379e+00
4.967449402299350392e-01
8.043768537808615449e-02
7.417391114433305455e-02
2.231465787980653759e-01
2.238686141318796952e-01
4.617233918527477443e-02
-1.474838499946171388e-01
-2.334926288862940180e-01
-2.185878123331698175e-01
-1.695778745448970337e-01
-1.261946487240515058e-01
-9.076532406434223432e-02
-6.825671808286429276e-02
-7.941924983619327860e-02
-1.306895213656881771e-01
-1.951434074291803766e-01
-2.308054259616539594e-01
-2.123212953136680847e-01
-1.508935400516760728e-01
-8.251133663152843134e-02
-2.582883697060736616e-02
3.695541142050803168e-02
1.157080064385840462e-01
1.664218896963718108e-01
1.290591036910222755e-01
7.324907824114398544e-03
-1.232369155794782317e-01
-1.866697936253069734e-01
-1.642739627385850776e-01
-8.839811133266220478e-02
-4.806259242244967367e-03
5.221724924166425835e-02
6.673457757657139111e-02
4.476972704325622721e-02
9.599998899769167371e-03
-1.971262163722568503e-02
-4.617173445861404851e-02
-8.386350945822550196e-02
-1.250130431069021719e-01
-1.275085494547407439e-01
-5.941356511202780522e-02
3.163264171141648429e-02
2.477853666145935288e-02
-1.296171688231970431e-01
-2.554879016421354732e-01
-7.503463066492412070e-02
3.854016037473607659e-01
6.900557386139205551e-01
5.302738513710233414e-01
1.623840050850420824e-01
3.654397148088879554e-02
2.082555693459602897e-01
3.731690371829404773e-01
3.112418955873481607e-01
8.701303956827680097e-02
-1.141975129990627780e-01
-1.979318067896454758e-01
-1.947017044316295964e-01
-1.665187875591696010e-01
-1.373099769789736524e-01
-1.034537314586412016e-01
-7.140134589485472305e-02
-6.072933937261783266e-02
-7.615619255571093316e-02
-9.590472042985255519e-02
-9.548511465548727151e-02
-7.767040274412384537e-02
-6.852147767399689726e-02
-7.712529376700302808e-02
-6.960694810090105322e-02
1.417956191950573222e-03
1.338947812801379866e-01
2.439159850243524386e-01
2.228496492727416456e-01
5.260731715084579485e-02
-1.622944290411337809e-01
-3.024835117488120506e-01
-3.367556141560750227e-01
-3.025352877322570189e-01
-2.393094261931828226e-01
-1.690179898365883615e-01
-1.055153282905710727e-01
-5.935715868020351171e-02
-4.129480127313565896e-02
-6.017367065881784605e-02
-1.103212335317593773e-01
-1.678513540599177456e-01
-2.040031775790640267e-01
-1.952016539319159638e-01
-1.262695473325150253e-01
-1.404220055549811053e-02
5.864534590878370951e-02
-8.529314237907701865e-03
-1.622664332950155275e-01
-1.259753400911317045e-01
2.872107032800026993e-01
7.824989508665075588e-01
8.273805611955155070e-01
3.605647557331300157e-01
-1.071851837301010663e-01
-1.679800202885845806e-01
6.206747819619654050e-02
2.418275718206299718e-01
2.175734070341085458e-01
5.154013772968884383e-02
-1.579643652754109395e-01
-3.452232770243069959e-01
-4.442012475995403276e-01
-4.183476023959553647e-01
-3.129358045532187882e-01
-2.065408919107279417e-01
-1.332059039459442262e-01
-8.615816060007568111e-02
-5.741175595199026621e-02
-4.882295679388312659e-02
-6.971525011464113630e-02
-1.280216481617320878e-01
-2.023231074317269895e-01
-2.323172721303035093e-01
-1.659763094802867156e-01
-1.667839618368572793e-02
1.363733488257508897e-01
2.053277067090893970e-01
1.640085479554408976e-01
6.915227522501948831e-02
-2.857472251651234363e-03
-3.741997199431398163e-02
-7.686904598527648236e-02
-1.421075038148092162e-01
-1.905242831256314384e-01
-1.599245470034267591e-01
-3.957679812857838042e-02
1.144254534812366719e-01
2.278998198406617104e-01
2.556455113785732758e-01
1.920239342218455214e-01
7.325549621224292096e-02
-2.614476029044494887e-02
-4.203293690412747419e-02
7.140967077238285880e-03
2.298712606105263526e-02
-5.688481359208984178e-02
-1.275011980477254170e-01
4.145275939936422793e-02
4.945881258122918900e-01
8.651215785004281456e-01
7.372733020996898867e-01
2.186331210320818230e-01
-1.777567028938655813e-01
-1.819279620085425264e-01
1.554718086276531130e-02
1.343735204240705527e-01
1.176782681846832573e-01
6.757847428919662447e-02
4.949284560102743674e-02
3.724279997683349608e-02
-1.260529583960156436e-02
-1.023586463185469780e-01
-1.999244694360062802e-01
-2.654988440874705979e-01
-2.729521707425043853e-01
-2.239483672764455147e-01
-1.436152127155753133e-01
-6.181072765094235144e-02
-1.304978311626389664e-04
2.906971868892365557e-02
2.392338312644647427e-02
1.282022907797556810e-03
-6.193247785613140328e-03
2.153641805703799400e-02
6.325280172273108070e-02
7.217711500452089757e-02
3.580975684616640592e-02
3.950517611966044423e-04
4.400571570202792791e-03
1.244601094202948087e-02
-3.992531018791223990e-02
-1.553072448357662727e-01
-2.694807557029144096e-01
-3.205619631153529547e-01
-2.873514149014554375e-01
-1.799829782223230923e-01
-3.831316203708164114e-02
7.342385361128775378e-02
1.125280446648329741e-01
8.975850760035078424e-02
4.048249085680037662e-02
-7.404167792458092763e-03
-4.234881836976737979e-02
-9.393128720442746327e-02
-2.164563643743127597e-01
-3.483274865962430189e-01
-2.289306339914599642e-01
3.202994843152037197e-01
9.899622144060215012e-01
1.176281890789181439e+00
7.114707149471342085e-01
8.015489122292503155e-02
-1.995002672498676632e-01
-1.020868270913359577e-01
6.727374829165266856e-02
9.451489945682928218e-02
5.220197492341233959e-03
-7.417092238381980951e-02
-8.152149730333847766e-02
-5.189053517015724398e-02
-4.962298662625129475e-02
-1.005633840202146689e-01
-1.840370084769267223e-01
-2.659921505481754878e-01
-3.200691172244513050e-01
-3.295455400035087190e-01
-2.938277869780952511e-01
-2.296350525729686787e-01
-1.562600606140540083e-01
-8.783242500218220450e-02
-3.510797646377838976e-02
1.675470673520281298e-03
3.403864726755941039e-02
6.152871702941402343e-02
5.374891336096631472e-02
-1.441745992550583569e-02
-1.051745208431784095e-01
-1.382321335737702328e-01
-8.522380239849286498e-02
-3.988424592447144257e-03
2.850243349768604231e-02
-1.626052641174213428e-02
-1.087243784651859835e-01
-1.860399726421373412e-01
-1.936262667558960593e-01
-1.247923731808954773e-01
-2.376961707600289478e-02
5.163928613016299796e-02
7.561958767620016730e-02
6.943774156569954004e-02
7.142003006982561297e-02
8.939921479682501337e-02
7.108638312306388152e-02
-6.397955038931894822e-02
-2.769866981796711425e-01
-2.876579820230081852e-01
1.711069680871583898e-01
8.583303575988671108e-01
1.128900341749091929e+00
7.495076904873051449e-01
2.151419011437647466e-01
4.862619282294202566e-02
1.993839728862899507e-01
3.029755110145638808e-01
1.935622246782396083e-01
-5.058827839793351294e-03
-1.187068076551802825e-01
-1.058899156298186428e-01
-3.751475359801954845e-02
9.509994477466900131e-03
1.410354299058128036e-02
6.015034610028974216e-03
1.489463537557516107e-02
1.938716100004641077e-02
-3.145545571902345905e-02
-1.324407846947618095e-01
-1.968662512094736805e-01
-1.540671948808005065e-01
-3.932721047853502544e-02
5.854464033035176873e-02
1.103164916749100471e-01
1.594660108060798054e-01
2.308108819823220803e-01
2.644488937843418874e-01
1.766076697808209861e-01
-1.622637795888920431e-02
-1.890369876443556418e-01
-2.419812151879475182e-01
-1.910516116128290198e-01
-1.119883313794959312e-01
-5.005538705711114200e-02
-1.208256642991831914e-02
-2.874381070539330091e-03
-2.877366411005200311e-02
-7.937969141939796303e-02
-1.304863059129283687e-01
-1.634190562327754725e-01
-1.707113820526916514e-01
-1.445517185000167182e-01
-7.277477812014096492e-02
4.506291405639810399e-02
1.656792445094805166e-01
1.789681112364673587e-01
-7.894532097407652368e-03
-2.585496596158340932e-01
-1.976187990288871543e-01
3.225668410406704600e-01
8.469516990466194883e-01
7.995055436706246521e-01
2.628430301686651704e-01
-1.456571621640183611e-01
-9.264463368965789036e-02
1.714517727813119619e-01
2.818460145167581699e-01
2.004841291660383606e-01
1.017352022426912250e-01
-1.500633694191773858e-02
-3.594891171597116020e-01
-9.022009405160537066e-01
-1.179401657823933691e+00
-8.587531799575006675e-01
-2.437891644953237291e-01
1.207153685573785773e-01
8.947485819717715394e-02
-9.816002874017734636e-02
-2.280571493179040232e-01
-2.741390407020050102e-01
-2.759456395826671571e-01
-2.380802643813345887e-01
-1.507310337854309568e-01
-2.146877874002198205e-02
1.291096764921685902e-01
2.603615172089865926e-01
2.958445469822811869e-01
1.690703305224104669e-01
-7.950786926013606037e-02
-2.973785489646231239e-01
-3.609310854466922791e-01
-2.881635815188467453e-01
-1.819402661652674280e-01
-1.094328903992198704e-01
-6.777945033483466497e-02
-2.797545690309879637e-02
2.032165635709332757e-02
5.845468044415498554e-02
6.171675712561045662e-02
3.013131504377829922e-02
-7.346122199297724226e-03
-1.872425650402682190e-02
3.951042249009445104e-03
3.236555390792630882e-02
9.931361156408087532e-03
-7.779957078493494882e-02
-9.410929798956585435e-02
1.674740708158967417e-01
6.371919382167448020e-01
8.776372427074494720e-01
6.044068108487277158e-01
1.004920357468981063e-01
-1.639464550461289249e-01
-9.021763189106121739e-02
9.419257941427378045e-02
1.975160078525185492e-01
1.858127455158452568e-01
9.605171403218158710e-02
-2.391553547916101113e-02
-1.328031332592520541e-01
-2.162281871813439282e-01
-2.729886382106817000e-01
-2.754008385943250148e-01
-1.876632720113806108e-01
-3.964155863769855404e-02
6.575151730548139950e-02
5.517774502382443574e-02
-3.435663118079781281e-02
-1.076765474122050453e-01
-1.196380748508542730e-01
-9.830892162705576198e-02
-6.976371477788750886e-02
-4.766842778498306052e-03
1.266478201673974513e-01
2.733247620431075164e-01
3.286616650000509510e-01
2.437594008581274729e-01
7.809173268623939568e-02
-7.136017179527696930e-02
-1.602713406841132782e-01
-2.052548589254541145e-01
-2.290249756789448088e-01
-2.244308645818171299e-01
-1.759613948778739889e-01
-9.728905692035000330e-02
-2.889282962694694062e-02
1.595630034025462794e-03
8.186326640940981558e-03
2.388593420329124598e-02
4.779698234519067640e-02
4.483450614781790688e-02
9.845522222506859072e-03
-2.451759436066636155e-02
-7.215006012948954606e-02
-1.839733162428621449e-01
-2.579719935126410513e-01
-2.288856878910020421e-03
6.560127065356035070e-01
1.228033835967387688e+00
1.121297574168996114e+00
4.146283135428937561e-01
-2.191941192462624755e-01
-3.279972720264761055e-01
-6.705669399348397619e-02
1.740085097674466119e-01
2.187480491244488956e-01
1.441380180313996673e-01
6.889129497765282550e-02
1.388961270503843298e-02
-6.275576298586157953e-02
-1.722182392164736675e-01
-2.758983072237393142e-01
-3.361793311733520806e-01
-3.447045430925967380e-01
-3.033182892328276647e-01
-2.151543201952501594e-01
-1.045412112124189663e-01
-1.767239137106034821e-02
1.112194171895065919e-02
-1.920938683328009614e-02
-8.273847147705520877e-02
-1.316627736039276686e-01
-1.184063303161955183e-01
-4.829360498357379572e-02
1.925306157932143297e-02
4.854744760938008857e-02
5.565978476017477417e-02
2.475316762463479134e-02
-1.238291516488782967e-01
-3.865437936013881304e-01
-5.767825883761243944e-01
-5.272551312272426571e-01
-3.207823580937915198e-01
-1.651378038180421615e-01
-1.256848963532818664e-01
-1.065596958861155241e-01
-2.389942421795658578e-02
9.138870771077647892e-02
1.498460048423053137e-01
1.184398525134311986e-01
4.583555138405014107e-02
-2.804195553369127208e-02
-1.401230356183940373e-01
-3.122039285719695467e-01
-3.775002662246861873e-01
-3.772983473749690064e-02
7.219963288996624762e-01
1.374225605675494233e+00
1.332198699580125600e+00
6.775616486569786545e-01
6.009506902077783874e-02
-1.015688666712208643e-01
2.497629643046481857e-02
9.065845003510761280e-02
2.130886500201541883e-03
-9.118304170941415876e-02
-5.533304125676877239e-02
7.487392035258488843e-02
1.586107922494609523e-01
1.149428836829086281e-01
-3.532362095399158020e-03
-1.006831455968225236e-01
-1.459618075300161688e-01
-1.661688578536852368e-01
-1.777521527731562578e-01
-1.655241275845730220e-01
-1.094455813567197511e-01
-1.457383121729791467e-02
7.947405535154630773e-02
1.248494514940693828e-01
1.176764183518848733e-01
1.103810528567151228e-01
1.432659996484523246e-01
1.785754407815284273e-01
1.440960903136827009e-01
3.412093422793349012e-02
-7.687098165043541875e-02
-1.188011750511617920e-01
-9.045098030394066457e-02
-4.378719043698262731e-02
-3.212979078525807913e-02
-7.581969473282648697e-02
-1.549880775536442434e-01
-2.209680127983096598e-01
-2.276646678909276800e-01
-1.696739691504522141e-01
-8.997471674126485131e-02
-4.119985378604209408e-02
-3.316332979537050391e-02
-2.520315109723672217e-02
1.000171362227116750e-02
1.498565008297797485e-02
-1.126256496172260702e-01
-3.449227116873103682e-01
-4.108121318183802773e-01
-3.151518359641115874e-02
6.316172918412830128e-01
9.989605975792156256e-01
7.416855949376173207e-01
1.869230472134134069e-01
-1.323850821259805743e-01
-7.893255208019867020e-02
9.711756734534082725e-02
1.552464781763948087e-01
7.853314647625470046e-02
-2.885942795283319082e-02
-1.000954335198670636e-01
-1.241021618863804854e-01
-1.018209206824074037e-01
-5.585125178809688395e-02
-4.247951660499847681e-02
-1.001948010372799153e-01
-2.013262932542439765e-01
-2.826274548453786006e-01
-3.079922796525308981e-01
-2.786357429674823361e-01
-2.043852073718795126e-01
-1.077116795222761297e-01
-5.045511398212976922e-02
-8.037015385440902937e-02
-8.257596393122348943e-02
2.001537276791054976e-01
7.661226843510794415e-01
1.105726130211105440e+00
7.414010478077524002e-01
-1.151364333727438322e-01
-7.960080008830616727e-01
-8.919904967749628932e-01
-5.353863194074813814e-01
-1.425450244861277971e-01
1.243800158477977036e-03
-7.764366984784744352e-02
-1.972892204296096685e-01
-2.412735107207597263e-01
-2.150047664417325533e-01
-1.740632994641378162e-01
-1.502165928816249219e-01
-1.357365251050535737e-01
-1.033078721203273542e-01
-3.978579627468180335e-02
5.791566878802757723e-03
-5.877127599589934692e-02
-2.191867337065247223e-01
-2.643855225652565477e-01
-1.270081511680181893e-02
3.558802756873987727e-01
4.410184909191243174e-01
1.711532937493744910e-01
-8.718088501202903018e-02
-4.814059378818452695e-02
1.682829504217585037e-01
2.883705059155732831e-01
2.173384001810192423e-01
5.656691677740124241e-02
-6.954979815407932864e-02
-1.244942143501757137e-01
-1.386385783060242738e-01
-1.418834245081620482e-01
-1.341312710820327103e-01
-1.023674797589283897e-01
-4.784701210874717919e-02
1.005594433729434072e-02
4.781008752192360267e-02
4.115576455855601834e-02
-2.733981002829716928e-02
-1.330671344380255638e-01
-2.015015512302314182e-01
-1.683442570300122676e-01
-3.286841296661496825e-02
1.511306999241916471e-01
2.985856414603724196e-01
3.160727451694667622e-01
1.735870409693056060e-01
-2.151437782557759359e-02
-9.404073744667415524e-02
-5.852777094990909215e-03
7.864752494380479464e-02
1.808775911268781234e-02
-1.099046958242523020e-01
-1.443822182217491257e-01
-6.318707949553367675e-02
3.208727998736300019e-02
6.176710110459506659e-02
1.889207954805931233e-02
-7.193692868158316212e-02
-1.812536703922622561e-01
-2.636307700165316237e-01
-2.606155580905972213e-01
-1.529529324437327309e-01
-1.984054576036313466e-02
-3.157025037340041584e-03
-1.278892264471004625e-01
-1.518012008977062122e-01
2.203121323105618201e-01
8.459753460930492519e-01
1.130916606469566599e+00
7.469303778020606188e-01
8.297756199571444669e-02
-2.617034196700251947e-01
-1.441874141607376036e-01
1.489052427081142271e-01
3.280822151944678966e-01
3.215678442703758244e-01
2.043517170510992520e-01
5.999915514899767377e-02
-7.409679658123838331e-02
-1.845081644276591326e-01
-2.514769199891512264e-01
-2.531349788264919409e-01
-1.943160008112180537e-01
-1.131820092074408146e-01
-5.256986736543292627e-02
-3.740720264624352448e-02
-7.462103317545833170e-02
-1.503648962912867704e-01
-2.272640594994942698e-01
-2.633235300329769824e-01
-2.315851928722715281e-01
-1.238151966384639369e-01
3.305085335083895320e-02
1.646912652390346843e-01
1.990671282259941777e-01
1.383278943685608275e-01
4.825543615967021333e-02
-2.629892193577525183e-02
-9.748075331899275220e-02
-1.795224399927868031e-01
-2.435076995033197411e-01
-2.522024662746843449e-01
-2.104123788588088129e-01
-1.507138226188402819e-01
-7.977723191225981336e-02
2.615167048517008999e-02
1.556615305921666137e-01
2.264733307434196041e-01
1.612855250992614453e-01
-1.251925111569556284e-02
-1.777794533501006746e-01
-2.510150551032638844e-01
-2.663172748592995132e-01
-2.678718217944169311e-01
-1.281544892499554833e-01
3.175408712280813339e-01
8.723679025459145642e-01
1.033274287951948756e+00
6.327360872033371830e-01
9.692408657833480323e-02
-1.134142737482346786e-01
-1.500995834828683373e-03
1.510210511861413141e-01
1.840907089467711255e-01
1.360276788850315055e-01
7.320999352021276274e-02
-1.261335533296393911e-02
-1.309575398728107520e-01
-2.177619048586292294e-01
-2.182561264880890084e-01
-1.767533753797363993e-01
-1.599988816606469078e-01
-1.591863151468933257e-01
-1.277741281984084154e-01
-5.574498392894321197e-02
2.526821895957371764e-02
7.130981537103002477e-02
5.458334671029978213e-02
-9.032413637521528177e-03
-5.976485138552805471e-02
-3.921971690554085233e-02
5.623485495386811028e-02
1.662489606927846642e-01
2.179052879403426957e-01
1.951214291258976108e-01
1.455765897953689714e-01
1.137658732080505664e-01
9.087513813812381214e-02
4.121814745962377319e-02
-4.293090300091154804e-02
-1.292679692931042734e-01
-1.817188051436893770e-01
-1.934562448581737537e-01
-1.752614815512113788e-01
-1.282623131062340383e-01
-5.997405124523548514e-02
-1.405635596699898390e-02
-3.117046942449097635e-02
-8.302779082358334450e-02
-1.058123638961963459e-01
-1.061389793673707255e-01
-1.756207429539102249e-01
-3.492477469771915755e-01
-4.392388777067001149e-01
-1.301664445232847689e-01
5.724958533995295751e-01
1.117107781778298392e+00
9.739760548629572412e-01
3.210912189103642955e-01
-2.043270427735897066e-01
-2.894670849651355682e-01
-1.410388957665935916e-01
-5.025718673179709745e-02
-6.996225128690723716e-02
-9.075856785838382068e-02
-4.391809876435052301e-02
3.030073387095087376e-02
5.209853666271156009e-02
-1.488959335944771076e-02
-1.414505356128108737e-01
-2.596649831729490043e-01
-3.070980678147970933e-01
-2.717767620604444323e-01
-2.036553632772506173e-01
-1.615635872542119100e-01
-1.511908147515920176e-01
-1.362586920106370336e-01
-9.776402165901852681e-02
-5.545080138407811748e-02
-3.126599035590011538e-02
-1.894168609601820305e-02
-1.160400935267400999e-02
-3.212887611095431584e-02
-9.694281017145238433e-02
-1.721483100623895923e-01
-2.059927727590307178e-01
-1.890046086505882406e-01
-1.525510920394458902e-01
-1.256629516217867559e-01
-1.192374595531264236e-01
-1.372515649591115883e-01
-1.779291243586981486e-01
-2.276419246234889782e-01
-2.644227589919981858e-01
-2.630342860418341533e-01
-2.022213508831704476e-01
-8.871619199675931378e-02
2.830144071045377283e-02
9.047995889548161863e-02
7.409191147358709650e-02
-1.759767907717234292e-02
-1.730647984862361266e-01
-3.168509275782499524e-01
-2.642745437783668438e-01
1.285829589432911368e-01
7.315369160890209388e-01
1.165374208146991108e+00
1.129166830930258492e+00
6.990691321626458787e-01
2.477947337011165985e-01
3.568562950496792507e-02
-9.045178234048609558e-03
-7.080065577545222033e-02
-1.819304296000199550e-01
-2.469871368423384450e-01
-2.082145935203728593e-01
-1.101727577293681176e-01
-3.829222888228708821e-02
-3.488696731008336660e-02
-7.324780739708981747e-02
-1.026404853585572291e-01
-1.073881179235970651e-01
-1.098538484614069027e-01
-1.267309981071262914e-01
-1.465116761587446081e-01
-1.480956558095296027e-01
-1.168892532429003234e-01
-3.463693919782429020e-02
1.176250211033564030e-01
3.123422324235408665e-01
4.448043557400862547e-01
4.059742371147796458e-01
2.080355575688382919e-01
-8.379969291434904988e-03
-1.196443926042804751e-01
-1.266725752407714678e-01
-9.828059761008474393e-02
-7.128291373754996885e-02
-4.385426558499841421e-02
-1.879845364810096148e-02
-1.221406018880675376e-02
-3.615334790618245087e-02
-8.591436093799752205e-02
-1.338662384261526395e-01
-1.433632041124304757e-01
-1.042770091440989449e-01
-4.532925324821049373e-02
-2.321550087063284015e-03
6.537143989416434667e-03
-4.302643604129238047e-02
-1.721594367889290322e-01
-2.688724872491789486e-01
-6.086609879847736798e-02
5.234302626035923778e-01
1.035269599779017335e+00
9.349744375179427358e-01
3.190025035639378892e-01
-1.810587229191963077e-01
-1.877504454387351474e-01
9.249556362040270430e-02
2.770917286578781780e-01
2.335348702204843030e-01
7.244044753621514676e-02
-7.841934771781952640e-02
-1.787275282447928215e-01
-2.197408981815965612e-01
-1.891549528787286882e-01
-1.284584936164804014e-01
-1.400365402491132449e-01
-2.548215370703754701e-01
-3.500286346753250233e-01
-3.037607302288800049e-01
-1.779695182188849312e-01
-1.330791153335673382e-01
-2.113277149525393528e-01
-3.032328571624812175e-01
-2.885878910650649942e-01
-1.414813239171781312e-01
7.031545494321615741e-02
2.362380202263346662e-01
2.732803202863374192e-01
1.811808422807562602e-01
2.760528108676804648e-02
-1.157919726504445523e-01
-2.106336083716869589e-01
-2.459480931831297124e-01
-2.237280929226142800e-01
-1.531361168147977181e-01
-5.552996056290901428e-02
3.018683449767817911e-02
6.691810541483478314e-02
4.891836112216974009e-02
-4.470965565410361248e-03
-7.546550102243144986e-02
-1.397594722170991677e-01
-1.484015264289985925e-01
-6.762738404375071011e-02
5.635479304666166783e-02
1.108490691706764536e-01
4.344557212231640181e-02
-6.282265888271285070e-04
2.255231994400598572e-01
6.897590418668504419e-01
9.525485760271701352e-01
6.919204323463989947e-01
1.749004872937205690e-01
-9.572911617709919940e-02
4.292544380741617621e-03
2.156906077009360934e-01
3.014170276517821878e-01
2.403423555037311476e-01
1.210877871407728401e-01
3.609521460126082285e-03
-9.862999690279206089e-02
-1.721658375315117395e-01
-2.003199453079405612e-01
-1.909927470945126937e-01
-1.621787583922508769e-01
-1.121708096453782055e-01
-3.716776588941653192e-02
3.623307872266373630e-02
6.544547763304237042e-02
3.531867189264559920e-02
-2.921796382134418668e-02
-9.033425363385613749e-02
-1.204806165286964881e-01
-9.707300579472313840e-02
-4.939433974294967639e-03
1.281344139964529227e-01
2.245163578024146067e-01
2.261159878542746970e-01
1.587339391486479179e-01
9.136735539239718151e-02
4.182535130109395205e-02
-3.038566473329253753e-02
-1.371963798502441878e-01
-2.217898412500544092e-01
-2.241561064821336047e-01
-1.519872951132257011e-01
-6.419067217050865304e-02
-6.593560894395774502e-03
1.076797847887180429e-02
-7.530648821969417039e-03
-5.379527272373142710e-02
-1.109248474458411904e-01
-1.532432652442640153e-01
-1.722410192578842647e-01
-2.121219810936348371e-01
-3.270138149339931743e-01
-4.230477953189342166e-01
-2.252071342468687509e-01
3.754674640657409967e-01
9.785073739579838170e-01
1.017730925642775341e+00
4.743958390073842457e-01
-1.024989838174645423e-01
-2.885093439279298733e-01
-1.640176739652087767e-01
-1.973945773532380377e-02
1.799507249437244660e-02
6.884238239636649055e-03
1.751394547840239013e-02
5.291911231635823554e-02
8.053445323328757566e-02
6.918873172103520708e-02
1.799768838687925299e-03
-1.136136354755964556e-01
-2.327657479865873069e-01
-2.890894455340952129e-01
-2.477478622144187181e-01
-1.461815532385062621e-01
-5.896489907190362312e-02
-2.851199919825425644e-02
-4.335396976882234521e-02
-6.683717788130799642e-02
-7.012672585813069237e-02
-4.595431708488743883e-02
-1.065311547146136420e-02
2.204364505415112863e-04
-3.696019135157173341e-02
-9.432367336118302470e-02
-1.161604393061470425e-01
-8.947095619260468646e-02
-5.593059059136927524e-02
-5.656476554752180863e-02
-9.580694707144486733e-02
-1.506258866032591792e-01
-1.905799463593557674e-01
-1.968874935709140905e-01
-1.731038814891992794e-01
-1.318119909381955390e-01
-8.021489260925143694e-02
-2.843931582206800715e-02
1.096029322473201714e-02
3.915257142431918802e-02
5.305057601071556939e-02
1.030401716163510326e-02
-1.268200250634238802e-01
-2.693346847103229025e-01
-1.958308341516399598e-01
1.791555042488340022e-01
5.650402555637350499e-01
5.791726419979696949e-01
2.629362903141063135e-01
1.010236661705699035e-02
1.684027806809140423e-02
1.103105596368852831e-01
8.351525677739850273e-02
-5.095490124234900581e-02
-1.487252605811599238e-01
-1.286389916435964065e-01
-3.510597817511125485e-02
3.989446580654532060e-02
4.869273562284556767e-02
3.953273327920911982e-03
-6.435431219686585380e-02
-1.425545400493165860e-01
-2.208402282010745177e-01
-2.684375880995522046e-01
-2.541752363792271763e-01
-1.906414107817711867e-01
-1.213825323868985978e-01
-6.483783526486261439e-02
-5.093616129544047827e-03
7.187158086856328121e-02
1.586805878708808237e-01
2.237373737219877645e-01
2.207674718584343720e-01
1.341621368495296285e-01
1.379673308021282796e-02
-6.419437769304231489e-02
-6.436879479485110855e-02
-7.987869145127501902e-03
5.733895535385611503e-02
8.871862681648504112e-02
6.360322620308041242e-02
-1.119802195739488804e-02
-1.002935295721293085e-01
-1.629403400949211711e-01
-1.832103983578746431e-01
-1.711511646318151780e-01
-1.325479685654888384e-01
-5.326127038425176874e-02
6.806276982905841433e-02
1.774497621005605152e-01
1.778992406667872228e-01
1.295124047171856800e-02
-2.075052237161744972e-01
-1.851407140564911846e-01
2.695617168959641430e-01
8.566547602733863842e-01
9.979732761595249135e-01
5.514725045725533681e-01
-7.035157738764882818e-03
-2.102963735913505605e-01
-8.456397680686787710e-02
6.117494065644240447e-02
4.991400530585921730e-02
-6.414834569291294475e-02
-1.519550425852247144e-01
-1.531983328696338020e-01
-9.727825954563815158e-02
-4.047830049931029628e-02
-9.255532541478359021e-03
-5.395661048524732356e-03
-3.434637080245971780e-02
-9.673518524585120182e-02
-1.673239674372425101e-01
-2.118981399533718391e-01
-2.189187142997017776e-01
-2.002943354601097736e-01
-1.659005192661064665e-01
-1.057218373724851529e-01
-5.815649783022836666e-03
1.153613694306156734e-01
1.985986824510271587e-01
1.851990734531570870e-01
7.145897893491573449e-02
-8.057119198294133977e-02
-1.891991577589701989e-01
-2.112269235138536372e-01
-1.653006508028168065e-01
-1.081350412680934375e-01
-7.909393790322569173e-02
-6.208520721278616011e-02
-1.915060881473240259e-02
3.625570550088075272e-02
3.787908913010507722e-02
-4.529669746327696922e-02
-1.611729177748775221e-01
-2.296187867755935252e-01
-2.059288020634943983e-01
-9.439108839567375564e-02
4.953073819147072593e-02
1.284928365795978134e-01
7.375353831478813349e-02
-3.327929408540721001e-02
4.045265390334335659e-02
3.903949809778024527e-01
7.118032525441233549e-01
6.115473432067369819e-01
1.690879499817298792e-01
-1.444599109229912637e-01
-7.627807025858437950e-02
1.804061378933803084e-01
3.261445926138683005e-01
2.766678557481609957e-01
1.331513443416015297e-01
-1.999850461665575625e-03
-9.863845073208243885e-02
-1.545255664594157030e-01
-1.653579639815082325e-01
-1.422570168901749477e-01
-1.137225342325196564e-01
-1.001340980177726908e-01
-1.055130453432140958e-01
-1.256903759760865658e-01
-1.459740452962647039e-01
-1.495346107764490284e-01
-1.425820283782583964e-01
-1.459227182319384752e-01
-1.519870227959756737e-01
-1.153461753571169701e-01
-1.711247364245448849e-03
1.594462567179537327e-01
2.854359403820804220e-01
3.082110129537091181e-01
2.213833552612752553e-01
6.961575542508795233e-02
-7.952146984600412527e-02
-1.652096412575227713e-01
-1.718878426825916350e-01
-1.356595283333881519e-01
-9.912068227637331475e-02
-7.060461465282789895e-02
-3.445039343685692146e-02
8.009960957730346415e-03
2.507591385239516663e-02
-1.059376445224658250e-02
-8.848334490996853652e-02
-1.647005516340191711e-01
-1.864753464252441872e-01
-1.287101576649570256e-01
-4.062290157333937196e-02
-3.196097084378123065e-02
-1.255970293838968022e-01
-1.150706795957440881e-01
2.585817849532753288e-01
8.724274558643533295e-01
1.184089881789651466e+00
8.503071575845838614e-01
1.826438613035216707e-01
-2.384698909590715621e-01
-2.118977257747411969e-01
1.722675282239399114e-02
1.602785496674126176e-01
1.450964420478415562e-01
5.154294915640555974e-02
-3.151080029000771082e-02
-6.136516345051030996e-02
-4.669858604648825795e-02
-3.200261310314039820e-02
-4.845910997729907521e-02
-8.370496318986762885e-02
-1.094945574779647018e-01
-1.107486186923768434e-01
-8.351255015741232413e-02
-3.784369027124699636e-02
-8.104532745224168194e-03
-3.629999531847680205e-02
-1.255052843842275057e-01
-2.086414396401481686e-01
-1.908673828129558436e-01
-5.118049407237634796e-02
1.091803512493721151e-01
1.549051681321160223e-01
5.975492621455776726e-02
-7.324155990425292029e-02
-1.428850826308048771e-01
-1.507667188119565238e-01
-1.547693045716356242e-01
-1.804198580038259003e-01
-2.087645423017766289e-01
-2.123559693911996060e-01
-1.780197749214461889e-01
-1.135600457489990001e-01
-4.448579182150264738e-02
1.821400806826002855e-03
9.037235414341832779e-03
-2.539418605938402115e-02
-8.302592204835571033e-02
-1.248690119157694067e-01
-1.316521961339961744e-01
-1.430041946543222087e-01
-1.849019193939396843e-01
-1.323196040417571329e-01
1.936563746224280180e-01
6.693251387828560439e-01
8.528516441880535925e-01
5.464584857894047021e-01
9.585734115659658161e-02
-8.704023371228088168e-02
-4.871305036586788539e-03
8.202230558516426795e-02
3.845855625517879267e-02
-5.784414943982058022e-02
-8.768431997474153416e-02
-4.291942339273160240e-02
-1.021902083668345222e-02
-5.059191161097465611e-02
-1.347452597605874602e-01
-1.971827558775845202e-01
-2.181839211370459053e-01
-2.255018932966791068e-01
-2.340162686213968501e-01
-2.224153825451015698e-01
-1.714313392511392919e-01
-9.669986081274675738e-02
-3.565416926167838674e-02
-1.193556399554485808e-02
-1.283970333765619559e-02
-4.792477209342031405e-03
2.193876184842568494e-02
3.765320819807644465e-02
1.524169623393065338e-02
-2.667834259422051379e-02
-3.958283863136916048e-02
-1.260953917124284056e-03
5.749354274618116711e-02
8.310188776515288478e-02
4.365905466772532911e-02
-4.919743865079483081e-02
-1.474317111055773177e-01
-2.030422752297861011e-01
-2.036003462533038655e-01
-1.681058139761636983e-01
-1.187600914323577450e-01
-7.067418128503513697e-02
-3.727813355081463498e-02
-2.055072268157539725e-02
-4.143230944059288559e-03
2.070600651398026362e-03
-7.714823118030574023e-02
-2.709850415239629107e-01
-3.689132492809918396e-01
-2.822184540417363788e-02
7.200839078383500791e-01
1.270854022777080594e+00
1.096170723530122793e+00
4.259781180350973306e-01
-7.846354388328249940e-02
-1.279931101206515931e-01
4.377105959381307615e-02
1.372102198100596526e-01
8.920342546357597213e-02
-8.525145031202998117e-03
-7.119857055687682512e-02
-6.963575749809142179e-02
-2.315755181913485214e-02
1.772405148073478293e-02
1.061500649921874422e-02
-4.694182778243154164e-02
-1.240770580032091452e-01
-1.892856924958693232e-01
-2.312164435936489015e-01
-2.418737946147947182e-01
-2.024545838958244359e-01
-1.156691449542060768e-01
-2.478481539131978384e-02
3.790861064604277714e-02
9.043140427834295281e-02
1.465812939255747571e-01
1.552819677023401512e-01
5.279234622717661474e-02
-1.337823968127710150e-01
-2.881751869871359006e-01
-3.186872028694192616e-01
-2.380564405567922315e-01
-1.280294199729442306e-01
-5.608176938313187698e-02
-3.721955389994428126e-02
-5.260673234528855796e-02
-8.220128661005979276e-02
-1.200744799147820119e-01
-1.667403344327363368e-01
-2.088900334957539129e-01
-2.150524206380401704e-01
-1.635687857612626861e-01
-6.663545982067407836e-02
3.922351768516746384e-02
9.980716915837904712e-02
5.177871138988828642e-02
-8.041559383462129618e-02
-8.425931049042933996e-02
2.485735370291248247e-01
7.357710264926684562e-01
8.866749969570739687e-01
5.372983779741153931e-01
9.142856743759553151e-02
-3.124711012102199953e-02
1.281028875498314290e-01
2.646785165954426700e-01
2.156589977791926460e-01
4.655516723239633975e-02
-1.139697393149082666e-01
-2.047223486231661838e-01
-2.308614352717348606e-01
-2.114053226542134400e-01
-1.602023325102138462e-01
-9.977021865855471849e-02
-5.882392323104943671e-02
-4.682834508587747913e-02
-5.145683635621572244e-02
-6.661362690228203598e-02
-1.005695937704559617e-01
-1.507665399482016610e-01
-1.904693104944703286e-01
-1.855122218841114556e-01
-1.144427330648251917e-01
1.960585082885561367e-02
1.754416833343513948e-01
2.740288022299688930e-01
2.479972539450900071e-01
1.123755723939832002e-01
-4.056794241632094566e-02
-1.312348131534029072e-01
-1.492461050278038881e-01
-1.241185216167142724e-01
-8.289078135056632268e-02
-4.100235377087364796e-02
-5.410446128265209396e-03
2.105776278982018218e-02
3.187598473406555444e-02
1.088031140004144803e-02
-6.178552849700815613e-02
-1.757113489485825353e-01
-2.550809168926413406e-01
-2.013464335772738034e-01
-1.193907715165984373e-02
1.647041899438730639e-01
1.439562618359743751e-01
-8.589070224497959150e-02
-2.551211434212000140e-01
-8.343622027474026717e-03
6.324717634572621927e-01
1.109599570155045845e+00
9.237218290625281991e-01
2.775954027098945787e-01
-1.910459025622749663e-01
-1.738412162927756299e-01
1.028919951159507767e-01
2.873056266247023260e-01
2.523682767761428747e-01
8.761878281330467977e-02
-7.353296876911463720e-02
-1.624916446539702020e-01
-1.760340346834757819e-01
-1.308692142888653043e-01
-3.466682857151116154e-02
9.441967241656674947e-02
2.028135023837871753e-01
2.422877197582407882e-01
2.187969391204543923e-01
1.488760404233497314e-01
-2.580526445223619778e-03
-2.680084142419326132e-01
-5.567094773561057641e-01
-6.672581006097237921e-01
-4.844571876840669811e-01
-1.254986663494702392e-01
1.550564778895394680e-01
1.839248127405689603e-01
3.906344652264564371e-03
-1.894248398276663914e-01
-2.627503815468577586e-01
-2.556048962053047990e-01
-2.550213324859165742e-01
-2.653045196428723829e-01
-2.523012555411758839e-01
-2.179509648024419433e-01
-1.725610679251696478e-01
-9.719500005889054883e-02
6.579774214415651939e-03
6.554276496208034930e-02
5.799489027023822102e-03
-1.375676363409387704e-01
-2.474787200878082738e-01
-2.472036350952142303e-01
-1.573080190744840234e-01
-6.886231454094569882e-02
-5.895448085000912219e-02
-5.615428160630944743e-02
1.432908501385751487e-01
5.553465644240860311e-01
8.208196204021310782e-01
6.167658394743332773e-01
1.309041575143870539e-01
-1.766654112091488593e-01
-1.452051130288795899e-01
1.999352528384456401e-02
1.139762006646640041e-01
1.250380403045581457e-01
1.140960946845197277e-01
7.846130751445330731e-02
-1.130019510831883033e-02
-1.004953559214451647e-01
-7.367854136796816999e-02
6.496103818150515685e-02
1.385370258207354877e-01
3.508168699326217471e-02
-1.170758311851999023e-01
-1.381150773635517470e-01
-3.609725567477665986e-02
5.006334255188971127e-02
3.870553125752298346e-02
-4.688395261488397664e-02
-1.455325479987780446e-01
-2.000406906078440183e-01
-1.738415698078207838e-01
-8.533519120004293135e-02
-3.010857229996839746e-04
3.831716764431040978e-02
4.258849654224387132e-02
3.775396847348536089e-02
2.743644619195390738e-02
1.821203741182474307e-03
-4.610600497832130495e-02
-1.113230686806195580e-01
-1.727481442459065097e-01
-2.020352425723837830e-01
-1.848778260257135375e-01
-1.352607524930095062e-01
-8.322424132006367437e-02
-5.054064864514910133e-02
-4.013140383177286885e-02
-3.914996101240125065e-02
-3.790770820577680361e-02
-6.417618424862582549e-02
-1.714191290597128214e-01
-3.204877101716035459e-01
-2.820520735647877864e-01
1.746421076786145721e-01
8.793857857270278577e-01
1.238242363399146617e+00
8.662015055920986306e-01
1.044536938148769439e-01
-3.773441387412067027e-01
-3.490576218902921579e-01
-1.088916695009920221e-01
2.540627450222051123e-02
1.779317289816997189e-02
-1.532401867403207843e-02
-9.883639731919758795e-03
6.456275222872936287e-03
-4.495701169997728952e-03
-2.835767908508949123e-02
-3.164992566416616193e-02
-2.838431919919901653e-02
-6.206291675665982083e-02
-1.288240486262328122e-01
-1.692389021403280513e-01
-1.390429708038410372e-01
-5.312009596576061643e-02
4.173241491462659908e-02
1.107382868243541041e-01
1.417153066168572728e-01
1.365104602112800214e-01
1.104472597419179636e-01
8.066446109379650509e-02
4.306569891841680042e-02
-1.191672029453206931e-02
-6.432857914857055548e-02
-8.177081279048606377e-02
-6.225865702054118878e-02
-3.376286636283191978e-02
-2.456051291293791239e-02
-4.970110397085046594e-02
-1.104732939670404340e-01
-1.880587451815561306e-01
-2.450605146339858154e-01
-2.507946485447910545e-01
-2.034927566933811549e-01
-1.219383500329342118e-01
-2.773813339001876543e-02
5.683953041972178433e-02
1.011477331483273262e-01
6.110797227938636472e-02
-9.694729748057601126e-02
-3.192030945145627463e-01
-4.008692747444038695e-01
-1.061307858333507825e-01
5.053918829422608949e-01
9.602543005925533448e-01
8.417549577470639921e-01
3.256418912313003289e-01
-4.183291066904724909e-02
-2.140960695091942770e-02
1.455495337484432605e-01
1.639730625210045756e-01
2.527522933037385650e-02
-9.059501361553248810e-02
-8.154524045966053680e-02
-9.851301490694196888e-03
1.869175453230575296e-02
-2.171074179223689976e-02
-8.567411737456961940e-02
-1.327184865812412184e-01
-1.594851218517430169e-01
-1.813255158095134767e-01
-2.072418067892588533e-01
-2.286134858786255941e-01
-2.288087263482454226e-01
-2.006671904755677194e-01
-1.453957636789004748e-01
-6.255665944464777750e-02
4.334631446405736582e-02
1.467424306047350469e-01
1.958441380654383224e-01
1.389846977991975874e-01
-1.621984043469639619e-02
-1.774653851921327574e-01
-2.388934125779071938e-01
-1.785664532476831656e-01
-6.203439817256246880e-02
3.393220150084845510e-02
7.510612846803468856e-02
7.006105783738697523e-02
4.512443671412104396e-02
1.364394402704116084e-02
-3.532524190185828972e-02
-1.115777288007317458e-01
-1.930107994024292395e-01
-2.321553319829799122e-01
-1.891924044253033288e-01
-5.933978316206676984e-02
1.002693803102811115e-01
1.608221482246798562e-01
1.961731116641343697e-02
-2.001660180446641624e-01
-1.385840059492499110e-01
3.832727151528740883e-01
9.735175414344499067e-01
1.034433325629630751e+00
5.271344394659662758e-01
9.502234037666854038e-03
-8.737556524315855111e-02
1.219434220678816683e-01
2.789687419867577511e-01
2.132512090196553023e-01
1.374756300189483235e-02
-1.593464774827893227e-01
-2.332560809567110482e-01
-2.321375723725720153e-01
-1.982745893476364485e-01
-1.407609443432558116e-01
-5.484318183673818348e-02
3.969594346359886505e-02
9.922097878333079046e-02
9.157248124791692034e-02
1.866787283217063997e-02
-9.082738575707170747e-02
-1.929068973913361240e-01
-2.372409822131665291e-01
-1.897247167517090993e-01
-5.702282709634470814e-02
1.119452553964478819e-01
2.437015514206281874e-01
2.704677928454279345e-01
1.831147092138212529e-01
5.466531421849336880e-02
-3.924975630999245207e-02
-1.021829739735880538e-01
-1.539912057315186156e-01
-1.490693723529602777e-01
-5.589911956279965122e-02
5.088753184315136791e-02
7.907345256055949012e-02
3.609361533820911599e-02
-2.127694550495674158e-02
-8.749158436958705265e-02
-1.855522594738297226e-01
-2.887236712374166570e-01
-3.260280210557755520e-01
-2.588748329060736597e-01
-1.320746458318493577e-01
-5.094380152956360513e-02
-8.444759440521468208e-02
-1.467156526888361290e-01
-2.115328544524287813e-02
3.575775939961780003e-01
6.772140696720241326e-01
5.606372478024760353e-01
1.063118963183242172e-01
-2.009410866179930089e-01
-1.121950687950355047e-01
1.598247127836344150e-01
3.051312693409382049e-01
2.426352005874019557e-01
8.236118261478869718e-02
-5.679238504610442662e-02
-1.376419393978656758e-01
-1.830895199867010603e-01
-2.167722610252148796e-01
-2.324902872962773259e-01
-2.119981824199808629e-01
-1.543533451865974349e-01
-8.088857733408871820e-02
-2.143620647722906808e-02
1.994791403391006461e-03
