-2.500018523910932378e-02
-2.105452398325449448e-01
-2.828200633114449358e-01
-1.827219707374864444e-01
-1.001659755028624053e-02
7.138547968090216966e-02
3.659282423786473087e-02
1.593447931575176640e-02
7.026687128236930313e-02
1.032156075181711458e-01
4.610365625327825928e-02
-5.373328745742771140e-02
-1.449134071356492359e-01
-2.097555870040992421e-01
-2.318002487224358754e-01
-2.031959992007533189e-01
-1.154115992998492601e-01
3.027805517692375159e-02
2.075269953109992183e-01
3.956901991826570208e-01
5.564281568012409140e-01
6.184547903269776992e-01
5.562473962468637012e-01
4.217397356137896347e-01
2.699311169520344778e-01
8.406219637696421554e-02
-1.459745543971657233e-01
-3.262270019064940074e-01
-4.374111273432790270e-01
-6.003175198297517889e-01
-7.517819535937416697e-01
-6.928355577834254264e-01
-5.228533423712172779e-01
-4.762421071667793382e-01
-5.012499557054524990e-01
-4.308805821443076334e-01
-2.592044451309966080e-01
-7.197605290771762199e-02
1.123075693426960064e-01
4.101954339915224734e-01
8.029505073319641584e-01
1.025148188584835918e+00
1.265750078164812331e+00
1.900919432280010479e+00
2.044844308029674984e+00
6.978114790597351735e-01
-1.012815406668834850e+00
-1.559507985049190193e+00
-1.319733075833479985e+00
-1.132984910768491948e+00
-8.863601195367317720e-01
-3.893742594978277793e-01
6.090694425148443503e-02
1.662096249597615205e-01
6.449887256689262882e-02
1.083654619491562637e-01
2.076509039424035141e-01
1.624976657655731460e-02
-2.209804286695241093e-01
-6.338269123453402210e-02
2.029657816952012694e-01
1.608710292353895954e-01
6.294680497612517578e-02
1.613359200162828577e-01
1.949317296369977026e-01
4.975483585683168619e-02
-3.285641223174662340e-02
-1.329534315218944274e-02
1.491020935434811748e-02
1.762028133300876376e-01
4.164315801729537858e-01
3.553690198112641752e-01
-5.506239403456087561e-03
-2.984729015938702990e-01
-5.206950000923715738e-01
-7.436933493585859978e-01
-6.501999603139569928e-01
-1.473659291292095941e-01
3.424604119933379875e-01
4.669489011256826583e-01
2.946881652975903432e-01
1.316119558164283165e-01
1.385985203976588531e-01
1.918529844566202736e-01
1.240291089173060080e-01
-5.033773029480620442e-02
-1.417478600590610927e-01
-5.657216599508529259e-02
7.996744613337627983e-02
2.669542853812778005e-01
4.468237108513931632e-01
7.863278393210429429e-02
-8.361653437265111899e-01
-1.165719042802631833e+00
-4.972354679158171864e-01
1.874326156992578707e-01
4.289467393805810325e-01
6.022282886449347172e-01
6.067288607202048212e-01
2.812377523206912033e-01
4.042298982160220933e-02
-8.619925053907098733e-02
-3.585816859072122886e-01
-3.061276348396520935e-02
1.295827385191088643e+00
1.764743094314145555e+00
6.082051627353352030e-02
-1.922896817354925236e+00
-2.174097077679823187e+00
-1.157742981718064668e+00
9.711527799071903444e-03
8.515156055694521609e-01
1.041717559966144124e+00
5.349643714909443348e-01
-1.580891917726420792e-01
-5.027858798025179876e-01
-4.923601979445415555e-01
-3.579398433728067097e-01
-1.198222204417478814e-01
1.560194494258304310e-01
2.779900412122940367e-01
3.387193581403402654e-01
4.855266018614240453e-01
4.954035084487715679e-01
1.621160203954973289e-01
-2.557769878250986673e-01
-3.093265145922921011e-01
-4.503444380841589711e-02
-9.682331853720908821e-03
-2.117098797200665239e-01
-5.887808813224228166e-02
3.275212066231897312e-01
2.933267160234081516e-01
2.925689355941452074e-03
-3.999422179833876656e-02
-7.669775366495107383e-02
-3.411661752994991637e-01
-4.017805736590457366e-01
-1.332652027634261549e-01
1.911947325538838546e-02
1.636008939743395507e-02
1.334731950765144226e-01
1.996429674453901459e-01
1.983937383005524718e-02
-1.064777943041080588e-01
5.075528285257988742e-02
2.848094870583710025e-01
3.662748679347699876e-01
2.905284316938138711e-01
1.282957114031226531e-01
-6.660178982777700818e-02
-2.137796274651616035e-01
-2.565384282177609609e-01
-2.948879827790641395e-01
-4.163576841796750028e-01
-4.328949773735885076e-01
-1.949418961796223204e-01
8.604706024100397532e-02
2.124307015535026877e-01
2.351996942109791378e-01
2.287226209511914465e-01
2.747972837454463746e-01
4.233699674884869868e-01
5.333590957545306654e-01
4.718996013651266530e-01
2.744641648293557057e-01
1.440984829987907584e-02
-2.211246088897831086e-01
-3.509426328408846718e-01
-3.956071206396153395e-01
-4.303011188954270483e-01
-4.617726114019451988e-01
-4.056964683698218166e-01
-2.153404843727764750e-01
3.113790772105163446e-02
2.131588622690134271e-01
2.548633238812195723e-01
1.918393532928956424e-01
8.783232403280555323e-02
-1.349340704371709276e-01
-4.279812057477419551e-01
-5.033683143359211076e-01
-3.863676273309768483e-01
-3.315183092577020374e-01
-2.118820903778054487e-01
1.301005538456627975e-01
4.711471504592026904e-01
6.643226914748536771e-01
7.239484622372622802e-01
5.774643916324966320e-01
3.238077301754065940e-01
1.289157182743315144e-01
-9.226549757415351827e-02
-3.045059315784980347e-01
-3.341571046457423866e-01
-2.382749695924933908e-01
-9.151760724569237004e-02
2.926619637766645493e-02
-2.349196386490105815e-02
-8.022311449566159325e-02
3.051292117183840996e-02
4.752587831279908581e-02
-1.023914805167131653e-01
-1.584192666246043157e-01
-1.161798100895167635e-01
-7.664953477470255738e-02
-2.337463029182221957e-02
-3.371112589522615860e-02
-5.590471325936978431e-02
1.022972429728455368e-01
3.007776699094528161e-01
3.164003670649050970e-01
2.665467624280684067e-01
2.619097306765629796e-01
2.162528927708091964e-01
1.156646329008959723e-01
3.262947254097872674e-02
-1.107179653714374101e-02
-5.172860091334691157e-02
-1.206177126966893470e-01
-1.484836548196453165e-01
-6.245256124931604369e-02
3.178215975937099397e-02
1.046534606962602060e-02
-7.764291845219857546e-02
-1.450192109969303256e-01
-1.480327614895418642e-01
-8.674838653681897493e-02
-6.721398681186545321e-02
-1.409778383770603771e-01
-1.801668174307205772e-01
-1.190329698989467944e-01
-5.507874336945899757e-02
-6.063798100945078096e-02
-1.056826852131372285e-01
-1.232886704556163809e-01
-1.013462284964889437e-01
-8.085067094598444304e-02
-5.489275367217783669e-02
-2.497283264865124419e-02
-1.945229164028408619e-02
2.800166786096210808e-02
6.391780709848172981e-03
-3.277582751665406025e-01
-5.353339397136305244e-01
-1.974837209454495535e-03
7.278313339799644677e-01
8.520044465120756305e-01
6.406663251519831848e-01
5.532004169031300433e-01
4.395977959392042833e-01
1.286869576222109957e-01
-2.400322737495950431e-01
-5.087822315408201401e-01
-6.783939690407074785e-01
-7.846748810585807421e-01
-7.892166815925817369e-01
-6.342996291331219894e-01
-2.821420510012849769e-01
2.220317415158798435e-01
6.767453189156334981e-01
8.495142819759521347e-01
7.149571628603828000e-01
5.579895551812785737e-01
6.622818580770042374e-01
7.984551582859101826e-01
4.953123707746277526e-01
-1.207892176913070298e-01
-4.891197162053311231e-01
-4.340297333580009909e-01
-1.604998574346446771e-01
7.112165526071637101e-02
5.167322241585902559e-02
-1.559885361287478289e-01
-3.892860904993327154e-01
-6.395082477289359968e-01
-7.241645211015761419e-01
-4.583765971095632441e-01
-1.622285753193870583e-01
-8.210156922584857520e-02
2.665595122960022489e-02
1.513142407562583502e-01
6.028978551298816435e-03
-2.251536140828622745e-01
-2.306557929950387165e-01
-1.505814555248169428e-01
-1.259432996541572369e-01
2.506832188583213439e-02
3.586539249986520073e-01
6.071511255844289634e-01
5.854648805442360660e-01
4.267591571078740431e-01
2.933501948384181213e-01
1.729103348850943855e-01
6.750125545620115630e-02
2.129058888336524125e-02
-4.493795324635931066e-02
-1.904209603874876255e-01
-3.075614506980686169e-01
-3.269242224068413250e-01
-3.025058992171268946e-01
-2.563441284623506067e-01
-1.981293819840082571e-01
-1.679372380434453749e-01
-1.180388390408608629e-01
-7.995481888617289590e-04
8.632578683278878395e-02
7.962884943627290824e-02
5.058202470315706356e-02
4.515062064253703294e-02
4.067549105285754585e-02
-1.586751247500878259e-03
-1.057757064522713286e-01
-2.099941468255276111e-01
-2.248635450542654235e-01
-1.776197826577804451e-01
-1.216563659286585969e-01
-2.135471937456353414e-02
9.641198670880822552e-02
1.060217228965195102e-01
2.215140498823482337e-02
1.612964931898250298e-02
1.424867637730868886e-01
2.814786386496522241e-01
3.545920506111837622e-01
4.006304859496884196e-01
4.756671374355597726e-01
5.765674856078255583e-01
5.936258948783188494e-01
4.996838979140731940e-01
5.345604435217478079e-01
6.369369152914180487e-01
3.787645678195654120e-01
1.337821994378075863e-01
1.463849563066594861e-01
-4.868066021254385811e-01
-4.678359106296398617e-01
7.336447103263061820e-01
-1.902489108945015106e+00
-3.428210057235700603e+00
7.611701843287807634e+00
1.414476195120209567e+01
-4.120244424460768329e-01
-7.803636615060939086e+00
4.705523250273851765e+00
7.167295746703648440e+00
-2.607083881430114936e+00
-1.420140430310067980e+00
5.931753837866944323e+00
7.207868165419643036e-01
-1.625919571663703422e+01
-2.817738103865447030e+01
-2.555497041102585953e+01
-1.561702639817571381e+01
-1.032388744810293169e+01
-1.185359649129987680e+01
-8.761208767327548941e+00
6.540317993117136908e+00
2.320422495407717989e+01
2.933421306024540343e+01
2.680559733320629690e+01
2.138322291222488047e+01
1.547532588908832452e+01
9.187639917522703925e+00
1.742580607367929968e+00
-4.745836792467941656e+00
-7.475207788064085257e+00
-7.685509671944994459e+00
-5.970236841167041675e+00
-1.297776881635557711e+00
4.509008809748847213e+00
9.488855584340328164e+00
9.947684010949805256e+00
1.334222228849241798e+00
-8.543672598829848752e+00
-8.541935389637309584e+00
-4.221169428637802312e+00
-4.401199338650104487e+00
-6.098339844496696749e+00
-5.700948047303880273e+00
-4.760207680794429130e+00
-4.229546609998156903e+00
-3.607721569017985352e+00
-2.750656465266737349e+00
-1.937389519748425437e+00
-1.604865824200709001e+00
-1.810567092446364157e+00
-1.778278027060864686e+00
-9.642154797581994341e-01
-1.551702667970533689e-02
2.819562688516927818e-01
1.330945815902340179e-01
5.574134074184390331e-01
2.133496625169700955e+00
3.745112976454250564e+00
3.876556158852520362e+00
2.939950811263599917e+00
2.279234477895831112e+00
1.813907762488210729e+00
8.151894474061264217e-01
-1.208832284479531838e-01
5.539542652177853466e-02
7.920048064229207041e-01
8.925892707152132122e-01
6.883748708722697840e-01
5.430192561420016384e-01
-7.771525618440048300e-01
-2.637704442068024235e+00
-1.781919709677680874e+00
1.358114500022206350e+00
2.490103429833570026e+00
1.213966847248558745e+00
7.822954703284363820e-01
1.564870908545641148e+00
1.802785446520645207e+00
1.325464156430476326e+00
5.529943317420371596e-01
-2.484621862927628433e-01
-2.274931481039758618e-01
5.137946071973614748e-01
5.502501514545704575e-01
-3.359275042582990922e-01
-9.606472325676089774e-01
-1.016449262488546612e+00
-1.200588396840583938e+00
-1.618206753842052370e+00
-1.699170371377648037e+00
-1.332566547781727229e+00
-9.881029966229137873e-01
-8.841816598136734706e-01
-8.230095449119649853e-01
-6.733252452618259110e-01
-4.716933402041788015e-01
-2.597135449764020887e-01
-6.746993717516119871e-02
9.176034784463527050e-02
2.098953387082651001e-01
2.392873060886335224e-01
1.562124243377495947e-01
2.432673017725081599e-02
-7.192187750349898767e-02
-8.149748455144356640e-02
2.975864593579666262e-02
2.419219132779091841e-01
4.562384301723386715e-01
6.074844843300256647e-01
7.155806101842914213e-01
7.741907053288228369e-01
7.497712947694531449e-01
6.767083647810280267e-01
5.865210255440289622e-01
4.358996238349156505e-01
2.084088197112055618e-01
-3.769663788259339232e-02
-2.333461600788093726e-01
-3.228572572231999116e-01
-2.954768022786206649e-01
-2.137912694797729773e-01
-1.452560999654657625e-01
-1.059777125866789432e-01
-1.010530840978819678e-01
-1.838827053687795143e-01
-3.615956920847954170e-01
-4.580912882943733999e-01
-3.620984261335152277e-01
-2.551392116706633351e-01
-2.491709452165856986e-01
-1.910620160172394610e-01
-2.728710963367143860e-02
9.813571172450868962e-02
1.265846170816845584e-01
1.226862480003679950e-01
1.142665573601654994e-01
1.047712700992542711e-01
1.159709922673209520e-01
1.239762630185441694e-01
1.017896097771007757e-01
8.501133432466538575e-02
7.826175898001715148e-02
5.737030413408672480e-02
7.812996597950000455e-02
1.644926351368534434e-01
2.140560921534875038e-01
1.938493555014898506e-01
1.884103146827497133e-01
1.971474102146441865e-01
1.596986779669911649e-01
1.022937896391487439e-01
4.475243964309004452e-02
-6.281717064610417567e-02
-1.948265937678573256e-01
-2.605109798034843660e-01
-2.583413088708915173e-01
-2.228040568945162392e-01
-1.621120265028075935e-01
-1.304934331889350263e-01
-1.511692952291022463e-01
-1.607409353533713614e-01
-1.390581243627583563e-01
-1.036606858237387047e-01
-3.576067137010191521e-02
3.591086442010985036e-02
4.005148118981305405e-02
1.845412011762136151e-02
6.303432131734384991e-02
1.210599612053271656e-01
1.134132003885248707e-01
1.049871483383079673e-01
1.441786763938311122e-01
1.597629081837517451e-01
1.135617346423599267e-01
4.677007653758950834e-02
-6.307099997285112170e-03
-2.311589145313741947e-02
-7.515152340327537622e-03
-3.006123653155528749e-02
-1.073753433028971083e-01
-1.331708391238723421e-01
-8.300989832200673935e-02
-6.115425386702083577e-02
-6.669522681493496308e-02
-2.440307186727875763e-02
1.812965917370903957e-02
4.314463976686852206e-03
-1.517610835604469785e-02
-9.159602810379483331e-03
6.079076922981528110e-03
1.849036110683367068e-02
6.581351424150535048e-05
-4.267990799736355589e-02
-5.803742917333903212e-02
-5.354992884435912787e-02
-6.072150004776191018e-02
-3.081190326233265372e-02
7.709148267987922520e-02
2.009360937815086179e-01
2.695429707768020045e-01
2.698946354908682288e-01
2.263363827617067003e-01
2.048343876344461689e-01
2.335285356786865607e-01
2.243558764198147482e-01
9.708952000799683790e-02
-9.313454081966154874e-02
-2.308400080693717715e-01
-2.775786966149821344e-01
-2.596322763932704669e-01
-1.936577736536632677e-01
-1.375528724034597028e-01
-1.609959528696604247e-01
-2.026611261268193021e-01
-1.804686002995559702e-01
-1.523582960560749822e-01
-1.642836607364871471e-01
-1.565647155501740662e-01
-1.172416682456041415e-01
-9.407639139681135687e-02
-6.872491812758685370e-02
1.674373279207406334e-02
1.494080526266231834e-01
2.423302889250599779e-01
2.507570991691542850e-01
2.378781529139921691e-01
2.515088844265226387e-01
2.314667507305954441e-01
1.501734064385117640e-01
8.771693367954414011e-02
7.037225370961491810e-02
3.836557119598029558e-02
-9.291753297152725855e-03
-6.488643893647347283e-02
-1.563772865779893551e-01
-1.908158189278490457e-01
-8.997554516596428797e-02
3.536201051384517402e-03
-1.155550102958378261e-02
-5.271790764028185666e-02
-6.598600046155118914e-02
-5.329258424610505002e-02
-1.630969163729283078e-02
1.624762274584412580e-02
4.426353578899293317e-02
8.838321023328370163e-02
1.264400132018084211e-01
1.317586063273100128e-01
7.947912769599295435e-02
-1.260411635805155570e-02
-6.598866577025455649e-02
-8.883550991188460255e-02
-1.062090183064389876e-01
-2.862136284037039569e-02
1.302861154003929212e-01
1.646338210304585103e-01
-6.358550572314238675e-03
-1.567766095096878864e-01
-1.126998105447077486e-01
-4.865543354308263929e-02
-1.157753507816645655e-01
-1.696932036930001442e-01
-1.046764260630987792e-01
-3.168906319651704911e-02
-4.663863329406928160e-02
-1.030670473664010989e-01
-1.184457136650530762e-01
-8.471410637778448161e-02
-5.809328460761736812e-02
-5.823840994698122053e-02
-3.594582364165722910e-02
2.182389103140561920e-02
6.098889782479856303e-02
7.097531455013368629e-02
9.779387599642656859e-02
1.491466580521345620e-01
1.986531995845922660e-01
2.540290253379903773e-01
3.396502866042894198e-01
4.269693284125211097e-01
4.405937478745231561e-01
3.748081174967016205e-01
3.139855595850882808e-01
2.248050613469140535e-01
1.874473379545181506e-03
-1.890579179790026487e-01
-1.491937744563927581e-01
-5.986894697798157694e-02
-1.115932188859667940e-01
-2.450398182521201784e-01
-4.114926368243552179e-01
-5.208685004724029621e-01
-4.660897940743304879e-01
-3.887330053215556913e-01
-4.227432684329511248e-01
-4.365181200270431550e-01
-3.450236522149314755e-01
-2.332762300915428022e-01
-1.223407988413097724e-01
3.819929077824552044e-03
6.675889866473279366e-02
4.644699025201941278e-02
6.325401489212374717e-02
1.706167966485335752e-01
2.918901081522428664e-01
3.764295076476946722e-01
4.203166963941449841e-01
4.270371819241033373e-01
4.255489733493011961e-01
4.081792096907136402e-01
3.249994417833542149e-01
1.890962019767595259e-01
6.587828402495293778e-02
-1.888735680303221809e-02
-7.941728007519377464e-02
-1.049750323113585182e-01
-8.240885809280155960e-02
-7.474061194638903505e-02
-1.166759446186351051e-01
-1.304848694388622554e-01
-1.490756660946084833e-01
-2.793475802133118524e-01
-3.600456909293806573e-01
-2.347594152214822205e-01
-1.097442175162885031e-01
-1.023549579520480202e-01
-3.676094223703083724e-02
1.043175126962129495e-01
1.693362285603072781e-01
1.662528076256538090e-01
1.938929961893187393e-01
2.312004979047573849e-01
1.849980008187023794e-01
7.957628698521118649e-02
3.627715508078901974e-02
6.979354706289426363e-03
-1.496716945376102559e-01
-2.939382297319728110e-01
-2.228301034154015481e-01
-6.961076246541232637e-02
-5.140756051772301521e-03
2.470325764425367401e-02
5.762644662775868315e-02
5.077867404794435269e-02
2.207588149506916481e-02
4.354271064917831363e-03
-3.108436885946678357e-02
-8.866461261314825815e-02
-1.011479359677642520e-01
-5.040198170851700049e-02
-9.383708010409538836e-03
-1.247625631657427007e-02
-1.523219631082120898e-02
-2.229574002143435395e-03
-1.252353386618077977e-02
-3.414824684435288638e-02
6.531670022277107947e-03
1.088879986171962799e-01
1.717077263086498329e-01
1.428975131967289980e-01
8.739556697187106371e-02
7.671717200036178019e-02
9.589357738337847548e-02
8.892574560876145839e-02
4.047702312394453605e-02
-2.907668074008485856e-02
-9.791649047431660868e-02
-1.301328693070860909e-01
-1.081225173227876035e-01
-6.484466714005063248e-02
-1.595605518364607775e-02
4.099806957863113416e-02
6.351804065871730076e-02
2.444465486939583626e-02
-1.584516394028438399e-02
-1.168137142281531690e-03
8.274470606996727970e-03
-4.338358558167481477e-02
-7.650466699523296443e-02
-5.430747532183313048e-02
-5.752905166153496341e-02
-6.529879670832519634e-02
9.497253188484766628e-03
1.123315757287018657e-01
1.396614019787418837e-01
8.839040406641215930e-02
6.216029497279985938e-03
-7.338095440800188052e-02
-1.259625929370669084e-01
-1.312320021709765250e-01
-1.241422800595721465e-01
-1.650397357387158870e-01
-1.598923452797750000e-01
2.570614987106278199e-02
2.326467828688682515e-01
2.488380810357612438e-01
2.001514816792143714e-01
2.384994813501661870e-01
2.612641399551948185e-01
1.871740005964787068e-01
6.828924938890104657e-02
-5.367246640488650133e-02
-1.434993406356304957e-01
-1.729990988621676051e-01
-1.662076656581175094e-01
-1.460287231292867194e-01
-1.240129955977864185e-01
-1.306548953691223092e-01
-1.549352834260174783e-01
-1.158226867951397676e-01
6.042385638465900752e-03
7.919791227242108100e-02
2.277053140342522736e-02
-3.767399854007712906e-02
-2.522057334886333366e-03
4.004514715874530478e-02
1.033630096859874253e-02
-2.968874149742310037e-02
-9.060135641393770103e-03
2.337297429356699485e-02
-5.431375672757140366e-03
-4.783917429345344724e-02
-1.959600783220621228e-02
4.510453489791116377e-02
5.454392413390737188e-02
2.015515541278743369e-02
2.175784074101335536e-02
4.836446307364232478e-02
4.424389019581448368e-02
3.334115045952878997e-02
3.648858353367606666e-02
2.732550920180115694e-02
1.598518728375428188e-02
4.350807289726820598e-03
-1.288556263794694325e-02
3.828180060004385266e-02
1.616182680136322436e-01
2.227063818722746225e-01
2.010925026213134514e-01
1.895882826209107641e-01
1.492098400403049085e-01
2.224127953151153539e-02
-8.205684390632254910e-02
-1.119857070137897925e-01
-1.851723736529254927e-01
-2.983911772360183789e-01
-3.027941920704642631e-01
-2.116975186260812991e-01
-1.656601162086931422e-01
-1.554159540760456093e-01
-8.334563346878288981e-02
2.534861768393376763e-02
9.907762243900995747e-02
1.396412991741709242e-01
1.426406561462340850e-01
7.969481483145560152e-02
-1.808880422115119457e-02
-6.837278481638586758e-02
-2.220187727384607609e-02
5.830755271972790088e-02
6.045067241940458441e-02
-1.375926616028551666e-02
-6.506162380322262628e-02
-4.205223136033419545e-02
2.283447004112844000e-02
3.515051299902621079e-02
-1.784142983348533870e-02
3.842804560458810970e-02
1.970212007230563445e-01
1.604684382357717265e-01
-1.233829007863737615e-02
4.051832726393224393e-02
2.079817796912946104e-01
1.581917940764031305e-01
-8.850293128124299760e-03
-6.677071603673845335e-02
-4.814409318488255957e-02
-6.188386246956269210e-02
-1.489279444554464371e-01
-2.825869503700206842e-01
-3.842160823502734912e-01
-4.315507225690026205e-01
-4.498267930563401018e-01
-3.953115963751149819e-01
-2.249883019919502181e-01
-5.584615931883633866e-03
1.788121055104930912e-01
3.387501739956699787e-01
5.087530710984141669e-01
6.434638852466459946e-01
6.803724212003083860e-01
6.444326192646387952e-01
5.980311926844731341e-01
5.132944931800292876e-01
2.996474751971568984e-01
5.955518591376149362e-03
-1.876877584501233376e-01
-2.543032339511323014e-01
-3.169873995033890557e-01
-3.871929005160795745e-01
-4.050355173184064794e-01
-3.948474880719198832e-01
-3.877607576941996537e-01
-3.658498775306086026e-01
-3.217670025947693135e-01
-2.614467687539701601e-01
-2.024111086217701416e-01
-1.696463429948970592e-01
-1.377706718218865145e-01
-6.711084471472832103e-02
-3.288266227606889691e-03
-4.497666554045917642e-03
-1.399130417976114649e-02
3.185797972181543536e-02
8.491495865447584723e-02
1.288461655877411460e-01
2.260740004590968411e-01
3.378950945548484519e-01
3.614422122924832448e-01
3.203708493766175835e-01
2.901316879109306357e-01
2.515465081538558745e-01
1.681698087620327464e-01
6.522201606992047984e-02
-2.477429940893259575e-02
-8.915716957377284313e-02
-1.206826461988816934e-01
-1.246850948098657264e-01
-1.124129370848311049e-01
-7.995342249111006550e-02
-2.851680335837849037e-02
-2.045234231648315054e-03
-4.245505183404332805e-02
-1.179545133230417986e-01
-1.656286941759309850e-01
-1.614562446800542617e-01
-1.161620728204285635e-01
-6.044252371478710251e-02
-1.742797475649468172e-02
1.996460210165103277e-02
5.383121747245407651e-02
7.458883115846791367e-02
9.521232075084611057e-02
1.265056978543799282e-01
1.375159205543635688e-01
9.687248693411351641e-02
2.913099158001332747e-02
-1.921532751900463173e-02
-4.349372770258010806e-02
-6.552191998869819067e-02
-7.885528718949366689e-02
-5.506083988289162123e-02
2.365560030419737968e-03
4.522558984771798268e-02
3.618929130269364636e-02
5.250643455119927139e-03
-6.352976734365605848e-04
-8.205082466043955858e-03
-5.752339931419346575e-02
-1.070611030745434178e-01
-1.014221287638018693e-01
-5.203210648750077050e-02
-1.994616045278843446e-03
3.072000087899245946e-02
6.175879776858762826e-02
8.727103134899985570e-02
4.891417660503009218e-02
-6.027278777576396823e-02
-1.157140789041716800e-01
-3.308731720158224199e-02
8.615665415360182489e-02
1.199600578263180783e-01
9.348309421567338462e-02
8.024644364399508012e-02
7.370424503776401570e-02
4.409485967880812790e-02
5.253039614621710443e-03
-3.616621456538818280e-02
-8.257035788606387205e-02
-1.033234286673765795e-01
-8.315275895433847653e-02
-4.420337070503220500e-02
2.654059456082518819e-03
4.220806189931074204e-02
3.577573796850527788e-02
-1.159888718338242079e-02
-4.097944843501328399e-02
-3.609955158873140446e-02
-3.858357599724945158e-02
-5.003382187871049241e-02
-2.408513858976830263e-02
2.616322781331356651e-02
3.770412695175152928e-02
2.788814667846578610e-02
5.722497675947214868e-02
1.042611381312308627e-01
1.357910010881722696e-01
1.541219624237762653e-01
9.992387059480357936e-02
-5.447398980026606219e-02
-1.754242983209548523e-01
-1.698664181724280353e-01
-1.304475703391067554e-01
-1.178783343585295684e-01
-6.651953838227388227e-02
1.344293964685138766e-02
2.596421003281258050e-02
-3.993586914288825562e-03
2.306223548605806223e-02
7.992457461795385298e-02
8.139235611599807130e-02
4.295775804843574713e-02
1.608521619006266987e-02
-2.522411532141445069e-03
-2.477358528662378101e-02
-3.410413136124491179e-02
-1.572740275807397309e-02
1.593678514265508758e-02
3.509734857734221614e-02
3.151106151791777110e-02
9.167413497194317959e-03
1.112532188644800232e-02
7.795643121398827813e-02
1.053781104881680031e-01
-1.106868975252573231e-02
-1.013952761611725123e-01
-8.855377334262191924e-03
8.028617850205013728e-02
7.410678049620880725e-03
-8.294480157368751272e-02
-5.527405166945534992e-02
3.030324372496967511e-02
6.238174562459884026e-02
1.137663418699826588e-02
-2.818527274812310940e-02
3.609916580751904025e-02
8.753335266875715559e-02
-1.649305828521867648e-02
-1.270739276612826429e-01
-1.094140462717514972e-01
-1.238930912044413080e-01
-2.045885830068534805e-01
-1.535299930925693723e-01
-4.370477830337039793e-03
9.965814603902674318e-03
-7.051468585059011973e-02
-6.336717870981346465e-03
1.411614702961758450e-01
1.531152619910877144e-01
1.271023032825463750e-01
2.114505026199391124e-01
2.642382024048218758e-01
1.604343931612309260e-01
5.456730751676536033e-03
-6.855984253650483640e-02
-6.859940173876442893e-02
-7.400162522553271893e-02
-9.153909044156194330e-02
-7.744888322998677577e-02
-5.428089412542767833e-02
-5.926365085703830249e-02
-6.850604197254128724e-02
-7.641831013405454842e-02
-1.000108240057951958e-01
-9.145927149575538984e-02
-1.855429431876339311e-02
5.660957409163271115e-02
9.167471232489900201e-02
9.385831406354686046e-02
5.253950421656131131e-02
-1.922770048215816791e-02
-8.746904335754358828e-02
-1.317470830895462464e-01
-9.339743567711569772e-02
4.065903373367261986e-02
1.511685312817243054e-01
1.742709352617883567e-01
1.739578480452231568e-01
1.545370492058935896e-01
7.748483233404238057e-02
-2.758377777610690473e-03
-2.715208035261371458e-02
-1.761314300611027672e-02
-2.274117699233467113e-02
-6.972887858112696013e-02
-1.254325973537671335e-01
-1.342652357647989847e-01
-1.117055310921479389e-01
-8.816001590327469939e-02
-2.532089420737583182e-02
8.423384439139984525e-02
1.374759129087517739e-01
6.072341699816606597e-02
-4.991739322832373926e-02
-5.876559207776833882e-02
-1.225774317698628303e-02
-3.999546363208351940e-02
-9.494216934329825774e-02
-4.531668267160408881e-02
7.585024044188119763e-02
1.459811859799772238e-01
1.383444851715823487e-01
8.709125539920904713e-02
2.880132613114046169e-02
1.159488483118747623e-02
1.659344940843127808e-02
-1.969278128752110363e-02
-4.546476129124695648e-02
1.407213270253599921e-02
7.740081959909204945e-02
6.143004855218144045e-02
3.402980998422135139e-02
4.715744986238084441e-02
3.645862062944350140e-02
-2.866856829448806779e-02
-8.401320399833689390e-02
-1.039955911671414240e-01
-1.375095522041379636e-01
-1.764786616007641695e-01
-1.459777531947084594e-01
-4.923835826676216387e-02
4.762103391288231152e-03
-5.368885520130431410e-02
-1.500325960608306364e-01
-1.917180013748213674e-01
-2.203433422060052937e-01
-2.730758241916307894e-01
-2.678382100443636449e-01
-1.625577876142940692e-01
-1.198904542083954750e-03
1.641689211714185692e-01
2.538436733187103833e-01
2.486686343330318238e-01
2.667196819821704423e-01
3.575745638847382946e-01
3.950805189484140612e-01
3.159277527790333440e-01
2.482402189461803410e-01
2.833061694259169094e-01
3.199455565329225593e-01
2.541026589048780426e-01
1.420691184440048827e-01
8.314604708463937954e-02
7.747317331727381073e-02
4.148609955888168249e-02
-8.115401132569495524e-02
-2.293105066008829240e-01
-3.040230226514168965e-01
-3.238829291004057809e-01
-3.671068525479848077e-01
-4.054037625780675946e-01
-3.614752735278818907e-01
-2.643065243499392869e-01
-1.883934710455044126e-01
-1.277090550675862024e-01
-5.300471436094786326e-02
1.177927209650873885e-02
3.634369866495528595e-02
2.398045849469083307e-02
-2.358852595565286148e-03
-2.056623597267890485e-02
-2.966007710921075846e-02
-3.340385371103429119e-02
-9.852648613002893546e-03
5.389827476252632976e-02
1.214016838626955919e-01
1.453271881824832468e-01
1.270373841747190480e-01
1.062385988387544722e-01
8.945651711573343601e-02
5.032808980988524861e-02
1.192307713951955631e-02
1.644365701530211415e-02
3.571360161335339345e-02
3.158320727119146021e-02
2.764805481607996926e-02
5.051947610165397062e-02
7.733038183750076677e-02
5.942882544578372006e-02
-3.139478143101673974e-03
-2.703992786603108545e-02
3.995886034910389739e-02
1.288110544171471583e-01
1.547388982821502612e-01
1.223419177975651195e-01
8.426922750811868812e-02
6.053202763707928036e-02
2.370748765765928745e-02
-4.147909084038640948e-02
-1.077930788924421068e-01
-1.420542278483505338e-01
-1.259267008013586764e-01
-6.948000912647521454e-02
-1.605538133597751368e-02
4.110640043608563415e-03
3.193632811793144927e-03
-1.767228743973822680e-03
-2.360613742552674504e-02
-7.274103665513206862e-02
-1.227189355528640474e-01
-1.460258293360180981e-01
-1.463914690595383428e-01
-1.351920659238391165e-01
-1.124691260648585101e-01
-6.906634111255884056e-02
4.279795598188782663e-03
8.141952676394727251e-02
1.107701404043977961e-01
9.320047098560205190e-02
7.427652850362161108e-02
8.748231088581914783e-02
1.393826476749074061e-01
1.652344507938389440e-01
1.158778392955169129e-01
7.718811573180585361e-02
2.465142887405372477e-02
-1.987751977595898778e-01
-3.998612451120708289e-01
-2.832672441965087273e-01
-7.663626974939088954e-02
-3.664798642294041231e-02
5.976117434237732118e-03
1.026547921739472402e-01
1.111479844746606216e-01
1.168483615924570673e-01
2.232148945762240100e-01
2.753805263394567548e-01
1.526991472103242375e-01
-1.545228681161654564e-02
-8.225347175915986853e-02
-7.888445539711408383e-02
-8.664364235614700760e-02
-8.560656594734747382e-02
-1.783525220022556812e-02
9.495649265258278293e-02
1.686575997547083983e-01
1.545896813823103288e-01
8.309054076440006154e-02
1.598872559196569398e-02
-2.147913767746433694e-02
-4.515513758574864894e-02
-7.204215830445798163e-02
-9.826812066757403819e-02
-1.075899610470094359e-01
-1.052795230210107069e-01
-1.157331119466291219e-01
-1.214877331036652436e-01
-8.348146223678130917e-02
-2.422338960816335096e-02
1.391057064627636286e-02
3.197225859966118522e-02
2.835793498021264153e-02
-6.399693972710535084e-05
-2.562123614307627861e-02
-3.784725207002793967e-02
-3.917838921260783508e-02
-1.090530129808176506e-02
3.241791134605032099e-02
6.205531972259456519e-02
1.079906542397894575e-01
1.660227246292664827e-01
1.518062824765083474e-01
7.314269385071565932e-02
4.267679350459676474e-02
6.371740798298181074e-02
3.216069124387915812e-02
-5.695238868438456947e-02
-1.067524012194859540e-01
-1.036287922830945174e-01
-1.318262621465840778e-01
-1.921964456342940553e-01
-2.039413247383372041e-01
-1.804974944590496955e-01
-1.253889480546519497e-01
7.254869162255389581e-02
3.105340566809394742e-01
3.171400748936294423e-01
1.865903432252638272e-01
1.386020965825010831e-01
5.184480028575623456e-02
-1.015904104177781236e-01
-1.129463632960548830e-01
-3.941577272515244673e-02
-8.126785902060122690e-02
-2.063866629896066451e-01
-2.790468713802967127e-01
-2.279361053243975366e-01
-6.791910232275077952e-02
1.032202500766935122e-01
2.113062338768583182e-01
2.673748562372639803e-01
2.896418469545583019e-01
2.788605877568888225e-01
2.515549696294336335e-01
1.966939233178587043e-01
7.227236920697366340e-02
-9.329822706817333944e-02
-2.043244442252901694e-01
-2.179792742687903795e-01
-1.690668885310874225e-01
-1.035077589308724261e-01
-4.812470204932055295e-02
-4.081612025886822287e-02
-1.113252906899736550e-01
-1.884687627732022086e-01
-1.839730190506350671e-01
-1.548159380238961491e-01
-1.764851808930771870e-01
-1.780528239569628135e-01
-6.726734911141554751e-02
1.082263331685034830e-01
2.434402821742306100e-01
3.288599218930903234e-01
3.527370202517145503e-01
2.407232818892939830e-01
8.333912149176829487e-02
3.440656236899013176e-02
1.023649850531568178e-02
-6.907918309087199282e-02
-9.182393848185874119e-02
-3.642213173311713292e-02
-8.130011222260848103e-03
-1.069704259814228953e-02
4.130852626560418267e-02
1.182235888864399953e-01
9.565843210961917642e-02
3.351702103084423096e-02
6.774819089661604510e-02
5.394917335164234329e-02
-1.494335610130804182e-01
-3.319509330823375293e-01
-3.022600417578758525e-01
-1.592595590525904270e-01
-3.986753142278164075e-02
4.006726039138533424e-02
9.276025824861738878e-02
7.801897769101479030e-02
-2.076165119157794697e-02
-1.075953724474905809e-01
-1.177284186168859603e-01
-1.132725675513440305e-01
-9.342742670701538465e-02
8.913669953868837148e-03
1.303695952273162262e-01
1.582282326647193871e-01
8.838427515781752120e-02
6.480074034824222229e-03
-2.068564038989877465e-03
2.719251205820605310e-02
7.099615524580806837e-03
-2.475490384342896033e-02
-2.335229192328975786e-02
-3.616579018369196763e-02
-5.431978555692826283e-02
-3.749414794655377137e-02
-1.877609169095483671e-02
-1.355102340347180689e-02
1.569344236048689917e-02
7.982943131709023532e-02
1.528492791656958505e-01
2.260413531637045503e-01
3.347973041830705765e-01
4.753894433742769654e-01
5.522936486128371403e-01
5.033381675146291201e-01
3.378306473289415246e-01
7.975512703108222912e-02
-1.802140762123149442e-01
-3.570734160001315938e-01
-4.350790912816277500e-01
-3.818736385006062939e-01
-2.753669110483776272e-01
-2.552940921207001446e-01
-2.286752399030878291e-01
-1.160718846922934311e-01
-1.027665056418300416e-01
-2.653895395781726285e-01
-4.276881321655960910e-01
-4.531595369087923486e-01
-3.573020635113392518e-01
-2.676555313961976879e-01
-2.963602389304907936e-01
-3.143703328743232550e-01
-1.218522626970894029e-01
1.351927880958810335e-01
1.878451479298532401e-01
1.192320144874184640e-01
1.203668285420076978e-01
1.189155557411809006e-01
3.187784479071918697e-02
-7.062922148394004673e-03
1.152067954605820038e-01
3.387185754876225752e-01
5.676599054730097071e-01
7.466342488658657128e-01
8.389465994797331572e-01
8.383784202509303451e-01
7.541864902027793915e-01
6.098293903966478524e-01
4.637246308304432962e-01
3.243277653740160860e-01
1.333265233880250589e-01
-9.400993848267163999e-02
-3.037141445689188757e-01
-5.273773525446925348e-01
-7.743473441402175528e-01
-9.460439923041359389e-01
-9.580748764603281842e-01
-8.328074803612464105e-01
-6.177850269812009687e-01
-3.206669167719144453e-01
-5.654332190129288116e-02
8.240068217991031174e-03
-3.524971929859835318e-02
6.106145428223352933e-03
9.970340113846065666e-02
1.441376819077461180e-01
1.514402154410799950e-01
1.505379843869789069e-01
1.404271460820659123e-01
1.227375859541804115e-01
1.057676052892972951e-01
1.071451391597768588e-01
1.183777493987288043e-01
8.927495171926980166e-02
1.730159504869703546e-02
-3.310864614046375720e-02
-3.225320393958820003e-02
8.468034495932377781e-04
3.277898830669491448e-02
2.128944040086847705e-02
-4.372430823755026064e-03
2.655900682718628780e-02
6.075709476918013385e-02
3.762244457926653546e-02
5.706882358451351167e-02
1.356648225865238477e-01
1.036615182992666750e-01
-4.386073895793887040e-02
-9.838655042690985786e-02
-1.670387499536807319e-02
2.888340168413361386e-02
-2.427954876241225982e-02
-5.077723500163228154e-02
1.936376358261295005e-02
1.080143171120765411e-01
1.447550939049374041e-01
1.425486090546696227e-01
1.378094157040849754e-01
1.418288102447751442e-01
1.178937742038284192e-01
3.077372877404162266e-02
-7.405536959713454603e-02
-1.216146617097561833e-01
-1.171200580009570391e-01
-1.259614621015537061e-01
-1.513912244344060576e-01
-1.343834670192670944e-01
-8.167201761177265984e-02
-5.070491457318139494e-02
-3.801401604123769151e-02
-1.342007581082689180e-02
7.247497196265415692e-03
6.589126809698482579e-03
9.906906045527536647e-03
3.014550818433317861e-02
3.716829248927605578e-02
2.653963755558637685e-02
2.739513316467081031e-02
2.640045694793764428e-02
1.660608003424416529e-02
3.522987383594429478e-02
3.263099698850738771e-03
-1.629368058610549397e-01
-2.539269847450745243e-01
-1.103035577510085713e-01
2.211585022541813494e-02
-2.494488622852094467e-02
-7.672628523094537911e-02
-4.500704034470402043e-02
-2.448611989131188257e-02
-1.000751721041234429e-02
5.508629621404155519e-02
1.192792918155437254e-01
1.468392098027450632e-01
1.719721031080992668e-01
1.647221547673813902e-01
1.002374056259340285e-01
6.230129048539131964e-02
7.506378651215925291e-02
5.827906927428895545e-02
1.069916431729399028e-02
-5.793187367976758428e-03
-2.595746130674602553e-03
-4.503347467514794145e-02
-1.412287909748201897e-01
-1.918118720070330352e-01
-1.277421811920964878e-01
-2.946491817447806708e-02
2.826693100958977550e-02
7.277166912613426686e-02
1.063710184629209077e-01
1.045861521051324322e-01
8.790336325069891821e-02
5.950571195105636146e-02
8.953443461131012013e-03
-3.402104908409165490e-02
-6.463170828601132178e-02
-9.724644722181852163e-02
-1.015195680140181245e-01
-7.373847513439230061e-02
-5.418345890384549529e-02
-3.706693055899500794e-02
-4.890440980117285313e-03
1.345716540970300079e-04
-3.796789674769864009e-02
-5.205366881680488500e-02
-1.929568528397103064e-02
2.116233772875283220e-03
-4.492474270172462300e-03
-1.313933791438145690e-02
-1.811984120685607505e-02
-6.227276800310016514e-03
4.189787319698241169e-02
9.863785997799895400e-02
1.204696416741143500e-01
1.282401446578891047e-01
1.472960508048619943e-01
1.248905160327213604e-01
5.011454309590491346e-02
5.162878647344250338e-03
-5.560075725198863894e-03
-7.362917475211744334e-02
-2.016667207605229717e-01
-2.710810963915313843e-01
-2.177309325470318524e-01
-1.150867043119199462e-01
-2.621319613282446434e-02
7.607300317790123556e-02
1.700148352199406798e-01
1.755376227207959550e-01
1.229376523121866044e-01
1.138817807498488099e-01
1.476769409293955670e-01
1.554982382511513883e-01
1.356675512523834448e-01
1.419086843883824167e-01
1.609769065238189911e-01
1.193847436122285194e-01
4.899433591878375738e-02
5.061744713446705846e-02
8.574016515155163942e-02
3.421427951411461221e-02
-1.102555015880566924e-01
-2.221789298050867445e-01
-1.955774427247697900e-01
-1.384597088026903733e-01
-2.202879447335688301e-01
-2.642682933299148051e-01
-7.456809575722045391e-02
-1.150721639429506671e-01
-6.665078937097319578e-01
-9.366345804516804652e-01
-5.399710678156688370e-01
-1.411750505241534115e-01
6.979333868207204805e-03
2.146823107238808592e-02
-1.634514358129938172e-01
-3.067758390642319477e-01
-2.222849452579941654e-01
-1.291915421965195432e-01
-9.433141017622775903e-02
-1.521097914552275478e-02
7.854997960788051570e-02
1.431468396435027490e-01
1.985660889337514390e-01
2.618611377611372304e-01
3.374232880867565898e-01
3.895682743946343174e-01
3.808267930681911162e-01
3.764617691173508529e-01
4.349950142640089945e-01
4.846065690728724173e-01
4.963834632467706842e-01
5.505766141212729003e-01
6.708783570592542489e-01
8.110190592544420651e-01
9.148187411003156910e-01
9.541887407946451072e-01
1.001156349816022306e+00
1.156009142331585471e+00
1.401786316825192946e+00
1.526596742761310965e+00
1.251801400308937939e+00
6.733615946349619241e-01
8.572805977306471870e-02
-6.714152714227850094e-01
-1.406919233108726797e+00
-1.324021313935653366e+00
-1.153783686345807302e+00
-1.397739971141313653e+00
6.427590700003190660e-01
3.433894722304937197e+00
-4.329915531476964397e-01
-7.306481372798683260e+00
-4.975763441572677692e+00
1.391319987800340385e+00
-1.745848306092497637e+00
-6.223543296273076564e+00
1.090368696435972229e+00
8.424482499878928721e+00
1.707798763506426010e+00
-8.248333807564312892e+00
-8.639053765177205690e+00
-5.777171021204142498e+00
-6.475415118358755606e+00
-6.045998200900135622e+00
-2.150056303507419386e+00
1.525684170349765001e+00
4.312103581198536872e+00
6.311167063522061582e+00
5.011717645742606919e+00
2.496897818177711503e+00
3.870468504442271751e+00
7.478752569254802474e+00
9.239015717469122535e+00
9.411989133850266143e+00
9.313622677163367669e+00
1.022334780409500965e+01
8.436181403642960319e+00
-2.758451494854508468e+00
-1.276528730639222609e+01
-6.534348326849063859e+00
3.574369622995803297e+00
2.131433070857784440e+00
-2.256137443283297461e+00
-2.600335410357149435e+00
-3.821625531630435724e+00
-5.171965614964914693e+00
-3.082555644202249479e+00
-8.321245848484194463e-01
-2.776499350756119977e+00
-6.123867782557165462e+00
-5.010647578427012583e+00
-1.543477284914735126e+00
-2.234440254265853909e+00
-4.765207622163819323e+00
-2.854840193235904877e+00
4.799085550472788064e-01
-2.090891533685743653e-01
-1.158263715776466141e+00
1.374452917036120159e+00
2.744536484465115223e+00
1.096319260164838383e+00
1.142074090702236866e+00
3.253620688375796099e+00
3.731439578681553293e+00
2.656582852394912653e+00
2.002378762779229326e+00
1.825646692044043284e+00
1.552022810622887716e+00
1.147769881921799850e+00
9.108561636136832673e-01
9.223637175308077030e-01
7.785713865550034640e-01
2.661539043260658932e-01
-4.141333430888290978e-01
-1.051768379370146667e+00
-1.426511602890689900e+00
-1.419107656880651547e+00
-1.177213517733793680e+00
-8.747601632384272019e-01
-5.993009762936354345e-01
-3.564595926314724217e-01
-8.133603450769873178e-02
1.470453598220704816e-01
2.415506265324461332e-01
3.510418312260840668e-01
4.911590546153227210e-01
4.631592392945713677e-01
2.822524346515513649e-01
7.865806704033849461e-02
-1.282360733383682561e-01
-2.710189742537714719e-01
-2.644878453460057233e-01
-1.849531504577258678e-01
-1.641130516222564506e-01
-1.644837449774833871e-01
-8.537847284171096174e-02
-5.090761038949691980e-02
-1.923706540744689608e-01
-2.944292629409147044e-01
-1.450045821830069082e-01
9.074063995666895033e-02
1.876531836712998502e-01
1.619589823500672265e-01
1.035680655495236080e-01
-7.145360845973072750e-03
-1.829040311739746349e-01
-2.529984779290893049e-01
-7.400597810753561934e-02
1.137174667757626240e-01
2.075570742121771173e-02
-4.759631848349226563e-02
2.880722229253731559e-01
5.157593746323940742e-01
9.549647891260626409e-02
-3.350879673386892854e-01
-1.261330089219306894e-01
2.386462467325133341e-01
2.686964784461713385e-01
2.086462066047107822e-01
2.229683122069545664e-01
1.358961225790671079e-01
-1.075455775420476739e-01
-3.929340136262782224e-01
-5.050200424136812583e-01
-3.716882778951914323e-01
-3.140357934642656335e-01
-3.922046636345472015e-01
-2.240814025336036464e-01
9.900501223401907136e-02
1.795545295675445852e-01
9.204049892648159814e-02
4.393316491751859953e-02
1.884768034992983371e-02
-1.280566659236664212e-02
-4.532268445690364189e-02
-3.592345348448011677e-02
5.334183787648030112e-02
1.311237059708397490e-01
1.315387586935777842e-01
1.436575202237627691e-01
2.005600340391641145e-01
2.195681866658936443e-01
2.452673741802313401e-01
3.916486312055911245e-01
5.038812271589034886e-01
3.377549650784228419e-01
2.351584914247838165e-02
-1.354222988169396791e-01
-1.248577213264829566e-01
-1.099205198718033322e-01
-1.469846661148830058e-01
-1.956663439520010539e-01
-2.202732521368014340e-01
-2.196467213074474456e-01
-1.939186140351145948e-01
-1.251359165071595225e-01
-4.925919571275350073e-02
-4.188346295841119393e-02
-8.789957884259619325e-02
-1.205556047139308556e-01
-1.464543776129435815e-01
-1.816777390949458337e-01
-1.759329426416358089e-01
-1.095109259900870352e-01
-5.467957632910674243e-02
-6.081272828741646902e-02
-5.336415506726773644e-02
5.808913622732268106e-02
2.149248219384176095e-01
2.903051621123394765e-01
2.874673276237273978e-01
2.794117365384599649e-01
2.473344759030320361e-01
1.681421976400831464e-01
1.059958232383837184e-01
7.771981252726911649e-02
1.885131993998688527e-02
-6.880286746721822611e-02
-1.179469630329279123e-01
-1.236069703875355974e-01
-1.257622997898279471e-01
-1.100123580075053620e-01
-5.598840942060086256e-02
-1.999942944083868759e-02
-4.189323503370082774e-02
-7.370701997386092108e-02
-6.717864139324032646e-02
-1.218623204066214549e-02
6.340386598341951618e-02
8.418292475016113385e-02
4.544513768099813639e-02
5.331085540234425935e-02
1.295939276232422610e-01
1.711606408624705700e-01
1.357632811822350738e-01
6.362187667519830780e-02
-7.702562631408713112e-03
-4.014695813779677047e-02
-3.719375976100646602e-02
-5.443099157634727348e-02
-9.821204090498304728e-02
-1.374985804735098238e-01
-1.668250491990652673e-01
-1.701770670073891045e-01
-1.452892497187931453e-01
-1.376551056997927514e-01
-1.598790812574807929e-01
-1.808788103770181399e-01
-1.968111828680914333e-01
-2.080688116382474473e-01
-1.795027537496679260e-01
-1.224196033639895764e-01
-1.143812061277708486e-01
-1.038605092914452743e-01
3.527776822593230166e-02
1.752360683865819557e-01
1.630122172844710171e-01
1.643949464099501989e-01
2.787504621663662308e-01
3.617560359265417080e-01
4.035360802963999793e-01
4.991848491665467069e-01
6.011415994229002413e-01
6.248800799515696891e-01
5.632416987368600303e-01
4.260992457680211065e-01
2.326400705190520557e-01
2.937744562214751609e-02
-1.593739250495681825e-01
-3.364935541603655267e-01
-4.814015539917011477e-01
-5.619744690497574524e-01
-5.705547678041735793e-01
-5.171556478731149653e-01
-4.380598933232850989e-01
-3.772303394857467462e-01
-3.129671351253711098e-01
-2.273589071370879511e-01
-1.903424241000944428e-01
-1.643268613601494843e-01
-1.494987609947207030e-02
1.399671153330671047e-01
1.233256271996941711e-01
7.484310219651210683e-02
1.229121895596432534e-01
1.661206339502054596e-01
1.552087560386680165e-01
1.244103000062398712e-01
9.622948271541179044e-02
1.104549860226461261e-01
1.606397118997897056e-01
1.920994576891711103e-01
1.831820712261092166e-01
1.263159986005144841e-01
2.140449875574368388e-02
-9.025835710477145279e-02
-1.525186833378655571e-01
-1.471608123132939205e-01
-1.089807925056092419e-01
-7.196060841012921760e-02
-2.802805831897445255e-02
9.629547787677958035e-03
-6.754570108837123013e-04
-2.112292458190980632e-02
1.895870190083732282e-02
5.804475595417370876e-02
3.108984355383489530e-03
-3.001732886569206255e-02
9.756889872797018526e-02
2.136219784300872615e-01
1.345354804417481231e-01
2.378648254446404098e-02
4.301751637656638094e-02
9.798766602716327268e-02
1.054487144142370741e-01
9.957798056953989785e-02
1.030535670152483291e-01
9.645944907025573445e-02
5.842701005361373989e-02
-9.432833652746677733e-04
-5.759298791527584643e-02
-1.150019913461896026e-01
-1.645857659454033339e-01
-1.688072150244314951e-01
-1.396195174975930209e-01
-1.258114768164905195e-01
-1.296460674770269772e-01
-1.358520815784942659e-01
-1.512189983925840975e-01
-1.654291779452575495e-01
-1.532292372332199615e-01
-1.100138502499518889e-01
-5.034021267385230952e-02
2.426260038356546633e-03
3.511099973609109470e-02
5.919894590255950217e-02
8.643918362221245100e-02
1.162820366115864951e-01
1.495170513513632837e-01
1.741991562960607531e-01
1.697149246761640584e-01
1.502033752718912041e-01
1.362178788802113905e-01
9.736751763202072807e-02
1.311602896274120106e-02
-6.475474090841686070e-02
-9.767726101816343043e-02
-1.173988194142947250e-01
-1.366694093258715159e-01
-1.176431212332841592e-01
-4.520979913292717811e-02
5.615132539407033385e-02
1.448536351177887593e-01
1.808862985214618746e-01
1.637089814174890190e-01
1.263735630114861119e-01
8.231903969446606462e-02
2.802448676017400137e-02
-1.108046360918563816e-02
-2.879712303127076808e-02
-8.167707194430383344e-02
-1.590370423632666841e-01
-1.761059782785479588e-01
-1.693858358955288024e-01
-2.072229977456492289e-01
-1.982442977840233322e-01
-9.430910116025600920e-02
-1.259663093976007980e-02
1.317851627942304843e-02
5.562822332817984883e-02
9.415159782099499775e-02
8.708019054121407532e-02
8.051491801553192773e-02
7.930459706275502785e-02
2.225931863939687588e-02
-6.837227905102423453e-02
-1.036335611240622318e-01
-7.158593536006772895e-02
-2.755274296188840039e-02
4.396302590769928138e-03
3.373843371639927147e-02
7.762017171711882435e-02
1.412417965853115798e-01
1.665897131473480230e-01
1.021401474776771762e-01
3.330784594312981295e-02
5.617308323795881797e-02
8.750007680589322323e-02
5.552462675801930758e-02
7.456970630249179499e-02
1.328537186790632596e-01
5.013920068262853885e-02
-8.060389770069130433e-02
-4.795410633902683767e-02
3.682494415698334134e-02
9.539229665494544652e-03
-6.306701618306205515e-02
-1.074488654147848776e-01
-1.441915153396297333e-01
-1.756964076188721191e-01
-1.719188616299740513e-01
-1.268584706341686630e-01
-8.176383545010772191e-02
-6.658701755448775961e-02
-5.411350265330942821e-02
-2.505002698879180839e-02
3.550039413365967816e-03
3.258538797603381665e-02
7.241253065910883968e-02
1.061820554640587333e-01
1.082430833058322106e-01
7.925890127442353217e-02
4.937039496953631035e-02
3.820857192577837430e-02
5.174174322561236189e-02
8.746613221360398371e-02
8.647178823216238042e-02
1.405577324287632032e-02
-4.298424201611737716e-02
-2.907602661045988190e-02
4.171797236259464775e-03
2.835248248788242373e-02
2.551355248226129871e-02
-1.557604425006298490e-02
-2.781287108746509362e-02
-4.030000222342514093e-02
-1.702226479171279616e-01
-2.947545485113990948e-01
-2.455154363667967632e-01
-1.594479532275305533e-01
-1.621356229414232242e-01
-1.573433300093030895e-01
-9.104857704069763136e-02
1.019042311587368618e-02
1.316704063759578103e-01
2.238825376207140838e-01
2.581289687673093414e-01
2.811228111330358881e-01
3.140887517604853407e-01
3.325028045202961247e-01
3.469529221604358282e-01
3.639502742804204827e-01
3.256127305392432225e-01
1.989938567778049838e-01
4.290283651926309061e-02
-7.128794290566083103e-02
-1.382247523393891342e-01
-1.973401967716973127e-01
-2.586719221349708664e-01
-2.905761954183390672e-01
-3.014528469008787570e-01
-3.465882581746252966e-01
-4.037234739628526303e-01
-3.785887389424373306e-01
-2.829546171144692868e-01
-2.143422690660412022e-01
-1.612614194057387929e-01
-4.366266218739135035e-02
1.101078868780971387e-01
1.921830950304658225e-01
1.737035325789731410e-01
1.258076314741429780e-01
1.040433093335043635e-01
1.122683840498664432e-01
1.323204469448064913e-01
1.248275401105208154e-01
8.865332378047478812e-02
7.440061967174767255e-02
6.363040245260054295e-02
2.819590084185467915e-03
-3.389436675082942163e-02
4.645755490716928920e-02
1.678588500640550429e-01
2.179147256733756921e-01
2.068053172424723085e-01
1.805352141204552563e-01
1.488712567686566179e-01
1.190242045813423855e-01
8.616295998451915794e-02
2.675323634700498693e-02
-6.118581239992892939e-02
-1.479448208520238173e-01
-1.840027124099050670e-01
-1.557243138621705048e-01
-1.366773379114507581e-01
-1.665823988569771763e-01
-1.708046073075708826e-01
-1.300907248609598499e-01
-1.283049077009470185e-01
-1.647460959566775240e-01
-1.608129394625410769e-01
-1.231986720493990356e-01
-8.384401465847823864e-02
-1.135492883605565551e-02
7.033252377897804275e-02
7.557964048011868441e-02
2.264687354716017620e-02
1.794656493077580184e-02
7.517694001770912349e-02
9.967995161023655848e-02
6.272703253412129087e-02
3.112319778922948560e-02
2.779164632392458825e-02
3.791877543683474378e-02
6.116714490701491425e-02
6.051851199761566075e-02
2.171195585024285335e-02
3.962306066053961420e-03
2.233956650675485503e-02
4.861639819326595002e-02
8.686100731620112481e-02
1.081410479248420681e-01
7.205720811274016202e-02
3.072421499890191574e-02
4.144284398614530435e-02
5.949729646657027360e-02
5.151807430171878588e-02
6.617420786364436314e-02
5.661134770390067322e-02
-7.941700505055412918e-02
-2.058730353342038133e-01
-1.616268297911439833e-01
-8.899359628565232938e-02
-1.003511953650193661e-01
-8.090458783950814359e-02
-2.776900346789464881e-03
4.566176140071771805e-02
5.491457364045782691e-02
5.244809357166604902e-02
2.310498102501547593e-02
-3.290299322481666372e-02
-6.043709812876999626e-02
-3.413268627866110350e-02
-1.713475074061399095e-02
-4.638259600312093223e-02
-5.917822625929607810e-02
-2.093134277366897819e-02
2.245909971733041355e-02
5.804200324255551213e-02
1.081814378863063253e-01
1.538571740595582327e-01
1.636906271745126040e-01
1.187709731516572165e-01
2.628780411063903061e-02
-4.157787038368039589e-02
-5.428305876823661530e-02
-9.719164286923076546e-02
-1.837301933905915174e-01
-1.961788740031235878e-01
-1.116475943770017104e-01
-3.804875292538665438e-02
-3.198062769141491596e-03
6.703013676369995455e-02
1.670301280492735296e-01
1.879226003535714729e-01
9.020874052593241821e-02
-2.730127981235647844e-02
-8.291740750969693596e-02
-1.381402636919801530e-01
-2.520414798041814008e-01
-3.171067883944541643e-01
-2.249899656856844399e-01
-5.680158191442366555e-02
7.422484590663723514e-02
1.760134232482904182e-01
2.552684103202097488e-01
2.655696382111527032e-01
2.193222754779484696e-01
1.779509063566393212e-01
1.518040505293797304e-01
1.044517663023690202e-01
2.323560781295162109e-02
-5.791921472455987402e-02
-9.554622195662046402e-02
-8.145800931806770895e-02
-4.417965748520440161e-02
-1.077260805612127378e-02
1.298520623119739023e-02
3.069329803156587572e-02
4.099819727682477849e-02
3.344384112736760450e-02
7.884385712264770432e-03
-1.917749301539367623e-02
-5.550746031761561589e-02
-1.270600340575956111e-01
-2.051183798656304180e-01
-2.259783852183983588e-01
-1.787057038621141514e-01
-8.862800705660996148e-02
1.293224627669325652e-02
6.394881327866705489e-02
3.521919335542203489e-02
-1.490557488781112799e-02
-2.510409456526857541e-02
4.249115773414646052e-03
3.858507255932960844e-02
6.122947309388554471e-02
8.531731579525256293e-02
1.015002062127675908e-01
9.644556773637587288e-02
1.074130667456110466e-01
1.402392894650632826e-01
1.425609072813682487e-01
1.148573829859836637e-01
9.523050430571319835e-02
7.380983647029086547e-02
2.174542250945160279e-02
-4.793591873088728916e-02
-7.692861484906965419e-02
-5.575253944255622457e-02
-8.387900805185985464e-02
-1.843302739521398559e-01
-2.084725002911527736e-01
-1.162805604158944212e-01
-5.365353060674975944e-02
-5.511117188557147079e-02
-2.546232299380329911e-02
2.825517382127178470e-02
2.126910464553560115e-02
-3.723145259621345876e-02
-5.935496172062834641e-02
-3.327766165149534383e-02
-3.127552818799866907e-02
-7.203455741025258097e-02
-1.065300663286153776e-01
-1.129451210307404196e-01
-1.255048130783830429e-01
-1.617426921470574985e-01
-1.367948444492119719e-01
2.967852641150203058e-02
2.461990763318785136e-01
3.780892331769657444e-01
4.211468516691418973e-01
4.171641001111231484e-01
3.836283269982541100e-01
3.302974028321414290e-01
2.404532541829559333e-01
1.169126547066085819e-01
8.972693977728020409e-03
-6.402082226842575885e-02
-1.219781471713947685e-01
-1.752936655886815354e-01
-2.151092031742754818e-01
-2.129458990165208343e-01
-1.697249302868168996e-01
-1.564687191324838911e-01
-2.080409468024819464e-01
-2.533651713158994734e-01
-2.421501920483745685e-01
-2.185379786733046559e-01
-2.041648287858345567e-01
-1.349853507741513026e-01
2.059998533604862070e-03
9.360519596756396166e-02
1.031642451794216736e-01
1.415922372165325238e-01
1.688423280925233083e-01
5.386388956576730613e-02
-3.853542215782101987e-02
5.390695872329319405e-02
1.133575554902325339e-01
5.691375837765313972e-03
-9.232485794423839209e-02
-1.095074110967160508e-01
-1.063236405045853150e-01
-5.575561372998214665e-02
4.095213359225587796e-02
1.107955733060650150e-01
1.515635602849216002e-01
1.896252411464192933e-01
2.040695310501204340e-01
1.920143399525993666e-01
1.619472998473922010e-01
9.875629724431435330e-02
2.954431124135411396e-02
4.607132247014117388e-04
-1.693308493160310818e-02
-6.430643680198550038e-02
-1.185582653112425833e-01
-1.547984191064331883e-01
-1.703884064979187540e-01
-1.379132508657830436e-01
-4.785908860705944540e-02
4.313201375855019171e-02
9.060524894621643788e-02
1.150549624191700981e-01
1.227932210357590842e-01
8.278745670229956111e-02
1.069444797769508217e-02
-4.684465151838421160e-02
-9.022512331796367357e-02
-1.260766316953836896e-01
-1.283461020764542770e-01
-1.082870189218242407e-01
-1.136479228017847620e-01
-1.259686289271490511e-01
-9.289181418874135898e-02
-5.553472542492592090e-02
-6.498993706030775641e-02
-4.377997021230850550e-02
6.017775667609905066e-02
1.421957449548901242e-01
1.338232753355222404e-01
1.095379637289685959e-01
1.253911936597328913e-01
1.437167269001543568e-01
1.266527239065141919e-01
9.513110600716152832e-02
8.039747564247676226e-02
5.791296261893812136e-02
-9.353945595651676215e-03
-8.607674772907950023e-02
-1.097011277501246940e-01
-8.821074362769668054e-02
-8.243286981374645106e-02
-1.075248879512532424e-01
-1.053513968477598067e-01
-4.973836644280008740e-02
-2.716598298696967090e-03
4.075156947531227009e-03
1.719701770216691683e-02
4.620664381856775388e-02
4.419738673651195382e-02
5.655674178209149985e-03
-1.882252113442864708e-02
-6.046262416159031879e-03
1.696934921413653999e-02
4.089513723737362577e-02
4.226529342161959579e-02
-3.334517852761429563e-02
-9.006689397084557958e-02
2.304602725193373447e-03
7.363910657657027348e-02
-2.596781623963732161e-02
-6.426473136481351822e-02
9.292890175927388807e-02
2.228371878606237033e-01
2.106509564499845222e-01
1.721321481641201190e-01
1.382788525435041382e-01
4.560941678298070096e-02
-6.418811322064602032e-02
-1.099145794729178005e-01
-1.266529623511633562e-01
-1.649149533147835633e-01
-1.922175833043711091e-01
-1.897061064761888793e-01
-1.691195863325493653e-01
-1.228386147218338414e-01
-5.954343750948665887e-02
-3.477676762469492783e-03
2.483739548789529183e-02
-4.470229059714059261e-03
-6.198669716583862788e-02
-5.408141469724975919e-02
1.050897406718755839e-02
2.382312652056334246e-02
-6.431607671516639813e-03
2.714831812682456241e-02
1.228770744089051764e-01
1.987303481246028014e-01
2.396939711043487020e-01
2.496875623464853422e-01
1.965034053049318219e-01
9.620509892505917093e-02
1.063620480667400864e-02
-5.565219181410514110e-02
-1.265248082131113228e-01
-1.706749401063064886e-01
-1.619090309863760457e-01
-1.226937988972026522e-01
-6.040092237709794587e-02
9.902870914158805327e-03
3.254185970488740476e-02
6.129767039228899150e-04
-2.916484047021383058e-02
-2.786965298432315247e-02
-1.141368696108561315e-02
-8.901767709017342767e-03
-4.054281210460331658e-02
-7.247444046013333530e-02
-3.695766732615991812e-02
5.459734834318431818e-02
1.088048980044842295e-01
8.534381796838640122e-02
4.306927152529863717e-02
4.574409044486134335e-02
7.919532756579301946e-02
8.490307743998673495e-02
4.390202032178355113e-02
-1.911696955880147486e-02
-8.052146151515518491e-02
-1.221253490333896741e-01
-1.203760298314625748e-01
-6.857095727364487248e-02
-9.519051495899193832e-03
1.182295910272094727e-02
2.767844131225794674e-02
6.488613632422440824e-02
6.911644018315352134e-02
4.209568761417309402e-02
3.812447623494848170e-02
1.478561739726982210e-02
-5.396736343183800716e-02
-8.618323266064424615e-02
-5.576922141730587118e-02
-1.168671421172828156e-02
3.150598952107118433e-02
5.850013404618295554e-02
4.878685919350971706e-02
4.258034924376258995e-02
7.349565709542993375e-02
1.117912189376193549e-01
1.329081932018653933e-01
1.357945272940044024e-01
1.125609566048254018e-01
5.262152654875287827e-02
-4.162895481194133634e-02
-1.449113898338576234e-01
-2.371052409878244838e-01
-3.203686000634785036e-01
-3.828614937558055820e-01
-4.037238689561948313e-01
-3.880295166150973807e-01
-3.566364392097517988e-01
-3.162349549214347189e-01
-2.299589948568740438e-01
-4.516056014645203343e-02
2.079183204715098210e-01
4.088467701148384426e-01
4.927075591005096178e-01
5.381792892399891448e-01
6.274375209420375299e-01
6.900030943866043431e-01
6.335543380908830180e-01
5.599843917334110799e-01
5.403160591612349295e-01
2.631321998668858519e-01
-3.545177862111649203e-01
-5.961126890235267650e-01
-2.351433828121820002e-01
-1.802698261365570098e-01
-6.483484204953687824e-01
-7.982894021443762700e-01
-5.053412277194740954e-01
-3.042931708317192507e-01
-2.046222190749754644e-01
-8.654025714453596196e-03
1.570187393963794753e-01
1.996912964870466434e-01
1.758666606020206913e-01
8.338662916928574198e-02
5.417058576216535193e-03
5.999211589006216150e-02
1.109142292432061666e-01
1.296112729864649926e-02
-1.276756767138610416e-01
-1.844005544765552618e-01
-1.410577491692584506e-01
-3.343732751992184449e-02
7.662344176501964532e-02
1.855969415153618518e-01
3.107811052591988865e-01
3.214436800064784383e-01
1.377717903405653865e-01
3.111666625282838439e-04
6.868175388747845000e-02
1.308291567783259057e-01
7.160560379739025483e-02
6.398231369632155496e-03
-6.026340969468271802e-02
-1.592729254048835530e-01
-2.183463382342993309e-01
-2.151582703241106953e-01
-1.901884866326184476e-01
-1.605817239497278337e-01
-1.186393733865631489e-01
-2.857356797827292211e-02
1.075231008439945096e-01
1.935467431140875660e-01
1.671314680710402900e-01
9.507769768592301551e-02
6.313482893847877087e-02
6.920852256911509681e-02
6.544067754367791090e-02
3.643985211478284469e-02
-4.627460199969768082e-03
-4.688871836523181291e-02
-6.410537436742735906e-02
-4.396958016779484862e-02
-2.699121834743313172e-02
-2.089634219556415345e-02
1.317511704991262966e-02
5.078183732211068863e-02
3.612015070729539257e-02
-1.143810891011498750e-02
-2.433111735209508159e-02
8.774761388956671404e-03
1.355566109727140110e-02
-5.122316197905633917e-02
-1.084875242117556010e-01
-9.905235096331800604e-02
-7.838288197564227677e-02
-7.768421888821568089e-02
-5.792778442033406916e-02
-1.826801587913658154e-02
2.892743671879519085e-02
6.477658107819661559e-02
2.480221255940069994e-02
-3.017923172368760371e-02
3.932328250306241224e-02
1.196346690909042970e-01
5.109102960145587430e-02
-2.590482079121158437e-02
7.716526854594091267e-04
2.700857555545847430e-02
2.871694435191760389e-02
4.539048569264950150e-02
4.446007442642877644e-02
4.148158482592379653e-02
6.087664312533538208e-02
4.365925989895935028e-02
-1.200536621071243357e-02
-4.975742246498596200e-02
-7.352227473826537796e-02
-7.013658148998735964e-02
-1.748351154853408640e-02
1.359566357360508099e-02
-1.090184149804802882e-02
-1.442673196330477442e-02
2.621809943850212168e-02
3.556421180176949637e-02
-2.065624403452083827e-02
-5.887524370284043934e-02
9.533266260302325143e-03
1.266794478245846511e-01
1.797947286818675217e-01
1.743345370594500676e-01
1.416178531858127976e-01
4.540039961863365919e-02
-9.355748342684215568e-02
-1.916008573017758676e-01
-2.083548861818189657e-01
-1.457122866563946295e-01
-6.000615771396974191e-02
-2.345637047799939770e-02
-5.111487716209818510e-03
5.338742174328270362e-02
1.068902793909917298e-01
9.016153216783069635e-02
1.811359955734590313e-02
-4.997429330977989914e-02
-8.744584159114389410e-02
-1.182181766881965912e-01
-1.435691954896518852e-01
-1.309648804541480305e-01
-9.633568577403943400e-02
-8.126352719514129408e-02
-8.358975266393904591e-02
-7.147477410066277459e-02
-1.835613953695863429e-02
4.811293478335640361e-02
6.497944527804945525e-02
5.808294724638272261e-02
1.009223035049419959e-01
1.414790701688795338e-01
1.017949260611213796e-01
6.553800406366599995e-02
1.053838995356549957e-01
1.353647481479078873e-01
1.327558679474364900e-01
1.764450211281075875e-01
2.209898912291550777e-01
1.721229171602735031e-01
6.552912034689781229e-02
-3.436980603732840700e-02
-1.130604704968573848e-01
-1.602572636856495203e-01
-1.942016070309691700e-01
-2.338246263603686870e-01
-2.357552429258052418e-01
-1.810446335677667329e-01
-1.198237278286302387e-01
-7.540576755110500740e-02
-5.158970007327904478e-02
-7.873883277704135653e-02
-1.258521014301172969e-01
-1.174865870927556954e-01
-7.153733726489595879e-02
-4.364660237639082785e-02
-2.858184298037996091e-02
6.603708629664660490e-04
7.575755916281369517e-02
1.832365593423187777e-01
2.468110524729759114e-01
2.684568811546126366e-01
3.021648230929686596e-01
3.120728147135573005e-01
2.831979194449101844e-01
2.874437253318318786e-01
3.153854285075431418e-01
2.819569409113531488e-01
2.093073021042319570e-01
2.015984505877005950e-01
2.550045419401366087e-01
2.600338646270013987e-01
1.976902634096508182e-01
1.645730816742480562e-01
1.895150414449366660e-01
2.032511433115226640e-01
1.824069040875734016e-01
1.370460044419981038e-01
4.734890434673442311e-02
-5.327751363058019773e-02
-2.972881563027270913e-01
-1.200618210278286968e+00
-2.807249681103118455e+00
-3.989340592648749517e+00
-3.785853340286398527e+00
-2.807342664827979117e+00
-2.078901329829621059e+00
-1.565317255523508200e+00
-9.872258800580304694e-01
-2.643588887815528921e-01
1.425027789681792445e+00
5.728259763327676168e+00
1.216343518018959635e+01
1.300276069281063407e+01
2.905930566513392321e+00
-5.340623411830681455e+00
-1.310341663705615556e+00
2.081927836857757175e+00
-2.428593534594678083e+00
-4.496151307430888089e+00
-2.803084596824764851e+00
-7.370891579102538671e-01
3.419967905251489970e+00
2.543528575628774213e+00
-6.390926017648364876e+00
-1.115200725290688766e+01
-8.162593619539377343e+00
-4.730062586930685598e+00
-2.631811612423180957e+00
-7.393317538805964650e-01
1.617895439225762955e+00
5.408134239365765872e+00
8.843058118522726829e+00
9.599925963416541919e+00
8.361310777158394103e+00
6.342235066287378764e+00
3.256422261186906919e+00
-3.496288699855999438e-01
-2.398424653654316341e+00
-2.764312004522185617e+00
-3.443648095363148087e+00
-4.241869427091276457e+00
-3.377777946337385817e+00
-1.755721806366091542e+00
-1.514704920965049828e+00
-2.165534255674369746e+00
-1.904636988401892106e+00
-6.058750152802866440e-01
9.225192219031906893e-01
2.458918916694673218e+00
3.253445676759351812e+00
1.942010329462619200e+00
-1.168410616239451416e+00
-3.967318455290445023e+00
-4.517521639651883802e+00
-2.503239020031766682e+00
3.356115059443217086e-01
2.046013042270223181e+00
2.517818281507686162e+00
2.655018331924326347e+00
2.837946087490720970e+00
2.421681410347965802e+00
5.972192976136645459e-01
-1.697368898602121812e+00
-2.576703639226030518e+00
-1.891494662638308455e+00
-6.600815406204620928e-01
6.834588488388303462e-01
1.748573675943468464e+00
1.876128365624690542e+00
1.076340802457165680e+00
3.844339213420711748e-02
-1.010698199302485500e+00
-2.412769969124209268e+00
-3.386314958685604282e+00
-2.362427299097328515e+00
-7.161645637675237430e-02
1.014107307630220278e+00
5.105056161068525222e-01
-2.913975897727605346e-02
8.752545030479905175e-02
4.775812475076111063e-01
7.594638619759993547e-01
8.276550360118990479e-01
7.802105772456287003e-01
7.197685829896478538e-01
7.579662808576390631e-01
9.281641207859818721e-01
9.349140314391005679e-01
6.877660381969327164e-01
5.152233415120950344e-01
4.105697711045638298e-01
1.264259205223292326e-01
-2.175732828845986788e-01
-3.860278031668894494e-01
-3.707474045644684746e-01
-2.906290136698197468e-01
-2.464251638978371683e-01
-2.361411306324710524e-01
-2.114932304611662484e-01
-1.811249844539135900e-01
-1.408575068276441966e-01
-6.180791226355562135e-02
9.804331885618008946e-04
1.394551729537969742e-02
3.394815409546080021e-02
-5.981539174740563292e-03
-1.979679899035363677e-01
-3.546934261917119580e-01
-3.050560946529557449e-01
-2.397592545248784790e-01
-3.225565866448587005e-01
-3.659013878790958185e-01
-2.277712648059209144e-01
-1.063496053510011169e-01
-1.648854075695501131e-01
-2.778303514987591205e-01
-3.123418322244022605e-01
-2.794453594009101982e-01
-2.235328613126026376e-01
-1.673927553762371290e-01
-7.231782802585851044e-02
9.466017356307802888e-02
2.591680281514516238e-01
3.631931896606405696e-01
4.103197755688793857e-01
3.374459013821179965e-01
1.288965782051492426e-01
-5.950219360818646830e-02
-1.102150779488428323e-01
-5.587714179588178232e-02
5.314524576628547325e-02
1.804405057506447418e-01
2.631095857872108312e-01
2.273206892125845813e-01
4.900829924866353243e-02
-1.780449473985324660e-01
-3.010783739153697347e-01
-2.319938294926900679e-01
-2.644618755937469534e-02
1.118417077733999954e-01
6.491833442010122579e-02
-1.974492864573294815e-02
2.326411364311275348e-02
1.567051156317824101e-01
2.395379459083208373e-01
2.154981498963033926e-01
2.138660844419824347e-01
2.982249394175920942e-01
3.017354067919008620e-01
2.406855726530526263e-01
3.132486549281062738e-01
3.911132352808420198e-01
2.678720792887930857e-01
7.836380262487993575e-02
-4.622367670934710016e-02
-1.764365069120281682e-01
-3.006326331813949926e-01
-3.304854424512754241e-01
-3.085104613614337299e-01
-3.141143151992030202e-01
-3.078603196897164995e-01
-2.323416862536865080e-01
-1.269009006415280361e-01
-5.669190926927100693e-02
-2.267708371062719663e-02
3.399855051515487947e-02
1.247333679444870835e-01
1.345727972953586205e-01
1.507149020971186582e-02
-9.354350374762399056e-02
-1.332454471601600687e-01
-1.979605037406794443e-01
-2.905380358404785479e-01
-3.256354539671708626e-01
-2.640131782498602031e-01
-1.547875199130163693e-01
-9.383051463151102778e-02
-4.898184443160150114e-02
9.378311200558168970e-02
2.424649539040152624e-01
2.426303386246568272e-01
2.046813045949840426e-01
2.483364740145974636e-01
2.486038199297914975e-01
1.537975087957204612e-01
8.882099094580672705e-02
3.733539804846684740e-02
-1.007574321800862732e-01
-1.642936386161038265e-01
4.157746623917885770e-02
2.705629174787406166e-01
2.222704969928724072e-01
8.977720696692549629e-02
1.189921491028666650e-01
2.112801514956305360e-01
2.192823185123723428e-01
1.004455111439139514e-01
-9.390903627155948452e-02
-2.489189789719293278e-01
-3.455724837319245069e-01
-3.859041408720143562e-01
-3.136158693825141786e-01
-1.952806669431407516e-01
-1.682975109965478000e-01
-2.287138958356218221e-01
-2.777406137832029165e-01
-2.676176684207356438e-01
-2.177201107730544760e-01
-1.485126280897070827e-01
-4.486018523368635186e-02
1.025893156943266660e-01
2.427020211161237118e-01
3.434200998261532356e-01
4.533193254764843472e-01
5.577917110719859961e-01
5.849126957289506601e-01
5.664273116389595408e-01
5.331246060184949842e-01
4.231820832679769051e-01
2.408928339287185472e-01
8.008576415125061299e-02
-3.249816055752936805e-02
-1.484811684144837773e-01
-2.552731025899379613e-01
-3.324915802877840831e-01
-4.458829833155461553e-01
-4.629743000116358087e-01
-2.416737527699626686e-01
-1.995086044497283995e-01
-5.474561105991242460e-01
-6.500498037120581163e-01
-2.630713077825845847e-01
3.927740687274619558e-02
-2.193990023496356079e-02
-1.743526549710089357e-01
-1.019700701105566987e-01
6.327478174989534243e-02
-8.421621993907989212e-02
-1.465358980775807174e-01
4.407916803274475326e-01
9.396221296635269837e-01
7.864745413032092625e-01
7.365562877517408680e-01
8.213146240432941392e-01
9.313277072527634259e-02
-1.008104816151653038e+00
-1.080893526755597023e+00
-3.344210432864206384e-01
-1.641485662005049417e-01
-6.940465644109122811e-01
-7.775774080346739003e-01
-1.218894284649117005e-01
2.896964475536017991e-01
3.009560277580830556e-02
-1.101660713813662346e-01
3.380024841329561935e-01
7.730901486700983982e-01
6.374873992696608038e-01
2.181922138677742651e-01
3.025135369056465573e-02
3.628615969474270619e-02
-7.171014074996458210e-02
-2.117264705975447914e-01
-8.835616699159971887e-02
2.492840850987911305e-01
4.789051051714898755e-01
4.773231218845153667e-01
4.188550329780461601e-01
4.123925835546614627e-01
3.512281985111790350e-01
2.079878877146024707e-01
6.227781028586423101e-02
-1.084586225961461925e-01
-2.622352367604605106e-01
-3.042556762170108842e-01
-3.724217246514145430e-01
-5.442099334846101089e-01
-5.896104231679036856e-01
-4.360452670201249714e-01
-3.061895601613627282e-01
-2.753471096429446208e-01
-2.329069376700061422e-01
-1.862055665104498936e-01
-2.089901607021337204e-01
-2.412801058504887852e-01
-1.783879290136815010e-01
-4.829297641743218739e-02
4.076416155944112552e-02
8.170332994565192297e-02
1.432559694620273993e-01
1.785340578169687109e-01
1.093009232909955969e-01
6.706424189255827395e-02
1.976934141216449836e-01
3.612781416980880844e-01
3.915792115612807267e-01
3.363101901301386309e-01
2.433084297754453951e-01
1.400509484666833393e-01
1.196956134013824335e-01
1.415525147487061708e-01
7.356884939186808525e-02
-3.920970333742335168e-02
-8.650660620814543122e-02
-1.151325058488710806e-01
-1.993333694847751469e-01
-2.629230243448528737e-01
-2.015141493841995923e-01
-6.978251712980616805e-02
-6.418676631987401543e-03
-2.974713764390520682e-02
-5.178175168995112487e-02
-5.325647500378551114e-02
-7.783756967621940914e-02
-1.038854573749539434e-01
-7.275260555754400893e-02
2.273144800940459734e-03
5.673510477235488986e-02
9.070994926946800152e-02
1.777039000557595894e-01
3.019030368397010999e-01
3.096475609357379200e-01
1.575677696691770713e-01
1.117665743355249208e-02
-4.060803104310471007e-02
-8.997090109699687477e-02
-1.894657579455753804e-01
-2.743456495834246667e-01
-2.241147983917689823e-01
1.056288112223212512e-02
2.505375171933780232e-01
3.201031791477715882e-01
3.121834742325103607e-01
2.986994981307599106e-01
2.067726719764705345e-01
1.170482732652888685e-01
1.117771139992244644e-01
3.876250604268878519e-02
-9.673280341701510909e-02
-1.635191940585972725e-01
-3.637106196143904402e-01
-5.710203552181647435e-01
1.791575896744711932e-02
1.283753125933323691e+00
1.725438542557386823e+00
6.634860908378890088e-01
-8.496693723232816575e-01
-1.763768712947395345e+00
-1.916601799204922241e+00
-1.397525332215535432e+00
-5.256033654945798661e-01
5.404002557568512999e-02
2.562817096239317083e-02
-3.695358204555460047e-01
-7.949150239627882364e-01
-8.916962659110466705e-01
-3.109917452390291159e-01
2.759745906345624777e-01
-2.294428292173133488e-01
-5.812071842640972319e-01
9.066567800135822974e-01
1.989708336194075056e+00
5.804483691388162558e-01
-4.346360724331091441e-01
7.689760754816161725e-01
1.523142005872713867e+00
9.729521627558138652e-01
8.515234866582002127e-01
1.059930066803019377e+00
8.507937320476159915e-01
5.667913413447054349e-01
3.418661134533341750e-01
9.830516903039820953e-03
-1.909216042233306543e-01
-3.178035190555683620e-02
-4.498042726664103208e-02
-7.571819739455083464e-01
-1.475200594396752773e+00
-1.331619607570426078e+00
-5.704855190912543339e-01
1.490071511228253931e-01
4.830783536571129910e-01
3.331789351592420179e-01
-1.591845504634597230e-01
-6.399357948205288693e-01
-7.978597076719456949e-01
-5.811428898047132918e-01
-1.912289938289858937e-01
6.337902184428470531e-02
5.107912390535879199e-02
-5.474243067063619406e-02
-1.377953168358906355e-01
-2.666815887193430545e-01
-3.478833131357214614e-01
-1.917608941614277196e-01
9.846749777653894531e-02
2.131201221380726318e-01
2.091638681610789308e-01
4.195281546728420463e-01
4.479975385345693617e-01
-1.530888098878387116e-01
-3.434632392764584430e-01
4.256398980491231110e-01
6.358017489991769633e-01
-6.209841102751192943e-02
-8.314459226095967381e-02
4.895899356552431136e-01
2.719202377798495274e-01
-3.634201868507896394e-01
-3.595202336956949685e-01
-1.086415371087084969e-01
-2.606518574983691106e-01
-4.765274350295898298e-01
-3.418199688878200138e-01
1.948154689650254817e-02
3.252133355980499352e-01
4.154240585168144095e-01
3.992236896470384711e-01
4.485070409384241397e-01
4.455836252877367620e-01
3.138775226755095571e-01
2.667229123673167668e-01
3.552511380932837359e-01
3.764031139250351155e-01
2.819472863021416087e-01
2.242384273418733531e-01
2.435807564880631826e-01
1.794309603850863521e-01
-4.653082736309002015e-02
-3.129019279926494868e-01
-5.169366208324602807e-01
-6.251043437889547416e-01
-5.997971792999567953e-01
-5.023731749153399484e-01
-4.702062318334714330e-01
-4.571957275324087799e-01
-3.124784669661274661e-01
-1.760857745718794332e-01
-2.666520759057796619e-01
-3.547169687497823132e-01
-1.576297417029399184e-01
6.960363145034860477e-02
4.237800076159542462e-02
-4.893744993108853358e-02
-1.382849586392143060e-02
5.848226022826701065e-02
1.047314980958789637e-01
1.359154937067821312e-01
1.421117023955123237e-01
1.682938052319566113e-01
2.490965008225612676e-01
3.092950843113924653e-01
3.032260488075732563e-01
2.837015869681286384e-01
2.685181565381473123e-01
2.268005072923502674e-01
1.682190937129052766e-01
1.172741730133889521e-01
8.076453666127478281e-02
5.715074936032407682e-02
5.738972562582850268e-03
-5.126388773215831418e-02
7.362528158788989030e-04
8.424290733388166419e-02
3.108383709592241889e-02
-5.579626651841936708e-02
-6.924453875660974145e-02
-1.159116300900730340e-01
-2.055775511608184947e-01
-2.312915977274489776e-01
-1.758140417671247291e-01
-8.555354876059731439e-02
-1.452253083300641956e-02
3.397245495615348887e-02
1.086717037508667105e-01
1.556343632435460145e-01
1.082304255953916022e-01
6.568688792132211518e-02
4.970723939942565950e-02
-4.993152588372628403e-02
-1.450338523425447057e-01
-1.247011851002489125e-01
-1.115147726757232532e-01
-1.425927126102347897e-01
-1.300658509975659849e-01
-1.172785709429389200e-01
-1.283658832557623697e-01
-8.965884665511064666e-02
-2.172746798063268647e-02
5.697390941161527278e-03
6.699180360625674180e-03
2.074096546573894057e-02
4.786401900826767891e-02
7.070468418958944512e-02
7.898606746324456085e-02
