8.783229009200550080e-03
-5.288409935293443553e-02
-6.510661784985616318e-02
-9.950025788141324268e-02
-1.734982107827097997e-01
-1.460550635890392746e-01
-2.937406818997399457e-02
-4.344171948939681838e-02
-1.648958188769848454e-01
-1.584608794702515311e-01
-5.280505414913350126e-02
-1.416646845580345204e-02
1.071599905992377810e-02
7.677815320125849774e-02
8.230366533842362053e-02
2.801595545666877435e-02
-9.307916278315026687e-03
-5.121151576279813628e-02
-8.072283583411916930e-02
-5.362613057521665311e-02
-4.487742617618208085e-02
-5.176419320338222774e-02
4.296242061137006685e-02
1.419802797522908278e-01
7.298024161843301438e-02
-5.407367740326778083e-02
-7.312324917961278425e-02
-4.798428778186088900e-03
5.325170835015870935e-02
3.405720352146019564e-02
7.250455639551404291e-03
4.527773351204157637e-02
7.087887457031789851e-02
1.218558385121349674e-01
2.264984516515993196e-01
1.220255972172524656e-01
-1.892434983422253414e-01
-2.708358381157052741e-01
-7.784057644509101426e-02
-1.663465364888742568e-02
-1.110789296253717195e-01
-6.132829991040785605e-02
6.443178318187489650e-02
4.247705262220735634e-02
-2.124442757862054360e-02
4.082772833050823252e-02
1.535994243781101942e-01
1.671851842596424886e-01
1.024965073844170405e-01
4.876283869817475691e-02
-5.076706848432691044e-02
-1.588943691132652103e-01
-8.958836127192863763e-02
5.951715717425587471e-02
8.191991484577011706e-02
7.632434568377086115e-02
9.519641230387614061e-02
-9.323695394353809923e-03
-1.299952223997113965e-01
-6.578147731635582141e-02
3.074581505600915490e-02
-8.614601319094906257e-03
-5.199000600714610842e-02
6.055022228150214181e-02
2.752573086741569863e-01
2.927936137704117425e-01
-3.831373028407832060e-02
-3.408034958145937932e-01
-3.175290392465391909e-01
-1.678758093886193459e-01
-3.659526386093531203e-02
4.668701351441461450e-02
-9.826986834662113091e-04
-5.870899700193300819e-02
-1.741623127213911409e-02
5.951277560666632521e-03
-2.370978639394330165e-02
-4.425218760756144398e-02
-5.035481359733547796e-02
-3.638930095645818291e-02
-1.306234691046304075e-02
-3.155250151333643255e-02
-9.233197174524969408e-02
-8.637053719171995658e-02
8.066155744629452395e-02
2.343008794084037449e-01
1.194844642673258683e-01
-8.867711206611478270e-02
-7.338957570801610264e-02
1.921752143192738405e-02
-2.983057450274989933e-02
-7.347461138238498002e-02
-1.288162311162657434e-02
4.018986382646162758e-02
5.313597441438656227e-02
5.961499596033534992e-02
7.875019383260462025e-02
1.345171425615983851e-01
1.834388698844259535e-01
1.747594961963287452e-01
1.649818620703119854e-01
1.809215370113387289e-01
1.341715571844152299e-01
2.457913922649729299e-02
-1.219807947552450922e-02
3.620201030034433248e-02
4.323402723485541416e-02
1.031208413622732023e-04
-2.681212648865206535e-02
-6.298552972558722762e-02
-1.108747930931169301e-01
-1.283684985498708131e-01
-1.373364978783109813e-01
-1.069583070645002271e-01
2.628900294990143410e-03
4.209353141527813480e-02
-9.816329204015440679e-02
-2.981369345499469414e-01
-3.961715412802295777e-01
-2.610833236859362860e-01
1.795551279383991033e-02
7.217093049968767438e-02
-8.724654740201662206e-02
-6.136478956620509267e-02
8.836887419138840516e-02
6.420023926835397021e-02
-8.860883823287778183e-03
2.859101129106048078e-02
4.879721250479210348e-02
4.708710864853662276e-03
1.738144123691112014e-02
9.400517296067262274e-02
1.153810270744698718e-01
6.701359115735340544e-02
5.651295692637677004e-02
1.038776807026324106e-01
1.075281849991230748e-01
5.833045001141564517e-02
7.058693998122034241e-02
1.096185142637654819e-01
1.798685276608198713e-02
-1.172893529839687810e-01
-9.947001585474188334e-02
-6.550104015867148910e-03
3.498605516486919670e-02
7.608245403046194621e-02
8.667931268820468216e-02
-1.778121978308215903e-02
-1.159990670498381449e-01
-6.497531878362651503e-02
4.654701718958536433e-02
7.812088214103850292e-02
3.807146441598437819e-02
-1.281659616565053797e-02
-4.079418975916851431e-02
-2.747288392915857996e-02
-8.881225533344170447e-03
-1.831702916315867610e-02
-1.256795632834995652e-02
1.765916832137237255e-02
6.729364809138075817e-03
-4.095286583239025890e-02
-5.029484237467062024e-02
-1.481080346416459650e-02
2.569907149852652950e-02
6.736151500047143914e-02
1.248049089996942779e-01
1.342018950803538779e-01
-5.028765827543387607e-02
-2.944092444010199539e-01
-2.347935303067600066e-01
-3.309615279041090707e-02
-7.652252530288239374e-02
-1.089483197752295351e-01
8.994737188111445736e-02
1.557096698711168681e-01
1.745983133025386103e-02
-3.219426757385511484e-02
-1.544446244117263049e-02
-2.788358705155524753e-02
2.069600385407919726e-02
9.472876371972127618e-02
7.785333989567658208e-02
2.328295529594752791e-02
9.588818653113097279e-03
-1.203479160551732680e-02
-3.249500930540659416e-02
3.313680031239597812e-02
6.257642668558240084e-02
-7.221614379536005213e-02
-1.185080062273377172e-01
6.672472973754466075e-02
1.477483698126282607e-01
1.191265876662080114e-02
-4.905450761315140878e-02
-2.785200820520375431e-03
5.142675693849716595e-03
3.000282225556569204e-02
6.505797573932366185e-02
4.100735260549815547e-03
-6.267058994643195935e-02
-1.845116042763264574e-02
4.768026461646821673e-02
3.954610518579034645e-02
-5.474006251024133782e-04
-2.725101839117954200e-02
-4.928603266181832282e-02
-4.529787067136575862e-02
-1.255449238925222116e-03
2.082288818272120395e-02
-3.224988060572669957e-03
-1.792006927381870063e-02
-1.436506522717928558e-02
-1.665178569130472755e-02
-3.461590015060426930e-03
3.582510361006064487e-02
6.422383414776074162e-02
6.920162252293324268e-02
6.597018421337877414e-02
-9.266959959477842623e-05
-1.174544207591829981e-01
-1.068789879328206072e-01
-2.191107294269185185e-02
-8.720445953974449715e-02
-1.169725953336884228e-01
6.229015508744024932e-02
1.290739129182376099e-01
-1.430070164936969590e-02
-6.761477882621555469e-02
-2.414491967424489682e-02
-4.483066237112993263e-02
-3.456713220102524547e-02
6.485200785588529637e-02
1.039998681536195013e-01
3.901400464350852915e-02
-2.389757210471873949e-02
-2.351512346177605031e-02
4.458845376795435994e-02
1.093848282460806176e-01
5.426911043663669443e-02
-5.702522760696054210e-02
-5.731768232576464617e-02
5.567603756992216268e-04
-1.841912395102521249e-02
-4.814893938952789776e-02
-1.479572828872648994e-02
1.063539875425610452e-02
6.273690714986213633e-03
1.439250761980096285e-02
2.206608362492508413e-02
9.288852262038039057e-03
-3.209618261978410773e-03
1.254628995013807626e-02
4.197623910700792882e-02
3.720893189950939817e-02
1.631390135775331006e-03
-1.810115351419184712e-02
-1.533846136516089746e-02
-3.363479343514997645e-03
1.833063372228550814e-02
1.998362267657655469e-02
-1.726577387077662257e-02
-3.705786021070267555e-02
-1.298284362113928149e-02
-7.659232103445862312e-03
-3.358001045270998103e-02
-7.022276894420683389e-03
7.635341523453090251e-02
1.043893751462381392e-01
4.721790179554566369e-02
-4.557781407408667551e-02
-1.197982454180947509e-01
-7.860272328771231165e-02
-5.445778406551476589e-03
-7.587305179055989224e-02
-1.104556558230807423e-01
3.398267905874077788e-02
1.023226530090085573e-01
2.794775907385823460e-02
-5.766023999590306690e-03
-2.084964235191755222e-02
-5.881795625905156949e-02
-1.902480202335970691e-02
7.360282665046294359e-02
8.298356394593270347e-02
9.482569121122486761e-03
-3.248647759841483823e-02
5.797192885233955206e-04
5.497709322645182028e-02
6.113964024411206594e-02
4.945348065639810012e-03
-2.732419219687945433e-02
1.497491778630225499e-02
2.747931130212995579e-02
-3.215571615325435451e-02
-5.640770876600240818e-02
-2.715037932317915584e-02
-1.842107312778377623e-02
-2.377337500732830053e-02
-4.237430929375354816e-03
-9.994333190421032451e-03
-9.505816030492397761e-02
-1.129794058794201805e-01
7.281838918654456871e-02
2.204808216189458880e-01
1.083446600440259311e-01
-4.643975272914224045e-02
-5.454482874492407735e-02
-2.080310402287373697e-02
-1.558725640672316629e-02
-1.534086219518707682e-02
-1.711215320936886747e-02
-9.893703017843882841e-03
7.656732057143098708e-04
-5.176059561197121107e-03
-3.646741368205652818e-03
2.555769811758082724e-02
6.876888919551581159e-02
1.099345930745265487e-01
1.234219414434315348e-01
9.259464794574984170e-02
1.572674403775941102e-02
-7.343424096265283030e-02
-8.593363503515741297e-02
-4.480079852490152781e-02
-4.546423948345811039e-02
-3.614288457009789957e-02
-2.352148932662406766e-02
-7.920958782033597767e-02
-6.764983521443340697e-02
2.707492742248365086e-02
1.393485135629625102e-02
-3.381956913508271656e-02
7.991787101856924133e-03
-9.180227266006863243e-03
-9.064014641210246803e-02
-6.826957464945629384e-02
1.828054958691237471e-03
5.063005520315209951e-02
1.041372610435378904e-01
2.478739381984257362e-02
-1.368928055861147741e-01
-6.270461756618905813e-02
1.320059121034722061e-01
9.602322970666601898e-02
-4.458464143315835071e-02
-4.546901858435613980e-02
1.854233991339517343e-02
5.487937615850425194e-02
4.802361286047807098e-02
-4.072839711338244184e-02
-8.477144525671721775e-02
6.527218689395139495e-02
1.954623773373921625e-01
8.933691810150229395e-02
-4.468791748162898730e-02
-3.183284889911862370e-02
-9.387902598952044264e-03
-3.983632284036311283e-02
-4.084922458419791569e-02
-2.104363591877946027e-02
-3.140601449186577326e-02
-3.543518515086815923e-02
9.040719163450013085e-03
4.221999372538075973e-02
8.516039985023024506e-03
-1.968458818263780358e-02
2.499791086074842211e-02
8.112106998888994613e-02
7.927171244079582457e-02
5.237801873696801280e-02
4.711723624101200880e-02
-9.246520810796257650e-03
-1.568574204558218776e-01
-1.937451413911779885e-01
-4.466325536442927735e-02
5.554513128833140842e-03
-8.730826597015156620e-02
-5.993264478184594235e-02
3.504930344659447361e-02
1.720774817450669222e-02
-3.781662259552527605e-02
-2.976435521221754490e-02
5.802177885690167070e-02
1.477037722234422201e-01
1.005199030391693282e-01
-2.677911665257954113e-02
-5.501529544483921286e-02
3.397700994792292317e-02
6.100599771062308746e-02
-9.269282728288219531e-02
-1.690097563969146788e-01
2.960879644672214511e-02
1.543673119817519923e-01
2.217287381277529418e-02
-5.775977279259700975e-02
-2.491056563459084772e-02
-4.164481117998862503e-02
-2.823456948209308176e-02
7.147361971676392811e-02
1.139051297197036100e-01
3.536595113536321333e-02
-4.199118379253899414e-02
-2.384369064095899493e-03
7.085437128361653236e-02
4.478120507930468536e-02
1.242729698499002097e-02
1.002578459864325033e-01
1.404744356686305484e-01
-2.869183918404627498e-02
-1.725611707157686248e-01
-6.955592860691839352e-02
7.937990127889364700e-02
4.055448092702509943e-02
-1.105015289134288620e-01
-1.618934366826993432e-01
-5.331534455132348055e-02
2.863315303451924310e-02
-2.312737968291032897e-03
7.581332564835656374e-02
2.563254839716753164e-01
1.606576272513820514e-01
-1.855778558827805291e-01
-3.379201183834930067e-01
-2.229070616023398621e-01
-3.673404595568526693e-02
1.340458615735385384e-01
1.492659806001153389e-01
-1.417397308317365490e-03
-6.780527866853119923e-02
-2.273904478722280770e-04
1.874792144190214060e-02
-2.683651455128068311e-02
-3.896226664905667186e-02
-3.002163707935963030e-02
-2.507275387175322487e-02
8.728778037777400536e-03
3.568111843976164849e-02
1.469875693725079813e-02
1.964716979576649342e-02
3.241712900331920888e-02
-7.360194360602713426e-02
-1.625311528073512535e-01
-4.178371250025380429e-02
7.856722664394455435e-02
2.153047921549951574e-02
-2.477341101201237933e-02
4.885800890802781404e-03
1.602237484461555700e-02
5.768261527781975290e-02
1.183686279091577948e-01
1.027348052319682625e-01
8.745000736342692371e-02
1.528429471219723834e-01
1.978433092988762243e-01
1.474359563211171398e-01
7.357820599903731884e-02
4.976548068481164572e-02
5.155206397812844149e-02
2.143464490798962369e-02
-3.768525756419353889e-02
-7.167031054940933843e-02
-6.044051900877656786e-02
-4.392330508139893896e-02
-6.416107987149102798e-02
-1.073941391165641190e-01
-1.144252101808592853e-01
-8.418701754723949271e-02
-8.317088636539986257e-02
-7.167945660246126394e-02
3.563864956747810064e-02
1.137740618652017810e-01
-1.527055306402992640e-03
-2.396887981948909174e-01
-4.054829160155737355e-01
-2.922668202364540613e-01
5.889316322725983432e-02
1.827982244287028046e-01
-5.789847922284403758e-02
-1.504453992150944219e-01
5.405781524985690811e-02
1.559756165575396647e-01
7.983774782318528440e-02
3.382008698760620435e-02
3.145939188148853816e-02
3.324678615908911034e-02
7.298172371890593313e-02
1.226284890387021320e-01
1.174073621796728195e-01
7.330065392773825461e-02
5.854875120824867135e-02
7.371299631767523619e-02
5.282471060550160413e-02
1.424653675863817373e-02
3.535182626447721382e-02
3.653773529259497777e-02
-6.535877149923098595e-02
-1.096832849381964292e-01
-3.439660297809030848e-02
-1.075479559937445734e-02
-2.153127480094118446e-02
3.726126111605582852e-02
4.624167898267064064e-02
-5.309353181719114051e-02
-1.116598847966108476e-01
-5.456812506846923927e-02
4.426363110971664322e-02
9.103022864586930718e-02
5.007698814596112102e-02
-1.372837465901248499e-02
-2.241272140425013687e-02
-8.183767356776429358e-04
1.354735185821506326e-04
-9.963239217634145550e-03
-1.130591761517367108e-02
-1.283099824347455099e-02
-2.163367075587371152e-02
-1.922010183925268803e-02
-2.544187695539376366e-03
5.815442148128696469e-03
2.672743756736865872e-02
8.432787156632398640e-02
1.342934223120275938e-01
1.139270198255475514e-01
-2.494795087197658814e-02
-1.781725482305819563e-01
-1.416475904001165964e-01
-7.880157297770312708e-02
-1.985810473054705205e-01
-1.506773728880937135e-01
1.583488720722084908e-01
2.097714907930895989e-01
2.476007965811488631e-03
-2.930031947416484456e-02
2.485524973234121138e-02
-5.813916537679636454e-02
-1.045991817861239709e-01
-1.833047368526633664e-03
6.818735696768604693e-02
1.214584773727805239e-02
-3.501562765743997108e-02
-6.998673720974145362e-03
8.566516203144716041e-03
2.331796614495592126e-02
9.590167343708273784e-02
9.357371322913056455e-02
-3.026381919497436734e-02
-5.528908762188068649e-02
3.296195667956239306e-02
2.643393948211289826e-02
-3.928155781783608524e-02
-4.724635533484201899e-02
-3.076787370654680137e-02
-8.495882893094004740e-03
-1.598145724594575434e-02
-4.837664972211815073e-02
4.114962111162142472e-02
1.894408953472291601e-01
1.568735285533410517e-01
2.028709490657853651e-02
-2.174968003461303159e-02
-1.577883114914504017e-02
-2.328898450385324254e-02
-1.312842327898448500e-02
-6.317385872791778101e-03
-1.551570365419402756e-02
-1.505032675105550007e-02
-1.714237047449678961e-02
-3.392037394444406134e-02
-4.241856668087599924e-02
-1.182752825731694761e-02
5.098386313236627498e-02
6.581881447283273456e-02
3.966161497624986348e-02
8.853576506234356325e-02
6.059952033007253575e-02
-2.162160383429768407e-01
-3.510085139555036426e-01
-1.248994683843090703e-01
6.202451023447116095e-03
-2.226519167964987472e-02
1.058931363470256154e-01
1.739964613443977237e-01
2.688999142844644002e-02
-3.317090155120396705e-02
9.103871302140947169e-03
-2.307349286604978150e-02
-2.587226340218326884e-02
6.100379705972116401e-02
9.021308745457494449e-02
3.007087124845060286e-02
-1.949092836051782851e-02
-3.791533635813522374e-02
-1.375238505534793002e-02
9.877454600221555192e-02
1.332170006742344481e-01
-7.047675044608969763e-02
-1.947332256730556210e-01
-2.213723218629316120e-02
7.353536627156245786e-02
-3.999894532784777079e-02
-5.611312158773818642e-02
1.527105417237368395e-02
5.516805907940767334e-03
1.362465711870388362e-02
8.253870423170289738e-02
6.096319274113717879e-02
-4.914414872022868086e-02
-6.745054128896887935e-02
1.826027343062938679e-02
5.089217252099929173e-02
3.025475615392979323e-03
-3.562457908412594576e-02
-3.189621142273468130e-02
-5.512122969901329765e-03
1.302202474968684048e-02
9.223972298098518513e-03
4.315430237289506060e-03
1.762570533348504012e-02
3.566278477929051005e-02
2.818676717780696506e-02
7.743565741135665856e-03
2.579782656678196798e-02
5.172450344471981459e-02
3.624928583718931702e-02
4.313122272385271072e-02
4.388309848376707040e-02
-6.589421239635970262e-02
-1.351597412592569492e-01
-5.373033914230622432e-02
-3.598973072092205572e-02
-9.072041152421683741e-02
-1.459655560237908128e-02
6.500839792571902476e-02
1.409696797771614260e-02
-1.048668663407851566e-02
-3.716750134519101155e-03
-3.941975669924271952e-02
1.889755881996246778e-02
1.298238861696650037e-01
5.245318835902479382e-02
-1.108163969813107941e-01
-1.095181802528640558e-01
-1.237404299223077847e-02
6.468783958827938052e-02
1.138628749077497809e-01
4.618826062848458563e-02
-7.467286595578474795e-02
-3.707056598123362884e-02
4.770449260347330717e-02
-2.357596041482504581e-02
-9.905517552790155111e-02
-5.027353033962776718e-02
8.070777581358802577e-05
1.897630107010233116e-02
4.321406685932336483e-02
2.167027125813699925e-02
-3.091140539720402952e-02
-3.520270039899209280e-02
1.397591841266437873e-02
8.106986754133081730e-02
1.104657481526146734e-01
4.672145658659832695e-02
-4.715164980028703490e-02
-5.979299752519849631e-02
-1.878567584273121288e-02
-6.028620655940703822e-03
-1.113427685286939688e-02
-1.426685519943048618e-02
-1.940152596054858444e-02
-6.625628961082765181e-03
-2.583035104348166845e-03
1.681390028415701704e-04
1.041328022407055076e-01
2.169081719768352345e-01
1.466439424477504472e-01
1.125714725220533508e-02
-4.859802010812682566e-02
-1.314845179930106689e-01
-1.844241173587730931e-01
-7.382324483157405581e-02
3.616369075231737340e-02
5.900160377920075222e-03
-3.362914138185285617e-02
-1.227498412295977351e-02
1.497461172481758494e-02
-9.469891539642144584e-03
-1.220204013961267014e-01
-1.836649301222093300e-01
-5.534324184845161587e-02
1.028269772749767635e-01
1.197687659316981068e-01
4.859974690889160009e-02
-1.247629701783912332e-02
2.874674728730559209e-03
9.312381691006353657e-02
1.257257646841503651e-01
-3.681444893301038038e-03
-1.524887537898696743e-01
-1.004879825349007244e-01
5.325783624955810619e-02
5.325418598814482540e-02
-3.851002138976285238e-02
-4.195069880819390570e-03
1.136924834967177750e-01
1.199825903710133590e-01
6.246006392787023520e-03
-5.846733944968814101e-02
-2.111303257337439343e-02
4.437941944454392232e-03
-2.224672047306352693e-02
-3.354912792870233529e-02
-2.239379558032934814e-02
-1.569866864003914217e-02
1.346829397823460193e-02
5.738985907343153309e-02
5.248999256446539030e-02
-1.194791296040341282e-03
-3.266801343744502734e-02
-1.435951662256431879e-02
-2.200458738586385382e-03
-2.693278106823432730e-02
-4.613942922422493986e-02
-4.407876408257054013e-02
1.083464689394878638e-02
1.562630529823894887e-01
2.101566704872095404e-01
2.037424202181482846e-02
-1.922267227460751904e-01
-2.620003235187924884e-01
-2.307341680973733489e-01
-3.442821504952927464e-02
1.994479491014678751e-01
2.010813267036911656e-01
9.232926450290590559e-02
5.211053226283830775e-02
1.179393906971386470e-02
-2.674332804135958266e-02
-3.386322537894403961e-02
-6.058538051974138999e-02
-6.964067885397712265e-02
4.498263211785789167e-04
7.467265839329549626e-02
4.920298507812215227e-02
-3.019886615133327706e-02
-2.868673573227055462e-02
4.051581049823947678e-02
1.530243163100665146e-02
-9.379008421094785219e-02
-1.137304079546716251e-01
-8.305134701059936619e-02
-1.219688890611538012e-01
-1.374827897458068549e-01
-7.636581608743972516e-02
-2.659778320998187548e-02
1.139918488067905022e-02
5.749494526691403817e-02
6.408407360904766481e-02
3.274282545516313259e-02
4.649767310474246969e-03
-1.911131449556253276e-04
3.106869392907869384e-02
7.985197734360025001e-02
1.078018873019904317e-01
1.227046918099822942e-01
1.422476449850600122e-01
1.510189682054817739e-01
1.647771532030140318e-01
1.976389970515400329e-01
1.754539628178806987e-01
7.056397657911912813e-02
-5.985744866165217115e-03
-1.244052429748689764e-02
-4.850019119766648540e-02
-1.097822706061589992e-01
-5.424945633134907463e-02
8.727326336680130137e-02
8.041008996658928487e-02
-1.508098418390849682e-01
-4.049812301267586290e-01
-4.078672355993684384e-01
-1.035606457969109884e-01
1.243377603268914222e-01
-2.334258962826139816e-02
-1.682651850368745150e-01
-3.540138932272909877e-02
2.471084601390342514e-02
-7.703947030798412310e-02
-7.726677487300337432e-02
-3.510045413617037674e-02
-6.960999245619023390e-02
-5.562490801742564495e-02
4.989488906617613184e-02
1.199821600579295822e-01
9.293181253799956409e-02
5.496042153185921875e-02
7.782461796700976264e-02
9.725981641155859170e-02
7.373933626191432611e-02
7.093978634084957546e-02
6.046012529065993707e-02
-2.946643714910119477e-02
-1.008379039810454736e-01
-5.680729135833878507e-02
1.357701982824234196e-02
4.882228574859039799e-02
1.028577064275118108e-01
1.388049620812722706e-01
7.668328390562648145e-02
-2.053565180612977950e-02
-5.079150834115842700e-02
-3.131173854056711753e-03
6.030956190771259717e-02
6.368648846456187451e-02
2.127074981520321595e-02
-3.920544467581910456e-03
-2.780117445024552977e-02
-6.497209100783590818e-02
-6.650766968826316017e-02
-3.189008382600400787e-02
-1.102800782272680968e-02
-1.241644066715694161e-02
-2.206750149823665658e-02
-3.899972413505932434e-02
-4.303574141541649523e-02
-8.459802191671549065e-03
4.730436207612533778e-02
9.492205166088138468e-02
1.077141152585630313e-01
9.164405773405930045e-03
-1.589513100879820784e-01
-1.119218108420711871e-01
1.218461342002008646e-01
5.104209834247587507e-02
-2.501670965037849914e-01
-1.918327796102622662e-01
7.272346212002528398e-02
5.603570305022131243e-02
-5.296377780593148482e-02
-1.501564684085196152e-02
-3.811765409611790612e-04
-3.484776077281656614e-02
1.498855110381669582e-02
9.705560374146499081e-02
9.782054652857170851e-02
2.994085871100566135e-02
-2.051946424174568365e-02
-1.191876619982519363e-02
2.858881369279724777e-02
9.636578035418819077e-02
1.686422285842664737e-01
1.113354327157363433e-01
-8.307914036114634471e-02
-1.778505889705755683e-01
-9.245290205643309778e-02
-1.657364156658661797e-02
-1.864929670113275179e-02
4.772108691662886853e-04
4.957849074088330893e-02
6.340899511683517620e-02
2.379452254683551288e-02
-3.381942458504845483e-02
-4.446280029511152920e-02
1.093978240029924026e-02
6.240215212616733592e-02
4.592435641901296967e-02
-1.388750676791459387e-02
-5.136790053099492964e-02
-4.549189342484849519e-02
-2.138497611884795230e-02
-5.489515258646280975e-04
7.785934954384005416e-05
-2.081255258278097084e-02
-2.245546133400732128e-02
9.118939927938806908e-03
2.990246644021124847e-02
3.531300079331323172e-02
6.077210266901467151e-02
8.278241405750275117e-02
6.302028870772846680e-02
2.442614169337196245e-02
-3.589432890425971884e-02
-1.161756256137326526e-01
-1.087381699707200833e-01
-3.415590153543413693e-02
-4.347446272426372382e-02
-5.599540339099914887e-02
2.045319350478449344e-02
4.414887973380843267e-02
1.606258707610153796e-03
-1.351954731766862212e-02
-4.434992017066268638e-02
-6.561175217960983630e-02
1.466171091567547435e-03
6.671091887015945243e-02
4.659307624257480462e-02
6.004458201964751191e-03
-9.397041163325903224e-03
-7.254090417942600164e-03
2.687871626601569947e-02
7.051433794101323593e-02
5.896538939050673112e-02
-2.780151102638681211e-03
-2.890767844736149422e-02
-3.636943478710023131e-04
2.713381677028836592e-03
-9.152329138480529841e-03
7.360822350716915083e-03
-3.144549431695616015e-02
-6.047610408159052875e-02
8.069073818578836876e-02
1.721890714077698725e-01
1.950388541583306795e-02
-6.620752530853681039e-02
2.948395056220917687e-02
-9.924625455194853452e-03
-1.493000837049751894e-01
-1.131601096555411856e-01
-6.489541731190998086e-03
-1.513423666939645723e-03
-1.006702273072283826e-02
2.073117239758058561e-02
2.699584041362274034e-02
1.167803672136478836e-02
1.788929578420415251e-02
3.156828259952439847e-02
2.894046089221646162e-02
3.715908684022021374e-02
7.700032357345577838e-02
1.026334795657138227e-01
7.513544845946221185e-02
1.842071199834256767e-02
-4.032358411131319043e-02
-5.744701766816916189e-02
-2.032953216103694505e-02
-6.540324981983003383e-02
-1.871563896952621875e-01
-1.204208826286956857e-01
7.650490801506783234e-02
6.932703662511831288e-02
-6.044021836008307835e-02
-6.512395957063026042e-02
-3.626416099302976620e-02
-4.338776636640843259e-02
4.780269465311959287e-02
1.508024694993065074e-01
5.116107495633826635e-02
-1.089872877213181185e-01
-9.591761570700171879e-02
1.259843371703245687e-02
1.044997474935559223e-01
1.067013311949201182e-01
-5.822085075714074354e-02
-1.603276238736536796e-01
-1.643711651716454891e-02
8.135621882303004093e-02
-5.820034299477364753e-03
-4.337659436426807846e-02
-1.332901689215650748e-03
2.011978205175925932e-03
1.176221091016493338e-02
4.765106213554840681e-02
2.820756100753513823e-02
-3.280652038123151037e-02
-4.101619889362417837e-02
4.211119612438639359e-02
1.624582287372681177e-01
1.745074980203261961e-01
3.492238338508941997e-02
-5.603682357531303282e-02
1.463347752374784261e-03
4.760567373102270183e-02
1.676397983803360955e-02
-1.443418283477584073e-02
-2.565317648468259590e-02
-1.848244617894918146e-03
1.409027288429528374e-02
-8.049931403133472885e-02
-1.509934678716881584e-01
-2.614104807750488105e-02
1.027498918387120819e-01
7.201023185721186493e-02
1.444270144982331278e-02
-3.474303534024501816e-02
-1.097069054576052527e-01
-9.459466622407403102e-02
-2.924031205868930089e-02
-6.627530061864317368e-02
-7.470551893039072133e-02
4.864191200787582742e-02
1.001320898664075920e-01
9.646861871061181148e-03
-6.196597910086366207e-02
-5.696453471432448568e-02
-2.120931691529810356e-02
2.076163115696168238e-02
6.127192288183311297e-02
8.061912897406159351e-02
2.739457418410542675e-02
-6.187790640531781045e-02
-2.667226774698438357e-02
8.960179117561835327e-02
3.609706332100062753e-02
-1.045678216848770492e-01
-3.496634706791880431e-02
1.055584063539388440e-01
3.335162175945080576e-02
-8.031163525310731910e-02
-2.093955248228241556e-02
5.992404427842262793e-02
4.443068850708940809e-02
1.728475445586967474e-02
-1.274920152184199837e-03
-3.102381271182818798e-02
-2.972268646229507538e-02
-1.778647884628909576e-03
5.157671042208442427e-03
6.361561094740576447e-03
3.512911597903080330e-02
5.005779390580825799e-02
5.004761125841734534e-03
-4.419135660837537199e-02
-1.806146826261353922e-02
4.151738413608020012e-02
2.736107899834934812e-02
-3.971431708485533701e-02
-4.468734314017577813e-02
1.403802862388347887e-02
4.467783183933982105e-02
2.876723009864712993e-02
3.782801573801131134e-02
8.727662715868440835e-02
7.698633523323228367e-02
-1.819309648062856360e-02
-1.179462474087749901e-01
-1.999992084360495692e-01
-1.842408200378709004e-01
-7.393969225245985294e-03
1.106000939091934393e-01
5.460403741752733325e-02
1.663961265201182455e-02
1.564682563266572499e-02
-2.241284948582175640e-02
3.316829844810618034e-03
6.136118074408730694e-02
4.639422229107589835e-02
5.830341237289182049e-02
8.441585255363250051e-02
-3.656038165424688180e-02
-1.588987501898503352e-01
-7.351380230679566141e-02
6.162661888687889084e-02
6.107779340607133456e-02
-1.910905356165808200e-02
-6.313365929704804758e-02
-4.361562652297623632e-02
-3.203057082073543921e-02
-3.402481090059650271e-02
7.455129311717265291e-03
3.093482964865451601e-02
1.257204814197245696e-02
4.195785705221784928e-02
9.162821396366874205e-02
7.172264439270073511e-02
4.981772225190128460e-03
-4.826571722304014850e-02
-5.961179153741614362e-02
-1.928341857379268706e-02
3.105857007517222670e-02
3.170245954207737138e-02
-9.651971062210962585e-04
-1.398608476499964282e-02
-1.448735944907363592e-02
-3.779116129345427844e-02
-6.385684909058561565e-02
-5.135723442639202746e-02
-2.476806523391632264e-02
-3.655233951027928030e-02
-7.913871035975078572e-02
-9.210624684015766839e-02
-3.557020595411405917e-02
6.829371209003956555e-02
1.647710324605658472e-01
1.809083837392623240e-01
5.458865945238388501e-02
-1.654934218791086209e-01
-2.822717586868770390e-01
-1.004910519355581844e-01
2.367743509436870675e-01
3.136231891309876341e-01
1.235765417929154397e-01
6.199190109561066031e-02
1.493123086750001993e-01
1.293853375374821590e-01
4.766775932319529396e-02
2.721371139775276976e-02
1.421000922757084672e-03
-3.807414207409084983e-02
-2.605097332030722329e-02
-3.891913422832446456e-03
-2.902431356080207095e-02
-6.541764428787355534e-02
-4.994393501166653759e-02
-2.688444484509805443e-02
-1.143896713949375671e-01
-2.099449748081786693e-01
-1.151249687915568837e-01
-1.439234198009611485e-02
-1.260055563803877121e-01
-2.049170147817576670e-01
-9.370560683796295975e-02
-1.769404790048154791e-02
-3.822754692565732276e-02
-2.365210138966530873e-02
1.149892839065952757e-02
1.244332765116763773e-02
3.381503492852908771e-03
1.632559227085489048e-02
5.607126677107863999e-02
8.316806114055766419e-02
8.575667336155093357e-02
1.143413065632611497e-01
1.397932689014939334e-01
9.387327077009638421e-02
3.934495053643466411e-02
4.094150069821591437e-02
5.139360079881107046e-02
5.232355470347073434e-02
5.934337660350277877e-02
4.328120434172609554e-02
-8.872070454491929464e-03
-4.947488519697362808e-02
-5.293507728671879159e-03
1.027493319110983766e-01
1.465869004888560867e-01
9.514304623516986470e-02
-3.712892958724352266e-02
-2.438333705592387324e-01
-2.714085953075368596e-01
-3.273057160024391010e-02
1.462321967241306947e-02
-1.952382073247742045e-01
-1.622133946555269768e-01
5.376642298849484969e-02
7.226704591913775400e-02
1.768158511797553178e-02
2.732216157410759932e-02
-1.049109043581851128e-02
-3.064165123529092108e-02
4.165433140380938454e-02
8.394747815086012199e-02
5.023207724277245489e-02
1.350251269099030094e-02
7.014166494021289652e-03
3.317670065527641987e-02
4.281462915777144163e-02
-3.232779595858883970e-02
-9.992988941356417687e-02
-4.291129879336597064e-02
3.143557856042539927e-02
1.781861587214618112e-02
2.144770276591354691e-03
1.907337075476251212e-02
6.236614056978893525e-03
1.314365336364667347e-02
9.175081186994758775e-02
8.961562943585352214e-02
-7.797145661427395957e-02
-1.367526621624093053e-01
6.122691576216245102e-02
1.604817197099790427e-01
6.418218861541091780e-05
-8.488508936900611423e-02
-1.342326862594715731e-03
1.531132889982042902e-02
-4.774980246500797054e-02
-5.893025059888568756e-02
-4.401022979982637667e-02
-6.234071932702181518e-02
-6.980158954566323404e-02
-5.452649106546295782e-02
-6.745173656053124467e-02
-3.972530324858934703e-02
1.136878252529564537e-01
2.259041878206713427e-01
1.435940767880699576e-01
4.659832609856302821e-02
4.188494240148534636e-02
-5.727418825825107002e-02
-1.767538563536638074e-01
-5.460882175572865510e-02
8.216282969409390013e-02
-5.446933106141811642e-03
-1.590688693655238975e-02
1.162984903725157310e-01
8.568757157253130419e-02
-3.611264520981982695e-02
-5.819565446135025605e-02
-6.880048753960624208e-02
-7.170966679275608824e-02
8.393973365585146243e-03
6.856310547611377260e-02
4.454271722465762834e-02
2.680608815271524198e-02
1.140114486903341315e-02
-7.600006848576060237e-02
-1.178322457586011562e-01
-2.236438241958609713e-03
6.921237954873192544e-02
-4.715105038204710219e-02
-1.171567480146396417e-01
-1.785147799224536327e-02
3.180385915460476332e-02
-1.021916016468682117e-02
5.548302748917941299e-03
2.794898954090424201e-02
2.239208278140345995e-02
5.181132425117013912e-02
-9.084712933430344299e-04
-1.542510635132087193e-01
-1.385399340505248933e-01
9.646945287236405320e-02
2.314416146775744032e-01
1.306841187822523342e-01
1.877550278373546488e-02
5.974954731337286939e-03
-2.164356652955022609e-02
-4.438905081026880278e-02
2.291809202789191896e-02
7.541918668891418875e-02
2.212870329373950798e-02
-2.782673430928215078e-02
1.938982579088625868e-02
5.295886432931579124e-02
-3.869169882890545475e-02
-1.057724225933520806e-01
-3.085300804458378926e-02
2.994131491396815128e-02
3.819113534654663966e-02
4.545865502741327363e-02
-4.120821038729188812e-02
-9.166523633051895659e-02
-1.528244518507732019e-02
-1.108442926593227879e-01
-2.500721650640065352e-01
-4.204772583255435986e-02
1.777083486074952090e-01
7.402106480186934623e-02
-4.360490921854880131e-02
-2.474299586551773761e-02
-4.018109865477560022e-03
2.862492460721650575e-02
7.141167725246889975e-02
6.350499439132643864e-02
3.931144585872391184e-02
2.986466398217562518e-02
1.627175386978427923e-02
4.060459961646548793e-02
1.280055486992634495e-01
1.157218112382587677e-01
-9.712983840807370983e-02
-2.332886073809518346e-01
-9.391492972191031741e-02
3.892488204582307543e-02
-1.471391588234189848e-02
-4.368107043400956679e-02
7.270518125558168149e-03
-1.122272480298113287e-02
-2.446917155282085643e-02
9.315124494477035333e-02
1.578627914932666243e-01
2.326591982029824549e-02
-8.684827061589189823e-02
-1.343304316501195417e-02
6.693938302670736362e-02
1.381943643660732066e-02
-7.670031719308186002e-02
-9.333696811785809067e-02
-6.768029323222476967e-02
-5.752641082197915839e-02
-5.483720397856513967e-02
-6.521500860903013674e-02
-6.931173013909926184e-02
4.288936545665375868e-03
1.056163984154222801e-01
1.352009043970842095e-01
1.331454104028414742e-01
1.355468831651407691e-01
1.269428460607335274e-01
1.449728469936781283e-01
1.239310770188717797e-01
-4.198527924721196652e-02
-1.736788909881121223e-01
-1.010147412432650105e-01
-4.944490124138273268e-02
-1.430840018371275502e-01
-1.215458370263668292e-01
3.405781829572970820e-02
3.846977415725402055e-02
-7.431374680253127751e-02
-7.878126184423510370e-02
-1.729818648718935148e-02
6.061822512596038229e-03
5.082194376194412028e-02
7.823947561632613179e-02
-5.552592167408722940e-02
-1.907280554930025074e-01
-5.099021045107575423e-02
1.994368574269304306e-01
2.229650900825300708e-01
3.614343412254263088e-02
-9.700486140575638461e-02
-2.681663383208378326e-02
1.024206349188220844e-01
1.002776674025761816e-01
6.167702361108053782e-03
-9.012715620392608429e-02
-1.295858572210562831e-01
-5.008690070467730626e-02
6.110596484142877260e-02
7.878087506862367639e-02
2.209129993127285571e-02
-2.234692925229011737e-02
1.776635343398434708e-02
7.380853452280512761e-02
-6.627295440713104960e-03
-1.229887725781995955e-01
-6.600942838742385188e-02
3.243034679453510316e-02
-5.133771691931578174e-02
-1.556923190897900877e-01
-5.703044191746860225e-02
8.354353482186471780e-02
6.816459819323658631e-02
4.863786838250328676e-03
3.079822685420550901e-03
3.822156994755321249e-03
1.420335743656196345e-02
8.724485202313507493e-02
1.290122582438193444e-01
8.604519020973738774e-02
6.868223561748723616e-02
4.045250394577484809e-02
-9.720946221873844051e-02
-1.630922031629189195e-01
-7.348883085054168374e-02
-3.250533807254724072e-02
-1.749568663483252323e-02
8.037468927707204502e-02
9.117953070137838067e-02
-2.800370915624935536e-02
-9.968469622667844310e-02
-9.313297855881325082e-02
-6.899376625646844174e-02
-2.687905674285327035e-02
4.472268888439664969e-02
9.769611959496823927e-02
4.663185023653139416e-02
-4.362847419238420621e-02
-1.084476090648006652e-02
6.870576260598770801e-02
1.355884149102852716e-02
-7.154054260153774880e-02
-9.799760865031901386e-03
9.376098672265421874e-02
6.713580347368923451e-02
-4.644789696365114046e-02
-9.602542166936434143e-02
-3.990470583897783030e-02
3.405241220466946606e-02
4.587074988368962380e-02
9.569753362628795335e-03
-5.866743233100669627e-03
1.135780854553879865e-02
3.460868027968132775e-03
-2.589754212622623689e-02
-2.467457318417125983e-02
-4.224074529219716198e-03
7.974466721947797918e-03
6.555557834577775862e-03
-9.173492413837721141e-03
1.029002100034787526e-04
4.883766146543650627e-02
6.659170144682305392e-02
2.558562428313724407e-02
-1.297182531867558698e-02
-2.577493567318523554e-02
-4.073614585268604121e-02
-5.051861160586998412e-02
-1.951460359426022972e-02
7.604772988750999052e-02
1.837637281778782827e-01
1.589685011682769877e-01
-1.977266134168861877e-03
-1.122131420191154888e-01
-1.318075331672392547e-01
-1.147300601890442473e-01
-3.177705849416970207e-03
8.941123930256567043e-02
1.211024585807657372e-03
-8.158925403997083214e-02
-2.157743825204209639e-02
2.153202192008431270e-02
-1.490124620894221069e-02
-6.067989225255134705e-02
-6.948895266745884480e-02
-5.379340986164287200e-03
6.978713047470828934e-02
5.868475563855368726e-02
5.816165350180091398e-03
-1.611505173505914726e-02
-2.820778842425235300e-02
-4.224701073291134423e-02
-2.051653885736142921e-02
3.265924787601819090e-02
3.498333521661477208e-02
-3.479004404330081346e-02
-4.480659698514674605e-02
3.411088443511819945e-02
2.450656101477436538e-02
-7.406694543139288878e-02
-5.417366443682405941e-02
6.473988424373815220e-02
8.413972206879818949e-02
1.923066888626506765e-03
-3.690512551249786749e-02
-4.071345718785019871e-03
4.925352469824288877e-03
-3.712310230489883345e-02
-4.669063734973059182e-02
-8.469656974382270068e-03
3.574934536541360917e-03
-1.289582887148593184e-02
-1.205693322060898826e-02
-2.835559232148201353e-03
-3.526466221667618958e-03
-1.614860976272523840e-04
1.515437191331468758e-02
2.302019282194015665e-02
1.839634313929068912e-02
4.557089587689266974e-02
1.130132763164718168e-01
1.583517869465899119e-01
1.543853131844594162e-01
1.122247273040468674e-01
3.191377512943389949e-02
-5.671246129460767726e-02
-4.710165598720354729e-02
1.151753347219437590e-01
2.193964910132633617e-01
9.207672845332698364e-02
-4.636231041624458427e-02
-3.301510204419140504e-02
-2.090986471759313098e-02
-7.250641228985450770e-02
-1.209899237151813856e-01
-1.574352029877386649e-01
-1.637558040816458615e-01
-1.297119602613844291e-01
-1.026685848814045260e-01
-1.148933917090127071e-01
-1.385214554188684277e-01
-1.128752614747836058e-01
-7.163670826186044338e-02
-1.115619782630438289e-01
-1.297582984772495118e-01
-5.884744638588856186e-03
5.176132180637049718e-02
-6.125605222333692368e-02
-6.978137797041597534e-02
7.247181620637271893e-02
1.147022688835154236e-01
7.243932872750796781e-02
9.458630763118205942e-02
1.208820433167721448e-01
8.830730595687417972e-02
5.866930768795877715e-02
6.553894048763748981e-02
9.208998415512005542e-02
1.273937221902287364e-01
1.547220869331501492e-01
1.417011721345301234e-01
7.094135977340684796e-02
-7.737588621295157787e-03
-2.485202603635428692e-02
-1.536963327697807302e-02
-3.348244119184638767e-02
-2.589741444525752584e-02
6.571176122704181638e-03
-2.584909966794077946e-02
-8.006681301382712057e-02
-6.174725628207750755e-02
-6.921717503119664827e-03
5.080728414569378459e-02
1.046931330460079135e-01
8.611425928792251772e-02
-1.930488624963136099e-02
-1.490435306094059220e-01
-1.876255755243100010e-01
-7.175100874018901231e-02
-3.936548275789839013e-02
-1.835193103209701582e-01
-1.370852597251555616e-01
8.994001224471451228e-02
1.029982348826720268e-01
-1.719246487504162701e-03
5.674347402959236883e-03
-3.292763879331478058e-03
-5.496522649506502267e-02
-1.483172409467010781e-02
6.607252719564586652e-02
7.553887109818682721e-02
3.813162296405139817e-02
-9.589308461446103063e-04
-3.500475731148029040e-02
-1.155250634693665186e-02
4.987303576351202750e-02
1.416806141508859980e-02
-7.131572945719066858e-02
-4.231781110831529802e-02
3.222451464260740750e-02
3.945141323150028190e-02
2.374022332086762541e-02
-9.540834210946197783e-03
-4.164697096725340775e-02
2.663315536228895442e-02
1.218180926254714275e-01
7.622997607002612863e-02
-3.762781005259697303e-02
-4.412974177073496207e-02
3.389370041196025640e-02
8.124395149391774873e-02
6.634737888395465799e-02
7.452363807943921011e-03
-5.003856469462726608e-02
-5.668100572336063486e-02
-1.825365575481558561e-02
2.328774475999108307e-02
2.049591505253315141e-02
-3.620316157863882195e-02
-7.076749550973181202e-02
-3.416183275714095025e-02
4.171288144333546409e-04
-2.867557963356889492e-02
-6.064528703344614080e-02
-7.954067734889394559e-03
9.510029127198835197e-02
1.345279238036495573e-01
7.582831360960590183e-02
-4.968011091168039045e-02
-1.545661626295062319e-01
-1.255050275925885250e-01
-4.682281496052036890e-02
-3.315953737842115834e-02
2.644165563976735162e-02
1.161951751066352678e-01
7.342076177382991786e-02
-4.323003722144582589e-03
-1.250213666431417014e-03
-3.377901869495514992e-02
-9.461797971651503270e-02
-3.270865529998893961e-02
8.569843203684615607e-02
8.080933347563397373e-02
-1.457981254667702758e-02
-4.878787694741684722e-02
-1.015525768681835653e-02
5.031719745613777439e-02
1.516907095609938139e-01
1.724731753259278744e-01
-4.719530938947761461e-02
-2.362219195861124110e-01
-1.022826386621582540e-01
7.658786776187108403e-02
1.007222266325272231e-02
-1.488449599297560766e-01
-1.418185556713288664e-01
6.662202705967798511e-02
2.104062993512748614e-01
1.172570226810892985e-01
-2.058830402315219021e-02
-5.286256717700237029e-02
6.382730485572795168e-03
9.521427142531518895e-02
4.731408924424894413e-02
-1.073323848708595679e-01
-1.198127209040955321e-01
-1.418503074006651626e-02
1.718665768268442390e-02
-2.009107153386108582e-02
-3.990211021860162743e-02
-2.537753977229889255e-02
-2.536561237719744174e-03
4.868114198575357321e-03
9.586740993376740086e-04
-8.924001768609149399e-03
-2.251975085741227817e-02
-1.722703830747663797e-02
5.572464933505699020e-02
1.863284284471496965e-01
2.085514904116279877e-01
3.479597429688778554e-02
-1.092906291840320676e-01
-5.202415937682422498e-02
-2.211396959455470823e-03
-1.051391814378929424e-01
-1.259936461952238240e-01
2.255025453035835667e-02
8.380408062261002211e-02
1.498718520485116737e-02
-1.784434296702902545e-02
-4.396003368422920360e-02
-6.667416724369121250e-02
3.028999237485901011e-02
1.021199510497750040e-01
-2.637796736770093090e-02
-1.440735036159618010e-01
-8.182104437166343169e-02
2.596471369592129319e-02
1.074360996000752744e-01
1.134107909113886148e-01
-6.432052161780481975e-03
-4.773137792097748716e-02
7.264045290482994133e-02
1.042398829869167626e-01
-2.608175218581676100e-02
-1.552103138462964937e-01
-1.752457943855665889e-01
-6.819093392670334819e-02
6.143538379816508577e-02
8.662369498219150976e-02
3.516945387191548755e-02
-5.942098422766203814e-03
-1.591897171991265431e-02
6.706643808424643180e-03
5.826979477239613292e-02
7.348478668634239597e-02
1.072697595237275328e-02
-2.598980753917175951e-02
4.109857439587780159e-02
6.578731186632670591e-02
-5.736297365754071398e-02
-1.364918611986134789e-01
-3.361973398046092659e-02
8.329588489612414770e-02
7.392758296335986967e-02
3.486328332717846673e-04
-1.352568322287374045e-02
8.759153259438719197e-02
1.461411073264940463e-01
2.386476455845229494e-02
-6.443381537002568216e-02
-6.057971096167156372e-03
-4.944546787023289952e-02
-1.421203982046003456e-01
-2.963621485086610427e-02
4.048773757177898808e-02
-1.187643245565674910e-01
-1.202814347345951551e-01
1.140550329983476829e-01
1.475996989466238363e-01
-6.878430458258112667e-02
-1.865546599405820682e-01
-1.146369585133332758e-01
-1.054357799272409406e-02
4.883324625135915253e-02
7.108644945675235416e-02
5.383951491347977597e-02
6.972887991180303294e-03
-1.210931346559997353e-02
6.950216687217140865e-02
1.531838708068559707e-01
1.958065056509952426e-02
-1.736944421306548247e-01
-7.500648211667834686e-02
1.115878705429702855e-01
4.331887381463602610e-02
-6.328316208989086256e-02
1.059102339372244850e-04
5.802038211220352654e-02
2.765377329702477238e-02
-9.395070676527285738e-03
-3.196108510405862996e-02
-3.784482743328039522e-02
-1.961306906201495601e-02
-5.159988916330431573e-03
-3.644356589570844039e-04
2.169374127324366283e-02
2.210026864091060861e-02
-1.364570201412191458e-02
2.324229389431047357e-02
9.844531591518168590e-02
5.469626870604595015e-02
-2.343137951632869725e-02
-1.745995892799244442e-04
3.414677873126572422e-02
7.481670458545161204e-03
-2.396210663946476277e-02
-3.749708638693734220e-02
-2.961900542896083594e-02
3.396361785005336947e-02
9.712519965756304108e-02
6.613843260181294370e-02
8.051091671362113275e-03
-3.195002945657697546e-02
-1.259310359980725103e-01
-1.682506009637634303e-01
-9.401308372549309345e-02
-9.382123409682896487e-02
-1.175383146858202943e-01
7.553357759022316480e-03
1.166263302206104746e-01
1.181864322299574499e-01
1.120620396917609701e-01
3.675865489919962620e-02
-9.579579708904585600e-02
-1.098462041049197285e-01
-1.087674379264962077e-02
5.056163487983058452e-02
2.688841178765014051e-02
-2.185750283034957470e-02
-1.816936653912152796e-02
7.788076192704231071e-02
1.682908581721341279e-01
9.371334046927624895e-02
-6.055089304784304349e-02
-7.253967504457685400e-02
2.189686095326427023e-03
-2.346895287685072870e-02
-7.911590347385644151e-02
-1.360956831877007528e-02
7.838017597804949887e-02
5.543278791311334608e-02
-1.494049559928625065e-02
-4.456282615120622098e-02
-4.699584604130969262e-02
-2.006699028764577508e-02
1.764118768264342357e-02
1.423400028068059348e-02
-2.896024169373987572e-03
1.083040020825489468e-02
2.713124982262525575e-02
1.187504260625277946e-02
-1.868897014869753959e-02
-2.369484268393600226e-02
-1.057220300354565212e-03
1.393912701433694216e-02
2.014434053586545981e-02
2.742470961127779078e-02
1.395607434668199968e-02
-2.364143648832556233e-02
-4.280176622183680391e-02
1.528436894261546442e-02
1.233305163806459187e-01
1.439522159311627247e-01
4.994326501470963686e-02
-6.341414940436555792e-02
-1.913745652199393965e-01
-2.697523136106342867e-01
-1.611328173779319195e-01
8.613617161461693469e-03
7.350772428515736645e-02
1.013622363489150857e-01
9.855738187295626229e-02
3.058642776469422744e-02
-7.154529285615920421e-03
4.221085120435915869e-03
5.215944640448902381e-03
8.933091891472538792e-03
2.682977759261659725e-02
2.643685289447370024e-02
4.513651092635764112e-03
-7.199511759141034341e-03
2.549326538916242557e-03
1.858975506712482254e-02
2.739943829929726918e-02
2.280682142281989511e-02
-6.608023557660516918e-03
-4.934803054361519559e-02
-3.411507925308866068e-02
2.693996993021618644e-02
4.771336907986327772e-03
-5.913516981309151210e-02
-1.310645689371640020e-02
7.728745549901779033e-02
7.280534021165843694e-02
3.525780561154363488e-03
-3.391848006260111958e-02
-1.821889091204114547e-02
2.640611995402336251e-03
3.088828269862135736e-04
-1.087226970414725130e-02
-3.139267402468189777e-02
-5.301801154163557350e-02
-3.829759846087116282e-02
-1.558905133060758778e-03
-3.672868616424167926e-03
-4.511774523216436489e-02
-6.510355757079996919e-02
-4.528938206186864518e-02
-2.947328603611256218e-02
-3.137442550620438836e-02
-2.388552375327170074e-02
2.350472681107496943e-04
6.460252262625564013e-02
1.594736319339445652e-01
1.422816138078219772e-01
-3.507423439868705139e-02
-1.988495575076242305e-01
-2.292134596626717868e-01
-1.059729074711654312e-01
1.097391180595968935e-01
1.799206094642775422e-01
7.298656159861191539e-02
6.217280351970157215e-02
1.534216347354514509e-01
1.562513128125626316e-01
1.165454268699699647e-01
1.171202934245326593e-01
1.161386602621567454e-01
1.091098824357509406e-01
9.922375047565749895e-02
4.538917146867648550e-02
-2.776224332295980368e-02
-2.263270877891725152e-02
5.586230438126298103e-02
1.102627124727396934e-02
-2.202176640340350877e-01
-3.232326055628310657e-01
-1.601321054773324204e-01
-7.098171763024463399e-02
-1.655987899751841519e-01
-1.830344617990929401e-01
-1.193267944412925996e-01
-1.076749685031342801e-01
-8.177674972083683047e-02
-3.850726223531777959e-02
-5.722672895653060920e-02
-6.823529151452852048e-02
-7.802560798729880898e-03
5.123354466099826893e-02
6.384461714367463403e-02
7.313286853445583047e-02
9.863258555190657084e-02
1.086021867097246296e-01
9.806478077299289609e-02
8.790685490824866333e-02
8.360946772465935317e-02
9.757209900687892346e-02
1.158740834006923570e-01
8.903033580707724048e-02
3.988192816819917386e-02
2.651182037996039839e-02
2.106057765456546479e-02
1.037652099669676697e-02
5.725986860988141469e-02
1.151896607899659253e-01
7.946081221064135724e-02
9.523566880953042088e-03
-7.937268034814499995e-02
-2.321270120662263237e-01
-2.062433779029236858e-01
2.910831788430327804e-02
1.200028075504964119e-02
-1.950501530420020724e-01
-1.010314411768716281e-01
9.641011564596586869e-02
4.526461543739770249e-02
-3.837907418855687758e-02
-2.795114932357645188e-02
-5.140429576088557939e-02
-4.819166636642219920e-02
3.709862445629812794e-02
7.680106205494408034e-02
2.768620903265383779e-02
-2.496926538951574001e-02
-3.005438378219623535e-02
1.804515062525603036e-02
7.565811865946581172e-02
6.900849782400629573e-02
1.991285172104062876e-02
1.333669588966451131e-03
1.254411011401726332e-02
3.362400401628132252e-02
6.457010562492518368e-02
8.153129842583857478e-02
3.500027861651800604e-02
-7.274599290830868759e-02
-1.215100969497663191e-01
-6.075321587436304654e-02
-3.366435569071841299e-02
-8.170568170868396096e-02
-6.074030379373666216e-02
4.299938860075100400e-02
9.163991845210343878e-02
4.008092710787108937e-02
-3.140036151328390313e-02
-4.910501807291018511e-02
-2.786204857914443070e-02
-1.585536589486038345e-02
-4.482048191957433217e-03
8.166486246380803490e-03
-1.460620262985412240e-02
-2.602570426963115788e-02
1.481736488686371395e-02
9.804151549760015821e-03
-1.114557605479677381e-02
1.215346683001091027e-01
2.662628295982529258e-01
1.882462725455317787e-01
4.139256070836766499e-02
-3.758408428874359525e-02
-1.302827687550974223e-01
-1.378696203257858133e-01
-6.171503879691928041e-02
-1.177200859625154167e-01
-1.393213913805576021e-01
4.481288857413008586e-02
1.038370203807471165e-01
-4.024390380334146727e-02
-7.880007848732753506e-02
-2.860709533177126576e-02
-2.770940505060699027e-02
1.313189753676654442e-02
8.659955021145965270e-02
7.935262082818139717e-02
3.465942275437826348e-02
3.371463321641030540e-03
-4.482348283162169295e-02
-1.233553989503914650e-02
1.200221829869946993e-01
5.265308827536428760e-02
-2.257787240424272146e-01
-2.368041271089426081e-01
3.664971639526343888e-02
1.001781163971711131e-01
-4.000078410552312946e-02
-3.768628895873057938e-02
4.498147921987542819e-02
4.119539808989569618e-02
3.472603362129800253e-02
6.147168416443078709e-02
5.159195976867143874e-02
2.140141426276185102e-02
2.533201510375558685e-02
6.830381437780787268e-02
1.037599613578521068e-01
6.187551221276971908e-02
-3.847597298247412700e-02
-7.921768465971751327e-02
-3.152563618968960008e-02
8.382278172096954694e-03
4.171413151506990448e-04
-1.050560005208734868e-02
-2.177447931265442255e-04
1.390512726940575962e-02
-8.071836562937383108e-03
-4.138024808305815899e-02
1.508086872678444240e-02
9.012781109455078599e-02
9.710812495154999557e-03
-9.175076843384434577e-02
-2.807720531127928104e-02
7.760060743939074454e-03
-9.308467732815808859e-02
-1.099153718524157053e-01
-5.030541496200233165e-02
-7.000237626166902483e-02
-3.725268224177825938e-02
7.663552502243078934e-02
6.863495135613076337e-02
-1.216396016643085665e-02
-2.593881270166002728e-02
-3.529099107508382877e-02
-5.431356633509184378e-02
-1.762972650130418401e-02
5.229781380978550109e-02
8.301728732345409201e-02
1.920804940878928502e-02
-5.014596347555828199e-02
5.152376862592213808e-02
2.102568663290493578e-01
1.483305407070822368e-01
-4.199432314214611439e-02
-8.395826297710357045e-02
-7.922438561408770563e-03
1.773319830563772209e-02
-6.617673361065284574e-03
-1.568373204051533645e-02
-1.393419177684814339e-02
-2.276239836616766876e-02
-1.803529068907480659e-02
1.604081883719739310e-02
2.729960442690080452e-02
-1.809762767699948580e-02
-6.030710935194231320e-02
-4.009255572377470878e-02
1.814996070907708495e-02
5.718959547275646871e-02
3.936724464777111021e-02
-2.780551842614433292e-02
-7.190146210109080172e-02
-5.006185149536488549e-02
-2.169401483051361379e-02
-1.920913629037853190e-02
8.061656256530921882e-03
5.206774466763730569e-02
4.369381549784749630e-02
1.721149526547951017e-03
6.311097715161217460e-03
5.989391606480400088e-02
8.694845024640233955e-02
5.686845411945506967e-02
3.322454911411759637e-02
4.605605102864370262e-03
-1.033068608364395985e-01
-1.423998736968271617e-01
-2.522322801422948249e-02
-2.283279101068482267e-02
-1.349055211867178916e-01
-4.480640028900066685e-02
1.109473956179367060e-01
5.702602728508728708e-02
-4.578709364383899000e-02
-4.697276196019231631e-02
-3.616018224786035629e-02
-3.782067181223894292e-02
1.036995640663048932e-02
8.389460586772984341e-02
5.643520405180119104e-02
-5.238211974246863994e-02
-1.728812537747595468e-02
1.658812454223387856e-01
1.936794581988807717e-01
-1.619591428348646917e-02
-1.534012421797953940e-01
-4.706782596976625405e-02
5.148094720404654268e-02
-1.315927564823256464e-02
-4.202923478504418109e-02
3.108995695148011537e-02
4.977844721335422662e-02
6.254943682520582374e-03
-1.220264269786906254e-02
-1.077325388104493839e-02
-1.768384908876816791e-02
-3.307838662611543856e-02
-3.379456403980098805e-02
3.169009715030019977e-03
4.486344226317898198e-02
3.584565572824363611e-02
-1.902318518052475288e-02
-5.340653753880234694e-02
-2.915722703184956896e-02
8.387781236008685221e-03
1.150225940615981837e-02
-5.756454457567890953e-03
-1.778218217848306568e-02
-2.070807176698092472e-02
-1.981621207925260419e-02
-1.794230590141738038e-02
-1.480116639134266415e-02
-7.082444101079382950e-04
6.763065708267951281e-02
1.914638978527195834e-01
2.315728756182491299e-01
7.099754802113172891e-02
-1.612148017203646477e-01
-2.265824273756613660e-01
-1.263776993808325977e-01
-8.902741108125768188e-02
-1.320405600865115769e-01
-2.696358626641327458e-02
1.853205460946960870e-01
2.085792374355342205e-01
3.623852590561400799e-02
-8.401157879157038211e-02
-7.198895639682126313e-02
3.463677123996878812e-03
8.859082392877118406e-02
1.130875946589141312e-01
3.018896321498601085e-02
-8.079291265941665467e-02
-6.058204998651803286e-02
7.118053594538076290e-02
4.033441659758321696e-02
-1.722314104791788925e-01
-1.958105197538082265e-01
5.333902430466615219e-03
8.169448170533932796e-02
-3.282063754025670022e-03
-4.135294167013699868e-02
-7.207246512477881797e-04
4.766597870711589829e-02
5.014972364274367794e-02
-1.529005755851894910e-03
-3.509678120214099889e-02
-7.514958252338974770e-03
2.767376214785343194e-02
3.006003683266896681e-02
3.065091080063330614e-02
3.746268402317314006e-02
2.549075247134550276e-03
-3.839343448626863359e-02
4.931123867671730401e-03
5.702174898332089403e-02
3.549150034454862622e-03
-6.033645702412653022e-02
-2.783255501154871525e-02
2.610642986491943165e-02
2.700244499696271769e-02
1.005947438344285613e-02
1.194827403476968284e-03
-3.414760957726502028e-03
5.800302299288562224e-02
1.817682019544679672e-01
1.771200750155854931e-01
1.214010313523112422e-02
-1.000717338825118652e-01
-1.385091348780793097e-01
-1.460307434775493796e-01
-2.439562247458808633e-02
7.068532311857209094e-02
-2.376860605946573557e-02
-7.767326830901913337e-02
-1.317113384725241212e-02
-1.537547220920871573e-02
-5.792805100433291027e-02
-4.222537706826631071e-02
-7.206819728156770716e-03
9.035229851592859254e-03
1.481149681354552300e-02
3.511683962985887725e-02
5.065355091731042758e-02
6.671279133129242450e-03
-4.722362161437618222e-02
-2.961043997260481495e-02
1.886881965886535659e-02
3.625453996614683844e-02
4.228237557787001624e-03
-6.027926722018014938e-02
-5.605106842125959221e-02
1.745444851428135102e-02
3.547178493058282360e-03
-6.083939633633223681e-02
-2.199662362644771302e-02
3.343205080377043004e-02
2.723332316047932800e-02
6.094519536456976389e-02
7.819337390059866166e-02
-8.985112462483907034e-03
-5.176965442698831799e-02
-1.313747806209568728e-02
-1.707548445377386065e-02
-2.069730802967760519e-02
1.175121173896047019e-02
-7.266429840242076901e-03
-4.356386583781503286e-02
-1.106996962253346643e-02
4.161173054215498712e-02
3.519109986438585802e-02
-1.082093699758661723e-02
-1.872687942501416458e-02
2.392228804212971627e-02
4.686580659945061011e-02
5.269836027305929704e-02
1.399157107449577331e-01
2.349777713538933610e-01
1.274921970183652831e-01
-8.771416610345625364e-02
-1.529309886569105437e-01
-9.229780408726892538e-02
1.646398345717596870e-02
1.584283582486164521e-01
1.774057496716968108e-01
6.184123419857720516e-02
6.988034514320131362e-03
1.192218015872476000e-02
-3.399531224347965980e-02
-1.019660044449286207e-01
-1.371336138926362858e-01
-1.257331196528682082e-01
-7.414730044359177374e-02
-3.752329590831259692e-02
-6.030713181721078509e-02
-1.003725550858436677e-01
-8.160011063424904565e-02
-5.039457661020338430e-02
-1.346958158599177169e-01
-2.385761370595996800e-01
-1.531995212985662880e-01
1.940064134955025998e-02
6.674445843694784553e-02
3.715441313278246976e-02
4.477548144910310085e-02
8.367829304278133484e-02
8.900839248837086326e-02
1.531451627237035221e-02
-3.623692216350347245e-02
2.465856373503544710e-02
7.072250846671779279e-02
5.146098296238834496e-02
9.033783378093310223e-02
1.624920246076922425e-01
1.483426329288882739e-01
6.907726063998306798e-02
1.610262909726772537e-02
2.258147771113461558e-02
4.478864954573223006e-02
2.674277607723609188e-02
-1.341745043199273763e-02
-2.118509649534363118e-02
2.903836013910362363e-03
1.259804013781835527e-02
-1.152328341163767755e-02
-3.572027896761947874e-02
-2.027183424466883280e-02
3.138069788732218701e-02
5.595628586381019148e-02
1.368755550620468636e-02
-1.578495846715171139e-02
-3.165966310189651661e-02
-1.475692087247377215e-01
-2.052459772452940312e-01
-5.358317155556234501e-02
6.891943478032204300e-04
-1.138927783393116622e-01
-4.530236803171928950e-02
1.174395847556245209e-01
8.577777976626513312e-02
-8.458545582779475325e-03
-4.044951778282576682e-02
-5.374809075742481568e-02
-8.620681798779778263e-03
5.714811793325885736e-02
4.535496361189561565e-02
2.774364851226096204e-03
-1.713768705004067514e-02
-2.904916043762685932e-02
1.111690992703156904e-03
7.435611746396765531e-02
8.006602893073447302e-02
-1.170036600471587029e-02
-6.787482810751635509e-02
-2.989486800586402260e-02
1.483649840738309605e-02
2.468540993126841845e-02
1.535050540720260884e-02
-6.701368445241697759e-03
-5.845543657465398883e-03
3.417163123048909401e-02
5.795148816849520629e-02
1.662350945922827505e-02
-5.585147559999676520e-02
-6.657426296004073651e-02
1.419843487625695004e-02
8.011857963719885845e-02
4.285325910651931886e-02
-1.716737006184041250e-02
-1.228177032193614529e-02
1.953406606220729411e-03
-1.483220221135630318e-02
-1.339080469976088039e-02
6.511243581883863034e-03
4.542046944299515422e-03
-9.134496688346625121e-03
-1.369380476640406907e-02
-1.454776971138944594e-02
2.090903062987073098e-04
5.559003001526249821e-02
1.005579634452312271e-01
6.846128383809590989e-02
3.262343950390726721e-02
2.924829066513135595e-02
-4.818020735879371963e-02
-1.201583460887946653e-01
-5.917793659621153890e-02
-5.529157245100487644e-02
-1.470790167993830388e-01
-6.969280103897713963e-02
7.932684422507875477e-02
4.037916398111598970e-02
-4.335198865202247176e-02
-3.224842498891785508e-02
-2.641195383842934868e-02
-1.705989530923818220e-02
4.597212011527847253e-02
9.505234614354328426e-02
1.027782792160204378e-01
5.015318417143263541e-02
-8.610329083803584804e-02
-1.420459457489860189e-01
-1.603629311184746886e-02
9.097716200366588735e-02
7.141421825365981690e-02
2.892188011928577968e-02
-1.015627323932072855e-03
-1.983302224851765314e-02
-2.133072740659888722e-02
-2.058136562337747194e-02
-2.549879424896837887e-03
7.704738441328740951e-03
-1.972982839559872872e-02
-1.101874383686600629e-02
4.826640246729101136e-02
3.917004982391520534e-02
-4.439336887963145351e-02
-4.792228155556003955e-02
4.674176975612797519e-02
7.411709507667513241e-02
1.874485567734816144e-03
-3.483772067100637804e-02
-1.353558744170023885e-02
-1.374348574327967192e-02
-1.522015845655532232e-02
2.599268153006591836e-02
4.331068326713052169e-02
6.229961351502024541e-04
-1.591369400500732348e-02
1.960236468159834086e-02
5.001145353730126336e-02
8.645932709671473593e-02
8.820616805680552008e-02
-1.614365684191981093e-02
-6.698700005009905478e-02
6.259811320353071001e-03
-3.215171221069822866e-02
-1.447720457882932521e-01
-9.006511028486645365e-02
-9.710606800236932373e-03
-2.267065193280830282e-02
3.059031486258347726e-02
5.114465329768452806e-02
-7.437968367973860073e-02
-1.096111140497253861e-01
-1.676955773195552141e-02
4.535102302313930023e-03
-5.766449823991093987e-03
6.047420232410803675e-02
1.313458862639350633e-01
9.331072287808372945e-02
-6.319572722688888977e-02
-1.749750528685852236e-01
-5.275598705942921574e-02
1.868347885096442174e-01
1.683271778048789080e-01
-1.103353967882671482e-01
-1.389538795450715458e-01
1.119217680267256820e-01
7.564146721953408925e-02
-1.699202979083246079e-01
-1.191230741362006851e-01
6.307475555732679207e-02
6.650133178327535810e-02
4.193774466733221629e-02
7.312087215987189692e-02
4.201101004678757522e-02
-3.799041886668569346e-02
-6.612021320857236484e-02
-7.012400702503661376e-03
8.556351494729010077e-02
1.073801575177938256e-01
3.915499332306050795e-02
-2.428986419334010563e-02
-2.912192290656230587e-02
-9.441901383953330007e-03
8.753914454331008371e-03
2.344065864417678099e-02
1.292989121861884937e-02
-8.718122741442487292e-03
1.925725621101781124e-02
2.630543853317524744e-02
-9.263998916846596932e-02
-1.561915472767977653e-01
-1.060105424251879189e-02
1.145708577572929904e-01
6.775130993630351650e-02
-2.767758836906689807e-02
-1.013034680114321406e-01
-1.000504550963932093e-01
-2.399567017378791134e-02
-4.831873965765172418e-02
-1.341941172463222420e-01
-5.026529166331640541e-02
8.981843544167257554e-02
7.659449564881581907e-02
2.262459934789045821e-02
1.519725006469517872e-02
-2.131205327118110976e-02
-3.823854785700335490e-02
3.851374556058569792e-02
1.063706704854003315e-01
7.531164478549146057e-02
3.859332597356107328e-03
-3.594778638912894675e-02
7.149403681341056846e-03
9.492973308535891663e-02
4.498737383253735567e-02
-1.043216349933164949e-01
-7.852941338762950418e-02
6.711857022245840132e-02
7.100097910203596874e-02
-1.098651629598051613e-02
-9.580139280341976732e-03
4.146465644629584307e-02
5.511220573602110262e-02
3.045871970625011957e-02
6.586420234789614782e-03
-1.298732674472061720e-02
-3.708475618727367917e-02
-2.261185797594881738e-02
2.697937142383681486e-02
2.303384756796365146e-02
-1.669809261039057260e-02
1.095115789292986502e-02
3.111044659989842948e-02
-8.326275706335459215e-02
-1.977421007382582363e-01
-1.528460790610151609e-01
-4.487291352885919293e-02
1.603662352758706416e-02
3.667651677958583267e-02
2.440457175951076668e-02
2.249759825361040411e-03
-8.861744495883273204e-03
-7.584248392523190198e-03
4.568256786760332977e-02
1.293354324382705589e-01
1.474140051059029122e-01
1.027349933408019944e-01
1.664539050340921311e-02
-1.203012565752849539e-01
-1.574116620247755782e-01
-1.840104245098902330e-02
7.630253277501838904e-02
4.816586466568318486e-02
3.798758325415736020e-02
2.195119364415798816e-02
-4.249679378959705933e-02
-6.919562919119477684e-02
-5.721765919371636644e-02
-3.239272835667457440e-02
1.948501605102035197e-02
3.726207461793443199e-02
5.259017174741139472e-03
6.801872610099251107e-03
3.460244859342112567e-02
2.915570298830253565e-02
1.128544804494267632e-02
-1.011523881232984784e-02
-6.041376795246101300e-02
-9.045928961050289652e-02
-3.508124824411781167e-02
4.575543421001074251e-02
3.239731982874638483e-02
-4.334076695316459171e-02
-3.044625244512395856e-02
6.947768389201612604e-02
1.070775459854412387e-01
3.534741215461462138e-02
-5.604354648162155478e-02
-6.480486276886479602e-02
9.669913699363832937e-03
4.031424195527518600e-02
-1.474723631672282716e-02
-3.048154204684915339e-02
1.268144269975117998e-02
1.181658861243664246e-02
-9.367804679743626378e-03
1.530147672074057622e-02
3.527496137378303975e-02
1.829072637829325110e-02
1.092150835013676151e-02
2.008342748797391913e-02
2.158303833758939624e-02
2.306715978227616426e-02
1.886841798967909753e-02
-3.010261280897445248e-03
1.892874006603200918e-02
1.353682338911048333e-01
2.065363629526313360e-01
6.227895205265505940e-02
-1.531490742917075154e-01
-2.048717858782525825e-01
-1.663950642178306794e-01
-1.344263951763076115e-01
-2.483534883287056086e-02
9.802474906136000865e-02
1.046669545131113932e-01
7.733816700391388244e-02
4.122033135012934113e-02
-1.162823314144182246e-01
-2.598288340725179446e-01
-1.738430246291334247e-01
-7.666116244634306465e-03
3.295498410318131038e-02
2.048529487778081443e-02
1.480241315725328195e-02
-1.929998095312738388e-02
-2.187238958106124675e-02
4.343824415947079333e-03
-6.173037854786640743e-02
-1.387835633659995627e-01
-6.456991082905980117e-02
2.289358846886588306e-02
-5.577615131087617500e-03
6.697322917328064548e-03
8.203713000253616550e-02
7.049313786261596215e-02
3.308426331676607435e-02
7.262371206638200405e-02
1.131615638858445572e-01
1.122573401188907277e-01
1.121126188048326838e-01
1.255544899604282005e-01
1.590678094117835839e-01
2.014411438555095135e-01
2.106309310115146993e-01
1.809679451255870875e-01
1.358468738406615195e-01
8.720126425106924928e-02
4.245048899979522034e-02
-1.256094674157937074e-03
-5.034110924569959455e-02
-8.862363197281908356e-02
-1.061765314047261183e-01
-1.349030423936397050e-01
-1.968036057626750823e-01
-2.504544609512833198e-01
-2.381998938417678457e-01
-1.494422285734007261e-01
-3.978583413154856280e-02
2.515835757167537989e-03
-5.853287808695408628e-02
-2.154826788782256974e-01
-3.836267966953468833e-01
-3.080702703438324974e-01
1.281872820974870944e-02
1.049595530768241136e-01
-9.044735530715763971e-02
-5.953819496356269059e-02
1.730566144486672953e-01
1.771666662091737621e-01
5.263950531981978487e-02
5.980431279567460096e-02
1.027489274339246778e-01
1.087212692858969265e-01
1.603954758067311082e-01
2.148228857124869218e-01
1.737614580381924290e-01
1.088337408771835046e-01
1.265078301324905063e-01
1.320935313061337990e-01
1.024872909191248960e-02
-9.273697976922343211e-02
-2.848662379483177243e-02
4.710843953442225146e-02
2.613370270694793246e-03
-3.591153885844257376e-02
-1.440740625873684205e-02
-1.756128562488932371e-02
-4.691450063589051866e-02
-8.969086459066613615e-02
-1.388046312871083765e-01
-1.304674550826507295e-01
-8.929131418334167181e-02
-8.143065195643735266e-02
-5.200448791707071305e-02
3.559609226669095683e-02
9.459833698175494632e-02
6.352592159467364274e-02
-1.337058429174076482e-02
-6.044567573358618912e-02
-4.490090144438017850e-02
7.586069643904391367e-04
3.233781630966343912e-02
4.531346342661338872e-02
3.883429034075283615e-02
1.851822166956897456e-02
4.639068725943627791e-03
-2.251060540656689424e-02
-2.188148455841595549e-02
1.071345984531586887e-01
2.288818516903892986e-01
1.623853798670195081e-01
6.652398267756487460e-02
2.192804965257873218e-02
-1.170707939744929926e-01
-2.005833309031879730e-01
-1.069905706878239021e-01
-1.004742305038223565e-01
-1.508044074991081174e-01
-6.782674904320516729e-03
1.159516192847712956e-01
2.427361522438534203e-02
-6.030869186852304276e-02
-6.536492665457724338e-02
-8.733971560474454443e-02
-6.159730122344812819e-02
3.169559073119468384e-02
7.727065296380196402e-02
4.600901005316761910e-02
2.341446114214787433e-03
-1.991535237684012236e-02
-9.173650703473914744e-03
5.834689901726998473e-02
1.152296390118855152e-01
3.309619508862832182e-02
-8.829368180722009518e-02
-2.695452157682489899e-02
1.151766490352563455e-01
8.454692653388705403e-02
-3.763874104544537302e-02
-2.919670190271854079e-02
5.469991728490299077e-02
6.820765779029493159e-02
4.152551359071372100e-02
9.023314385894173548e-03
-5.239927960839135118e-02
-6.100601760763914305e-02
4.149063220996023621e-02
8.670630584826206910e-02
-5.495696396850146409e-02
-1.762700528235811859e-01
-9.586276597393525445e-02
1.788304800718645837e-02
2.987748892053972843e-02
2.216263770539546318e-02
1.881983402991733306e-02
-2.785279384163317357e-03
-4.758073928856777768e-03
1.183996982241676023e-02
4.382203992005690579e-03
-1.220173662824281663e-02
1.260357889348679566e-02
5.119962864299282268e-02
4.816628041395842191e-02
4.255789929141805955e-02
1.718417402330573926e-02
-1.021498865382603344e-01
-1.584714467565294937e-01
-4.186730091167387147e-02
-1.418514926743317563e-03
-9.237559638835884934e-02
-6.272341282142666896e-02
5.621770853213826219e-02
1.066859887859154532e-01
1.119905757299466953e-01
5.068483647197657982e-02
-5.399807131464639393e-02
-5.455944111455721807e-02
2.611225908665890799e-02
5.170402358356863959e-02
2.348956190801960303e-02
-3.076349461411704775e-03
-2.934569841099499837e-02
-1.010700180430300701e-02
9.456219837286802821e-02
1.174564740203605795e-01
-4.612047313746520105e-02
-1.392617537958975027e-01
-3.154514519395048427e-02
2.551340112781872588e-02
-4.617783864840563357e-02
-5.354056891156197540e-02
2.540759203175308248e-02
5.812251366248437356e-02
3.671359883743893771e-02
2.883409357236919879e-02
1.893995749692478983e-02
-1.965223731723008543e-02
-2.538326183523828550e-02
4.659219318524676634e-02
1.059756364794553762e-01
6.169845178369817718e-02
-1.157114321968271548e-02
-5.852916304436613093e-02
-1.501400469838815588e-01
-2.047001760616417865e-01
-8.051825756657049471e-02
6.887833737402811185e-02
6.248268705786784449e-02
8.755811001069892935e-03
2.130031365866735804e-02
4.003140817698599280e-02
2.852479495509341323e-02
2.417137851482337174e-02
3.442396512723003288e-02
6.215997814935386723e-02
1.153508743969680617e-01
1.049099718229606626e-01
-3.090846997762488474e-02
-1.102585310738217333e-01
-2.365583126134827158e-02
-6.257016064093352814e-04
-7.694775189659400216e-02
-2.168659123634777627e-02
2.850684929575682605e-02
-8.806981514285106005e-02
-1.115039751336098645e-01
-8.205805416028857241e-03
-1.356848493962150085e-02
-4.389129074156866706e-02
4.791769106118853871e-02
1.468452175803816040e-01
1.116340616294231314e-01
-5.238545512719716690e-02
-1.745739358440445976e-01
-8.207997701512879940e-02
1.242411363046977552e-01
1.525369568322541003e-01
-5.169813882021788431e-02
-1.631642657756150749e-01
-2.067831069494183854e-02
8.465995176673819789e-02
1.649430202309392149e-02
-2.921493780287684125e-02
-9.782190814619996094e-03
-2.159007684771022118e-03
1.308264107774051270e-02
3.319953303167057918e-02
1.814506360677937968e-02
-3.050589727827479614e-02
-5.971728223119262408e-02
4.396461438056610896e-03
1.024527935480840091e-01
6.348989499163509853e-02
-4.975051237378114166e-02
5.286539926204619766e-05
1.389771408881270154e-01
1.162869889335381851e-01
-8.757247621034277077e-03
-5.284997541120847742e-02
-4.023604222523233936e-02
-3.940503430815546493e-02
-4.351882221651724031e-02
-5.184373276035586509e-02
-2.860217519288206153e-02
6.134198642498543685e-02
1.266094454455173601e-01
1.032690268134210249e-01
6.979335917499054909e-02
2.516520340343581658e-02
-9.610580350812275574e-02
-1.858448528916843701e-01
-1.396201047291039388e-01
-7.336649958063747035e-02
-5.894154175208372176e-02
8.127133621362112731e-04
8.523426785210780343e-02
7.258773364775614190e-02
1.593310004283109149e-03
-3.696419805061577218e-02
-5.474949800160321123e-02
-4.325804227622125075e-02
2.060284593538186035e-02
6.149503651557834683e-02
2.810530435564271429e-02
-3.149052096768800019e-02
-6.897208587784019185e-02
-1.224389960429611915e-02
1.123973457124603920e-01
6.248672671437426052e-02
-1.385722767406343536e-01
-1.189097317390810649e-01
7.783863315624280077e-02
8.700673706979647481e-02
-2.259221961753719171e-02
-8.269159995921693956e-03
6.099731326858220948e-02
6.234048688324766996e-02
1.326864414113551431e-02
-3.665211694063097436e-02
-4.386579370070275985e-02
-1.272592480675640431e-02
6.553720356567259084e-03
1.123440817212178512e-02
2.473799828710481624e-02
3.020844715983828088e-02
1.071323891355643182e-02
-1.198389381743382789e-02
1.198013706221801901e-03
4.955105968748180906e-02
6.511277288526345908e-02
1.655130222659692563e-02
-2.369632823181263420e-02
-3.277874485219595471e-03
4.029404850334623173e-02
5.077367153465479899e-02
1.116553728628974854e-02
1.821685267512248435e-03
1.101351875917913892e-01
2.004049107169475763e-01
8.590465304643649103e-02
-1.010017399272112315e-01
-1.634855830301983892e-01
-1.729638688971515958e-01
-1.553317776247052362e-01
-4.669725103837602670e-02
1.579706715800062444e-02
-2.000439000093302833e-02
-1.717988414395896918e-02
-9.488423839717569086e-03
-5.721293217181870616e-02
-7.361987737878826488e-02
-5.448375225801182359e-02
-4.329087621959213511e-02
-1.280319342642822003e-02
1.744380220993578881e-02
3.360095362897885796e-04
-2.873616330385849252e-02
-2.052415571383495868e-02
-4.353615571045471241e-03
-1.857515616336715553e-02
-1.725872587437068950e-02
3.081698309727281399e-02
3.542690532815515048e-02
-3.277545207023768725e-02
-3.609285167775659608e-02
4.136914282002154136e-02
4.315611279881716167e-02
-2.018700001323267545e-02
-1.245226457559391389e-02
4.775952467377812816e-02
6.514914080054361178e-02
3.111462428268385594e-02
-4.058221376469985271e-03
2.011214322728108878e-03
4.975232029341331019e-02
9.490034694421488337e-02
1.004167726683799361e-01
1.030394556021761304e-01
1.543734434508293452e-01
2.011061931492858224e-01
1.683350805550081486e-01
1.160373492785206490e-01
1.352007891931643890e-01
1.562959365965941871e-01
6.689526947613105845e-02
-5.878328477837178878e-02
-1.050920384455452383e-01
-1.215219886589471998e-01
-1.180467815776905655e-01
-1.798825144940963128e-02
5.173885199177430394e-02
-6.677275319579220603e-02
-2.727704016845526325e-01
-4.383694374012453987e-01
-4.469556715068950803e-01
-1.916311758892557671e-01
3.561907047374409524e-02
-6.571698986927330954e-02
-1.830777906691747892e-01
-6.279295780039369224e-02
3.926771644720321308e-02
7.820010492716036876e-03
-2.030092119311349697e-02
-2.722794662391588710e-02
-1.870245283805940101e-02
5.295714788485639257e-02
1.423175714407397541e-01
1.592927874309455760e-01
1.105170140677571161e-01
8.282051022021781617e-02
1.283370088478981430e-01
1.753802747851173349e-01
1.242595988631406551e-01
5.486579890012568961e-02
8.370869964796465168e-02
1.071491406144394892e-01
4.058033888316693594e-02
-7.427489921514169452e-03
2.717633142746686548e-03
1.735078183349230557e-02
3.307786414769434136e-02
2.258133109824702472e-02
-4.033825724258566919e-02
-9.300633775052796759e-02
-9.164670638160261895e-02
-5.259483294543916554e-02
1.334555524097779701e-02
5.285266748420201777e-02
6.223340507585078084e-03
-5.580176554205291267e-02
-4.904834078742165149e-02
-3.350537604092974908e-02
-4.275064277282339398e-02
9.883070582425998798e-06
3.608853136808853890e-02
-6.281674508180933036e-02
-1.545236536892097834e-01
-6.646660312899055345e-02
3.704761428895187586e-02
4.620220892612825203e-03
-1.523310405999524567e-02
8.033647659013770648e-02
1.673984242101577702e-01
1.565270938565570535e-01
7.495569624947698295e-02
-5.625623780780206890e-02
-1.287881187151700413e-01
-4.391551498396984582e-02
7.798234280346809377e-03
-6.986402703253706548e-02
-3.416820311427202356e-02
9.731724167483900290e-02
6.435994366898359353e-02
-5.114375112958691183e-02
-6.495355933605501120e-02
-4.520581859272852776e-02
-4.648885869195930332e-02
-1.516756697232235322e-02
2.948150006685332919e-02
2.550329887915708804e-02
-2.016493779905604439e-02
-4.890569575781062578e-02
-4.576667738722717260e-02
-2.859811519639655561e-02
4.926948827766304551e-02
1.285243960963732834e-01
-2.519842308614281268e-03
-2.021174764878734542e-01
-1.106119380153685883e-01
6.874078701427323301e-02
2.250264307558120722e-02
6.458369034827892569e-03
1.225460244380908170e-01
1.069577767593200279e-01
1.970946415953128694e-02
1.280023264164764987e-02
-2.844193475327792126e-02
-9.861923619685074305e-02
-3.906869939463324115e-02
8.470914925274308782e-02
7.436043570109340806e-02
1.146716297612548202e-03
7.038360217984646061e-02
1.586749892631936498e-01
6.322524257966422034e-02
-6.031331441835570406e-02
-4.671726030779314864e-02
1.020503647641841927e-03
4.436764065177974288e-03
-2.316558420617103459e-03
-8.875703710148986902e-03
-2.692921640357697627e-02
-3.567967417202272395e-02
1.316801453932210479e-02
7.768301286598187916e-02
5.918906515260034806e-02
6.730093727793469080e-03
-3.158372520456094457e-02
-1.189526468395480374e-01
-1.509861960206933806e-01
-6.284302363733060282e-02
-7.203137632544773239e-02
-1.426249817519337493e-01
-3.560385894901552800e-02
7.171499450188005553e-02
-1.152935753759527088e-02
-7.718218927653656969e-02
-3.011290765559303251e-02
6.623398800376344153e-03
3.334054118282260559e-02
7.743187996143750806e-02
7.258245694972019491e-02
1.661819628965636661e-02
-1.544598007340361109e-02
-1.142322145859108254e-02
2.576253101999217282e-02
1.071035336995016657e-01
8.973428310944633890e-02
-7.927877595524682186e-02
-1.129808426497366791e-01
2.925754176425769681e-02
5.669715541530389452e-02
3.555028869540854258e-02
1.113439909406701567e-01
1.099517958581285870e-01
2.629569824209268547e-02
2.152365964189222047e-02
5.797579391555510164e-02
5.615952389888671098e-02
7.595809625013237587e-03
-4.282230800700984052e-02
7.701024458708977810e-03
7.650627069136349545e-02
-3.618181898707852062e-02
-1.817364459288335343e-01
-1.049525400312947138e-01
-2.136987096467247299e-03
-1.101668536404315918e-01
-1.931311765185975415e-01
-6.859157056891333759e-02
2.754933459097886825e-02
1.419860180030423080e-02
7.533420885043762283e-02
1.345931734068134267e-01
5.223718008917358629e-02
-1.437448771034355137e-02
