1.067145852265531103e-01
-6.137046862096032229e-02
-1.183495550158828735e-01
-6.675192926108181046e-02
3.325964617378617677e-03
2.932869703680316548e-02
8.915284918580393056e-03
-1.345798197831415272e-02
-2.130192673877662202e-02
-3.373400391342696453e-02
-4.121291090663263545e-02
2.871299673182020010e-03
4.205462964284653604e-02
-4.853950613503520140e-02
-1.673422774465079255e-01
-1.249216712597372436e-01
-5.235301570453015918e-03
3.404108529071851741e-02
2.488092983157505836e-02
6.865878619680639006e-02
1.843968094918479739e-01
2.462747631224834755e-01
1.202412436253292305e-01
-8.661921576349722318e-02
-1.477842991230018388e-01
-9.065715571114627003e-02
-1.035576534032236762e-01
-1.114512765314667753e-01
2.666001853520266057e-02
1.204560305051083635e-01
3.810211704102015734e-02
-3.771096237878657220e-02
-3.668966582205866744e-02
-3.608030994567285044e-02
-2.516357107139012821e-03
6.348105607871686040e-02
5.324643656127238389e-02
-2.514530230854170045e-02
-5.106794458628302613e-02
-1.807043303554038000e-02
2.729384929903715465e-02
1.092818821178870442e-01
1.031695260959784172e-01
-1.026981002491192257e-01
-1.893441043228966669e-01
1.684608452240812099e-02
1.153960785280982310e-01
-2.177487787467368568e-02
-6.304382841524218406e-02
2.001204709576236487e-02
3.927147843492528184e-02
1.889025288818079601e-02
4.224319655132504486e-03
-3.248012347442621323e-02
-4.775381628434771653e-02
-2.597910996335520140e-02
-2.460732446326521078e-02
-1.635788584499075701e-02
5.167919251243541234e-02
9.591020953510584479e-02
4.378817754575894949e-02
-1.444635432893058222e-02
-1.441466090621846760e-02
-1.259885004056603662e-02
-1.803357166698863270e-02
7.727453347329760885e-03
3.463786321531225898e-02
2.468156842674482099e-02
4.113053165321675815e-03
1.241929353247872049e-03
1.778575693684343595e-03
-1.708132515056342638e-03
7.495919072887678725e-03
3.245168098528915246e-02
7.311904145476294525e-02
1.023424333623107890e-01
4.522161014642808036e-02
-6.892205719386483576e-02
-1.332006931715107867e-01
-1.900447270024947510e-01
-2.423493311183016752e-01
-1.362603269335541378e-01
3.730118615197732662e-02
7.885462345460965417e-02
9.768306910722460157e-02
1.365918208257609345e-01
4.266900008265284150e-02
-6.531953086765880656e-02
-6.754723798676219582e-03
8.065432916825421295e-02
6.293144106098497170e-02
1.619870159763274822e-02
-6.392937052414090875e-03
-1.241733258739846982e-02
4.866374379027962188e-02
1.187838956304067134e-01
6.944609799524643565e-03
-1.560814304469018698e-01
-4.885910542448344135e-02
1.417851795052416375e-01
6.076666454000685669e-02
-8.311730955985800751e-02
7.624520283689699418e-03
1.036176194691328795e-01
-5.060195961775751372e-02
-2.131938148843729453e-01
-1.426075155082071610e-01
-3.072920978994152924e-02
-2.849471430067456248e-02
-1.610226167204130074e-02
1.768667847251974290e-02
7.164368655124889185e-04
1.061265601366160119e-02
8.147659631174553052e-02
1.007568323648050795e-01
4.544307515768555156e-02
2.451446710277873330e-03
-5.854031622423468660e-03
3.351405885955588415e-03
2.734226450377811105e-02
3.224234430529615558e-02
1.515091403593571634e-03
-2.162749327174326788e-02
-1.065623892958302357e-02
2.395696214706401900e-02
7.392139021727622827e-02
1.135556330414959209e-01
9.373055069726030086e-02
2.493127827931020113e-02
-7.312474082623069208e-03
-1.338667149556033512e-02
-1.027781358116372085e-01
-1.953396832818351248e-01
-1.181678811904110088e-01
5.087411941397128670e-03
3.132501570743614905e-04
-2.272222200828023439e-02
-4.575059398313130118e-03
-2.868694402039446978e-02
-4.858490943613707341e-02
-2.038537393369163273e-02
-4.491439348336088988e-04
1.352207927375751427e-02
3.082382597484356612e-02
1.701988591080607488e-02
-1.105088183622356980e-02
-9.310569933230927742e-03
1.240154089047027647e-02
1.355987568498779813e-02
2.405700880045395784e-02
8.543791268665673622e-02
7.922786329591867405e-02
-4.803348416955800781e-02
-8.802322556118852281e-02
6.017195027079383363e-04
2.028903245957636159e-02
8.327201077488554856e-03
7.343980295116636636e-02
8.005379451260266621e-02
-9.871630726630480773e-03
-2.678954937712151041e-02
3.965119639766644111e-02
4.045469441625490492e-02
-3.165358980147214146e-02
-6.105191384433056312e-02
-2.676271742061179029e-02
1.243106835304985322e-02
3.265267180935710334e-02
2.886938282909024683e-02
2.292426667835385269e-03
-1.313053986658051751e-02
5.953256096641166943e-03
2.318056374634708261e-02
6.033443734646784691e-03
-1.568403008604906182e-02
-2.148868108879950500e-02
-2.243763163896109886e-02
-1.424682158543104198e-02
-8.536819198006754400e-03
4.821987835817132320e-03
8.106884972025973912e-02
1.423522857932597863e-01
5.349602263264838231e-02
-8.402367788332976151e-02
-1.411477597625825364e-01
-1.712194683930512162e-01
-1.235067204469766367e-01
2.355500277119200805e-02
4.620501416876156980e-02
-4.477544215445494052e-02
-2.402079633257540522e-02
2.242161225685873269e-02
-4.049826610305285596e-02
-8.982299744895644311e-02
-6.115181689904351098e-02
-3.270288996558223110e-02
-2.517794798808443285e-02
-7.561811753872694185e-03
1.519276753846193415e-02
5.690542660658879856e-03
-2.589461598981428192e-02
-2.811476397770055861e-03
5.821314587213493458e-02
3.247714481976380491e-02
-3.098226848671327416e-02
3.083962185430655367e-02
1.191509650849932184e-01
8.227843929898723263e-02
6.703579963530444108e-02
1.659723840624125479e-01
2.193726364992284461e-01
1.934567710630371307e-01
1.913093391518411457e-01
1.842460965484403745e-01
1.232047614630457644e-01
5.932167822092228315e-02
1.254583135877497535e-02
-3.490536909408501615e-02
-5.788794693945883280e-02
-5.781296574627484142e-02
-9.206323206922364943e-02
-1.712227606131353497e-01
-2.308195681200752580e-01
-2.194676383620587645e-01
-1.709393120605151029e-01
-1.522252720907591450e-01
-1.585631313593724445e-01
-1.481770965401549567e-01
-1.356977103698562281e-01
-1.413343457153099225e-01
-1.303687347130333685e-01
-9.273453154071928384e-02
-4.791604185992120318e-02
5.206327790007152928e-02
2.033918969573457747e-01
2.580019372561479507e-01
1.696143988035796191e-01
2.041099325083962565e-02
-1.228098308922578041e-01
-8.040145118712702099e-02
1.582519244042435436e-01
2.097709977970478035e-01
5.117702290482949168e-02
7.829360866345010106e-02
2.009223165799988442e-01
1.137400134478641078e-01
-3.848372984572610844e-02
-8.290205982822512754e-02
-7.289656634076369102e-02
-1.372002841365017184e-02
6.195730862114731674e-02
5.470646688618139436e-02
-8.420785595815397095e-03
-4.979491541809931421e-02
-5.611332120267285145e-02
-1.330983874365334121e-02
2.460213996344423615e-02
-5.321118442697804485e-02
-1.379863842051639033e-01
-4.321827357863815278e-02
6.750704462210144197e-02
-1.082926605180853374e-02
-8.503713048923708384e-02
4.279605032761792105e-04
7.672644172996881395e-02
7.419640213105976878e-02
6.493969077982861271e-02
1.819481769040712585e-02
-5.239172100879196936e-02
-6.503242064905814801e-02
-3.663774247942189199e-02
-4.169450569270334757e-03
3.169374695257685948e-02
5.583337686895013807e-02
5.860979280146765003e-02
3.316081321145873673e-02
-7.897758997841355932e-03
-2.697570301031069345e-02
-3.708222461455402269e-02
-6.106120483137703059e-02
-6.161028701920622658e-02
-2.602960999711793899e-02
5.925046276390576010e-03
1.955359613165980059e-02
1.727734481657254226e-02
-8.032194458977987006e-04
2.419189620117527181e-03
6.300239926291364978e-02
1.346805706006042047e-01
1.182850051859374446e-01
-1.355622608237280063e-02
-1.677327671941524212e-01
-2.118823387897810773e-01
-9.858909043755421930e-02
1.487569624910034874e-02
-2.860216968941757879e-02
-4.843426802958777921e-02
9.649783866417022127e-02
1.512867037726865482e-01
1.576237542834061506e-02
-7.084839431350412053e-02
-4.896123683292508133e-02
-3.257128778279204384e-02
-6.476969513979698168e-03
5.557424574054957433e-02
7.486316326738690075e-02
2.758498764801034508e-02
-8.383274126001988378e-04
2.030280978328861952e-02
4.194150778249526590e-02
7.698249419379805947e-02
1.060669040821455023e-01
9.175474738505679656e-03
-1.360465846041464810e-01
-1.107500089681556776e-01
1.269228719404858277e-02
2.012481616538883827e-02
-5.373144314732754279e-02
-5.984771271693199723e-02
7.367145976229942661e-03
6.187052992572764087e-02
6.946373380553273746e-02
3.990764877136625949e-02
-2.561289530057600516e-02
-8.122698969551772619e-02
-5.039802469019144526e-02
4.194291788915213703e-02
8.689181087889825961e-02
4.834315602476038642e-02
8.462291367183839147e-03
3.323525655860729011e-02
2.500067437634924394e-02
-1.069943534897821041e-01
-1.880764261973633666e-01
-6.838140223398544992e-02
6.789519674706855079e-02
5.603553681844417739e-02
-7.751020158302378976e-03
-2.339720947367838338e-02
9.165761118895346393e-03
6.467547085300383303e-02
7.687836561615160602e-02
3.006486839886737122e-02
2.918602019375541451e-02
7.120826780820466162e-02
6.063109392787330992e-03
-1.164724856505213318e-01
-1.080408119357996743e-01
-5.266149882073135891e-02
-9.147884330123233487e-02
-6.605338729464466097e-02
7.286126104138611337e-02
9.155880419405643122e-02
-5.617702782173664838e-03
-2.478833734220515367e-02
-1.236854044710243225e-02
-4.383767810317619473e-02
-8.757190889622738089e-03
8.947209257191045262e-02
8.703321724419002536e-02
-6.279542801988086120e-03
-3.110133075159412022e-02
2.052047077325883442e-02
6.655360646429367422e-02
1.029531009054658192e-01
7.181050804673298760e-02
-4.385284110258446527e-02
-3.673513747976984989e-02
6.974087868310785421e-02
-4.138517472471031633e-02
-2.316242381407426776e-01
-1.272617832264289761e-01
9.087077829991932476e-02
9.835891691121777247e-02
4.807579608368608287e-03
-8.369341657954422475e-03
9.140868153436168195e-03
-1.210519956768285263e-02
-3.264607382275516723e-02
-1.738473626638490505e-02
7.859682019569904504e-03
2.558732709296657193e-02
3.466215273862204016e-02
1.046770411278611507e-02
-4.355969959445679662e-02
-6.651131517283910555e-02
-4.618101880838993561e-02
-4.394397904260331778e-02
-3.065121242720624320e-02
6.919852278539684320e-02
1.386828828744361419e-01
6.458650944234455016e-02
-9.879937869133883013e-03
1.038862715965541139e-02
3.585807937106096771e-02
4.020885350274433501e-02
6.079579983850266767e-02
8.644510710355311767e-02
4.658735077742533898e-02
-1.018341267483427737e-01
-2.096256663909894236e-01
-1.343834468429667695e-01
-2.912933165500948898e-02
-1.836127929613622783e-02
1.894829509934940065e-02
7.005503914421318257e-02
6.454024915495109455e-03
-7.212624483661581043e-02
-5.441099133860134718e-02
-2.253989133979941717e-02
-2.651203154216540125e-03
3.912433086032555268e-02
4.252659806345619048e-02
6.784034018925227255e-03
1.703859021617164238e-02
4.675071562723004392e-02
3.646442050046933003e-02
4.691191305075572554e-02
9.280633204707748607e-02
5.748395888188535113e-02
-5.467993838775737914e-02
-8.165535134034623832e-02
-7.406186049476345262e-03
2.051465264140111752e-02
-2.418548773980949695e-02
-3.475709879789744966e-02
-4.958271077582648845e-05
1.084028589123507691e-03
-2.016736468996297577e-02
-3.781299648627163383e-03
1.350389716942001703e-02
-1.937468972304490569e-02
-4.825482776432514498e-02
-1.967710855873430753e-02
2.321846353371931349e-02
3.246361533953736472e-02
2.201706671810029631e-02
1.596359400252874566e-02
2.118710442288279650e-02
3.928534813746702159e-02
4.105525988744757743e-02
-1.573298860333407698e-04
-3.285802007554097098e-02
-1.393851450539704100e-02
9.096802267389032109e-03
-2.084585986901889114e-04
-2.184831933735046847e-02
-9.430911359777818803e-03
7.222945434689168054e-02
1.315848122254466845e-01
6.061446089752609706e-02
-3.838022722240041346e-02
-8.716844959454307651e-02
-1.565905583810548451e-01
-1.324001986166862266e-01
4.932190469737555982e-02
1.149042753357943508e-01
3.269653189260052911e-02
3.227818061531752963e-02
2.787513393547183527e-02
-7.433524943420723174e-02
-1.066417933361297615e-01
-5.055654841015001788e-02
-1.189938102285882301e-02
1.751172457381586223e-02
2.784229362383105338e-02
-8.353406987297175290e-03
-3.427077376761657190e-02
-2.487426266682050274e-02
-1.374718366156945683e-02
8.960715916689706087e-03
3.159431133568484096e-02
-1.346483393937379994e-02
-7.182623245048040672e-02
-3.259279540863453672e-02
1.794391498309170010e-02
-1.579950070970922299e-02
-4.764218945770964247e-02
-4.881958214878034941e-02
-6.127940466299512667e-02
-3.635639891590559253e-02
3.328281649814347765e-02
5.436472522967353282e-02
7.144724092856567788e-03
-2.278045047677318413e-02
-2.113639993902237044e-03
2.438390476119906003e-02
5.390369468844478928e-02
1.042431162710927145e-01
1.375431421576200075e-01
1.383752056905180328e-01
1.499040879973230489e-01
1.625862765563631518e-01
1.501255892294758310e-01
1.733035979402110238e-01
1.885096430387164512e-01
5.113475169077587312e-02
-1.036311117588931408e-01
-7.353314553184563118e-02
-1.693192481538447619e-02
-4.630084694206404450e-02
3.856300215830707478e-03
8.217411651013169227e-02
-6.043644787519526079e-03
-1.605981459630563546e-01
-2.841685666028223589e-01
-4.011693285223045247e-01
-3.036495444874913741e-01
-1.846522874364653344e-02
1.005549368553510653e-02
-1.386501642185831717e-01
-6.764485704222300555e-02
2.565163042421002293e-02
-8.104933610129308463e-02
-1.408537182150598477e-01
-5.393414883647296154e-02
2.506663242832237598e-02
3.364585195772975407e-02
-1.213769227814404106e-02
-3.701608685087616479e-02
1.802394367786566004e-02
6.815263747333236144e-02
8.202741694964543751e-02
1.461776677102143152e-01
2.007380422137372833e-01
1.205757315233337568e-01
5.296757230385584075e-02
1.742650297490532241e-01
2.521871727320955103e-01
8.647433128698189808e-02
-5.070088795870968112e-02
2.908777523827218991e-03
3.440058515508886278e-02
-9.998136041812167793e-03
-1.537058472779739837e-03
1.488334067297299862e-02
-5.515447663485173457e-02
-1.308352058244623972e-01
-1.059683185629578805e-01
-2.619750302484993160e-02
2.081675148208585874e-02
1.944383483075379920e-02
-1.342668559312798146e-02
-4.389896755982160975e-02
-4.802573559136501941e-02
-4.011197833739742202e-02
-2.599520355344117281e-02
-6.184837553190286434e-03
5.659514090734620376e-03
1.530764654417635616e-02
3.158901971088942662e-02
3.741484891339132146e-02
1.847637965208567129e-02
1.310897400642833249e-03
3.081372690843271756e-02
8.075469204528838707e-02
6.907541177314352465e-02
3.374068223926604548e-02
6.817831945735715327e-02
2.774103079582836487e-02
-1.920289268479553335e-01
-2.756857295665303131e-01
-1.121176213388033610e-01
-4.614392318875904647e-02
-6.841418689492427541e-02
4.164308575248963640e-02
9.534108599912972937e-02
-3.425065372123399510e-03
-3.874998233342470677e-02
-1.319715875603072290e-02
-4.601575128974094708e-02
-4.529771910006031438e-02
4.305978665318663939e-02
8.130620073073671628e-02
1.671997085848402759e-02
-3.556737437454072365e-02
-2.572879272672083661e-02
1.268281143816315029e-02
1.083670655859375609e-01
2.354089744750707536e-01
2.181304942109120459e-01
1.981549066909752896e-03
-1.724568871733743458e-01
-1.151980453489357958e-01
2.092370842591062541e-03
-1.892189341565954711e-02
-7.527309070611289121e-02
-4.640471630248254459e-02
4.945815882964027521e-03
3.327821864337266594e-02
4.001541958259892395e-02
-1.699234685355724417e-02
-5.984491385326955876e-02
6.523114577290017868e-02
2.189741571683126165e-01
1.648922675466990839e-01
2.061511335533492209e-02
-1.439130963153625181e-02
1.423492440282677837e-02
-1.655566009077633072e-02
-1.293729640169679063e-01
-1.772775663026136816e-01
-6.263372900932172305e-02
2.488952137239458864e-02
-1.621834128342632131e-02
-2.000723260700635470e-02
-6.906909655834190045e-03
-1.056175673115816865e-01
-1.490477417220789635e-01
-3.382696082577912877e-02
5.325199163896263133e-02
1.021518729991783003e-01
1.875273903659144259e-01
1.225242402579248546e-01
-9.729135870621391513e-02
-1.510136800512726085e-01
-4.848873746479275687e-02
-5.900994164105899387e-02
-4.642723666238027930e-02
1.483333186060117048e-01
2.091460609438258733e-01
2.309007142932194279e-02
-8.846805792985938666e-02
-4.856198427667276357e-02
-2.520947495907105429e-02
-2.569593048922343137e-02
9.566188090878981198e-03
4.671991664449480497e-02
3.418312693175183659e-02
-1.182716818487556006e-02
-3.049227252781306838e-02
2.715460669976037592e-03
7.156019793350573699e-02
1.295357551943217000e-01
6.974655779458072136e-02
-1.001706824316294375e-01
-1.551649272646845046e-01
-4.940976515707056621e-02
-1.444660085846674949e-02
-5.991609547726214208e-02
-1.596808713917446942e-02
4.600856578145229997e-02
1.048269282566281768e-02
-2.602654629178789009e-02
8.864502932004070940e-03
2.584311707666489197e-02
-3.373586883947177206e-02
-7.729744228522167360e-02
-3.110440791648065584e-02
1.552549976975352297e-02
2.793477042264003174e-02
1.002818778638906172e-01
1.610318654076508815e-01
8.317369179252864786e-02
-2.073673000704464447e-02
-3.289988785558396051e-02
-5.037723126762538861e-03
1.636254142172879900e-02
2.076606834574348456e-02
-5.502331728053226276e-03
-4.491827880065411838e-02
-6.374638513550646979e-02
-3.382674426118804228e-02
3.671403353402875880e-02
7.289820269714945844e-02
4.335009454736405560e-02
3.163736976767797526e-02
4.740199737506287786e-02
-1.383253890300639027e-02
-1.101401651679832089e-01
-1.082309677537509202e-01
-7.293473888689379347e-02
-8.601372106831337017e-02
-3.181887473196864241e-02
7.423892150901066633e-02
4.671656918186005425e-02
-5.822186551011616223e-02
-6.674814662411668320e-02
-1.865013298766527230e-02
7.149598426368482251e-03
4.236398880757873131e-02
8.118711506478570872e-02
6.395161707458528466e-02
3.375105761009609268e-03
-3.003082745433139147e-02
-1.638481076233810896e-02
2.170887567644899652e-02
7.059924371887654759e-02
7.394227417611284880e-02
-9.680750447496298816e-03
-6.882394689098743357e-02
-2.578265868506856434e-02
5.018377757032947695e-04
-3.811539430556354358e-02
-3.647449717778421252e-02
1.406180045839665500e-02
3.390440215111164418e-02
1.542502690367463132e-02
1.676672844173954192e-03
1.097412584380334961e-02
1.668033868551593163e-02
-8.402316601542994187e-03
-2.841615736142644177e-02
-3.623422033547906915e-03
2.225131551990450554e-02
2.010240857579162141e-03
-2.801642024008484805e-02
-2.303645573739537822e-02
-6.345146517060462447e-03
-1.111403912145349053e-02
-1.167499346292577567e-02
1.284215339675245579e-02
2.607739984765435060e-02
1.309959491888352395e-02
1.311070975988372920e-03
-3.691475084809960321e-03
-3.278580201284887318e-03
2.428760560125835591e-02
6.973301626131812869e-02
8.057515057385240820e-02
6.288193445786248448e-02
5.379428900099966077e-02
-3.164982885717065181e-02
-1.967698767080356681e-01
-1.716254674820115733e-01
5.852132561229224372e-02
1.063001279766400964e-01
-4.161639913790898121e-02
-5.234607745476183710e-02
3.569075581675852649e-02
1.808820551039534361e-02
-4.617925889203455120e-02
-5.928972438493898545e-02
-3.256737177499854918e-02
3.098383281991610311e-02
9.352101725070077753e-02
6.906015325995221166e-02
-1.183973429698657008e-02
-3.906362412368855758e-02
1.068390429171504029e-02
9.868190651239709676e-02
1.139598063240736259e-01
-4.877485376435732045e-02
-2.155648277765852550e-01
-1.501092822709032826e-01
3.337531379796947889e-02
8.978143484416058195e-02
-9.067801338498760605e-03
-8.879864503204537574e-02
-3.646865406334461740e-03
1.235111490848218585e-01
9.371206261722855868e-02
-2.256233250295989687e-02
-5.383570088264453407e-02
2.165627768054392485e-03
5.670028985974645552e-02
5.413760945150136034e-02
6.414240047747855888e-03
-1.985665152056590929e-02
-1.598321037497140579e-04
1.240570625670258872e-02
-3.572485579948359111e-03
-6.763565050072205959e-03
7.933074367285929129e-03
1.719137439473559376e-02
2.109611497511603567e-02
3.867430867843321771e-03
-3.443644080431969984e-02
-4.979995093585927457e-02
-3.962520746942337080e-02
-2.787524500735005101e-02
1.708866887371136151e-02
1.168896281523018055e-01
1.703754925808676490e-01
6.539667662236416101e-02
-9.929569858885742284e-02
-1.657177597497958565e-01
-1.745540834364266158e-01
-1.610540757252861277e-01
-6.902910647400460620e-02
1.961153084195066051e-02
3.336834403036421925e-02
3.081523486428678488e-02
-9.075862289490531018e-03
-9.413201010192782936e-02
-1.155236230614134219e-01
-6.004649723452521598e-02
-6.978862740004173996e-03
2.874408218944021071e-02
5.064197652221552604e-02
4.301538361792380666e-02
3.243432554651896199e-02
5.945469457278611258e-02
1.144087780706154606e-01
1.466368867058998604e-01
1.192394985227144544e-01
1.087676185595100875e-01
2.120879560107590545e-01
2.563060178050096116e-01
6.945643354023911531e-02
-6.645929253189893082e-02
4.033656110560566999e-02
9.449549970485968120e-02
7.022689226500389986e-03
-1.793106749319945542e-03
2.329509597368065177e-02
-4.734616264220462001e-02
-1.316455757284409334e-01
-1.738604425528928188e-01
-1.942765932785468219e-01
-1.691549208199921439e-01
-1.176512757149280192e-01
-1.040365187165162991e-01
-1.224521944407836599e-01
-1.269097000606732029e-01
-1.032096412191171597e-01
-6.295745961093932030e-02
-2.631271472827699520e-02
-3.830000082178139365e-03
7.617677445745693610e-03
8.849367501886255122e-03
1.382121454090188759e-02
4.131042266977348609e-02
5.840814684120880507e-02
4.134872182761187287e-02
7.184652890679378567e-02
1.807341810976056395e-01
2.360040781405437493e-01
1.862081337276554893e-01
1.023153668979592396e-01
-2.580478316383740672e-02
-1.151497634010304888e-01
-2.336903616620188140e-02
3.555722303383980487e-02
-9.561912675937724038e-02
-1.006646666426155856e-01
7.455047671159874267e-02
8.357648326289968121e-02
-5.442198367055188502e-02
-9.908143118387531534e-02
-8.018237590764534795e-02
-6.634458249866231894e-02
-1.929102614988640468e-02
1.999403917802244912e-02
-1.760462177986817089e-03
-5.034133638672484007e-02
-1.001095272283649001e-01
-7.482301454368968374e-02
9.706663887606022112e-02
2.072150086216616727e-01
9.149841698026650594e-02
-1.087411998604019894e-02
1.012175029382106003e-02
-2.759914504070014318e-02
-8.942316541364002391e-02
-7.009814686170337539e-02
-2.485022784164078041e-02
7.483762187794137932e-02
1.893457830958893140e-01
1.343613949951596442e-01
-3.366785832511066251e-02
-1.190137008041245448e-01
-1.079816695126760706e-01
-5.211100422833287588e-02
2.751224173974645831e-02
8.291626424004744367e-02
8.282652872275156342e-02
3.855590662399712570e-02
-2.186195344967064441e-02
-5.232806272314140944e-02
-3.417122000017643046e-02
-1.108475179128375065e-02
-9.593535389887344889e-03
-1.251537341285113847e-02
-1.805436242820767506e-02
-1.778407671410897617e-02
-2.327259913410926681e-03
-9.180944500397823782e-03
-3.713859074360202628e-02
-1.945756830206013879e-02
3.556965329883719773e-02
5.305622771361748896e-02
4.743658530126951961e-02
6.486178210139045830e-02
3.430237568792523367e-02
-7.702456349850622663e-02
-1.306559648989075728e-01
-8.129694210483714989e-02
-4.117753597529923842e-02
5.054797041664033097e-03
9.275200055444972336e-02
8.552106375081255929e-02
-2.813926145214895244e-02
-8.295036748866221887e-02
-6.628729342242632716e-02
-5.341787183670027028e-02
-2.191931143652035147e-02
3.231908682105756603e-02
4.393017090037483474e-02
-1.634733058082198098e-02
-4.261794949709699770e-02
7.628970556211081555e-02
1.747723790023655854e-01
9.890553492598377905e-02
5.383816887392750550e-02
7.410760661878576516e-02
-6.256370039258293825e-02
-1.617517539575559493e-01
-4.925348477215749088e-03
7.946666590221253268e-02
-4.705849447936584495e-02
-7.289917822086817989e-02
2.905223242375866780e-02
4.630851444508279902e-02
1.066179106106322945e-02
1.073120157107945553e-02
-1.094800339446059742e-02
-6.040966269130942923e-02
-6.047979783053463593e-02
-9.091408368944370322e-03
2.651748468692505939e-02
1.722499277392770117e-02
5.292016454022455130e-04
6.075003750075890982e-03
2.802369081704820294e-03
-1.719488556702984672e-02
-1.081085537208073370e-02
4.542271653027576093e-03
-1.444431178934009463e-02
-3.092871405611975766e-02
-1.513705146592304873e-02
2.753473963247600811e-03
1.045949314389964420e-02
1.144514158743465196e-02
1.917463319057317178e-02
5.449810253592221598e-02
7.664504258860503627e-02
5.800622993581697889e-02
5.528862080120616751e-02
4.014019015473261481e-02
-5.549827749602317256e-02
-1.187929987095640294e-01
-9.523510822266523235e-02
-1.050251523384242852e-01
-6.806992584154954173e-02
9.252873816966021570e-02
1.148652100904734297e-01
-4.797234100870190893e-02
-9.478230419834508813e-02
-2.381885353677510447e-02
-2.661563217343532878e-02
-2.614189964339095479e-02
6.151732480178551121e-02
1.002777028694808170e-01
3.720341261719363468e-02
-9.277797759882223938e-03
3.773183550441504275e-03
4.808061648068202160e-02
1.083723650807395661e-01
8.753588995418637442e-02
-5.988285081260002508e-03
2.962902371931826900e-02
1.025243977188893263e-01
-6.299534583791362163e-02
-2.534722153021304325e-01
-1.474609908377123302e-01
3.159535090667490997e-02
1.300401759971974228e-02
-5.745428426288410467e-02
-2.319161932498722822e-02
3.444788499215140770e-02
2.156366459978199812e-02
-4.202646887605293591e-02
-7.605711833018992396e-02
-3.041035732420039120e-02
4.239943058106550311e-02
6.244712492022920503e-02
4.086513806546308164e-02
5.829006334782847569e-03
-5.884438158620860365e-02
-8.349585155876618203e-02
1.098129562851928379e-02
1.239724576670443584e-01
1.659041726255527371e-01
1.569773820799722774e-01
6.744163894901404610e-02
-5.660928476959327382e-02
-8.368867292713200179e-02
-4.183123815132841483e-02
-7.166595503041396295e-03
3.579261836700089322e-02
5.932862710495212522e-02
3.961187324107626195e-02
3.506168123737961329e-02
1.865244185175116490e-02
-6.690619272020886799e-02
-1.181771912385005674e-01
-9.703710909601509504e-02
-1.102194800357561427e-01
-9.086628398144018515e-02
2.947813762403651491e-02
7.378318163697875076e-02
5.343158278193448074e-03
-1.699157400142742996e-02
-1.179830664585057934e-02
-4.568626841512965497e-02
-2.532405426645961341e-02
6.944818764620282192e-02
9.682494975622840672e-02
1.497252552010229151e-02
-6.191139881049385896e-02
-5.286078592115200231e-02
5.315084595652753291e-02
1.407135485301692635e-01
4.792732214547016506e-03
-1.932517954985515929e-01
-6.749877084971532548e-02
1.799678476207377531e-01
1.054265787513868485e-01
-9.810288433570639455e-02
-9.196981061600770224e-02
-3.468400032754611478e-03
1.319558092516872477e-02
1.273469867917906631e-02
9.876570850603665075e-03
-1.401608162044707881e-02
-1.984701173682716993e-02
5.627265278607205233e-03
2.835271572115761335e-03
-4.515837004390810261e-02
-4.126392211401928162e-02
3.662966597481503300e-02
4.992299999582594516e-02
1.228678202781191553e-03
5.517887882778082370e-02
1.402140799134475591e-01
8.347016416964289642e-02
-4.097183524558165903e-03
-5.906836661513103354e-03
-2.218656063716134552e-02
-6.506000409352180602e-02
-4.230992788132974941e-02
5.979745478418655238e-03
1.331598059992584321e-02
2.578657050963961347e-02
5.671605802054550949e-02
5.176638061716094807e-02
3.319500861595803265e-02
3.733270999853646743e-02
1.930321924777021053e-02
-3.209391111567492377e-02
-9.374287625418468994e-02
-1.827498178736964296e-01
-2.481086361168460264e-01
-1.817237687473563235e-01
7.787892723383491381e-03
1.775428232084316216e-01
1.769043347213506978e-01
2.744375545593789184e-02
-8.863356326763478787e-02
-8.848664549474186125e-02
-2.221563808388766353e-02
4.074947275971153859e-02
1.441980904816665861e-02
-4.620957868639803678e-02
2.419013687243256466e-02
1.331323518757964730e-01
1.053796279574779476e-01
5.265849399561349509e-02
3.934258248348913162e-02
-3.368679432716290001e-02
-6.652987458248259267e-02
3.579757511562888656e-03
-5.553278295401468945e-03
-7.273905055160230504e-02
-1.100906382276247569e-03
1.211139983881511922e-01
8.955837322674192746e-02
-4.490945396233594900e-02
-1.186548847926479633e-01
-8.847224171108958313e-02
1.967365312229157892e-04
8.104008693786214634e-02
9.465985194305782946e-02
3.199994914726665696e-02
-4.969003578355355583e-02
-7.511633060962381869e-02
-3.908120315862525368e-02
-3.818586847513152655e-03
-1.349345793846793047e-04
-2.237596827545179634e-03
1.393618775960324060e-02
3.208223539813573333e-02
1.566099646654626337e-02
-2.488194739922007515e-02
-2.257304467574449205e-02
3.918366333820349351e-02
7.370712500616635743e-02
1.832187715353081683e-02
-5.232764259960556719e-02
-3.021826683314454004e-02
6.459322553321029947e-02
1.172061630955923694e-01
6.960441474912436310e-02
-2.187298813210325141e-02
-8.894485823168607475e-02
-1.398805434705790995e-01
-1.466234840117384697e-01
-5.618860196618463698e-02
2.954286235945108655e-02
2.228116416337161745e-02
8.134676917034698584e-03
2.455851003262889826e-02
1.498563967569294282e-02
-1.323977165974315334e-02
-9.739185714404548569e-03
2.674928154506739375e-02
4.820698370550503820e-02
3.105151324713034677e-02
6.595399514526102333e-03
5.269003919339845105e-03
2.304861322492388759e-02
4.246699643181311296e-02
3.763221780788046644e-02
1.124846210576647791e-03
-4.295640325099212183e-03
1.318294234404292914e-02
-6.907161939739911438e-02
-1.557828282960400379e-01
-5.627886120374227252e-02
7.626917163829408097e-02
6.468817483129161994e-02
2.995189976984978519e-02
4.918719943359559782e-02
4.495947454549942268e-02
1.424287049814329520e-03
-2.264175985189223819e-02
-1.195792265079014850e-02
-1.118879063894003684e-02
-1.841738944824378166e-02
-3.319880158378103047e-05
5.467362145978420240e-03
-1.474695285664359354e-02
-9.050108088182866675e-03
8.692294885654485229e-04
-1.374331597181873039e-02
-2.829732200214551269e-03
1.645062564569101105e-02
-2.496266046184542411e-02
-7.257826631890930413e-02
-4.714019774675864971e-02
-1.790888897146511623e-03
-1.544288009545849785e-03
-2.331132894478394821e-02
-2.289316999345510431e-02
3.079372194843440005e-02
1.154187843342153880e-01
1.287892023913552175e-01
2.883040455521818785e-02
-9.305774319143411688e-02
-1.722922105096560685e-01
-1.945001860839726537e-01
-1.074439038211644909e-01
2.066329078164332381e-02
2.950826068280158407e-02
-2.372855059148611806e-02
-1.050646390826476565e-03
3.412457744884635213e-02
1.324320551380117617e-02
2.399099935553505869e-02
1.118046208844377387e-01
1.824139346012466356e-01
1.746473089301309456e-01
1.578348674676502417e-01
1.867747819174795099e-01
1.937179917790642081e-01
1.210431215636572910e-01
5.081425578707675361e-02
4.947026506930053691e-02
3.408609632526712202e-02
-1.951525902774115320e-02
-3.491440794004982417e-02
-7.330593625034070859e-02
-1.924550452241759191e-01
-2.469762635035691323e-01
-1.711364393486717594e-01
-1.002696212502729584e-01
-1.045330194991220818e-01
-1.303198648763149170e-01
-1.400867242416656278e-01
-1.354441815318500053e-01
-1.172579564737274704e-01
-9.136995547815940366e-02
-6.831836171207901487e-02
-2.774316945096293868e-02
3.945065615074286325e-02
7.412042760337191061e-02
4.623678630686484797e-02
2.177514094245287801e-02
4.382347070894240804e-02
6.978832421683055232e-02
7.053229610466257848e-02
8.173278750625574685e-02
1.246007700330253459e-01
1.438332158030008190e-01
9.467508793791908073e-02
3.510204026729147470e-02
1.365523168834744186e-02
-6.331840875512126376e-03
2.042391523638376755e-03
1.047138282099217554e-01
1.874509634850918816e-01
1.096639071771074031e-01
-2.536374785940202076e-02
-1.201332325828471659e-01
-2.138345792422070013e-01
-1.952675610667667927e-01
-2.410475652584112560e-02
5.667371999139371452e-02
1.339074556916197353e-02
2.718028327723245180e-02
5.116427437784614590e-02
-1.597526985359722790e-03
-6.407676744821316772e-02
-1.021126595627312034e-01
-8.802015716664689238e-02
9.833714146436564607e-03
7.847178184009241664e-02
4.262013467645133641e-02
3.012190283906562155e-02
5.241371048140212874e-02
-3.653167909506267047e-02
-1.132365657252487612e-01
2.332663764546721169e-02
1.655788642856816095e-01
8.638117134419925902e-02
-1.520964004642848949e-02
3.795038237567313621e-02
7.759900412875243847e-02
-1.053421210826310621e-02
-1.069716482082619657e-01
-1.529400632560136142e-01
-1.753026234020279017e-01
-1.203893138452191147e-01
-2.222671741924727232e-03
3.723385464706652215e-02
-9.541451448222718762e-03
-1.901526501949289683e-02
3.586426720372806742e-02
1.004139309884438530e-01
1.253905600005741638e-01
9.103144410385341501e-02
3.044301621792988577e-02
-1.682971874489974651e-02
-3.061115445018434966e-02
-8.470791543358767786e-03
8.897845189976334723e-03
4.832436267814197751e-03
9.402327302026487407e-03
6.313419891541380453e-03
-1.961835028907230744e-02
-2.244548580982030916e-02
-3.567435096125003667e-03
-3.271533970180011061e-03
3.818526049970899418e-03
2.419513444482275163e-02
2.534294191226815762e-02
5.609495784985955857e-02
7.169260037537621144e-02
-8.712004115056885822e-02
-2.145557579301567430e-01
-2.854443366255399184e-02
1.117424872978702022e-01
-6.624497338212978481e-02
-1.266461838521913130e-01
5.804057416822101106e-02
1.006870827699977572e-01
-1.378543891690753309e-02
-8.571781751036394725e-02
-8.376453177857157151e-02
3.223798625145246621e-02
1.637377192185376640e-01
1.157512383860809235e-01
-1.818207303745560111e-02
-5.275039037972359401e-02
-8.840318266161883987e-03
2.760647464304813101e-02
2.352926478357852610e-02
2.485236913281307219e-02
7.125495580523592831e-02
4.776305346955853764e-02
-7.704033536004908922e-02
-9.684706216263369583e-02
3.171341788189854793e-03
-6.604700386789279232e-03
-9.571952984766497752e-02
-5.758262656793209505e-02
4.753124498245463181e-02
5.744743170883773176e-02
1.186868907878223765e-02
-8.511137875100398612e-03
-1.758826739073470966e-02
-1.880385984198674337e-02
-5.154364962361684954e-03
4.112559612211735306e-03
1.142197874267388349e-02
2.772348278849636957e-02
2.457628657332627808e-02
-1.932396314612945185e-02
-4.723031428697132411e-02
-3.300158365050002984e-02
-4.758930310989729906e-02
-3.582091952801409046e-02
1.072906309243161077e-01
1.960396061571242909e-01
6.615373743788760530e-02
-6.811612764452693036e-02
-5.347077097821746616e-02
-7.756269168075490689e-03
2.669512024166329281e-02
6.921083606121906928e-02
7.666513634237613617e-02
6.593618357779441885e-02
3.135324778522886185e-02
-6.540297577502031390e-02
-1.084238573288428542e-01
-6.657486711032066518e-02
-1.135491556970389809e-01
-1.742171663792189962e-01
-5.275989648167200841e-02
6.974421899444906148e-02
2.722723462830307917e-02
-2.480441313220113284e-02
-5.345567650110066849e-02
-8.786466200149788131e-02
1.752223220233548040e-02
1.729923201302438485e-01
1.225709085318491265e-01
-1.271755060553837399e-02
-6.797107387030676753e-03
4.263552241767119833e-02
3.917885734161206945e-02
8.542269097141443057e-02
1.298698786623378731e-01
-2.938378801833639586e-03
-1.708566180252173716e-01
-1.189594891810026034e-01
1.355687184861131822e-02
-1.245393663906878799e-02
-8.199542703334659899e-02
-3.037445264658525379e-02
4.013138778427879222e-02
3.520454430304900684e-02
2.794696850564357821e-02
3.031112340081881795e-02
-9.715639865757894067e-03
-3.408916304547086190e-02
4.043955780177266660e-03
3.357868670663995830e-02
2.613997400079978717e-02
2.058009212745541203e-02
1.219270014800452953e-02
-1.838007494028944672e-02
-6.590484719401359937e-02
-9.825788399075358059e-02
-6.201133222650467847e-02
2.307204665382051045e-02
5.810101769191981791e-02
2.123998321767791089e-02
-7.975438503432474152e-03
9.459806364739854062e-03
3.670802410168070434e-02
3.882407329708624510e-02
1.712674134909181883e-02
3.357151930410936375e-02
1.479172548597146031e-01
2.438271161113240160e-01
1.452875393539383164e-01
-6.891470971802321488e-02
-1.685347321270447007e-01
-1.313069890162341657e-01
-9.886950024488022626e-02
-4.933209754705260297e-02
6.456490565251943314e-02
5.132215091868613799e-02
-1.057067073500329579e-01
-1.330292431792570174e-01
-5.159338464591917833e-02
-6.785080952649165387e-02
-1.011562256839663720e-01
-3.503752985006846482e-02
4.113530027765897185e-02
6.288187783742982262e-02
6.541541472863207640e-02
4.126578394657241800e-02
-8.208879802513576948e-03
2.224921841454334179e-02
1.101933804245100179e-01
2.879833956850335469e-02
-1.704524473759499448e-01
-1.460014653411425556e-01
5.087907032990536538e-02
8.201725523377768889e-02
-1.432139021324451908e-02
-1.917177172241898292e-02
3.008842872516708650e-02
3.830642017749792683e-02
4.598303961131561257e-02
7.635370669103978825e-02
7.121596319710803147e-02
1.302426692865714039e-02
-3.418006545578444050e-02
-2.862227621846483855e-02
-4.548703660864451132e-03
5.725977642938247063e-03
1.225884592167598985e-02
1.141703459244710825e-02
7.261972271230560799e-04
1.165385205518766273e-02
2.846809410720475830e-02
7.885986919669931566e-03
-6.471577882044531223e-03
2.134491607993426604e-02
2.291142316830636905e-02
-2.272558672458849585e-02
-3.538328348907389398e-02
1.451536505114570802e-02
8.081212174878137089e-02
1.138600540167896830e-01
8.660060477603968854e-02
3.525718245897845743e-02
-1.369344275305534389e-02
-1.325593822265862531e-01
-2.871166241459277013e-01
-2.655568152428754436e-01
-5.825825006981549814e-02
8.208442972662668979e-02
7.125632478044710560e-02
3.644112909836823289e-02
2.090673353031247822e-02
-1.767156669768903815e-02
-6.507509261924422639e-02
-5.431526252737684662e-02
9.489192326428365701e-03
2.876341782056784230e-02
-4.403597581779390702e-03
-4.016995536916592550e-03
2.374631908846702028e-02
3.391022086339311181e-02
5.486908357224486166e-02
7.704029335960597968e-02
4.437806654464097889e-02
-4.471160362405352320e-03
-8.153868432608058631e-03
4.060224329301920232e-03
1.013229332596242774e-02
3.050618600028197347e-02
4.487463738169018140e-02
2.571416543080667569e-02
9.659647180592260268e-03
3.302110833329731376e-02
4.727561938920703255e-02
2.194304293289629781e-03
-4.483175701641728406e-02
-3.271928547490805805e-02
-1.033042653533429445e-02
-2.018090874462993844e-02
-2.247674585904261071e-02
-4.747877311145344906e-03
6.148542300903754934e-03
1.651502256296360355e-02
1.919620320468265126e-02
-1.448358117829455678e-02
-5.080713355477993465e-02
-3.698335633414680940e-02
-1.878933004618421262e-03
-7.337408206146598180e-03
-3.999861395053146140e-02
-4.434699677188971845e-02
-3.217302955362028732e-02
-3.409521436674813055e-02
4.845880219890579162e-03
1.003273077224854370e-01
1.195009874440883940e-01
1.688877791613807924e-02
-8.323026793750848418e-02
-1.636793752945913671e-01
-2.228012549837405931e-01
-1.235265411641060102e-01
4.613931833401833937e-02
6.638061668846892416e-02
2.917134897703134444e-02
5.117004954047469495e-02
4.150422355982152922e-02
1.264338385605168029e-02
3.892760088517229627e-02
6.780181528295757543e-02
8.153833743518865140e-02
1.169561745019700866e-01
1.265692949574785953e-01
9.966998643154301174e-02
1.128719181009108091e-01
1.501764172779802287e-01
1.556478658130660553e-01
1.356196756026317174e-01
5.586382389172315360e-02
-6.125738138749304423e-02
-8.597503933559183520e-02
-5.979987081031816476e-02
-1.179107108973293794e-01
-1.826948693004388224e-01
-1.572961289091712456e-01
-1.132028727878711671e-01
-9.554601356553940605e-02
-9.867609150121876838e-02
-1.341484899536454500e-01
-1.528077372552278379e-01
-1.202388261575963457e-01
-8.025884385926262965e-02
-3.796712800401356308e-02
5.872214813174077286e-03
8.217568872115568746e-03
-2.081738823895860901e-03
2.255978601130279732e-02
4.508675721803639957e-02
4.678420415116264774e-02
5.671884830173164194e-02
6.773046978289293252e-02
7.319086019211312744e-02
9.742542808704382495e-02
1.276311319680751843e-01
1.237340246993413190e-01
9.001314921537122149e-02
6.733712600176347540e-02
8.480463177816710552e-02
1.268715528395361891e-01
1.484452397919486799e-01
1.347233008967147760e-01
5.198262372014179900e-02
-1.460766226279811009e-01
-2.839801475677490306e-01
-1.629091028524126128e-01
-3.756659048248030264e-02
-1.330833894579886711e-01
-1.378161646834444032e-01
4.577896559815468336e-02
6.881621558588388310e-02
-5.871714261361948156e-02
-7.590649986928550697e-02
-3.411252071776676303e-02
-3.252115185022896870e-02
-6.202853911506463550e-03
3.310924938479348212e-02
9.737133530462575154e-03
-3.638872212483332258e-02
-1.166120880653467341e-02
6.392170222033129179e-02
8.455535482632489663e-02
6.224279818075074966e-02
9.356180782602124824e-02
9.642099019097155610e-02
-3.672423307247628388e-02
-1.356410994723311336e-01
-6.337024256099349495e-02
2.599736219168865409e-02
2.513098376398320566e-02
9.614545288077647189e-03
3.107471065138210642e-02
6.426572285429527076e-02
5.266882016143781958e-02
-2.468718828427506409e-02
-8.611080079102502449e-02
-5.003348454916711069e-02
3.777007639890232055e-02
7.783326864359374486e-02
4.157917203287699731e-02
-1.970948066960127518e-02
-4.999155800886866813e-02
-4.651186570555294886e-02
-2.472176448267309617e-02
2.052631768141102882e-03
8.765058980099004610e-05
-2.049856483822666206e-02
-7.198865117771934170e-03
1.549961160977430738e-02
1.418478808801349605e-04
-1.239889393326454835e-02
1.617736300350202869e-02
5.064679483596176701e-02
5.488579187605970022e-02
5.764230063290483319e-02
9.691985204430515755e-02
8.031353602471391628e-02
-7.171972302039521241e-02
-1.781441171783228195e-01
-1.180307487642585640e-01
-7.711947281093395334e-02
-8.907170698282418364e-02
4.511509817606360571e-03
9.477135000081220173e-02
4.152897845697074708e-02
-2.705142262227609729e-02
-4.361639609473460383e-02
-5.527253843046373016e-02
-2.710907133817687387e-02
4.194051699621249851e-02
8.099514816851365040e-02
5.888815303351999098e-02
-4.714268240074478283e-04
-2.802466111232208151e-02
3.869548526386107010e-03
3.736018554958973892e-02
4.885074436163192729e-02
4.704684381742121196e-02
1.764315326897683903e-02
7.061682557626213982e-03
4.958787442225038450e-02
3.811994846175049273e-02
-6.902921556740078401e-02
-1.123727516720751524e-01
-2.918780264069630037e-02
2.714688717771345655e-02
-7.390201547027505646e-05
-7.766614954354510159e-03
5.281092952454351751e-03
-2.616136965586802685e-02
-4.083622405081588358e-02
1.494279653565295379e-02
4.860361545226879465e-02
5.936745661722597073e-03
-2.882429800984812746e-02
-8.457573471500952345e-03
5.931258612594556695e-03
-1.417128706956949716e-02
-1.821797640098386101e-02
-6.260720525073933118e-03
-3.211095065387539749e-02
-3.198880693909534473e-02
7.245389763980840392e-02
1.311203807846171576e-01
3.547766736526249132e-02
-2.329836835206067214e-02
4.405437942167094584e-02
6.018909431779265184e-02
1.357529518924234686e-02
6.145892369751346229e-02
1.021650834587258666e-01
-4.132621750416023976e-02
-1.756105361419479094e-01
-1.110668678603057846e-01
-5.628462694006948486e-02
-9.052905999165559991e-02
-5.713622661211502883e-03
1.111031473396217745e-01
4.850977885471945833e-02
-5.381221224002798176e-02
-5.737852275516255179e-02
-4.904290626628082100e-02
-3.823061812314322572e-02
1.834410816976564385e-02
5.389393405087726518e-02
2.436171162007161675e-02
-1.220820146312982801e-02
-3.558549644254540602e-03
2.353216929473515504e-02
4.640135008522749960e-02
9.998111087945120434e-02
8.856805413281994277e-02
-1.038802854945053561e-01
-2.454938372319513673e-01
-1.464113880961257497e-01
-1.631197561186922135e-02
5.589004284056442451e-02
1.345574396207367129e-01
1.127505971159368098e-01
2.834650802959912119e-02
3.926160679101797779e-02
6.094171492262645540e-02
4.722121143196205892e-03
-4.265870503403054737e-02
-4.038657704440222485e-02
-1.896011502326904602e-02
-7.416559317965929279e-04
-8.358885436201092534e-03
-2.265235870796088874e-02
-7.642562393153938538e-03
1.213780945555767606e-02
1.953010765874228782e-02
4.720279003431557957e-02
7.718123097597645588e-02
5.567438516098273393e-02
1.508644533067868884e-03
-4.379117082318931958e-02
-7.187433625539817184e-02
-5.911901231750558289e-02
-5.408392229088437170e-04
6.606734762543339801e-02
1.088279544378308455e-01
9.875611953888456529e-02
4.405981313853429837e-02
-2.000438537705832159e-02
-1.193835914856710284e-01
-2.277836368997842864e-01
-2.131035080244486069e-01
-7.129757282885179626e-02
6.658334419647307656e-02
1.262318019661042567e-01
8.693258003399000067e-02
-2.503117499080335234e-03
-3.560555223538086622e-02
-1.968464276281217673e-02
-2.250942918470835372e-02
-1.299104907749740190e-02
3.250808969683739724e-02
5.314538947755291509e-02
2.479259747725921087e-02
-9.008460520221542311e-03
-1.268471039529587945e-02
8.318254698351058157e-03
1.471439429065871281e-02
2.383862720908931122e-03
2.091482139168036186e-02
3.923778767261774242e-02
-7.950553487135023252e-04
-4.468907949242443590e-03
5.312519132038803771e-02
1.136556291880556381e-02
-8.247793423429401749e-02
-2.693470710329728957e-02
8.744650325816860637e-02
7.043730795850218496e-02
-1.339253559630156076e-02
-4.737275353213070417e-02
-3.991494138285178739e-02
-1.017864069960395731e-02
9.583352473382723488e-03
-1.867900619523408037e-02
-3.802273498086947146e-02
-3.229813836188773386e-03
2.637905131028170716e-02
1.939663655499615502e-02
4.175313465156866091e-03
-1.210899524842600980e-02
-1.430243944870227338e-02
1.785199859921932433e-02
3.973835164361872591e-02
1.730645268191185332e-02
-5.453171962052841618e-03
-9.108138049597131955e-03
-2.919682407016135038e-03
5.192787552335546147e-02
1.320811140247024895e-01
1.131224695042963441e-01
3.652866898079067115e-03
-6.740091601717580760e-02
-1.273314523296354972e-01
-1.998860702096054709e-01
-1.641288432706641265e-01
-9.143844241845061616e-02
-1.016600697371942003e-01
-6.380320616099703634e-02
2.770649437513978547e-02
1.645673835576455177e-02
-4.366368261025579955e-02
-4.547882940804770513e-02
-1.891004662332513783e-02
9.199366951935822323e-03
4.319023116563940751e-02
6.649848598745190797e-02
6.635182337887120252e-02
5.722487499825702761e-02
6.535639313109896376e-02
8.361539818098205623e-02
9.471437915026530152e-02
1.236006069956108872e-01
1.698070593002511952e-01
1.873105289490813175e-01
1.624393193004116942e-01
1.140356770565889438e-01
8.335027377657630576e-02
7.454095025299811716e-02
1.516903012065326864e-02
-7.123033006186427207e-02
-8.120560245496823149e-02
-6.350034652862279749e-02
-1.166177161328125073e-01
-1.870370033083231243e-01
-1.849924125668604147e-01
-1.297116541406852508e-01
-8.492417839659874290e-02
-8.683187401759125124e-02
-1.483787669496363093e-01
-1.849588965551693942e-01
-8.306062866420892143e-02
4.041921168568621964e-02
1.358550957453132785e-02
-4.530393205215207247e-02
8.606230483590899399e-03
6.524565957494782298e-02
3.110206565638243270e-02
2.218002913990452935e-03
3.676440751041765154e-02
5.478421309076991763e-02
4.526466055971481439e-02
1.102891407158168718e-01
2.122740678649632784e-01
1.965154319715647080e-01
1.000833810202697016e-01
1.639269940576735043e-02
-1.009850292585811049e-01
-1.302291910508050765e-01
2.500671447584214974e-02
5.643220976204542383e-02
-9.030260666657621837e-02
-5.381379046506293284e-02
9.700433867091791396e-02
4.983830149438765039e-02
-9.414516115315284261e-02
-1.409139930241974648e-01
-1.179361502979000276e-01
-7.418917754198264825e-02
-2.073578433877383206e-02
8.626235943456206715e-03
4.686762568927121259e-03
-1.942420243409908112e-02
-6.912707739368229021e-02
-6.029369648869264270e-02
1.064618670529876437e-01
2.155871544849077281e-01
4.975164071354425815e-02
-7.155127925142514000e-02
9.220854087722922532e-02
1.769436692973916092e-01
2.449671581277557131e-02
-5.814933330139751555e-02
-2.406055647933853792e-02
-1.631406871312370693e-02
1.775771005595417479e-02
6.524135418634322003e-02
1.454123144134987847e-02
-7.342683166151274532e-02
-9.103790033858703834e-02
-5.223030369125893080e-02
7.094590837246626640e-03
5.735510203072210350e-02
5.048055462028790824e-02
1.632466871274126582e-03
-2.579739324994271762e-02
-3.404532022069317598e-02
-5.103233895564549677e-02
-4.350107131173772124e-02
3.252139550374556938e-03
2.703135225141298920e-02
-3.065766978316791444e-03
-3.316044940706257965e-02
-1.901332816205514656e-02
9.465669850306463601e-03
1.004413658402549502e-02
7.787669998530141052e-03
3.231899349375239039e-02
4.676603515854702714e-02
5.248957784862504083e-02
7.574196452784187628e-02
2.559610793030234199e-02
-1.088624739308877432e-01
-1.291101518881410948e-01
-3.459635080307234267e-02
-3.415028858735494333e-02
-5.093504821253892756e-02
4.490868159077768956e-02
6.883075676933075870e-02
-2.832127628992834115e-02
-5.577099530948097239e-02
-2.169407818743337990e-02
-2.277076582107227104e-02
-6.595414794248255670e-03
4.746355194861644894e-02
6.832468770096172817e-02
3.889911473176709683e-02
6.833981844348296399e-03
-8.076846990654782538e-03
-3.376739023020665365e-02
-2.789022609543960474e-02
7.661967451886907143e-02
1.018494728953273087e-01
-8.453219805827233424e-02
-1.475079339062120853e-01
5.608519817787571693e-02
1.242151350087054712e-01
-1.769437206394539053e-02
-4.940183726727052221e-02
2.298563571024564434e-02
3.939853479249021129e-02
3.582134359190117245e-02
3.397721433327804269e-02
-1.125246087799351181e-02
-5.914078357053788315e-02
-4.251447051649367287e-02
6.613273456278033827e-03
2.115730400740668121e-02
1.953722886690058974e-02
4.020317324711356055e-02
4.465616481853351694e-02
2.914367543896288423e-03
-4.017263569668401424e-02
-5.079426225291457792e-02
-3.889702712228455123e-02
1.424111656801893295e-03
5.117170740174767363e-02
2.787589840045394743e-02
-3.690301099313458844e-02
1.337410611330838890e-02
9.589749984791345883e-02
-1.494939421474448388e-02
-1.499793723981879823e-01
-4.545913698212988852e-02
1.032354808721765438e-01
9.880083764891051112e-02
5.107988283536259166e-02
-1.558815981184035956e-02
-9.222355600872524095e-02
-7.595816601117029443e-02
-7.054006133370246956e-02
-1.356014615920147770e-01
-6.443958048365758251e-02
8.638384946191302038e-02
5.564715017468065822e-02
-5.094576499111601320e-02
-5.162356365589411411e-02
-3.002093516489147754e-02
-1.768092011255604362e-02
3.346386126559100505e-02
6.355486880675981221e-02
4.713176404484201165e-02
2.960738238310790110e-02
8.244943872030141910e-03
-1.932939052844154671e-03
4.646284266606143243e-02
1.015816078191397326e-01
6.584539962062067875e-02
-3.951996598377185304e-04
2.708339230964855113e-02
5.598431977904610307e-02
-3.137620983199523872e-02
-9.172060884761046307e-02
-2.845731262025028713e-02
1.627334322676522033e-02
-2.133531922446238113e-02
-4.390680819641103183e-02
-1.774320234229455340e-02
-3.760713286832724836e-03
-2.298540453093868632e-02
-3.616852865051528587e-02
-2.257027454044879811e-02
3.788433836847683285e-04
1.483968813174785413e-02
2.164015209393022401e-02
3.031759261027004021e-02
3.644549718992869114e-02
1.727394992902926002e-02
-2.016938218513347411e-02
-2.081331121314618227e-02
2.428933285872855383e-02
4.880318218438661759e-02
3.106233824660016921e-02
1.222139283719859970e-02
3.568392732467750607e-03
2.786908371484123244e-03
2.370252381542399187e-02
4.108589308257235007e-02
3.415187926722879769e-02
5.413675037038865462e-02
8.353523009134614097e-02
1.476592348806674872e-02
-9.498990180847208253e-02
-8.728523687633017725e-02
-3.376719331058609941e-02
-1.201549541507369312e-01
-2.511120179444537026e-01
-1.479268365238954885e-01
1.233505517823161451e-01
1.693739579332215195e-01
-5.696217564034846553e-02
-1.767021085196658625e-01
-6.634692532901900752e-02
4.310501173964090965e-02
6.906585366654743874e-02
7.704738245822939646e-02
5.111647116081884795e-02
3.734208907141009157e-03
-5.607648960222236592e-03
1.628442562660239665e-02
5.490048507948031703e-02
1.152489036383517601e-01
1.226952120858115503e-01
5.916981321130481558e-03
-1.007897186324761413e-01
-5.113979383147432972e-02
2.443461572296903861e-02
-3.193072911442465696e-03
-2.348592267489357788e-02
1.965188513409129450e-02
2.404137912412241534e-02
-1.294833727210734260e-02
7.351814822329954049e-03
5.183807764071175078e-02
1.762050287728194817e-02
-3.948280510978512819e-02
-3.284019129628870659e-02
-3.007149505942932274e-02
-6.486054616750758228e-02
-5.405637812618625804e-02
4.996103761880383437e-04
2.141699124396533732e-02
6.185359155496859829e-03
-2.888526973211117798e-03
-1.504846798374156721e-03
-8.177303881203464714e-03
-1.326668922221514463e-03
4.001424095880111442e-02
5.875606553690942285e-02
2.545556906034582983e-02
-2.671226678378039142e-03
-1.337629235743359978e-02
-7.940806434312214571e-03
6.781321480737652341e-02
1.466043912332856969e-01
9.015855111286147361e-02
-1.633602965652477396e-02
-5.528042235526306469e-02
-1.162799521060882968e-01
-1.447689984617772097e-01
4.956699126770561237e-04
1.021088845099690501e-01
2.873590774113725377e-02
3.323862359574247805e-02
6.428816396579241366e-02
-1.263100365254725688e-01
-2.684033498940934237e-01
-9.456269772232878124e-02
8.531933736925019496e-02
5.414192832116453136e-02
1.070352363303881185e-02
3.701926040973674281e-02
3.067838184167856475e-02
-2.411784843619452223e-03
-4.829590441511067214e-03
3.401263965183917021e-02
8.095397163761536286e-02
4.131012338139980478e-02
-7.860756729778299590e-02
-1.125688616535323178e-01
-2.410552066285617800e-02
4.695740633931012875e-02
3.589875370661593790e-02
-2.681657398390132133e-03
-2.418073315541875365e-03
2.190025501055365906e-02
9.677674737556197365e-03
-9.449577563275397482e-03
6.683903824128527293e-04
-1.147527094542252074e-02
-4.088192367894750295e-02
-3.613045873468438002e-02
-2.349456643616485568e-02
-2.448274336250541236e-02
-1.594987600025378136e-02
-1.863868391495136084e-02
-5.743001204287527528e-02
-8.109621867655716909e-02
-3.905613288638257879e-02
2.700561596493398706e-02
5.299623092569025196e-02
3.663784003392802496e-02
2.791690574059417073e-03
-2.031053306932278923e-02
6.298382651272445634e-03
7.077915637737032528e-02
1.088075869260099471e-01
1.363133402293140450e-01
2.168810858762230953e-01
2.853487132880004329e-01
2.516452705310934235e-01
1.285855780491306222e-01
-6.262309870574667148e-02
-1.886638657482974657e-01
-8.190750853479077109e-02
6.792736634885396252e-02
2.884540840934602529e-02
-3.942677363625696207e-02
-2.941407176251818398e-02
-7.711728224349109762e-02
-1.659249051134998321e-01
-1.729731272073549986e-01
-1.299217949857762455e-01
-1.308333949899293247e-01
-1.627545673352422673e-01
-1.429082821647333079e-01
-7.738412302134778376e-02
-6.204824496827382463e-02
-9.422466630095559237e-02
-5.749501920085972606e-02
3.317551165674865327e-02
2.466350585433253750e-02
-4.196188939558078562e-02
6.381040185045386282e-04
5.242074107854106241e-02
-1.906477185786890557e-02
-2.562683758853772503e-02
1.156705290704370254e-01
1.783985808316211341e-01
1.197755510868373785e-01
1.035204667186371275e-01
1.242126712624662538e-01
9.504939169897597129e-02
4.100524110026594615e-02
1.096467875694275007e-02
9.133830876072633609e-03
3.452742504933714596e-02
7.414313221376450658e-02
8.070208020870031640e-02
3.047756638518273747e-02
-2.970128137678661878e-02
-4.558813402216294053e-02
-3.667987524544867595e-02
-4.777272630005018061e-02
-5.478376113394078234e-02
-3.651687024422294037e-02
-3.648151780142675632e-02
-5.086969227042202613e-02
-4.329209704775680706e-02
-4.626162061964826655e-02
-5.793854761486569305e-02
-1.343256717489037721e-03
9.440344476447648514e-02
1.132183064442463805e-01
7.345554884360602776e-02
4.087828923487941968e-02
-3.165568087416424647e-02
-9.654408590842898652e-02
-5.192822956481378538e-02
-4.273528971200152293e-02
-1.199589598898002235e-01
-4.335207193400364423e-02
1.145194210847048505e-01
5.865330201286298589e-02
-8.435671803334869601e-02
-9.228478677008791764e-02
-6.578881389227003718e-02
-6.658324995351005970e-02
5.666718472876232371e-04
9.055268806375144086e-02
6.490915831252321022e-02
-2.834056211263178207e-02
-1.891974796986508819e-02
6.619222194401550019e-02
7.184860307125616463e-02
3.927171196702698014e-02
4.987397549497473576e-02
4.223327302370062826e-03
-8.435138073660045088e-02
-4.502493852513854422e-02
7.446061498175297888e-02
7.875857409647882279e-02
-3.160779452903504649e-02
-9.623658560742023860e-02
-3.066883372065876134e-02
7.858237131424264388e-02
9.358559040382624650e-02
1.255244177947836132e-02
-5.621285353657091977e-02
-5.193917397858703600e-02
-4.470829635336761448e-04
3.109113355414746399e-02
2.542479101555659982e-02
4.936200717085965223e-02
9.713664370296253014e-02
5.897361442423802724e-02
-3.637826020444396430e-02
-3.404524210394740957e-02
1.587315460736996725e-02
-5.118870448857276712e-02
-1.347726235201379963e-01
-7.747184088796009449e-02
1.060770743138778754e-02
1.904335199446174909e-02
5.634904713672476625e-03
1.751822227371192808e-02
5.403307238265378509e-02
8.126683609908436079e-02
6.407298703437400156e-02
3.640703938037839760e-02
-8.075329039454490904e-03
-9.960691392780658682e-02
-1.424162190084944934e-01
-1.236984163656691255e-01
-1.298585849307655471e-01
-3.966771156668855158e-02
1.495125353418014502e-01
1.388764023234216882e-01
-3.729947495852706935e-02
-7.589663450579002546e-02
-3.376761938574478206e-02
-7.375334294200104612e-02
-7.567498195218200219e-02
1.755005725349183948e-02
3.197096776199742640e-02
-2.103339243613946280e-02
4.809222868916876448e-02
1.424025187946969528e-01
9.351110308984805775e-02
2.700739462621045209e-02
1.910500599247545728e-02
2.484135448004079136e-02
9.375851190578506078e-02
1.403492893308699307e-01
3.081536107227132726e-02
-9.224557425487286966e-02
-8.552007037070909201e-02
-3.706995746578320428e-02
-3.536898950928044072e-02
-4.722837761910474857e-02
-1.986675376202010762e-02
2.545726672310696242e-02
1.929460617394745947e-02
-3.423049234717961964e-02
-5.056161671336036056e-02
-2.304712370754122275e-02
-3.250757627983628939e-02
-3.470886003003749443e-02
7.617861350475282900e-02
1.704428490810878105e-01
8.347228683842977670e-02
-4.527384772981504768e-02
-4.820882077125577397e-02
3.888585168499578831e-03
7.396248185024338964e-03
-2.307136497388435556e-02
-2.897079941655038987e-02
-1.706912270468750881e-02
-4.820005486045277759e-02
-8.390960874548906989e-02
-2.318732271395810424e-02
7.091355094932115521e-02
7.927306373566711528e-02
6.599908769829385125e-02
6.576881109649164447e-02
-2.167682687262260238e-02
-1.123390250495698989e-01
-7.468991667422551772e-02
-5.098730935132517184e-02
-9.369502727901053707e-02
-1.492267040199404468e-02
1.114356734133673671e-01
6.105371501166204085e-02
-3.785261430514527681e-02
-2.089836628769243740e-02
-2.565166394124315796e-02
-7.195923163656707533e-02
2.178948417400781296e-02
1.259681035563520735e-01
-3.664212486505064037e-02
-2.268418973196720534e-01
-6.266332599669827141e-02
2.109578325182460135e-01
1.985836971910629467e-01
2.567514232507485394e-02
-3.783483572425568042e-02
7.498508096898379160e-03
3.704787503003372645e-02
7.621003000449551746e-04
-4.617068334103049954e-02
-3.186238095092726319e-02
2.088935275555028892e-02
2.364978542376975842e-02
-1.705642380032250729e-02
-1.746723362940146018e-02
4.438981431134360681e-03
-1.450781846186172813e-02
-3.753383106638071010e-02
-2.625259110535087953e-02
-2.138258566176287623e-02
-2.343571274466610746e-02
8.482056632475849442e-03
3.820275127079131999e-02
2.427310090710070589e-02
-2.143544901561387009e-04
-1.130120703731801041e-02
-2.290175320163099788e-03
1.613822705930715098e-02
-1.394493653986996623e-02
-3.587678750052366444e-02
6.991326608041374679e-02
1.569326749303883439e-01
5.117054624549431663e-02
-5.328634760800619180e-02
1.749795934693621630e-02
9.033942086302090835e-02
4.438292212467132014e-02
7.684531968258107026e-03
2.655092975856144372e-02
-6.612230326824970923e-03
-8.057876037728838037e-02
-1.020919928305092789e-01
-1.006605837087120453e-01
-8.724030873562489685e-02
-1.532233838777023911e-02
-1.933885649463393426e-03
-9.806127625757678212e-02
-1.015373290952228114e-01
-6.087244936552695107e-03
-7.289162440247617947e-03
-4.158780808964415016e-02
1.941614507174915100e-02
7.393774324015210675e-02
5.102203478865224157e-02
1.032266404958801127e-02
-2.197623101564087286e-02
-1.403819072973577428e-02
7.196935012485823624e-02
1.439878693555254885e-01
6.874867020332542378e-02
-7.530597407147127109e-02
-7.343311235754101940e-02
2.695565283446789417e-02
4.668595918596764836e-03
-6.627099801162160408e-02
-1.106533329310744121e-02
5.753444237353851770e-02
2.442200902473542351e-02
-1.009281922280162724e-02
-1.769528028460243263e-02
-6.874301337356394925e-02
-6.073704556565846790e-02
9.015036594050460095e-02
1.710912852925928762e-01
6.197233073695711941e-02
-2.483730724522523539e-02
1.384534862162632718e-02
3.798312625647672081e-02
-1.886651908585234433e-02
-8.379453848851974029e-02
-4.741356060327661659e-02
9.973554150663437035e-02
1.600233512487859444e-01
2.918781139791757837e-02
-7.048965658359980513e-02
-1.594704143511743027e-03
3.041918153283402343e-02
-1.047532389347213405e-01
-1.844921342428982314e-01
-4.560159927326275231e-02
9.364602543870688411e-02
6.892143896737423781e-02
3.350137193113178480e-02
2.835750375187023192e-02
-6.538837803943309268e-02
-1.499657857363442259e-01
-1.051719237680277252e-01
-5.484853208124453039e-02
-6.625557555184730107e-02
-6.055577868020321775e-02
-1.218365333001309239e-02
8.188033121971748096e-02
1.455501968732118567e-01
6.242638957190128901e-02
-5.641593168774526601e-02
-4.650722644120861005e-02
4.956959840686424312e-02
1.158429285824001953e-01
6.287589070861332452e-02
-5.165446825821110727e-02
-2.248812436580113067e-02
7.666791195604313880e-02
-1.120972340009786239e-02
-1.333397787409716095e-01
-5.263124043963349208e-02
5.245764588324023509e-02
4.363003887282845827e-02
2.674834723585531315e-02
1.702099716256696288e-02
5.229973705797283205e-03
3.226631351451775265e-02
4.104098966991925196e-02
-7.879777636503762159e-03
-3.673513678630868640e-02
1.207773129209895047e-03
5.128329761051369368e-02
4.130517619616961428e-02
-1.547690944998104425e-02
-5.202967318077545561e-02
-5.734950700378270427e-02
-4.441005480475272715e-02
-1.393172153235137586e-02
6.240047116144702664e-03
8.422043284912607980e-03
2.477097409216562351e-02
5.736242106151541453e-02
6.209087582114851400e-02
4.326237983795615423e-03
-7.078176727679150182e-02
-7.934668152110575801e-02
-2.718259942975240206e-02
5.826395434435518647e-03
-7.262172518760850147e-03
4.241663432518628235e-04
8.084734012979080675e-02
1.445248645503708906e-01
9.063727042456759531e-02
-2.791523314264644437e-03
-6.250656292478048992e-02
-1.501121685054986332e-01
-1.952961654964258387e-01
-8.345652533972494624e-02
3.041135364227418036e-02
2.721306154304142105e-02
2.114193679502674589e-02
5.466006123488204721e-02
8.264964034935093351e-02
6.330397850648115943e-02
-1.829338924053500529e-02
-5.151585208425003143e-02
4.430865916444887836e-03
2.219259307339853035e-02
-4.665018212818146728e-03
1.352147451911864598e-02
3.087296399093618360e-02
2.639316622404199418e-03
5.651771911673838297e-04
3.022339195151412666e-02
2.993230754414894293e-02
1.576633637077608924e-02
-3.856830010011896154e-03
-4.848101631042897597e-02
-6.094908902820859314e-02
-2.301936677413666393e-02
-3.604907063590390842e-03
-1.355783330364687157e-03
2.340218809958792903e-02
3.914254985501666728e-02
2.024216881359538339e-02
2.002608579800205582e-03
8.142824145385119637e-04
-1.139671265464466642e-02
-3.249660621435163793e-02
-2.640972288754695613e-02
-5.434344565297701685e-03
-1.407672022092626603e-02
-3.915897549665807442e-02
-3.579014079175613094e-02
-1.113121674812183985e-02
-5.635314171609440842e-03
-2.651573779777436496e-02
-4.498286261810391373e-02
-4.022552801910653231e-02
-2.399601014944207841e-02
-1.693238883400055919e-02
-1.699643557821549703e-02
-1.447475944352454372e-02
3.235259132753228427e-03
6.993831150914658901e-02
1.632676208231909065e-01
1.662849333347110603e-01
3.986157281604214841e-02
-1.175207254209668234e-01
-2.093134407261162677e-01
-1.484673763863094686e-01
5.403407593730546327e-02
1.809785773096549699e-01
1.560921474097266837e-01
1.549622698620276573e-01
1.826101715353073973e-01
1.325890407473664656e-01
8.507561068600308363e-02
8.828683326860427283e-02
5.509813976727735707e-02
-2.445335263115511887e-03
-1.065692714122403600e-02
2.506257912830486129e-03
-2.842172859512480387e-02
-9.720570387029400794e-02
-1.368387357844671748e-01
-1.367782409563313428e-01
-1.641867952796034758e-01
-1.980788135725707610e-01
-1.514705314412005954e-01
-9.357945100264680738e-02
-1.330047179894776332e-01
-1.588377801055081140e-01
-7.593860346126615757e-02
-2.779716247836681170e-02
-5.924497357643102730e-02
-3.252741790978179448e-02
2.619249305851914858e-02
1.987433696600557353e-02
1.823775885000381708e-02
5.852914634775223390e-02
7.376795872436552048e-02
8.773822597885909402e-02
1.478896268815567960e-01
1.882360510457288250e-01
1.537839571220297463e-01
9.586377863657193077e-02
7.085398249001043092e-02
6.895019201971838707e-02
6.154519618875866488e-02
4.463265429954564600e-02
3.284435815046613666e-02
2.880778402938153140e-02
1.145294751543939754e-02
-2.045419657446800529e-02
-4.858917854708916240e-02
-8.373009510911121056e-02
-1.013253177891718648e-01
-2.096458480631334387e-02
9.288032199634001229e-02
7.521984456047024759e-02
-1.534262040471491735e-02
-6.566519642667109635e-02
-1.586674568204010094e-01
-2.409583114781176094e-01
-1.518294147021732876e-01
-6.289698125336477125e-03
6.068065515490368711e-02
9.439157603800316099e-02
7.700007708317074817e-02
7.684481306453948973e-03
-2.170103589792843693e-02
-2.615151268561972248e-02
-3.868785628060773113e-02
-4.059002503626616895e-03
5.705995557413652552e-02
7.100395648502395851e-02
4.192394499833065891e-02
9.615149650903166353e-03
3.177305773852604452e-03
2.353256336393864598e-02
5.640480533091134924e-02
8.878490373811975811e-02
4.951647498003870773e-02
-7.355176840126542714e-02
-1.417594355905254511e-01
-1.177715180597589673e-01
-8.085288443081689591e-02
-2.724344227221945150e-02
2.055312458848005189e-02
1.408932422418433111e-02
2.056775808793878668e-02
7.322941433476866380e-02
7.948286965725942510e-02
-7.522484988242011950e-04
-7.230589105628573710e-02
-4.690443050757502064e-02
3.347914186336459902e-02
7.447036879668142428e-02
5.857217918216010843e-02
2.945517600153773480e-02
4.694797917768499772e-03
-2.408706904216161362e-02
-3.897733719848693601e-02
-2.077745645159785950e-02
6.985466632249965994e-03
1.839326820158421194e-02
1.758767241690751409e-02
8.792534976254274756e-03
-4.554635506251578439e-03
-6.130509040589690595e-03
9.035683630426668417e-03
3.426264295020329392e-02
6.038601268474023259e-02
7.439322573299017582e-02
7.792088333025064262e-02
4.132907036696774339e-02
-6.865073461032338009e-02
-1.375897096716531542e-01
-8.653431054879456852e-02
-8.016954554846952852e-02
-1.393499600713857256e-01
-5.701319777910870273e-02
7.781184746420824472e-02
4.476749513869278385e-02
-3.442678180558714218e-02
-2.372490448487305295e-02
-2.119564607170629222e-02
-4.433252345332877598e-02
-2.502039656217774303e-03
6.696675350865102794e-02
5.286666970319712361e-02
-2.016452900567373280e-02
-2.725022266077811728e-02
3.396800141391405348e-02
7.328852110276179443e-02
9.876454283673437307e-02
1.129448339971544368e-01
3.460848721836506936e-02
-6.981755816268904458e-02
-5.029574877378380909e-02
1.155239360755330041e-02
-2.940107316918486730e-02
-6.641675176131231484e-02
2.784589845948629364e-02
6.909901154335754137e-02
-1.094012333358072991e-01
-2.079995899074696120e-01
1.582347839580793003e-02
1.950535886327400825e-01
7.192293874873978421e-02
-3.946378622903597838e-02
1.811731788068335694e-02
4.007827661132409847e-02
-6.294441701384517751e-03
-2.915893006958231864e-03
2.262093690347057387e-02
7.627487277749455015e-03
-1.193988854625916210e-02
-7.813169846230743482e-03
-8.860764793370418113e-04
-4.798048449120174280e-03
-2.628608322609292045e-02
-4.551319477528967261e-02
-2.937506255350980783e-02
-2.961951100865968349e-03
1.477900964309973759e-02
5.215494634815603936e-02
8.867106836937731218e-02
9.657479424002791968e-02
8.374557646248116660e-02
1.840217048040210810e-03
-1.305584866930896981e-01
-1.491391702361223315e-01
-7.491544518594250857e-02
-8.505958287995511735e-02
-8.234982444731658857e-02
4.168762037218992633e-02
7.501686793753029048e-02
-3.861113758020159881e-02
-9.573039712878703145e-02
-7.746784375104565079e-02
-4.890456355233799290e-02
1.487747395089115965e-02
4.894346874682969223e-02
3.028360719178782579e-02
7.737770169794266906e-02
1.311944090224599069e-01
6.024932399835177671e-02
1.228727853390494326e-02
9.452479471751934481e-02
9.617135729868327154e-02
-4.025916964299485618e-02
-5.917375814334059625e-02
4.725412457892676221e-02
3.528457838943130365e-02
-4.993082022212824711e-02
-3.067636293595498928e-02
2.888286629185508186e-02
3.300098968519333403e-02
1.776667174230141949e-02
8.063416066379554964e-03
-5.905626022696642066e-03
-1.245227330662971796e-02
-1.695720917060163785e-02
-1.813014234542414949e-02
3.189117268571499408e-02
6.525639292329060703e-02
-5.842846192072562866e-02
-2.072607555264173729e-01
-1.623684323377677652e-01
-4.641869697242378967e-02
-3.350568335127160347e-02
-2.430307991675473289e-02
4.609521692304210244e-02
7.569195924833847788e-02
4.552793015445219527e-02
1.350447473007607667e-02
-7.761698086274191818e-03
1.377260048256315379e-02
8.924653796517049986e-02
1.145676777252235268e-01
3.970057283466853215e-02
2.242014613201867828e-03
7.568168989248791334e-02
8.359825834514007792e-02
-7.219405643615081636e-02
-1.695345534077830063e-01
-7.987068999046764706e-02
-1.243590887891857580e-02
-3.890869078716491236e-02
-2.679963017322512832e-03
3.371584676936947161e-02
-3.750774804566187060e-02
-6.850177499054260766e-02
2.531399727156340498e-03
4.382258091008805340e-02
3.310425061210626324e-02
2.080739778486442870e-02
-1.346371000765144571e-02
-5.455648034147549813e-02
-3.912672606593048386e-02
2.739870002656415518e-02
7.372181506056127431e-02
7.157359330579736445e-02
6.792803664147448184e-02
4.106512197118118018e-02
-5.674568848698657852e-02
-9.313167459471122234e-02
-3.848449037760087038e-03
3.454320621273267861e-02
2.795069345926833038e-04
2.540320958375854449e-02
4.311067335405440598e-02
-2.792269330512177697e-02
-6.496329518093693633e-02
-2.671913732546316728e-03
2.697112349120577360e-02
-4.324507550763895258e-02
-8.315257814372842282e-02
-9.447056599669536800e-03
6.868358941431799980e-02
5.777222093104619760e-02
2.834151830408687678e-02
4.953154460360698064e-02
5.746871568157296828e-02
7.259080630205807898e-03
-2.800262533506747351e-02
-9.829348575760496476e-03
5.337667594449609261e-03
-3.373687576044151395e-03
5.292116966692727957e-03
2.626154427338556543e-02
1.891392989364213892e-02
3.193403261805658616e-02
1.132863348920613994e-01
1.502718322914493310e-01
7.002756435299650750e-02
-4.478173554396899098e-02
-1.958773292066656735e-01
-3.395018032355477389e-01
-2.352791371120663833e-01
4.205104753124254413e-02
1.175130250430059253e-01
3.339616452707874078e-02
4.318571480510853544e-02
5.026661932675227651e-02
-3.487059060641224673e-02
-6.543246354050209768e-02
-2.296530640436147269e-02
-6.985905550285153101e-03
-1.007733650201699492e-02
-4.661159144261171373e-03
-1.854347256276066454e-03
-2.666319910261403039e-03
-2.378654305530799803e-02
-4.908801408481981016e-02
-2.788337154270990187e-02
-6.690739366561613763e-03
-3.378131934129262326e-02
-2.724066460952276683e-02
1.548161963822082543e-02
-1.688032387104328874e-02
-6.227202710627258858e-02
-9.798922650511085811e-03
2.866461229573681255e-02
-1.611929163379052093e-02
-1.447312034796564839e-02
5.801570881699952970e-02
8.999705143417098541e-02
6.113227798155412146e-02
2.709865697948339938e-02
3.244620463349548456e-02
9.349935032619957620e-02
1.572217069863007244e-01
1.683184456330292511e-01
1.621207773551538722e-01
1.732512369931029639e-01
1.741502183642852919e-01
1.493854201550180449e-01
1.043721393802992947e-01
4.631203769179313701e-02
-5.147599675726768909e-03
-4.568358434316528716e-02
-8.208244775966930251e-02
-1.225145454118756194e-01
-1.847806202871928594e-01
-2.138298722968749455e-01
-1.128799008813864690e-01
2.950164762740993540e-02
2.340933564088287788e-02
-1.136833958382930665e-01
-2.943450692708103333e-01
-4.543850452200925427e-01
-3.494367878488292001e-01
-1.413323328890847726e-02
6.017827675033736445e-02
-1.069028254058268096e-01
-4.577606522030470970e-02
1.241656135491354257e-01
6.995209424779806617e-02
-3.694960551597622350e-02
-8.346002717229628054e-03
5.151905144552930416e-02
9.073597915124365088e-02
1.341789395150952413e-01
1.566694928833681499e-01
1.566715160745602853e-01
1.370060999816936631e-01
9.112348527857076774e-02
8.520878590713050482e-02
1.347604098066797762e-01
1.188323901495155904e-01
3.913954444525694076e-02
3.733559572947806743e-02
5.024905041655627902e-02
-5.080050355101146942e-02
-1.205103414975989828e-01
-6.644817550165094122e-02
-4.685008487790435355e-02
-5.595148650266189988e-02
1.560095654433039936e-02
3.857023689563955637e-02
-6.523722567160404606e-02
-1.273090290403150193e-01
-8.364335281673428157e-02
-4.763052065708345967e-02
-3.471770294616491337e-02
1.606359151128389229e-02
5.654812154322055168e-02
2.905343276838632041e-02
-2.051355629416377196e-02
-5.873297864988057115e-02
-4.571192219557650843e-02
8.285152450916863365e-02
1.960274425517408436e-01
1.160046908564551782e-01
-3.727787622433684916e-02
-7.649146098614302558e-02
-3.564121868927641601e-02
-7.592351266444982184e-03
1.520715463768369628e-02
6.763487638488240028e-02
9.993278633906059472e-02
8.577177598159280159e-02
1.075310126588185505e-01
5.888241119030689780e-02
-2.091625385298905015e-01
-3.495160750069911115e-01
-1.264670930346119271e-01
1.915834560777023715e-02
-5.327688499774666658e-02
1.367722593440230325e-02
1.275057364634625823e-01
4.415067612658959972e-02
-5.508448625491391137e-02
-5.025890219517945012e-02
-3.562022852501253722e-02
-1.178834828644479554e-03
5.823655376805322859e-02
5.408276218039162475e-02
-1.245535153733470790e-02
-4.164749525041827605e-02
8.136382563556534067e-03
5.210860516604488152e-02
2.715581031563946146e-02
5.088671154390539408e-02
1.357712909163985016e-01
2.619608089934628847e-02
-2.046535563686031622e-01
-1.464715933929754965e-01
5.660265301846854891e-02
-2.036231724174203395e-02
-1.390861353113498899e-01
4.504177196781532222e-02
2.214446066596195417e-01
1.119363489055665850e-01
-4.322736904612567432e-02
-7.334216608912835778e-02
-7.451059643786821229e-02
-6.150540977944033566e-02
-4.776379875873119560e-03
1.319862629456214007e-02
-3.435620927927959811e-02
-1.985295129692267457e-02
8.403104315165915716e-02
1.290442527319739519e-01
1.087708235641459409e-01
1.098879966172102013e-01
6.642230100012130878e-02
-1.714674265535711881e-02
-2.573185827455925362e-02
-2.327339882442602814e-03
-2.520642369869650901e-02
-4.717908107611556295e-02
-3.085559923694277881e-02
1.092707941487988665e-02
4.995200379480159436e-02
4.961096974723318287e-02
4.121373649670373451e-02
4.253789845087070642e-02
-3.036235781901541406e-02
-1.322777357639393636e-01
-1.207082730979739116e-01
-7.730591392575228427e-02
-8.186456644047632181e-02
-2.762054875861648731e-02
4.245945549091238724e-03
-8.967105650852970344e-02
-1.094330656474273300e-01
-1.282255091508858157e-02
6.963920642028432334e-03
-1.179576806535148625e-02
3.871274489815938746e-02
6.948571026631543412e-02
2.909531472265537710e-02
-5.366106658938964852e-03
-4.119887425259894168e-03
6.254493802622296608e-03
4.865927577249389707e-02
1.220780971694643696e-01
1.074881918193555247e-01
-3.181768492633213485e-03
-2.505550875685188389e-02
2.219814219413018472e-02
-3.699643960485089755e-02
-8.933679887055950841e-02
5.217251103050438849e-03
7.502266992665074241e-02
1.474521674275630634e-02
-3.100156672612116096e-02
3.315010896470880347e-03
2.853764026034755208e-02
4.465654173234011662e-03
-2.853162323107864135e-02
-9.622599384092187652e-03
8.501658194574793215e-02
1.189247875455105297e-01
-3.214448915587791999e-02
-1.671007736813305833e-01
-8.862583655617124745e-02
3.476488817582415458e-02
5.305152202662319350e-02
3.865656552899976450e-02
4.122494424900292193e-02
7.065433192515740979e-02
7.300238006063823615e-02
-4.302434720978911414e-02
-1.288402375641306552e-01
-1.678505044894749304e-02
1.007209084756160722e-01
6.755179363406338400e-02
5.053438528413857489e-02
9.666839368187206405e-02
3.447089118305372846e-02
-1.029931616780469933e-01
-1.232363199407299770e-01
-7.106166361002398679e-02
-1.289983847920600224e-01
-2.190773383192417822e-01
-1.164366828144023092e-01
8.312321069565377363e-02
1.039407863742400073e-01
-1.028062611052725506e-03
-3.547264639060441344e-02
-3.886493443876718606e-02
-6.581097109958342073e-02
-3.739807380973593498e-02
3.496907796821455139e-02
5.027253375813534736e-02
1.047035340991584428e-02
-5.913470134546211510e-03
1.526097463555489697e-02
4.738420724624713143e-02
8.579302847674025179e-02
7.356338968593981176e-02
-1.624401165121616697e-02
-1.361678354598748475e-02
1.356081160709856626e-01
1.538443489737755243e-01
-2.692576263316436014e-02
-1.054849360094019528e-01
-8.089512056633274550e-03
5.171140004948968083e-02
5.974451859059765578e-03
-3.552536785925770185e-02
-2.120620575334773369e-02
-2.484492421299141357e-02
-3.970895197765023088e-02
4.576452216578508203e-02
1.346050255540920393e-01
7.483744269037378993e-02
8.095609456297225837e-03
4.658035264357858474e-02
5.747879905941773865e-02
-3.545150912206993660e-02
-1.653601236625244497e-01
-2.060372118385408458e-01
-9.161794294556668827e-02
3.888173196088762912e-02
4.107646356268487148e-02
-1.538722904151009277e-02
-1.414228079390557336e-02
2.833918459742096330e-02
