3.405939977918076567e-02
7.619420083021929968e-02
7.900433655256551557e-02
1.042476784590431194e-01
1.032644794440939484e-01
9.834871600799653668e-02
1.157433437233942597e-01
9.716522676909743195e-02
5.637954557937641803e-02
6.947120281699287192e-02
9.567362115308955528e-02
8.060764995735215932e-02
1.039885443823165001e-01
1.621169642767770480e-01
8.238002704086799799e-02
-1.211835205673409271e-01
-1.962691858495368424e-01
-3.404260385948157386e-02
2.094736703334382222e-01
2.875000159959754664e-01
1.121457249075263063e-01
-1.174068382069080041e-01
-1.581049809052130495e-01
3.620515242913291409e-03
1.615603977836445604e-01
1.180587988424874196e-01
-4.055012848813037418e-02
-7.162554028149370478e-02
3.826634365387260317e-02
1.025449075666276799e-01
3.252594836911666676e-02
-7.709790498092655708e-02
-9.862419215146595031e-02
-4.524824272704196237e-02
5.570150331367563871e-03
5.112810325910838866e-02
5.350660294973845488e-02
-2.213396294011611698e-02
-4.933421980391985290e-02
9.059496230091612645e-03
-3.846750137416943618e-03
-8.028636971347283269e-02
-8.594578730648445852e-02
-6.261680877768743825e-02
-9.202381116771693459e-02
-1.482708221862494846e-01
-1.954560584591662764e-01
-2.074820023129037849e-01
-1.832948802843949176e-01
-1.670245412875375757e-01
-1.473173218324209943e-01
-1.918784669723544098e-02
2.362221984489758508e-01
3.761563557445086747e-01
1.738110369705696268e-01
-1.197284757024920376e-01
-9.617806026460737345e-02
9.830021869838495574e-02
7.712407197963340455e-02
-6.428466500856758192e-02
-6.749397746633888084e-02
2.367743736051745179e-02
1.285371036239786324e-01
2.248777063420706324e-01
2.212494603997842701e-01
9.893360827730088292e-02
8.181872103317441164e-03
9.529478403933040742e-02
2.132978059636101986e-01
8.091774842269801316e-02
-1.570592147759536650e-01
-1.315455211118995438e-01
3.981198270687609508e-02
8.455249638176563429e-03
-1.258343973618297196e-01
-9.583919455622180728e-02
-9.183471338077286994e-04
-2.212108917588506696e-02
-5.848281030410961562e-02
-4.295503334694015379e-02
-1.006113211307829020e-01
-1.634455559606428632e-01
-6.845415093900622527e-02
5.657208311273950047e-02
8.884470777653649676e-02
1.360963495584763261e-01
1.765026422699745856e-01
8.066259389972335603e-02
-3.968214342725631671e-02
-4.932369298982983152e-02
-6.074318837498450530e-02
-1.088815253470492433e-01
-6.968091760787541167e-02
-2.621644465377996266e-02
-9.270120105468886151e-02
-9.934921729280210556e-02
1.981914943677152291e-02
6.442658980875892727e-02
4.368349940130376863e-03
-2.845790160801851126e-02
-1.863113909296535212e-02
1.833599600918291855e-02
5.580670976166256236e-02
-5.618647706045643009e-03
-1.524692769220152289e-01
-2.067405347731769150e-01
-1.107929330976621246e-01
-3.511164196144472838e-02
-2.657280361018225789e-02
1.058308913575860821e-01
2.847722949871158704e-01
1.751635680746264634e-01
-1.032997026534777096e-01
-1.295177830156276910e-01
7.472419416040933238e-02
2.122618366539247292e-01
2.201365567880504970e-01
1.927981858686652894e-01
1.793241404645082304e-01
1.802934349459191232e-01
1.628856891542460328e-01
1.092689616470678138e-01
6.514625066864603020e-02
4.224396452892567599e-02
-2.461251999518213052e-02
-1.250211851213427483e-01
-1.441183448678363122e-01
-7.623028826757533016e-02
-1.120927076476160578e-01
-3.181099921522289042e-01
-4.210611002904936506e-01
-2.552454141857345427e-01
-6.060139052065732779e-02
-4.937621540826227923e-02
-1.453713551041175833e-01
-1.928242175761599730e-01
-1.130864825579079025e-01
2.827946387329483002e-02
8.235199165526044252e-02
5.231639265833619434e-02
8.138656542123998139e-02
1.659065236285357514e-01
1.870164232507565139e-01
1.480220005341578715e-01
1.020328360003152357e-01
5.548707244697109742e-02
2.291735722790073926e-02
2.034723670862340072e-03
1.032819346758236112e-02
8.372379097835815076e-02
1.256607961140991658e-01
4.774883357650680504e-02
-2.203797987493380170e-02
1.804547260570184969e-02
6.741775599668321794e-02
4.210635198809443980e-02
-1.865005440285581739e-03
7.887070609941534277e-03
2.849458151530872077e-02
-3.549657257259601628e-02
-1.472555114716490865e-01
-1.940708413492992224e-01
-1.859604774654472770e-01
-1.855410092155358459e-01
-1.473177592734763452e-01
3.429215799634654279e-03
2.006708388053785597e-01
2.490952906659542054e-01
6.696441008191099387e-02
-1.402748908925808835e-01
-1.265189407527116394e-01
4.475907697807840480e-02
1.414246631043071800e-01
1.197312602793925707e-01
7.180748090954809648e-02
2.762600760893596172e-02
7.449528488015423611e-03
2.859334912853007948e-02
3.787690570185525685e-02
2.436266535094930644e-02
3.919673213933923261e-02
4.627315535654710765e-02
5.555672579466820228e-03
-6.306304953092363268e-03
-1.843158958533458458e-03
-1.069215895613278566e-01
-2.439145933132007560e-01
-2.216756599879210476e-01
-7.886366265563045375e-02
2.116371845633212984e-02
1.719566430185056477e-02
-5.542301793592017967e-02
-1.014092270861001455e-01
-5.001152327103171313e-02
3.885442778315799373e-02
6.709609458791321313e-02
5.976306165670428744e-02
9.702446806863999906e-02
1.531542194196958695e-01
1.473945289451076834e-01
8.588354520050142660e-02
4.438793747024810665e-02
4.030341482632266575e-02
-2.606875395566015524e-03
-8.690579186599740880e-02
-5.926557203236266363e-02
9.618897466637688076e-02
1.283480787397351663e-01
-3.206317411650035781e-02
-1.021601900383694028e-01
-2.281169980539302089e-03
-1.754077797560807915e-03
-1.257477257987785757e-01
-1.082753747957206913e-01
5.329290496907973518e-02
1.136187023799309775e-01
9.518498383975216443e-03
-1.115835063383127240e-01
-1.471394120868128319e-01
-1.167604879499948151e-01
-7.352800775852308401e-02
-6.197967242522490344e-02
-4.620210007855944656e-02
1.001111700579581237e-01
3.001855958894423804e-01
2.442290850712751926e-01
-6.066559338881908486e-02
-2.195500928229500992e-01
-9.096859609997023921e-02
8.057293676530900839e-02
1.030331412274429204e-01
5.916838677994695761e-03
-4.564277409976008615e-02
3.455527254067192189e-02
7.628044951569488974e-02
-2.820425355918913801e-02
-5.115647854520784243e-02
1.177995540741518382e-01
1.895387093494019515e-01
3.023555434892978219e-02
-8.850904758982798548e-02
-9.622444916420513916e-02
-2.056515868768760968e-01
-3.181921888278572697e-01
-2.350403291493641245e-01
-1.034498791176404753e-01
-5.637349352657625157e-02
-2.463496625881917909e-02
2.935777962108721689e-02
8.232562940526566564e-02
9.772148312995687647e-02
7.669007639326583248e-02
7.765212411244643009e-02
1.132905135114333217e-01
1.310408920086453544e-01
1.241700292093363411e-01
1.493213212572442050e-01
1.978045130856118106e-01
1.912324996864537829e-01
1.322141517426754787e-01
8.215895001601938863e-02
5.289352952594071622e-02
5.999355090348416908e-02
1.177966921275105383e-01
1.379422544513705939e-01
3.442634559997983373e-02
-1.097521941804671247e-01
-1.541390901511795197e-01
-1.007269513159798346e-01
-6.352965264810717105e-02
-1.025800788599788710e-01
-1.508828099205266338e-01
-1.335905125503839830e-01
-1.205957222675411028e-01
-2.065957153996690054e-01
-3.107967631889804183e-01
-3.028590069698482989e-01
-2.233868079116264616e-01
-1.891339264392958575e-01
-1.219804869061712344e-01
1.345689198547297405e-01
3.456976885094472096e-01
1.485252820349719505e-01
-1.822849382875327828e-01
-1.512003730319380346e-01
9.348191895565990950e-02
1.753449901517450393e-01
1.196836730920052272e-01
8.831963035827544717e-02
9.126199632708119347e-02
8.712845742120302328e-02
7.340450558821241811e-02
7.000276523172907495e-02
7.382130090167847436e-02
6.739455720985376708e-02
6.228284419571102071e-02
6.712122919269687682e-02
7.909362724968301006e-02
1.098760773240086003e-01
8.934687221123412126e-02
-7.764985006592489691e-02
-2.435977274469295906e-01
-1.710243260338500937e-01
5.887861384875563153e-02
1.649145183401015125e-01
5.876258735030496366e-02
-1.095059276132995946e-01
-1.576504293721455174e-01
-4.059739507206343301e-02
9.291471512975293945e-02
6.797137695143751213e-02
-3.863589926788391082e-02
-1.457172542767223508e-02
1.110094994499945947e-01
1.387727779234027015e-01
4.725602728817652337e-02
-3.181648633726777420e-02
-5.588261674289130010e-02
-6.487650012884106643e-02
-3.355110110473090435e-02
6.426177114299032322e-02
1.047586267329196213e-01
-9.215352686630380596e-03
-1.090379395165625986e-01
-4.456134097871042310e-02
2.506538371234603643e-02
-2.745652114879205269e-02
-7.602166358368502019e-02
-5.159718133626108733e-02
-2.852002061588001722e-02
-4.518554172436971966e-02
-1.040770358826310082e-01
-1.711111265566276352e-01
-1.809934004433254029e-01
-1.606676986114293770e-01
-1.512603147758377897e-01
-5.596128064536236291e-02
1.756578469921600272e-01
3.392653578068379749e-01
2.350790723389967196e-01
2.028483926590352038e-02
-6.616049686029609744e-02
-8.704989090691503395e-02
-8.305548665176862300e-02
6.995597459527261308e-02
2.013500762250061416e-01
5.388489093135975794e-02
-1.268255179831546675e-01
-2.813007212289832248e-02
1.252085871912484716e-01
6.879635054256583171e-02
-1.572687347459325938e-02
5.597811577453139925e-02
1.599416763059043067e-01
1.385218482991293909e-01
-8.728406433006329762e-03
-1.329760402397373309e-01
-1.030015821513272922e-01
-3.360675471419027199e-02
-6.379325018141981940e-02
-6.850082616889778542e-02
2.176387656772583654e-02
5.006817522011172000e-02
8.033400013954455215e-03
2.753740613815128246e-02
6.611096619321064904e-02
3.467120357597241326e-02
-3.276324088285548913e-02
-7.093173241356151570e-02
-1.638007967760736136e-02
9.036479482307470390e-02
1.008376599396142298e-01
5.233065758192825823e-02
5.701503347777069769e-02
7.883851141941887811e-03
-1.105504880513176469e-01
-1.197345314275170547e-01
-6.062269234799214784e-02
-7.775392634221371668e-02
-1.046597546580681076e-01
-8.440335243420162004e-02
-7.495043938286714835e-02
-4.890241815686133253e-02
3.458418018603688637e-02
7.934547401728216098e-02
7.335910281584895332e-03
-7.746557949888285832e-02
-3.603439262000353999e-02
5.568128451149192970e-02
-5.012056281609066771e-03
-1.888043134929796862e-01
-2.482585704462454967e-01
-1.373009362692357849e-01
-4.236608940561937403e-02
2.225787115530836885e-02
1.806176548897645839e-01
3.055300298014831384e-01
1.959985872991955869e-01
3.357523782402734025e-03
-4.241634503676039447e-03
1.305317368185594518e-01
2.082229214282357854e-01
1.902974405273059055e-01
1.586024724143682840e-01
1.584739992459814617e-01
1.692979816522981185e-01
1.391863403628583740e-01
5.869549189281718371e-02
-4.282750130767842833e-03
-1.953350023948720315e-02
-6.003759384566234591e-02
-1.381983476521067289e-01
-1.469701902822722339e-01
-1.009099224029078590e-01
-1.744054103913957043e-01
-3.503923519828957001e-01
-3.499117819844788091e-01
-9.283777835433436321e-02
9.370079476446044331e-02
-1.974351213291990204e-02
-1.993001355633515215e-01
-1.818748768395762327e-01
-4.764865402176227810e-02
4.381743883984393767e-02
4.916437408797716402e-02
-2.737777977010201480e-02
-7.918434945711599893e-02
2.559508863539857598e-02
1.847937510419760676e-01
2.096788237020623114e-01
1.406912054906291065e-01
8.464543427506539264e-02
2.197023473937118054e-02
-1.943164447132479655e-02
5.371154641840693300e-02
1.640878176590284954e-01
1.225952088338922025e-01
-1.906821140197805659e-02
-1.711916260702375098e-02
1.145266164733538539e-01
1.370604794299967177e-01
5.135421040041539265e-02
5.313410843608857431e-02
8.236782817406590462e-02
-6.427202349788009583e-02
-2.566355792160246452e-01
-2.543717020977350196e-01
-1.614113941840964184e-01
-1.467377071264510113e-01
-1.589233345237340278e-01
-1.083404010587163402e-01
6.872527071186301795e-02
3.068875797165184771e-01
2.850017140802678650e-01
-8.070216399052893008e-02
-3.068117870977924433e-01
-1.015630484610112322e-01
1.591297643860110633e-01
1.488300779734378909e-01
3.049928063079112087e-02
1.393070762622805256e-02
5.716620245582985232e-02
4.877952142070100805e-02
8.898477468839274818e-03
1.128941666352437090e-02
3.911574182051845427e-02
3.996149195189861725e-02
3.357679342112145169e-03
-2.593010650552161900e-02
2.840580221743785327e-03
6.443370868114422709e-03
-1.122437557593267687e-01
-2.077419963507384504e-01
-1.152737250995460178e-01
3.152260348017961455e-02
2.161187278167062478e-02
-9.787571903028755016e-02
-1.129004599408583442e-01
1.062008210274798664e-02
8.981279897589208860e-02
7.072792250902903977e-02
6.742233245344293746e-02
7.386865802672037962e-02
2.493262657149119405e-02
-2.306648780740522264e-02
-2.124147542630275623e-03
7.210052084642447345e-02
1.226887375577407208e-01
8.680686900962278352e-02
5.612122213789406955e-03
-4.725505197319473938e-02
-4.180977500215668496e-02
4.631934516374962632e-03
-1.387477936079361401e-03
-5.134129211021312006e-02
1.416903032447643790e-02
1.324744592480657790e-01
9.059422058788590970e-02
-1.827131274282100745e-02
1.786075499639406747e-02
1.324073917927425237e-01
1.228576243223605952e-01
-5.691661824076071213e-02
-2.353704673905087086e-01
-2.258824069395435341e-01
-1.048353614188973215e-01
-9.925214767279280648e-02
-1.740606234483652870e-01
-4.754758412848612142e-02
2.344747947645464681e-01
2.229368639768483651e-01
-1.114156769537817115e-01
-2.667792342946082584e-01
-1.441957689467338044e-01
-5.583684261437796975e-02
1.433250605999113539e-02
1.757212653597425289e-01
1.940723525881858924e-01
-1.649986443503555916e-02
-1.309133331441842685e-01
-2.685741395330530634e-02
3.315248099011075533e-02
-3.361584053965799290e-02
-4.979982640366683450e-02
5.403597439075705916e-03
5.008467249936634363e-02
1.068154529496339183e-01
1.148149144831511481e-01
-2.684161702307576863e-02
-1.842249741199172564e-01
-1.821877585686217105e-01
-6.367348004977102516e-02
4.318309986092253722e-02
9.233409434368107516e-02
1.298309566996425912e-01
1.780894264828527251e-01
1.699081198644959989e-01
1.147428459196631612e-01
1.351645764548007334e-01
2.129022383003756902e-01
2.156345764913706053e-01
1.773764528467539348e-01
1.864125141784305217e-01
1.565901483436346053e-01
2.600158697555010959e-02
-8.540813508677386201e-02
-1.293860939529271892e-01
-2.000777040771757331e-01
-2.452290528658200852e-01
-1.441140368262262828e-01
-5.104461144203530781e-02
-1.598256836038010054e-01
-3.081424905236334610e-01
-2.612652667067600909e-01
-1.042027793747039716e-01
-5.053785980196492944e-02
-1.020796898669278779e-01
-1.062037531734326135e-01
-6.413523313466754083e-02
-1.238169573850835259e-01
-2.316898733963055901e-01
-1.638151862900043554e-01
6.236709133863949095e-02
1.919353163674545060e-01
1.417525068428525103e-01
1.264598079334414427e-01
2.809827466820224440e-01
3.642544733977233218e-01
1.630446569588200889e-01
-8.207405502355122340e-02
-9.413418086060512668e-02
1.804822048080862579e-02
8.163857002266322604e-02
1.010767003958211452e-01
7.890920354975204665e-02
2.231844654741705833e-02
4.923443473248339392e-03
1.213104222190911075e-02
-1.781004846486644935e-02
-4.576415121848523282e-02
-4.248505489831794213e-02
-4.230157190987046678e-02
-2.245751827751324425e-02
5.757117888333931205e-02
1.128862835216774968e-01
7.193174409683528517e-03
-2.025481631202759036e-01
-2.777667641791496944e-01
-1.159608680553735338e-01
1.138399427326586832e-01
1.919075027168199998e-01
1.034032193031811098e-01
1.119306138962497532e-02
2.301963870128236403e-02
9.131294610383665356e-02
1.052001070994640908e-01
4.033675439971520782e-02
-2.255575188738150050e-02
-5.083603235915151730e-02
-4.007690349752384557e-02
3.856220388142488076e-02
5.187860718331521043e-02
-1.400408719245912481e-01
-3.104305965280720891e-01
-1.859169137436569585e-01
7.440139854355104498e-02
1.567859893235961644e-01
2.486995366643551808e-02
-1.160350782933351477e-01
-7.072633195402315553e-02
9.879121408967445062e-02
1.368752488882584717e-01
2.496656575298497605e-02
1.499508643566313353e-02
1.323236302397153841e-01
1.183269527169171220e-01
-6.972027344843489960e-02
-1.863115655218773314e-01
-1.474938592545115834e-01
-9.482747970547564242e-02
-6.942548801195411179e-02
-3.023536533285463984e-02
-3.107812680904545669e-02
-5.240047363586011059e-02
6.684113991579587744e-02
2.193886194287628377e-01
4.206633672670744006e-02
-2.911699894751352824e-01
-1.634632054647689181e-01
2.744829849447523173e-01
2.761602867727753763e-01
-9.337383537979297710e-02
-1.719238981688586410e-01
6.906863450107986191e-02
1.905737521092401854e-01
1.048427206399720202e-01
5.606938133005505420e-02
1.435283742361890824e-01
2.048581083977925321e-01
1.352779818302081716e-01
1.186100577748702180e-02
-9.062652573731849737e-02
-1.189530483483546563e-01
-8.737770278960643733e-02
-1.392108574624214001e-01
-2.614263121852330451e-01
-2.416358178388371969e-01
-8.515752419821920327e-02
-1.608164509525437241e-02
-7.950098699603126706e-02
-1.347421734180210551e-01
-9.561526031170092255e-02
2.084719874574650703e-02
1.050912864601717817e-01
6.293809736290927048e-02
-5.668718043866354667e-03
2.076768862567051829e-02
6.168858216090054858e-02
5.032596387095028545e-02
4.721325960405258620e-02
3.692579700301942131e-02
2.021293794747486532e-03
6.569911839185244018e-02
2.331226533222433006e-01
3.031755262118155381e-01
2.337153983568816817e-01
1.934740102328551814e-01
2.297590499310496748e-01
2.515330212454426340e-01
2.084934277481580167e-01
1.093274511757331563e-01
2.003516636602985929e-02
-3.064902972455422342e-02
-1.548640957851202260e-01
-3.707890270401062449e-01
-4.737213419556701721e-01
-4.083889841175056268e-01
-3.854284742446700274e-01
-4.257120555215022084e-01
-2.776393801443078346e-01
4.181896262043694606e-02
1.466628443909896440e-01
-8.254681879605020589e-02
-2.655251519983179986e-01
-1.371504757829437038e-01
8.278343533763818374e-02
1.384679000405572846e-01
9.750936523538221434e-02
8.376337316501411556e-02
7.439990612199767761e-02
7.088938594245730584e-02
9.957469221977978402e-02
9.349507621354806453e-02
8.496930615991422908e-02
2.125180896518742701e-01
3.475296990307494838e-01
2.579038638656424576e-01
8.625994801602097917e-02
5.578246910573367301e-02
3.976769821619148548e-02
-9.815971094067676983e-02
-1.920655738993660155e-01
-9.873103474186148421e-02
4.840698455662573174e-02
7.726299189483672170e-02
-1.687777589511200299e-02
-1.311950446073655296e-01
-1.138864671428520825e-01
5.459537894806550107e-02
1.285191930338860644e-01
-6.113920262297265623e-03
-1.052781228911773281e-01
-2.861400930910271839e-02
6.597173028663154415e-02
6.599519829342542776e-02
3.471771722286428469e-02
2.763377950271407937e-02
-7.618591677315623804e-03
-7.276961842387849599e-02
-3.166577627370693176e-02
6.411264030439121908e-02
-3.736799610685205553e-02
-2.146316159670396406e-01
-1.518863770508063205e-01
-1.364057983303805163e-02
-6.482489913576919283e-02
-1.487675420370022927e-01
-8.081759788949788303e-02
5.741887699821526803e-02
1.116610317567085092e-01
4.951147627149014852e-02
3.857054628530209167e-03
5.678251345865303890e-02
6.874973015322885517e-02
-5.031106585289209232e-02
-1.181314807205799677e-01
4.605367347344323237e-02
3.097750258550214242e-01
3.457625254440917506e-01
8.859675237613165444e-02
-1.120508187366553859e-01
-4.880799383526111118e-02
7.494932756391972650e-02
1.334353403997407261e-01
1.090372815767812753e-01
-1.021998074091553799e-01
-2.928332159677717872e-01
-1.629073340697942407e-01
1.588701102476405141e-02
-8.446734382232393146e-02
-2.264530792922049562e-01
-1.381630665371176014e-01
6.556052811581560003e-02
1.499942495095254180e-01
-8.844212960037102500e-03
-2.526065515331585298e-01
-2.380659430776512209e-01
-1.115747318085016579e-02
3.585669986741375770e-02
-1.155953366835617141e-01
-1.492327233349801663e-01
-8.594362557499870409e-04
1.375639430010837383e-01
1.563673093387169810e-01
1.225914417173090548e-01
1.437330795052565446e-01
1.913496087583580196e-01
1.479833537931652676e-01
4.990225944875019415e-02
5.135444941903080651e-02
1.415062531281309210e-01
1.689359291695861631e-01
1.144830469976546444e-01
5.759425200483339613e-02
-6.422727439103798064e-02
-2.442058554660276048e-01
-1.988542657015518744e-01
5.783430259834656390e-02
7.819068463742014086e-02
-1.615738330405241396e-01
-2.295063001798967051e-01
-6.215192944821877619e-02
6.241358913943498288e-02
5.505332736771431645e-02
1.066383966788185186e-02
3.517520993844874821e-02
1.319435447385908511e-01
1.129786226445552710e-01
-2.361362055666249224e-02
1.933451731359619313e-02
1.673032876891182297e-01
1.096770420892645842e-01
-6.017957554747599414e-03
4.215560049786469532e-02
1.736435304375516520e-01
2.577119837623155219e-01
1.252378277542660345e-01
-1.914229496226988736e-01
-3.141541074233344943e-01
-1.843540080520983948e-01
-1.492593971828632682e-01
-2.451005914972582689e-01
-2.723434018674666945e-01
-2.608610994804609895e-01
-2.566593546300021678e-01
-1.972241384535511899e-01
-1.461058173838936936e-01
-1.312072896095254626e-01
-7.278125904891866171e-04
2.210319561144535871e-01
2.769029485002031388e-01
1.531352448189943205e-01
1.247041700993994084e-01
2.100965090731313489e-01
1.372850017869191031e-01
-6.711751326219982106e-02
-7.499544262838164776e-02
1.438607371559797177e-01
2.638111709076590428e-01
1.179358450175407441e-01
-9.291862920655159785e-02
-1.099991001250862632e-01
5.377091356721470927e-02
1.617821872432986530e-01
7.953554528121094258e-02
-5.474552176534773495e-02
-4.446555492617169925e-02
7.864283820658155011e-02
1.191320849996751197e-01
2.255152795636574184e-02
-7.027705328629255122e-02
-7.908088803800138178e-02
-6.644733292165869165e-02
-4.772250560234438110e-02
2.085985612407299100e-02
7.234103727685042839e-02
1.495330466248523914e-02
-6.423025007805979736e-02
-3.209187340780218778e-02
5.136314912415550910e-02
4.324994102302992527e-02
-3.404349500889054803e-02
-3.454860704614183542e-02
4.759113246434884537e-02
3.262758354866678034e-02
-1.224142493904872148e-01
-2.021225091776204241e-01
-1.210594853403266086e-01
-7.616030958305058940e-02
-1.479048798793932973e-01
-1.341623018152044433e-01
7.164406063337250274e-02
2.185195730766641142e-01
6.344767662309094836e-02
-2.025920413616320859e-01
-2.469790983824747821e-01
-6.441350505434736973e-02
1.182154440013896135e-01
1.281717061717653483e-01
1.898694294418305784e-02
2.533273793978196853e-02
1.475096982113002220e-01
1.257798175942402563e-01
-1.045874491848456864e-02
-9.303604161252261584e-03
7.580916520321134833e-02
6.909294866744399022e-02
8.259726214273092892e-02
1.841660463942551562e-01
1.344319075290713039e-01
-7.656667429693192473e-02
-1.435335870615745413e-01
-7.089744327335706364e-02
-7.659623922510022664e-02
-9.473183276514110518e-02
-3.969001367941984992e-02
-6.347641284043251120e-02
-7.566760512642727032e-02
1.621941628739439201e-01
3.270099910509390861e-01
1.110147731530472248e-01
-6.383334711635130221e-02
2.413793480691335536e-02
3.333430000179897490e-02
-3.911372224370408823e-02
1.656485299920001236e-02
4.254525777196292713e-02
-5.253850559225790168e-02
-1.077257023198737451e-01
-1.431944059328346119e-01
-1.706172208162046178e-01
-7.630050383729979416e-03
1.760829196890142112e-01
3.523626876238858396e-02
-1.476085594682990387e-01
-9.167233946714020004e-03
1.025910938485867924e-01
-4.761108639308606755e-02
-1.068133544711161453e-01
1.657346488261812051e-02
6.707261478177997671e-02
-6.542679884221597880e-03
-1.486524015953911704e-01
-2.913310727746021289e-01
-3.034936487584224407e-01
-2.025077933802751362e-01
-1.065203019499809667e-01
-2.211047637640892183e-02
6.803541332848231371e-02
1.272127992696857890e-01
1.219259551256229868e-01
5.984326455205703221e-02
7.873819302458822528e-03
4.299655751069607346e-02
1.979957870439077450e-01
3.593926314200931449e-01
2.801410438388280411e-01
6.017945861952428421e-02
1.457738222551042406e-01
4.390751804775531730e-01
3.970207511677477652e-01
9.401747810474829492e-02
1.590859135709743466e-02
1.170070590016454859e-01
5.852148611226570818e-02
-6.121991281377106575e-02
-3.278811931118708750e-02
-1.230567573221028471e-01
-4.433973138860542451e-01
-4.907257182265419293e-01
-1.877813983106992879e-01
-1.124102709314821341e-01
-3.124539511706567740e-01
-3.607179994296699777e-01
-2.379724376373115180e-01
-1.151545532101749814e-01
1.570613738150092309e-02
1.149396652617079434e-01
8.977649882128155290e-02
-1.535310528319747125e-03
-1.482876033884045208e-02
9.817173016523331186e-02
2.195654086097235669e-01
1.970036666312855178e-01
7.884334096454849450e-02
1.258651426590434025e-02
-1.052644014291642498e-02
-2.288393837420644311e-02
2.560069048740014341e-02
9.351560068075792653e-02
8.282784249741721727e-02
5.011825973451558211e-03
-1.949340586177264467e-02
8.136651294106247989e-02
1.570042139143582871e-01
5.846358707457560699e-02
-5.604744790752194672e-02
-3.951468389238844275e-02
-2.793209417027290448e-02
-1.109805543986609050e-01
-1.912470287844623140e-01
-2.122735417398072533e-01
-1.873785627633130502e-01
-1.124116078880177255e-01
2.906947625798868284e-02
2.344402172059373846e-01
3.481595041973703508e-01
1.667257763621824151e-01
-1.114137300052502194e-01
-9.006609284167782503e-02
1.405554937181178188e-01
2.135922665023763101e-01
1.035361198231865010e-01
1.507133698645818885e-02
6.749918721414623068e-03
1.457574460408015554e-02
4.948641558762984644e-02
9.821521875762935505e-02
3.356659304914091924e-02
-7.131432077778979139e-02
-4.060254048299555968e-02
1.002538167981883305e-02
1.231120808118012916e-02
2.113173105078557795e-02
-1.723546565671505160e-01
-4.994949501186886076e-01
-4.589675267640405676e-01
-8.272513930637187540e-02
1.460245512968560977e-01
9.205892517762905014e-02
-9.487989521108822211e-02
-1.915488897387997991e-01
-2.126781747961370775e-02
2.364878006835541835e-01
2.446512267221352399e-01
1.239291356495466484e-02
-1.604960671266540406e-01
-9.150257403874324791e-02
9.307585588916893193e-02
1.500937074049634168e-01
9.688687590916301995e-02
1.381351482100365291e-01
1.851181075400111231e-01
3.045518709277742278e-02
-9.637400428489732718e-02
5.523406822905516100e-02
1.739885272655207482e-01
-9.828147292881051628e-03
-2.010720012351949471e-01
-1.304943719555728410e-01
5.298167409995212240e-02
1.552855510406537520e-01
1.520376026042216389e-01
7.928171765133200377e-02
1.644839960807868706e-02
3.169768294432002975e-02
3.516820930770505477e-02
-7.496619993054633169e-02
-1.673884192887631628e-01
-1.077531810897315312e-01
-3.770125794530647390e-02
-4.822198782564627445e-02
4.773113722384751678e-02
2.180873854863540628e-01
1.236957189860113104e-01
-1.768103154387247189e-01
-2.794389427302630957e-01
-1.424824807077745559e-01
-2.338007725727140815e-02
-7.504551670099790517e-02
-2.321850104247926427e-01
-2.466836870046005270e-01
-6.053687808018322347e-02
4.396000892568914520e-02
-4.517183257919146072e-02
-1.158110676956701918e-01
-6.716558466340807887e-02
2.062432809534288022e-03
4.873492075153855463e-02
1.049041355647615942e-01
1.400277084891407564e-01
7.674257726712371830e-02
-5.808875866296032975e-02
-7.356946857892815439e-02
1.525982332073061720e-01
3.972044828736123190e-01
3.760589621645114566e-01
2.222217102971461022e-01
2.148114821262963881e-01
2.897714881392700059e-01
2.590715563145356559e-01
1.699470787716877707e-01
1.346069124956413288e-01
9.273849586215734964e-02
-2.619034649814482724e-02
-1.196083296821510294e-01
-1.081310939326328990e-01
-1.245493952218822697e-01
-2.832307510471325784e-01
-4.426381653165574748e-01
-4.239408329369774853e-01
-2.818278238258303814e-01
-1.452185515593802656e-01
-3.298385516241520571e-02
9.934177201132723956e-03
-7.218810659354668591e-02
-1.463456364849128055e-01
-6.421889843480790838e-02
6.189226543578121159e-02
6.205375739691055409e-02
7.109873450199255540e-04
7.341124442389559968e-03
2.758507584552624681e-02
-2.665755520601755663e-02
-9.025061360015212975e-02
-7.963558046780450095e-02
-4.675022706335266870e-02
-5.889461936529877262e-02
-1.398759532295008011e-02
1.785240817858567974e-01
2.921942570846642329e-01
9.537573671621232818e-02
-1.491554012258534678e-01
-4.377346398860904042e-02
2.624848294036447038e-01
3.164353847121824104e-01
1.129734904959841107e-01
6.201040357887724341e-03
6.488011507367492936e-02
1.268989830978313194e-01
1.340656973322965906e-01
3.629750659133965107e-02
-9.382680374942686807e-02
-1.591513595209278348e-02
1.478898983569202352e-01
6.506936233805252212e-02
-7.647166051447724933e-02
2.191930137328276101e-02
7.572725963774212810e-02
-1.536396189295737569e-01
-3.124438720066495812e-01
-1.752440483966308804e-01
-1.686701944430009717e-02
6.113537560026513495e-04
-1.485052221037109002e-02
-5.788832746272713770e-02
-1.307823987991557912e-01
-8.203437666321017341e-02
6.622055296161599713e-02
7.300554182392619829e-02
-6.117821008650548009e-02
-9.116690051277882845e-02
1.010908905805964556e-02
2.040841110833089417e-02
-1.247740737433916114e-01
-2.267709113184686875e-01
-1.722210666039200588e-01
-8.656236191686472736e-02
-5.518292388285615108e-02
3.764620698269296323e-03
8.297072860406272399e-02
5.320038727634945896e-02
-4.212922464590582172e-04
1.093056927187538857e-01
2.408217765662891696e-01
1.868177985981480937e-01
9.059074160257284125e-02
1.136622857701495015e-01
1.344557122427566254e-01
4.763740248417422385e-02
-2.128532338084377501e-02
2.978715972271412521e-02
7.666604655747102925e-02
2.852090593196934809e-02
3.202827578416590770e-04
8.166850743653350508e-02
2.309458190766278396e-01
3.060183597753144413e-01
1.335392611268443330e-01
-1.539217204731064548e-01
-1.487172065247782948e-01
1.214920588578062843e-01
1.670965827042025509e-01
-6.507251872737156162e-02
-1.961919624749727253e-01
-1.507889616715880621e-01
-4.275127743889127474e-02
3.007837556878113772e-02
-1.141608486686558621e-01
-3.497393490209705358e-01
-3.297984608204538870e-01
-1.472405789827579137e-01
-1.225853363547652758e-01
-2.637046078900837642e-01
-3.463586136020008754e-01
-1.882739031606655289e-01
1.165587851298694050e-01
2.364458379340547423e-01
6.573665423961352894e-02
-1.423765301673382833e-01
-1.531662717740590873e-01
4.138734969304509043e-02
2.254964411574257865e-01
1.672348359280034502e-01
1.636628303308729215e-02
6.497736102639588285e-02
1.517729738722843613e-01
3.054854562452453959e-02
-3.727017801459273083e-02
1.688980319233259197e-01
3.093733326332849809e-01
1.557488554275432424e-01
-1.729793644813390485e-03
-1.081729919894090786e-02
-4.879980671328761760e-02
-8.432551935868125292e-02
3.671378317630027976e-02
1.690067416722943472e-01
1.298229763074386645e-01
3.542817350305690893e-02
4.588936578672674765e-02
1.316730601159995240e-01
1.964051996024026581e-01
1.808407446725782686e-01
1.022793618753634615e-01
8.257907975462308592e-02
1.600683681228184663e-01
1.176745356384973351e-01
-1.677837877350289997e-01
-4.043847491423544493e-01
-3.641703421915158945e-01
-2.474618209273636293e-01
-2.082150853394956203e-01
-1.192540114320125438e-01
3.232526151336199971e-03
-8.168448689830765108e-02
-3.180635576191385150e-01
-3.151600180695801057e-01
-5.744322391328156308e-02
6.551806201654541972e-02
-1.021048926289476466e-02
-4.863971139066588373e-02
-1.529128165132761369e-02
1.514837735212812980e-02
5.871863289799302693e-02
9.415921793004922158e-02
7.561992033607828345e-02
7.256876276615821519e-02
1.483870440961035375e-01
2.171063766910960868e-01
2.004148742219952761e-01
1.744769512700098391e-01
1.795350342642183794e-01
5.428838397016144679e-02
-2.112834394493469936e-01
-2.637407190563204606e-01
-1.483363842117871312e-02
1.321512857215830228e-01
4.238710721701306749e-02
-4.394808864607276794e-02
-7.591862431475863982e-02
-7.172766155790598341e-02
3.494882716798845823e-02
8.852765435691038742e-02
-4.738722778896893584e-02
-1.295425283741377942e-01
8.191790562641285134e-03
1.460738630639082936e-01
1.090663390916771502e-01
-7.491890752723245894e-03
-6.927412315247888364e-02
-4.170422077663898941e-02
4.861138095126299463e-02
1.381153600042898943e-01
1.407739854991402473e-01
5.598222245288397847e-02
3.567667481192593644e-03
2.494265537429305943e-02
2.928272698864052559e-02
5.026884391865495474e-03
6.336078032586067721e-03
5.049439849863467111e-03
-1.642847563643765399e-02
-4.552565254616797868e-02
-1.314129455420126324e-01
-2.538221251069163187e-01
-2.964494605358861667e-01
-2.353286593143748828e-01
-1.229912942388618202e-01
4.559485873460854266e-03
1.118308083788753099e-01
1.484807110250317419e-01
4.257073143385628478e-02
-1.622781528370853266e-01
-2.179315858952448615e-01
-1.550020026831699232e-02
1.977618712033513415e-01
2.203323256485386628e-01
1.578758751911465141e-01
1.230897491617470585e-01
6.143283200089495744e-02
-2.687307060097622255e-02
-2.158385503226135232e-02
4.877827779094727478e-02
3.153865535262997954e-02
1.787844357506339008e-02
1.517276921390829370e-01
2.055315594655949263e-01
9.537497020821461557e-03
-1.653621139013675689e-01
-1.518659383410922437e-01
-9.278282351761012181e-02
-3.956873421215134634e-02
7.246781807275396586e-03
-2.897820955740392640e-02
-7.917815158533891839e-02
2.774143884076707423e-04
1.154005903466519684e-01
7.313473631831843291e-02
-5.571501094065296755e-02
-6.022017021964223837e-02
4.239681797412038489e-02
7.289838318466074218e-02
1.307847304883598752e-02
1.084888461809156886e-02
9.584525830259495172e-02
1.010780384603481158e-01
-4.384710632375145301e-02
-1.595726582786873016e-01
-1.403762294745883321e-01
-1.249267480580596862e-01
-1.343405307652971725e-01
-1.280719276183144711e-02
1.506189940113917825e-01
1.313645395142942485e-01
-1.395806693540058152e-03
-3.881794756465829777e-02
6.105674374754712502e-02
1.852077009256223317e-01
1.931905774333901316e-01
6.743411828935974572e-02
-8.542229187821873126e-02
-1.694499681834548133e-01
-1.887132578393660998e-01
-2.380727656861516550e-01
-2.830469160600608824e-01
-1.526530879609614699e-01
6.116686200540001617e-02
1.022363745212550856e-01
5.677004095749393908e-03
-7.961011355566796621e-02
-1.413321069145233033e-01
-1.069189864403395085e-01
7.050147938803860703e-02
1.893031038842144242e-01
1.238368617777608482e-01
6.032397119397504837e-02
1.028164740933329990e-01
1.168248397130105948e-01
8.431394655242702152e-02
1.140136218948138019e-01
1.788124509767845538e-01
1.917351848813325099e-01
1.573379511076540838e-01
1.558474307587372210e-01
2.493195171454120063e-01
2.896129206660007505e-01
8.107817647738353728e-02
-1.761733818805186202e-01
-1.787327460064236928e-01
-6.017704968733655901e-02
-8.656894831213041153e-02
-2.212913337272950920e-01
-2.689718310928336242e-01
-1.965262171464815244e-01
-1.532736273515143965e-01
-1.670463330442772953e-01
-1.381098634205407405e-01
-1.068961457964340139e-01
-1.054514831919534518e-01
-3.280693764333297152e-02
7.299384288734181436e-02
7.476796942386958189e-02
3.640578891813260609e-03
-4.178373302233252123e-02
-4.850040739575860183e-02
-1.720689308768804521e-02
6.131464685749227206e-02
1.281232795613485576e-01
9.045436042426904799e-02
-3.142319616187640163e-03
-2.181538509657627092e-04
8.708086491694180808e-02
1.160704029965656525e-01
6.846369212480853117e-02
4.345139786853468439e-02
6.508850304399153852e-02
2.121486373058754579e-02
-1.258485934478574264e-01
-2.087827582636168355e-01
-1.651095287397618683e-01
-1.728747364726364588e-01
-2.204973896859628024e-01
-4.451948950232668956e-02
3.063484589016856607e-01
4.365341537813003381e-01
2.128218555406539148e-01
-7.481317759133597478e-02
-1.361840101366395550e-01
5.862309549800395758e-03
1.236684446928151826e-01
1.049031934513868364e-01
5.405791414156082414e-02
5.785795737304492981e-02
4.605484604705097074e-02
-7.873581639449282743e-03
-1.462195540726611218e-02
1.249504139500479116e-02
3.145400369196041379e-03
1.136766414015352028e-02
4.533135086742441644e-02
3.897627217197446176e-02
5.538870696089653878e-02
6.403699948800550823e-02
-1.087253357412059640e-01
-3.051369289416658859e-01
-2.370931749737450744e-01
-5.096369583258539282e-02
-2.153289155061070131e-02
-1.046603979768854081e-01
-1.322382735286407596e-01
-8.902919922067964453e-02
-5.158814666713251035e-02
-1.067230299114673223e-02
5.466492937352792486e-02
5.907694869628594969e-02
-2.827452770369720536e-03
-4.650175742497751966e-03
6.675520331129178309e-02
1.152419377828730884e-01
1.161728755990338036e-01
8.112372589096274178e-02
7.397354109768602276e-04
-6.927982443632588194e-02
-3.703516024920226746e-02
4.286906489436859147e-02
5.638359786133727292e-02
8.133158992448610847e-02
1.931272693537173790e-01
2.324278110238295059e-01
1.018208967430525302e-01
-3.678533884176106439e-02
-2.810069630302448190e-02
5.490832216983405206e-02
3.684115507395897826e-02
-9.919004029147795998e-02
-1.964939715604891168e-01
-1.716718877810179400e-01
-1.339373521834426872e-01
-1.923244916714561270e-01
-2.336735240947143410e-01
-5.509393788697210248e-02
2.066582624663761414e-01
1.372188729407771146e-01
-1.783852349507548951e-01
-1.769651485396104285e-01
1.426817574474582573e-01
2.740382441585821338e-01
1.433794963647109511e-01
2.682604158927779162e-02
2.664365562317517339e-02
9.462131904367754309e-02
1.238690936910732121e-01
4.297965572121979771e-02
-3.036430809508437745e-02
-2.547927527892936139e-02
-9.690142457525223463e-02
-2.150379137707635058e-01
-1.242222827731622181e-01
1.043720047546194962e-01
1.495392594424109767e-01
-2.211563083413561198e-02
-2.038097539193813312e-01
-2.672821142895008828e-01
-1.989087166681232643e-01
-6.928895525509516651e-02
1.194024961232876408e-02
2.580312926366794268e-02
3.434722511974566683e-02
4.561950600132085032e-02
2.161989193471350670e-02
-9.148792167009648507e-03
6.494636717987018609e-03
4.275567020418637176e-02
6.589432343857644370e-02
8.745656425650348564e-02
9.901949291252909457e-02
1.007019189711407386e-01
1.190177845647427679e-01
1.181269807237726038e-01
6.303209889614956596e-02
5.809479668363822652e-02
1.911165604863172274e-01
3.182614339403679882e-01
2.452670051553926533e-01
3.037351755395700792e-02
-6.924287617456717503e-02
5.140590871109497473e-02
1.883381180342721117e-01
1.511362569543450995e-01
2.404106853514022604e-02
-6.203142701700059547e-02
-1.437298632730140691e-01
-3.061587873529574844e-01
-4.949779116741095386e-01
-5.314774019016987872e-01
-3.889160284608534912e-01
-2.362588632185759485e-01
-1.007944020776574690e-01
6.425722635922855031e-02
8.137259819808155548e-02
-1.230143168128140369e-01
-2.391802397567792671e-01
-7.253007639421933661e-02
1.413027730960639827e-01
1.683123320699086989e-01
8.485963725823836290e-02
5.042220988463100295e-02
8.406381896438910872e-02
1.193724619683832755e-01
1.136229625478820393e-01
7.990966386528312870e-02
7.509154922924400621e-02
1.198338714045668885e-01
1.494916402949999223e-01
1.197991326928028871e-01
9.186910802382586283e-02
1.128566298071271012e-01
6.317007234552055039e-02
-1.475903069119562372e-01
-2.841835011400250521e-01
-1.146547237752084253e-01
1.461021275052803436e-01
1.732850800547814651e-01
-8.138384668991765006e-03
-1.504422659286658026e-01
-9.909583717809657133e-02
7.184814428846661438e-02
1.588975900658909091e-01
8.014044394073885358e-02
-2.325026609651750092e-02
5.392177790929784942e-03
1.014169490984383609e-01
9.646313929753622118e-02
1.440660361799794842e-03
-4.873958087869640493e-02
-3.894465457316876461e-02
-3.423702181511243531e-02
-1.269113487277384947e-02
4.161848788139004690e-02
3.365632682781150714e-02
-4.163052577750321614e-02
-4.426287865917553216e-02
2.987354373273776176e-02
4.139017231025467203e-02
-1.856831072577121849e-02
-4.185829564907747602e-02
-2.659373352992465411e-02
-7.067514579096777216e-02
-1.651450756005990728e-01
-1.975438949358397922e-01
-1.732540450445893554e-01
-1.885696411724153698e-01
-2.173033035446985395e-01
-1.552907542820416431e-01
1.486968497506386058e-02
1.895980865988421415e-01
2.026322770515752159e-01
4.479103602745625884e-02
-3.833739313622314820e-02
6.045035725333840204e-02
1.207132359832736868e-01
5.543271497000162862e-02
3.421352448335590601e-02
7.891688925483450467e-02
9.085896408859299445e-02
8.621866920059843842e-02
7.978261011014822768e-02
5.480383875445585251e-02
5.003356415997006756e-02
5.850695882441671325e-02
3.844746182672881263e-02
1.936858334002176940e-02
-1.122863597152670007e-02
-9.288792394687103715e-02
-8.794844409781214789e-02
7.310365770115369310e-02
1.205372466516906743e-01
-5.930421627112760635e-02
-1.760178724637069536e-01
-1.179982814419489323e-01
-4.818080745081160937e-02
-7.432304169839128692e-03
7.195729490183438645e-05
-2.567352674140755894e-02
3.369250547945436963e-02
1.080456585258778301e-01
7.432960229776772870e-03
-9.751543428600985275e-02
2.975144441691433481e-02
2.062228069369452521e-01
1.705815776571291686e-01
-4.201555177200895497e-03
-1.176409348279759681e-01
-1.343984144936644087e-01
-1.009962479626133613e-01
-4.206682462264722810e-02
2.197837059571894520e-03
4.703230127532679467e-02
1.245204724096349719e-01
1.487458963953746938e-01
4.312991481787699366e-02
-8.976839381090255532e-02
-7.079699106671025199e-02
6.020196046579012750e-02
5.041194641538982585e-02
-1.361024952286815637e-01
-2.761872521829135119e-01
-2.675510520396531811e-01
-1.733378076854792949e-01
-8.706958536603884302e-02
-6.161835866972467657e-02
-6.222695297313906443e-03
1.388392061046597736e-01
1.837744741482331690e-01
1.139184377120398828e-03
-1.865621481984879870e-01
-1.404031938684706382e-01
4.726812978439716428e-02
1.425294142751258042e-01
9.616630688369103008e-02
3.234678198456319292e-02
4.614979716131040882e-02
1.171678361342107233e-01
1.675164701894289454e-01
1.786775058415979167e-01
2.083932109701067126e-01
2.560721595441353138e-01
2.608410613092401187e-01
2.448542180297747506e-01
2.324565145502262009e-01
1.238527136452973187e-01
-1.122195019990486764e-01
-3.000040584732313054e-01
-2.754526531686806723e-01
-1.035754025791168348e-01
8.949085157331899965e-03
-2.004940977493316345e-02
-9.808435582102303929e-02
-1.706409732209543673e-01
-2.326237444605504801e-01
-2.254544459518916799e-01
-1.869464401196665182e-01
-2.230096400098530440e-01
-2.479076343959191742e-01
-1.128179716437934244e-01
1.134115064829284980e-01
2.248656135504668585e-01
1.481739508669415173e-01
2.178825628330545439e-02
-3.112207643266457283e-02
-3.725740603548652330e-02
5.163489451366352553e-03
1.205121640495764451e-01
1.677085734119999616e-01
6.366089719405627900e-02
1.262140230361228493e-04
7.785821561798325630e-02
1.208698652367818926e-01
4.056011573772105860e-02
-2.893765790693070966e-02
3.612218965160490097e-03
3.730992675742895309e-02
-3.871720770663682892e-02
-1.479547125695062360e-01
-1.821863234555633759e-01
-1.687163139119271515e-01
-1.365914695166895176e-01
-6.154780832833917081e-02
6.682583199824326803e-02
2.185975575276750682e-01
2.487089200784776688e-01
5.506910129930665809e-02
-1.309806391405787251e-01
-4.148440304491467223e-02
1.510271745609601257e-01
1.478385950622307099e-01
3.457298669554476761e-02
2.244771822442334988e-02
5.551354979739073214e-02
2.291884491878526386e-02
-9.688701318104574883e-03
1.906930208182777003e-02
5.706276484266896432e-02
6.384587164635950607e-02
5.047170244886712426e-02
5.722747956235010869e-02
1.118219486647621108e-01
8.020211535534875480e-02
-1.715649619797146030e-01
-3.747452988381267391e-01
-2.194370654558777667e-01
3.329273828239054378e-02
3.108466775965987999e-02
-9.765691057149282484e-02
-1.478638026345281686e-01
-1.362918537888512249e-01
-8.629902185537123571e-02
-8.970479490479233570e-03
1.513035771755505410e-02
-2.671962566450206134e-02
-2.414275046163986971e-02
6.152881165008766695e-02
1.378373611123513698e-01
1.518622148254279713e-01
1.132522270567604961e-01
2.326288660653151597e-02
-5.997105835821871234e-02
-4.010085972387292946e-02
6.278498078688102280e-02
1.201791589804512700e-01
7.008136140639470435e-02
-8.206356797903938821e-03
-1.794923027718608316e-02
2.955176857040099636e-02
6.438197535475773114e-02
5.125323709833820574e-02
1.740122357484226445e-02
1.920421797136013381e-02
3.480263518029635961e-02
-1.495097004625322093e-02
-1.032874760047965274e-01
-1.373454372693052594e-01
-1.098231095796558948e-01
-6.862191874553058568e-02
-3.515476146351884101e-02
7.256004080265610057e-03
7.366480144688183906e-02
9.466446538806916333e-02
-1.416006262415614447e-03
-9.456122125283977775e-02
-4.372573892624788405e-02
4.116896544248840190e-02
4.666172741027067861e-02
6.523491113627513660e-02
1.028677247373338266e-01
4.164506889675204104e-02
-6.403615017394249931e-02
-7.547865439606135651e-02
-9.300737506438366831e-03
3.067533915341206369e-02
-5.055556611149175650e-03
-5.837492835145556558e-02
-3.612096034578936993e-02
1.873611423455335406e-02
-1.602571846446763926e-02
-1.345700089746407757e-01
-2.381278944782251050e-01
-2.483720486844161746e-01
-1.277572529466848572e-01
2.466006133783868112e-02
3.621008031949336792e-02
-3.675561318355577423e-02
6.477190420977314497e-03
1.103551663792528836e-01
9.225738274330481936e-02
2.124798205232048681e-02
4.246184644218973375e-02
1.171688135626540173e-01
1.727068925808370459e-01
1.908450263410745584e-01
1.589415717106406334e-01
1.256811454753526403e-01
1.388355449196632396e-01
1.334933214514247846e-01
8.895608572310070850e-02
1.228681762255810217e-01
2.373060582725198819e-01
2.512081101376484327e-01
1.208401315716727542e-01
7.694515795260530033e-04
-3.126400842140166642e-02
-3.609288214209657036e-02
-8.032686510143455250e-02
-1.436903523841817076e-01
-1.499740365745429183e-01
-1.476242362957874144e-01
-2.526283880139466032e-01
-3.737479224258912769e-01
-3.825151473757977261e-01
-3.833604654998845063e-01
-3.856477117477810634e-01
-1.848852274485513758e-01
1.182285198737202669e-01
1.879351114554403956e-01
4.522092191843636588e-02
-7.541309790976191696e-02
-1.016276656397267775e-01
-3.053590397711396925e-02
8.967223734949729408e-02
1.403862739035072749e-01
1.098253663256875956e-01
8.094948466762058592e-02
6.609355035924004140e-02
3.546045029535362797e-02
2.612093567524010479e-02
5.378358123455636436e-02
5.027319048724199907e-02
6.698629294927113675e-02
1.989115656456854342e-01
2.729322699161583210e-01
1.707745869284443829e-01
9.000559824619588922e-02
1.465360687228105946e-02
-2.202020966998519680e-01
-3.074376077015373854e-01
1.847603487011846568e-02
3.240401586287086633e-01
2.178158548772172742e-01
-4.377784697218349563e-02
-1.481526179776938013e-01
-1.000255904976604243e-01
2.564374307739356040e-02
1.095341266195412055e-01
2.619062119913122266e-02
-8.914571030930724949e-02
-2.600401684676877795e-02
9.500265022427976935e-02
5.590139010471713299e-02
-6.134877718894331949e-02
-7.522742713776951751e-02
-4.664335658876439875e-03
3.870005097121435172e-02
4.315210067942081701e-02
4.678646115043492981e-02
1.016148382462200329e-02
-7.790597057015918869e-02
-1.060943850498769908e-01
-3.871471524241812401e-02
2.088738104815737739e-02
2.097892568630802673e-02
5.878086035455112185e-03
-1.042979134085266629e-03
-5.265584288834680715e-02
-1.659143890194117454e-01
-2.367270433051110734e-01
-2.011999748485639727e-01
-1.531665797291488773e-01
-1.805109051124584585e-01
-1.845833123261155229e-01
-1.517083524054781141e-03
2.655018101655641782e-01
2.982413280132404920e-01
6.905367327692223112e-02
-9.001721982892048335e-02
-3.719115147366985202e-03
1.496496762876085296e-01
1.669637292944277374e-01
7.404972093472851624e-02
2.247739177131506672e-02
4.672897033716039150e-02
5.485398997583908198e-02
3.722682437530785982e-02
5.574557087670252431e-02
7.921250177959568428e-02
5.951828584441285624e-02
4.933262981244561363e-02
7.827902128171421170e-02
4.393728642683222135e-02
-9.222570020588144457e-02
-1.743362209545349095e-01
-1.427835062914620812e-01
-1.096691977213164193e-01
-9.597574323549931674e-02
-9.803411647054478817e-02
-1.093868229557923843e-01
-1.025459197687610298e-02
1.372617869952156566e-01
1.237494111684787068e-01
5.217493751067186353e-02
1.005468924634482231e-01
1.022361368116037755e-01
-5.071279348572639567e-02
-8.865654754869005394e-02
9.838617857456438687e-02
2.160961319617822340e-01
1.317047437192069015e-01
1.400528084197640369e-02
-7.956948685638032259e-02
-1.720336896571165730e-01
-1.629979268536187464e-01
-1.965892025504473173e-02
8.780431159087287440e-02
2.137070509288072767e-02
-1.116301666896333117e-01
-9.088947996091598092e-02
9.103390965632163212e-02
1.623538127880048698e-01
1.201305717614018637e-02
-6.819478786534541315e-02
4.398346899395580434e-02
2.937561442776586568e-02
-1.950897527676851428e-01
-3.163965984849183011e-01
-2.755928341205806653e-01
-2.676972251980249684e-01
-2.218128332197795427e-01
5.503653255713698150e-02
3.551893380890310259e-01
2.628195528834516015e-01
-1.261366298545830711e-01
-2.801546891689051799e-01
-3.924954834294070577e-02
2.387186144280434297e-01
2.443176039991909188e-01
5.309140268235669480e-02
-4.112916919022498174e-02
6.763022784296832124e-02
1.879428943577114430e-01
1.867095463279720702e-01
1.492624642438659666e-01
1.509243566915612900e-01
1.755381588704492124e-01
1.722198913117701791e-01
1.223487427392171423e-01
1.298574522216527083e-01
1.709848745269721138e-01
1.106132203426558533e-02
-2.521005094173172645e-01
-2.647156443399009684e-01
-8.395599664610393920e-02
-5.760236721024609118e-03
-8.356236401188003871e-02
-1.978153735831929272e-01
-2.333502434223741762e-01
-1.648701710915639607e-01
-7.781136094016230520e-02
-5.925215602472001103e-02
-9.949147212162384735e-02
-1.169476421245715519e-01
-6.398044888986235967e-02
2.111750372734063491e-02
5.943406150406547322e-02
2.309126195413500199e-02
-2.036482748828491451e-02
-2.260819222810840981e-02
-1.206133078210773826e-02
3.573326798233347756e-02
1.264955260619168576e-01
1.167675456921085098e-01
-8.349989917731660133e-03
-4.072644257225412068e-02
5.962323071052608170e-02
1.274846570699849913e-01
9.905547536215247861e-02
3.959035557978327069e-02
1.607298930689519956e-02
1.166343495098626920e-02
-4.218599303092658570e-02
-1.150662970940311280e-01
-1.305487677467743746e-01
-1.255070400501351324e-01
-1.347775041834320398e-01
-7.055444551089151695e-02
1.153288660007889682e-01
2.807442849541845753e-01
2.172293727653865081e-01
-3.806298796336647638e-02
-1.660832923453222365e-01
-2.506801442342117270e-02
1.384656184858973071e-01
1.243623217788810686e-01
3.503704474384958939e-02
-5.857642497066422455e-03
-1.063515344068400800e-02
4.683877352752521123e-03
3.237899104440638415e-02
3.775652521688271923e-02
4.108563489370951199e-02
7.133300721907970265e-02
6.936260588271218885e-02
3.868239621345002932e-02
7.085863975486877964e-02
5.042765428261427457e-02
-1.778298468353807782e-01
-3.506718252864846619e-01
-1.951934952409898338e-01
3.570658875318696857e-02
4.156829637733021332e-02
-8.200668435587568639e-02
-1.398640305957532803e-01
-9.456029923737682696e-02
-1.321842260496252155e-02
4.242699786546900997e-02
7.236770533492636881e-02
6.898477035840294702e-02
4.650290425135067407e-03
-4.787668038003579929e-02
-5.078863346994263485e-03
5.739190205379679499e-02
5.663619744078000895e-02
4.604391075886429818e-02
5.459682984135332678e-02
2.149462183606886886e-02
-2.445866375338379833e-02
8.613592396001512608e-03
4.545920800273298146e-02
-1.308665807436919758e-02
-5.385585860177640599e-02
-1.176656430583560009e-04
7.302981351604910520e-02
1.610449487720036210e-01
2.230718926105678401e-01
1.363290725098086908e-01
-3.384686373020716343e-02
-1.400341356827572437e-01
-1.703849075341787589e-01
-1.521909422293292180e-01
-1.372611838984524324e-01
-1.801814931956122467e-01
-1.792539916304118075e-01
-1.384576757479817795e-03
2.249274522494189577e-01
2.175463380245845346e-01
-2.357709896468992289e-02
-1.626075885058172465e-01
-1.844093016628017834e-02
1.677179478676385227e-01
1.189546420583511011e-01
-4.941736707954727525e-02
-4.253815359951161612e-02
1.199082548235080176e-01
1.673065401295734667e-01
5.493676047016406161e-02
-1.768084596374718334e-03
3.292246952359981910e-02
-3.168023709925729681e-02
-1.282762127976446731e-01
2.956632299407901954e-04
1.328872043274603454e-01
-1.127428389877670745e-01
-3.889213462192314674e-01
-2.331457912392329579e-01
4.345756556129138498e-03
-6.657922734072443949e-02
-1.612675750893643178e-01
-2.205411572221337504e-02
1.068065125640016572e-01
1.626060077395607983e-02
-7.311856847545653015e-02
5.586911762447620278e-02
1.975346922181382969e-01
1.078178432171797152e-01
-5.395139526260100266e-02
-3.507915002241558666e-02
1.024451162601054677e-01
1.735068631997446487e-01
1.342679816129302983e-01
3.149364081169904982e-03
-1.230016336426774243e-01
-5.159699210117080215e-02
1.735663546595944129e-01
2.581096866202035600e-01
1.467194972267487907e-01
6.273783414514631784e-02
9.258081131662358743e-02
1.411728047560000532e-01
1.564900790855751345e-01
1.340432802284728664e-01
7.731635723539588556e-02
4.726481023646486590e-02
4.522607047916868406e-02
-5.308839962196010981e-02
-2.527998661677042236e-01
-3.906898699810518183e-01
-4.117892368958822047e-01
-3.893436685982455403e-01
-3.196339770728123253e-01
-1.380284530558420486e-01
7.717670811632068584e-02
9.055628736950226132e-02
-1.172907469554539672e-01
-2.031148506937120179e-01
-1.613506250451236801e-02
1.460604247073117590e-01
1.005303781857611878e-01
1.386939565877032959e-02
1.035160030844919921e-02
3.900833060316524770e-02
4.192765299134840196e-02
3.019397777940176913e-02
6.853778551789310725e-02
1.102890996204712454e-01
1.662643744141600530e-02
-6.180783553710089001e-02
1.051029288074637330e-01
2.921582370059115918e-01
2.319213098263910311e-01
2.561611664729675220e-02
-1.790761834761190330e-01
-2.312716514513110666e-01
-3.213999990780991300e-02
1.804492308596097883e-01
1.544229103378679524e-01
-9.465957732542927897e-03
-1.006502623931065099e-01
-4.593990461255643282e-02
8.649098896505061362e-02
1.414108975272858615e-01
5.451827638559740563e-02
-2.830798712856795463e-02
2.080182687667262234e-02
1.008328720509786003e-01
7.735896409092359038e-02
-8.556439788304306265e-03
-5.684371147444346184e-02
-5.723520149672461921e-02
-4.199885386032521650e-02
-8.576686619464490152e-03
3.163525006350589863e-02
2.674914168604163034e-02
-6.476611716742719169e-03
1.438192982744592764e-03
2.052732573295403679e-02
-1.080106250100987958e-02
-5.145928483321215996e-02
-5.382455573651685754e-02
-5.378102322798964524e-02
-1.037141030776007611e-01
-1.910847031010524943e-01
-2.453109573341711314e-01
-2.415540342155387543e-01
-2.212283102429622728e-01
-1.956310099494333044e-01
-1.155715138064117020e-01
7.092205040907660629e-02
2.504627656837352112e-01
1.719413610137898729e-01
-7.915049762056385052e-02
-8.196347585043986528e-02
1.782369868961930504e-01
2.675141717546634101e-01
9.472610755459451304e-02
1.038104649971528792e-02
1.192500668025340688e-01
1.682099190009152812e-01
1.104305243234510597e-01
1.212704282390717342e-01
1.657538280244846007e-01
1.264138717078044927e-01
8.098847676740504598e-02
1.102256480188807952e-01
1.080413146957764220e-01
-2.502260301088876648e-02
-1.731067113106921351e-01
-2.035861384654207573e-01
-1.839411292170834711e-01
-1.943704124236772801e-01
-1.891617305071488786e-01
-1.521201960034284373e-01
-1.239307797146795287e-01
-7.199316680264664092e-02
3.657477304857860434e-02
1.231977353036936701e-01
1.228166975295583441e-01
7.054144403088209725e-02
2.468880458081843324e-02
2.519531263354448519e-02
6.166500624234834416e-02
7.595894363765157142e-02
6.868381582793373075e-02
8.287053077361071496e-02
7.701755382468836175e-02
-1.515964900970600236e-02
-1.263617169706922616e-01
-1.266170421842326976e-01
-5.216334253822314804e-02
-4.701113266854704820e-02
-8.842454329569814087e-02
-4.325182588230695735e-02
8.804016395013961049e-02
1.838061556666210905e-01
1.416537129258954586e-01
-7.723659268640912373e-03
-9.665012980789133845e-02
-5.977509412756223245e-02
-4.267263572192137727e-02
-1.361388197793458599e-01
-2.503208146247590804e-01
-2.696697722646428375e-01
-1.501246132076077544e-01
1.328252012448705166e-02
5.521905659013414541e-02
1.188065004548648218e-02
3.222392467332410582e-02
4.558656091873723726e-02
-3.425185928560556259e-02
-3.662582145616778695e-02
1.105471402452052332e-01
1.893867163349360616e-01
1.082781637057179391e-01
4.374961177513606719e-02
9.274497155559421890e-02
1.630499961647103313e-01
1.935164326609961072e-01
2.093439670163393107e-01
2.052373015835323722e-01
1.645348572297708756e-01
1.251842388462192923e-01
1.250453045678143471e-01
1.355971424760221145e-01
5.909549305963057719e-02
-1.302777577374281126e-01
-2.559867061862964310e-01
-1.908063027973287973e-01
-7.172726323686526295e-02
-6.275786983635966987e-02
-1.721456928769918293e-01
-2.879568186487614923e-01
-2.773336768667021834e-01
-1.585926281354230749e-01
-5.994332174424098908e-02
-2.662480188914224943e-02
-4.001040025068802741e-02
-7.779189684709067465e-02
-7.212031802788294865e-02
2.069184543239880464e-02
1.108900861183601538e-01
9.174820961187685198e-02
1.000363767643171892e-02
-2.521594452934723674e-02
-1.311082128431539581e-03
5.234308419076651175e-02
1.187330551882626595e-01
1.288587894422447977e-01
6.224421969241250574e-02
3.758554791092732356e-02
8.771910591746839847e-02
8.856888510424650029e-02
2.341571038157410148e-02
5.451971523072755149e-03
3.579725848645350095e-02
7.867839627927364354e-03
-8.471888910348282509e-02
-1.467439810608121842e-01
-1.416587136415462800e-01
-1.232629363626229629e-01
-1.327838633570687377e-01
-9.151677934533540559e-02
9.993015073818710403e-02
2.832374794699739073e-01
1.932058011012881826e-01
-5.772392370052302490e-02
-1.342128158337083099e-01
-6.614056008427550426e-03
1.115790571479659682e-01
1.126370127767734597e-01
4.982703993883949578e-02
8.258233307546632498e-03
-3.037796175807377930e-03
-6.026421403304865754e-03
1.296152013315920656e-02
3.599985816277401218e-02
4.133843207235419343e-02
5.135825380717465305e-02
3.911597266411141055e-02
7.534939953150673886e-03
3.983895860954599771e-02
5.018118393298090507e-02
-1.099848555806740846e-01
-2.709165616815067401e-01
-1.977844740556893854e-01
-2.082294302629124003e-02
1.628905241024278944e-02
-5.933079473110022817e-02
-8.685120115239398919e-02
-4.674283482182644417e-02
-5.808831587826163156e-04
4.523633347267665139e-02
6.493079555761881172e-02
1.283219540461772584e-02
-5.394448600843166491e-02
-3.052800850004170827e-02
8.339226467625669714e-02
1.718836224019233416e-01
1.385972138270223919e-01
3.143378934705835792e-02
-1.921516172520485594e-02
1.938059007197543218e-02
5.485424848579693174e-02
2.323323798694330172e-02
-3.446962259554540997e-02
-4.518486773114125526e-02
8.318285330992622115e-03
5.989925123560657649e-02
4.819639534611559056e-02
3.014359935093851792e-02
7.795622010519777378e-02
9.625257589913573109e-02
-2.586979738534415235e-02
-1.637532015048820677e-01
-1.645957556514159315e-01
-1.252799592449673760e-01
-1.616992504527727526e-01
-1.882305752239785135e-01
-9.856888249534308255e-02
1.100441273687380039e-01
2.809514666335561905e-01
1.404752309204614913e-01
-2.086238866884724819e-01
-2.607961176745634546e-01
2.434328772237314559e-02
1.680801842259680157e-01
1.028160642010816639e-01
1.143081947134806792e-01
1.056296763131885086e-01
-4.827969451774385967e-02
-6.477478292177940578e-02
7.178995080386406380e-02
4.762356039750077763e-02
-3.819630777925984294e-02
1.687549122359351464e-02
4.576609052706177849e-02
5.091468115333385239e-03
2.817612667738464763e-02
-6.606159329324678975e-03
-1.867951989930702605e-01
-2.634306615240146754e-01
-9.263671052206098877e-02
8.318508425959096619e-02
4.397330490730982921e-02
-8.049444891352838805e-02
-9.165000578114165797e-02
-3.776411561600502564e-02
-4.607914935665371331e-02
-7.307782069964668947e-02
-2.082273930676599091e-02
5.861544636965072136e-02
8.063775018336999389e-02
1.085165435873505085e-01
1.906454488296075722e-01
2.157025508104117306e-01
1.432979371770142230e-01
9.440797929506344888e-02
9.574761623180313985e-02
9.809346302859885125e-02
1.736887940618578319e-01
2.822263422326006799e-01
1.985391048107231771e-01
2.313434177669606087e-03
-9.672703372366850405e-03
9.169008182728644041e-02
7.449160326332249227e-02
-2.452105137312646232e-02
-9.625147910689027531e-02
-1.439480394795975282e-01
-1.940522358120144175e-01
-2.633475155386182931e-01
-3.538960133229039906e-01
-4.127486432142367101e-01
-3.703604295724119422e-01
-2.629036408640026412e-01
-1.738256950929081279e-01
-4.494309319786865542e-02
1.398061502370058218e-01
1.494195886478135726e-01
-6.696795283096818041e-02
-1.698993411830217182e-01
-2.175239739939936398e-02
1.165021584752402584e-01
1.146104711989521657e-01
9.106282524470757367e-02
9.215607213712667667e-02
8.550209127561214650e-02
8.919215406006095193e-02
1.002472113384349217e-01
7.715548149063584937e-02
6.797624320850187418e-02
1.369540307508800014e-01
1.655646487215020057e-01
1.100230466136223328e-01
1.935347895575458554e-01
3.051488719188283349e-01
1.332960530015869956e-02
-4.310730289234439572e-01
-3.780795482880944247e-01
2.975075654083603194e-02
1.976054866788279907e-01
6.491489352590422424e-02
-7.833941364072094515e-02
-1.148605161540040553e-01
-4.877002157330349863e-02
6.667726519142880282e-02
7.818255513007624224e-02
-3.441710451547158600e-02
-6.350800532908713880e-02
4.786164671032052537e-02
1.155378560845342906e-01
8.164466385129470760e-02
4.296639679963623615e-02
8.315311220714324131e-03
-3.542735245293730795e-02
-2.147058883765296661e-02
4.404321779802126274e-02
5.086102548955143132e-02
-2.050126571585009910e-02
-5.348808817528321463e-02
1.662770929144397752e-03
4.287931501846430071e-02
1.299619321823445445e-02
-2.439717099734475120e-02
-3.679147787346620513e-02
-4.739694482821729671e-02
-8.060351179202296379e-02
-1.462601753967874840e-01
-1.804588018976923114e-01
-1.263441633130265584e-01
-8.571536969901667746e-02
-1.506557817671741462e-01
-1.768608715397128051e-01
-1.098413766052626535e-02
1.940226944287188893e-01
1.878835837757959482e-01
7.029940935530144819e-03
-9.169028436968652829e-02
1.071608854545678946e-02
1.078891306913072057e-01
-2.944490864107782505e-02
-1.740012555991648779e-01
-2.504926856908416821e-03
2.295395242220294174e-01
1.765261755165860036e-01
3.455287320991461131e-02
5.483309267797083220e-02
1.506040919623275465e-01
1.796700601319132229e-01
1.117848089640651604e-01
8.117990207342350162e-03
-6.462880504967806472e-02
-1.218738607668150842e-01
-1.140325527482697054e-01
1.972007764145724401e-02
9.966899221333155867e-02
1.671501978424362600e-02
-5.018159927000178516e-02
-5.716796802836823094e-02
-9.347964320284288253e-02
-8.032026205309827915e-02
2.671006539373375899e-02
1.082403892575435206e-01
8.696874670449467049e-02
1.638356185092525175e-03
-6.575444003056116204e-02
-6.844173430893611687e-02
-2.458365103098779023e-02
4.346346577585519233e-02
1.305948157125159659e-01
1.665589680650718662e-01
5.194201157648567491e-02
-1.458775191503086099e-01
-2.020797896792559112e-01
-5.771092200488860124e-02
4.794342636396116408e-02
-3.732014769608743565e-02
-1.240202382326872910e-01
-5.652884992883235038e-02
3.118723388193926985e-02
1.892817330677803306e-02
3.676517577600818543e-03
8.292816897225452344e-02
1.309653113452473039e-01
-3.650451224496349678e-02
-3.060675989528887087e-01
-3.785087376396167880e-01
-2.580291769051615836e-01
-1.764170864710210007e-01
-1.040852124941184370e-01
1.038504184998972624e-01
2.891791154573334910e-01
2.166294035013847652e-01
-1.340273790105267482e-02
-1.035833814780948992e-01
2.105640922374101345e-02
1.733156449988626224e-01
2.092168687792643478e-01
1.511382490635830855e-01
1.047355425309842297e-01
1.551891642879827671e-01
2.405820368787369989e-01
2.265382962369451025e-01
1.405812912536824610e-01
1.145747448744176139e-01
1.480641277896100061e-01
1.348591364970493367e-01
8.087697653257477914e-02
8.582931623940354138e-02
5.543017704778982480e-02
-1.704511102244519183e-01
-3.831362490441138635e-01
-3.209329865501861501e-01
-1.507388309379146807e-01
-1.121653309618552419e-01
-1.995367246756628576e-01
-3.094547863224597628e-01
-3.073480372245501191e-01
-1.576276557298857128e-01
-2.622792631539329344e-02
-2.090975694620055003e-02
-4.982628231549394993e-02
-1.372610280782003006e-02
8.891656896556686396e-02
1.770341060147519463e-01
1.601060311941771563e-01
7.131593683761239255e-02
6.423389784757260745e-03
-9.333801553434575154e-03
3.344569001117728146e-02
1.120088518528269267e-01
1.100707688894009273e-01
7.045342836370675418e-03
-4.536172852507384945e-02
3.283445378889099375e-02
1.497038215871155098e-01
1.762635788840968276e-01
1.027381066618668348e-01
5.988910650836132277e-02
4.554056611383955344e-02
-1.065546910790664270e-01
-2.833887682214571435e-01
-2.303489916838523111e-01
-9.596605901160466801e-02
-1.193091979386824569e-01
-1.561337103257578740e-01
-1.516525418314019352e-02
2.029294447519694455e-01
2.790620135015517977e-01
1.320820462814845664e-01
-8.238926255186337921e-02
-1.307752176007839773e-01
-8.611543645930253010e-04
1.112104504957184131e-01
1.007353177072851241e-01
4.238862622491285093e-02
2.624649883587891475e-02
4.755091734885792676e-02
4.307237213820033078e-02
4.631080453101473968e-03
-2.508671041099856669e-03
3.828781790495841553e-02
6.271558607410961106e-02
3.657388786164496308e-02
2.668280059952981773e-02
9.932062628247624592e-02
1.211478985109177148e-01
-8.671418175666589789e-02
-3.305411967767385439e-01
-2.859328879370916510e-01
-7.929818291789753060e-02
-2.681791832195812991e-02
-9.554156469065888668e-02
-1.022614068321217456e-01
-5.226644455236324066e-02
6.668063619502673234e-03
8.955692704119233571e-02
1.134867755806047707e-01
1.249787224671040919e-03
-9.662896880682016187e-02
-2.566245364218068536e-02
1.122269220962804626e-01
1.594967593855025623e-01
1.149096631225437759e-01
4.002218055603848357e-02
-2.286429910998435261e-02
-2.577743322135554391e-02
3.235189442422766598e-02
6.045804599333638729e-02
2.184878973786561710e-03
-5.101340374442407677e-02
-4.753795502413053764e-04
8.759687880099940871e-02
1.008498605774708484e-01
6.938247868733221635e-02
7.603730986929067848e-02
8.474175826548481505e-02
1.298747222812406815e-02
-1.114975375527624962e-01
-1.886853560227213511e-01
-1.837750944469882519e-01
-1.604422502599587574e-01
-1.797206361589616941e-01
-1.691614840302808342e-01
-9.799494379171123926e-03
1.744576906902345348e-01
1.277624869069186597e-01
-4.382218492984138458e-02
-2.396277068183048573e-02
1.107626214138973386e-01
1.065051086168647410e-01
5.473993471639241465e-02
9.389582502288493226e-02
9.367195128292435391e-02
5.520609126928985658e-03
-2.970910920123723958e-02
-7.397243999931288339e-03
-2.131337801425875131e-02
-2.769132364950684794e-02
2.663950206124918521e-02
5.858230123866801226e-02
4.008097881951894204e-02
6.437146111507545398e-02
6.441468784790073399e-02
-1.253967712457280947e-01
-3.387882121888978748e-01
-2.879100946480190881e-01
-9.512708330352083463e-02
-3.026832285694124047e-02
-5.886245698307027152e-02
-4.578312045751175424e-02
-6.194010255775019014e-03
6.168037042849506407e-03
-4.835037565893322148e-03
-4.394041537674274467e-03
2.373569445453993856e-02
3.984051181720445894e-02
3.783488100814560995e-02
1.053087077600340371e-01
2.285005351580298716e-01
2.282087967272223294e-01
7.254378273041722780e-02
-2.514050754592638340e-02
4.733184359942221170e-02
1.628086822173903658e-01
2.072894186651966231e-01
1.957932206695871813e-01
1.661241368017545850e-01
1.381050762861993630e-01
1.358891780299971430e-01
1.530506902186831719e-01
1.229312610787849369e-01
3.492546002178160275e-02
-1.556003907525203844e-02
-4.326552242417251726e-02
-1.847879643047307674e-01
-3.927676729198121830e-01
-4.652260560845503656e-01
-3.844345994838919145e-01
-3.151249469616719256e-01
-2.818740447192254472e-01
-1.456166079216385523e-01
3.125109372832582388e-02
6.537231848301613968e-03
-1.509145134407988142e-01
-1.439970546734732348e-01
6.546257190447365981e-03
6.552072951502629916e-02
2.606683572802472731e-02
2.176271501556360788e-02
5.484012452856494579e-02
6.372161269652489024e-02
6.846417260550631545e-02
1.057648734286794900e-01
1.489155148072951740e-01
1.712594649629739507e-01
1.741421329036161036e-01
1.509375317899651625e-01
1.204144060095723168e-01
1.297988723909907494e-01
1.398066560330730734e-01
9.255952956736149956e-03
-2.186740392015383005e-01
-2.337839531089057621e-01
1.027453113815812724e-02
1.582788989144022218e-01
6.920791035561707494e-02
-7.063069480422499991e-02
-1.194040004229711960e-01
-1.808824466650853224e-02
1.599100299264289704e-01
1.775484794802505428e-01
4.043476902449116145e-03
-8.991235232908682817e-02
6.213946591356954430e-03
9.627115628124244262e-02
5.892582120756176267e-02
-9.669362954928806958e-03
-4.367465057634171977e-02
-6.593902260787329328e-02
-4.288504695757429375e-02
3.586954096421662158e-02
5.143194727679988726e-02
-3.356975443550559018e-02
-6.881882375740899782e-02
-7.857694686206962917e-03
7.625245870245883281e-03
-4.602384740740413094e-02
-5.092335417693164001e-02
-3.098140219047632558e-03
3.794231021537929766e-03
-5.055261310096207522e-02
-1.255963526364378413e-01
-1.999548677336718816e-01
-2.089159861545344110e-01
-9.861754536441789953e-02
-2.265520770147835816e-02
-5.675905356345771480e-02
4.407805427546523935e-02
2.564989960019617987e-01
1.744252096826541254e-01
-1.485805693648343251e-01
-2.117076793021738512e-01
3.721575177402184492e-02
2.046575108134369159e-01
1.547548375528597364e-01
5.827778179397083425e-02
1.290187818022384657e-02
1.016049074021689591e-02
2.252193726073470348e-02
9.698855302923102550e-05
-1.524590421511822121e-02
6.122615694353683580e-02
1.362817767174385741e-01
1.209005761263546863e-01
9.563324555699087570e-02
5.626172022052255972e-02
-4.155913450243930995e-02
-1.224757654794014217e-01
-1.557218578416777743e-01
-1.355938684518964710e-01
-7.112677614645526725e-02
-7.866520424943086731e-02
-1.134030659387004342e-01
1.018880790137086621e-03
1.332286144882945111e-01
8.878654902741869859e-02
1.646832978123540306e-02
3.892806675944868178e-02
5.573246697680082906e-02
5.752059817662935615e-02
7.769861053739590684e-02
4.702906664051857005e-02
-1.268773050558861387e-02
7.622129208492230482e-03
6.847582361276965957e-02
3.797413195674047282e-02
-4.768152434978759763e-02
-2.955793828238022225e-02
4.302463216011634395e-02
-1.140103739703316604e-02
-1.057560708326890919e-01
-6.580151711170255380e-02
3.240318780372904162e-02
9.005554144777082326e-02
7.139900996895486018e-02
-6.970629056180244199e-02
-1.760552669899221045e-01
-1.034969122416906639e-01
-6.512544536490103009e-02
-1.911711566997818246e-01
-2.589060578218906894e-01
-1.708103066431077011e-01
-9.518263009023011922e-02
-7.930983066952476679e-02
5.183911918705076671e-03
1.395526390477917766e-01
1.248511597805705697e-01
-5.932593122432102545e-02
-1.541604850191368448e-01
-1.247954518681164762e-02
1.925820184404428981e-01
2.596333637776523928e-01
1.978237988399485503e-01
1.187264640386055115e-01
7.711525025970876468e-02
7.845264959956624318e-02
1.266604321946611100e-01
1.796102764558540898e-01
1.881973459380845981e-01
1.813498182900998290e-01
1.663123623828142994e-01
1.437043114533704535e-01
1.784155907567958610e-01
1.387514856647664163e-01
-1.489901792973769568e-01
-3.804162261764755248e-01
-2.398323698428901918e-01
-4.700074120520252030e-03
-5.039063847028037862e-03
-1.634726708046646548e-01
-2.811590551632910939e-01
-2.725402600064826264e-01
-1.667347251854678636e-01
-5.341411215946095109e-02
-2.211645536657654704e-02
-7.435237334162939082e-02
-8.505743371928783936e-02
-1.866533313111477799e-03
6.247977609983156738e-02
5.998862260904791466e-02
3.878537473255394552e-02
-1.096096678221747389e-02
-6.986822865759208245e-02
-3.810790201808281902e-02
7.638407047016589069e-02
1.362537403440067518e-01
9.239083724157193256e-02
4.108348613912972402e-02
5.151762066615999530e-02
7.606193101485483887e-02
5.745740300600186284e-02
3.207634390894695958e-02
5.038182837199520203e-02
4.893195188094338899e-02
-4.302623688563295135e-02
-1.310589489202135527e-01
-1.127863836398303177e-01
-7.604677982683588633e-02
-1.120269602172883350e-01
-1.272180895289972691e-01
-3.437072564112859940e-03
1.994115749433052753e-01
2.672427415304660103e-01
8.790709243209743340e-02
-1.411865916337539661e-01
-1.515225630981457960e-01
2.314040677445909633e-02
1.435574249539708080e-01
1.135944810215478995e-01
4.249849318126396741e-02
3.463673116543772301e-02
5.610968347206984896e-02
3.395453415103082129e-02
-1.294247422691297868e-02
-1.707303864173540658e-02
2.404349384450944413e-02
3.993208873477282345e-02
1.138679663137831879e-02
2.105802587303667872e-02
4.943771209647613435e-02
-4.074764164600842842e-02
-1.829259588657041746e-01
-1.928392496113099652e-01
-1.050772108577276986e-01
-4.144827483652629985e-02
-1.451202173586296947e-02
-1.661076289291841396e-02
-5.732481804273520387e-02
-9.284299266293837005e-02
-5.179265481604129751e-02
3.052126128780435418e-02
2.757792796398435622e-02
-4.718229761263662003e-02
-2.047900713403767725e-02
1.382564319811701026e-01
2.466841362348901334e-01
2.015876784674064393e-01
9.480867697891644241e-02
1.788020427277898367e-02
-4.254418996024459526e-02
-8.640809475398422701e-02
-7.074207311455432690e-02
-3.595448533740475128e-02
-4.457667440078965509e-02
-2.799762821630224358e-02
7.701849239239930145e-02
1.693184133453756179e-01
1.242569846176059672e-01
-2.558567036814209106e-02
-1.053975953085334594e-01
-3.124202183775223393e-02
1.984662820348632312e-02
-9.467596263963977410e-02
-2.046962462372838853e-01
-1.612811896354966190e-01
-1.018038836921027201e-01
-1.057489856691387620e-01
-2.160766397964607871e-02
1.766847525547969033e-01
2.906203246651139493e-01
1.930028080774902621e-01
-3.968548956559689311e-02
-1.783654434704395608e-01
-5.964421244197216226e-02
1.367263828272350934e-01
1.024671369744691168e-01
-1.069791867058698664e-01
-1.654881489225120406e-01
-1.363472861900645594e-02
1.140962708137340242e-01
1.241127597561761942e-01
7.374090447807238324e-02
-4.931868630293089611e-02
-1.650333725103068638e-01
-7.900262259074453119e-02
1.468641981832493615e-01
1.915848136273295699e-01
-3.455479537562759773e-02
-2.401461351251151233e-01
-2.229421505390755121e-01
-9.604253267056094001e-02
1.900390297688485039e-02
7.752845567616564737e-02
4.387459363240231447e-02
-2.618723211235416196e-02
-8.043926259076650265e-02
-1.071904361539931794e-01
-3.394655774072161125e-02
1.041431899628744578e-01
1.199982715933859273e-01
1.988819926566048890e-03
-4.952813807346102826e-02
3.526717867828249586e-02
1.284225028014775172e-01
1.379135813629261686e-01
6.961413165278995674e-02
-2.674429387704083810e-02
-3.133414546673690682e-02
1.202094213818930002e-01
2.624599444845297502e-01
2.273394023381234696e-01
1.169501313361665379e-01
8.956003574646144438e-02
1.322495275313102792e-01
1.636796447747033423e-01
1.248485445315933723e-01
2.882341991740604986e-02
-4.370921808966099498e-02
-1.018725712237971703e-01
-2.144024616910032988e-01
-3.319852949665846320e-01
-3.748006975933879104e-01
-3.634103486797585769e-01
-3.272933438952884688e-01
-2.268317075604696642e-01
-4.138776006650669859e-02
9.463161395187585923e-02
1.471801813042734886e-02
-1.537814381713657752e-01
-1.313113930838854249e-01
3.828404400004814523e-02
1.053677646548962787e-01
6.240421925806444170e-02
4.503640734059882744e-02
4.710469726821250869e-02
4.468725240993610959e-02
7.765821371624297142e-02
9.029541818497460737e-02
5.222171850096100909e-02
6.820724878316718198e-02
1.055033287254853180e-01
8.358536003270777837e-02
1.373707104541901924e-01
2.530828538578044351e-01
1.750057514873002151e-01
-8.668689999868980922e-02
-2.607071292150003883e-01
-1.945350949216206327e-01
2.297056392244808953e-02
1.437624033473901275e-01
5.451964794013641064e-02
-7.921621211380393268e-02
-9.883661504874258208e-02
-2.101370213959056349e-02
7.480836815264668704e-02
7.784060571729634059e-02
-4.094748522241017930e-02
-6.054183261657227616e-02
1.502037622688138507e-01
2.889266333910139317e-01
1.361520753425471686e-01
-4.747494155925757048e-02
-6.668410135584799947e-02
-5.221613344083047420e-02
-3.459709400755530545e-02
5.382444449436181444e-02
8.192077572372390148e-02
-3.804560025254532379e-02
-1.142843695945374161e-01
-4.267808942487775342e-02
1.322204306451445037e-02
-1.919478818232047898e-02
-5.051202928606454007e-02
-6.068102110383877951e-02
-4.805852996404654659e-02
-2.370723299579786253e-02
-1.180344764140426050e-01
-2.771879696928824521e-01
-2.239312364445928127e-01
-6.027910971461392098e-02
-1.054615240146316996e-01
-1.654916045541270364e-01
4.900382753562472493e-02
2.411334145840812737e-01
1.043586147553515198e-01
-8.044454053685563821e-02
-5.641570862647979356e-03
1.551528021444737171e-01
1.682384826305924341e-01
9.081129556685291204e-02
3.058325287813289106e-02
3.793476142521394479e-03
1.474391316269246452e-02
2.599583826373171036e-02
2.357890130467936440e-03
1.500461577987090983e-02
9.417052974057704695e-02
1.357656508788429306e-01
9.772366756593167669e-02
4.044598680506654442e-02
-8.372794386481145074e-03
-4.729771433631352329e-02
-7.074302274228883025e-02
-6.215159190370635189e-02
-3.369851841912023527e-02
-8.208332231402062917e-02
-1.845323015922822607e-01
-1.421199594377411946e-01
4.517165413310354760e-02
1.646070843331755573e-01
1.753944657730092394e-01
1.754536248375861418e-01
1.305007773589670350e-01
-2.559368424320608570e-02
-1.408519225199360014e-01
-3.351737716950127510e-02
1.125154269181372346e-01
2.447666280250879525e-02
-1.346939017406483252e-01
-1.011938604062225244e-01
1.466209525199224650e-02
4.458594067905799485e-02
