-6.863375001598229219e-02
-1.090786483328488043e-01
-8.682161846469298172e-02
-3.929734436383371110e-02
-1.941579657073576326e-02
-1.052568137270997253e-02
-1.593201709046311587e-02
-5.350296023452967564e-02
-9.032676580469325978e-02
-5.761673004581303881e-02
5.543991319247469629e-02
1.336225196488542988e-01
9.480028940545287552e-02
3.364752943443389405e-02
2.643193271062133781e-02
1.082440372848248768e-02
-2.238033621405933343e-02
-2.054895902182170275e-03
3.605015883109100733e-02
1.961774607289643035e-02
-7.326615923556665903e-03
-1.104502273840185858e-02
-2.003288195391252427e-02
-2.567400030946259681e-02
-3.471602932915250628e-02
-6.509347062285254781e-02
-5.687882262601082206e-02
-3.385230051514266300e-03
-8.251489843748313277e-03
-3.445587968006461055e-02
5.642067347955833506e-02
1.661839834706965446e-01
1.258665616198580139e-01
2.315271810299660352e-02
-9.332989353726225262e-03
1.663911295940239884e-03
6.343426966388149291e-03
9.658656589412520366e-04
-6.345775642200278746e-03
-4.056591439813480790e-03
-5.441323134775764847e-03
-2.420346074242417378e-02
-1.483656897873283052e-02
6.473783651381845479e-03
-7.308891924082371039e-02
-1.806693624109224627e-01
-1.369263410560272731e-01
-1.449181290943097125e-02
7.583920595960746969e-02
1.642739310151164200e-01
1.791605992246019796e-01
7.579116852750905631e-02
-2.682041680770478123e-02
-6.640656058973079534e-02
-5.700146392153623842e-02
-3.730884796547585813e-02
-4.092646987637465344e-02
-1.902797987580256978e-02
2.428889444417640237e-02
1.093392354703420777e-02
-2.131866784167150627e-02
-8.587434183110989605e-03
-1.604594798703717516e-03
-2.788004324116533442e-02
-3.730426411817261423e-02
-2.205113125563379697e-02
-6.790373835149591565e-03
1.130595580877026204e-02
1.389637944601208874e-02
-1.315003182078246236e-02
-3.727773859525658311e-03
6.788871947186815581e-02
8.948151873584109239e-02
1.691819104931258783e-02
-1.744566019850794444e-02
4.080979301210451576e-02
7.056246474604543906e-02
2.076890142458975158e-02
-2.395797429152554670e-02
-2.660779198139318069e-02
-2.885710316220410632e-02
-5.251038784775996504e-02
-7.081342324175711467e-02
-4.519457205598519794e-02
5.218888715333143066e-03
2.339357390291251296e-02
9.694136427029261677e-03
3.504414696364000284e-04
1.333562398153934937e-02
4.771874647232981353e-02
6.808522367582171830e-02
3.910595572874953768e-02
-1.486106657821763266e-02
-3.591269433184568483e-02
-1.411619066911024359e-02
1.563624940138466646e-03
-2.532128382231545703e-03
7.819786273176765508e-05
-5.976524593260592114e-03
-1.572228237290891617e-02
9.335788747589826228e-03
-1.579099375310155304e-02
-1.479903329289585512e-01
-1.947643782237050425e-01
-8.192034067814783771e-02
1.701739873595033842e-02
1.083581834918573017e-01
1.978402540456051795e-01
1.216726314977097934e-01
1.925676462649170140e-02
7.478626742491650825e-02
9.209495698641960437e-02
-4.178984837415324755e-03
-6.138717684671947394e-02
-7.749927112321428058e-02
-7.193951843653517697e-02
-1.296646527249976574e-02
3.401494847856305348e-02
2.663235972184412048e-02
1.152488420686469638e-02
-3.122511410317950313e-03
-3.351478338005900448e-02
-5.608985604136588338e-02
-5.410307313458270068e-02
-3.613146863021359650e-02
-3.111897379890288598e-02
-5.260559245241422377e-02
-2.037799424598340375e-02
7.459037397200696251e-02
6.645260491162688354e-02
-2.714512490657261870e-02
-7.332351289274135868e-03
7.434598637976042035e-02
7.944237873132180272e-02
5.877995346246694258e-02
3.336712356261354456e-02
-3.303173211124470210e-02
-7.849535816637304153e-02
-4.846871783439496428e-02
-1.257471506343805015e-03
-6.020959008403697216e-03
-1.963913312233847228e-02
2.495012738395990456e-02
7.946783733950622819e-02
8.795644457177431708e-02
7.480000516039549130e-02
3.805197622754758618e-02
-1.584556825420559839e-02
-1.075589652867183291e-02
4.546285759016669564e-04
-1.095927976953884608e-01
-1.821881640369016897e-01
-4.231375221053500224e-02
7.439376871176817119e-02
5.094145068980357460e-03
-3.559421291620622901e-02
1.543998997433256720e-02
4.736326064189723753e-03
-6.114963619006928697e-02
-1.091535304448396776e-01
-1.298756326320190668e-01
-1.025591403042903915e-01
-5.499966679577344281e-02
4.544177756574868665e-03
1.316066016054716070e-01
2.159597207884611791e-01
1.639082276477746847e-01
1.510223053625076584e-01
1.922106644226370120e-01
8.222035986552919673e-02
-1.029912833849113141e-01
-1.604871127528810781e-01
-1.176541718228502759e-01
-7.250044154426196763e-02
-4.995194793201281763e-02
-3.116342342575689414e-02
4.934979166545132648e-03
4.644130693435540719e-02
7.867395069894378423e-02
6.523443658595262651e-02
-2.734580567218409738e-02
-1.160376362002710215e-01
-1.103117462663941312e-01
-5.396007807564345837e-02
1.001064706093490048e-02
8.858892352555633454e-02
1.304812160870284787e-01
1.021417055209626057e-01
4.594437738898284745e-02
1.620288200643293583e-02
6.019837952271840653e-02
8.467270092995184128e-02
-6.149311803860409154e-02
-2.166375766031960748e-01
-1.521045775421983048e-01
-2.184852917676709944e-03
5.216281471690625837e-02
2.825254712523254941e-02
-2.500533666979006669e-02
-3.763733004828957035e-02
6.271571102659626550e-03
1.781706901076982041e-02
3.170743843851140178e-03
1.980161825299384462e-02
2.775173016191465059e-02
3.930454300306069834e-03
-2.472036220270308268e-02
-3.716239700510224481e-02
-1.292612368543039937e-02
7.360560944402638923e-03
-1.532053698373733383e-02
-1.175113333840318436e-02
3.870322464717946415e-02
5.096615471869427039e-02
3.661720080933385246e-02
6.548924501273317711e-02
5.938218717258242352e-02
-6.699800192200630611e-02
-1.846892843647049698e-01
-1.497705201664396024e-01
-5.937289397420433823e-02
-5.157526055149474348e-02
-2.830037215328583960e-02
1.047453325972867028e-01
1.809340937841554531e-01
1.450413268647544884e-01
1.824405743137999247e-01
2.172698120194569427e-01
4.191315631719450679e-02
-1.597028602429942101e-01
-1.606199747102559638e-01
-9.414823695436498607e-02
-8.528004230694773147e-02
-6.276580211884408289e-02
-1.795637497139172811e-02
-1.001324417016596566e-02
-1.723682202938579822e-02
-2.508032256451859631e-03
4.813335884045352731e-03
-2.360270895571669331e-02
-4.745013057990490890e-02
-2.510630674472125873e-02
1.193909200162654406e-03
-6.889648033377260977e-03
-9.336633847196393332e-03
7.897044455442585320e-03
2.533969715760272384e-02
5.490224912247824995e-02
8.503893627084514739e-02
1.011575576086349015e-01
1.184421743074400846e-01
1.216646375804475155e-01
1.036823993558294854e-01
7.579240448299073840e-02
2.126130270146844858e-02
-3.894215528609066418e-02
-6.226704912826046961e-02
-6.960712208559780012e-02
-8.133217175592852288e-02
-7.038084689155729712e-02
-3.465157748089688072e-02
-1.760280517906662526e-02
-2.040283782341209204e-02
1.318218947899132444e-02
2.692332394334933515e-02
-9.673931684085265714e-02
-2.213651047469995803e-01
-1.460932336117375940e-01
2.590915685378837943e-03
4.640873916899911772e-02
4.638575211868724291e-02
6.844003600613983440e-02
6.961436020133421332e-02
2.891699605210946641e-02
-4.010985068574655227e-02
-1.176135020895685834e-01
-1.709790699572864558e-01
-1.629468175810181996e-01
-3.715183290453809295e-02
1.471422057209103573e-01
1.737405146998410033e-01
8.262360596334633600e-02
1.409186410637541520e-01
2.522615199640714234e-01
1.681848779281714390e-01
1.112486224193198064e-02
-4.749559151099747717e-02
-6.632582221275686030e-02
-7.789840712495386954e-02
-5.267585638930030734e-02
-1.905969431818387363e-02
3.530610570999776973e-03
2.004306610155704577e-02
1.149233744684138511e-02
-1.867380991700185594e-02
-3.481727453101814834e-02
-4.235823319809356446e-02
-6.725256921605468619e-02
-8.273243510343243623e-02
-6.540455538520553724e-02
-3.877128175634967505e-02
1.024572171193290082e-03
4.532577859824342414e-02
3.022463534622818124e-02
1.090746134989375657e-02
9.611770987150164425e-02
1.566854173021172414e-01
5.470044678485531942e-02
-5.331713999698495937e-02
-3.844143645194939701e-02
2.544628039257233049e-04
-1.073690205970322629e-02
-4.041368354516036709e-02
-5.646118228900189051e-02
-4.645941023674983461e-02
-2.053319596054821450e-02
-3.399455565976176527e-03
1.454919539038401419e-03
1.716120644353174435e-02
4.525179582817996649e-02
4.747803131323341530e-02
1.453614736184911070e-02
-1.308281012492336706e-02
-1.330651263364993238e-02
-2.396854962249878648e-03
7.301255218055574883e-03
2.021119692732430487e-02
2.384454836868656405e-02
8.871344606118281191e-04
-1.696482677555353341e-02
-7.688861763559164640e-03
-4.452404941429298491e-02
-1.557000900247670072e-01
-1.961658620889487892e-01
-9.656522652803155304e-02
1.360197884797031444e-02
9.149994431426418384e-02
1.466602800032752174e-01
1.000388147743871414e-01
3.508594131745185890e-02
6.957275574479204749e-02
9.573693627691330643e-02
6.779997719509003873e-02
2.887227137388177767e-02
-5.306195519630228091e-02
-1.000469432700587663e-01
-4.673741188985588990e-02
-2.280689214250607860e-02
-2.683733310568356054e-02
7.180881420992071829e-02
1.605864156201883275e-01
8.506677634264352139e-02
-4.553924494613860452e-02
-7.677888593348491941e-02
7.906175492790323833e-05
3.790572247105613440e-02
-9.183253826726273106e-02
-1.888009414388733265e-01
-5.263666371779111841e-02
8.707339530174935949e-02
5.320936346716462206e-02
1.354556639406160473e-02
4.675715206683998815e-02
6.790252406746062619e-02
2.208869038018426018e-02
-9.523951474288437635e-02
-1.589424236629078668e-01
-7.443279735460028856e-02
9.519875209380225523e-03
-8.727507328549616999e-03
-3.279400806961417503e-02
-1.053822275043955758e-02
3.972911898672153858e-02
8.965954533030300044e-02
8.850471699810691373e-02
4.973314944959962569e-02
1.896500477205904228e-02
-9.457609992556199191e-03
-8.971788014808088421e-03
3.356348710073824015e-02
3.113259003563024693e-02
-1.240990177716943220e-02
1.218290599805936340e-02
5.135588298451633504e-02
-5.812896967716090109e-03
-7.120951642463375919e-02
-5.586351938254083965e-02
-4.039891296544768917e-02
-6.197956548886254108e-02
-7.640927251537063536e-02
-1.032475381327716685e-01
-1.409895856693237359e-01
-1.292545376229729259e-01
-3.420605296543806351e-02
1.434353273537069262e-01
2.598308112002918890e-01
1.725410356598096884e-01
8.647826453111522038e-02
1.657452181321986406e-01
1.602839756745283173e-01
-1.804665590681120424e-02
-1.152039459057683374e-01
-9.485808916258534063e-02
-1.006746677700000037e-01
-9.724826561801458435e-02
-3.216573029530607475e-02
9.660721970378524648e-03
9.690574190930023937e-03
4.888002317449433032e-02
9.316548076984877691e-02
5.138738212571979103e-02
-2.611402132253710928e-02
-5.687538827232277439e-02
-4.978083493550829880e-02
-4.649077856710889800e-02
-6.457050731989771863e-02
-5.527638467931985516e-02
-1.833033491475467283e-03
2.975296221822448101e-02
5.344513794603125006e-02
7.815443642578207006e-02
2.174028154523202985e-02
-4.695321076022123535e-02
-1.116602665127288015e-02
3.620185078257272954e-02
2.964420061924242372e-04
-5.212959858819170289e-02
-3.202258542877509800e-02
1.127788463949476981e-02
-5.623907378111177996e-02
-1.398567263493528112e-01
-3.327968397135865064e-02
1.240106755239762520e-01
9.336586756785450469e-02
-2.143222786321797441e-02
-3.897580464145809775e-02
-3.004616793168232367e-03
-8.562403359790396809e-03
-1.667586264322382453e-02
4.768869140813215834e-02
1.268913184404760475e-01
1.063692696010957173e-01
2.099779200800020243e-02
-1.644359462675433134e-02
-5.664110252459931411e-03
1.836400562280920967e-02
2.672657584770276110e-02
-6.982551376299210577e-02
-2.077158908094464684e-01
-1.717669358645622646e-01
-3.146353494577116411e-02
-2.070190331263674702e-02
-2.786559848750113505e-02
1.147659775535634363e-01
1.984444354343402606e-01
1.184534696195896353e-01
1.135924715566917625e-01
1.686033809477598122e-01
3.655256958501559850e-02
-1.682827055168675534e-01
-1.818991027168488928e-01
-8.305246374108149476e-02
-5.561850377907299331e-02
-5.721736139231303753e-02
-1.322032798076397744e-02
1.652076971703659788e-02
-2.345107150155918002e-03
-2.535625407567881906e-02
-3.201821932425064771e-02
-2.829048850009082891e-02
-3.894586302574982312e-02
-7.612697932177667215e-02
-4.870087967588934003e-02
7.965204923427286754e-02
1.674203821052587249e-01
1.873458039516227025e-01
2.156595468369808255e-01
1.623390800979601367e-01
3.654243883179546237e-02
8.626991441392995591e-03
2.251669472449289305e-02
-3.686407198859075612e-02
-9.051259376722135819e-02
-1.011629807940368220e-01
-1.053363568370404846e-01
-8.530361354173887634e-02
-5.607225553826199194e-02
-5.456166974640607598e-02
-5.541616197994671256e-02
-4.132310510602062864e-02
-3.853904096702576859e-02
-4.791140720342938059e-02
-3.815157565885399227e-02
-4.714052335963416634e-03
2.165198421614204782e-02
3.028868107323173797e-02
4.064292173795432117e-02
4.804605498546773296e-02
4.164188491918316415e-02
4.700792175914593474e-02
5.754170838718668246e-02
3.285706783069211601e-02
1.266525503877651698e-02
3.670579362110159422e-02
5.526924615832156870e-03
-1.174056133542892427e-01
-1.758679708675564557e-01
-1.269429715740430509e-01
-6.102108546736664807e-02
5.927449500061282572e-02
1.725057919351381530e-01
1.059505016920670173e-01
1.884752019405056683e-02
1.076308032119638047e-01
2.162349376419000213e-01
1.846251575271548595e-01
-5.599322226973837968e-02
-3.917574105228511794e-01
-3.764246746978938685e-01
4.499152247692456141e-03
1.951672460092632733e-01
9.728003757485588487e-02
2.912689348484996318e-02
3.154922356378221660e-02
1.963749694414069699e-02
3.049313952303256327e-03
-1.343152520302940897e-02
-1.798919996932774740e-02
-1.502722967625114668e-02
-4.350404487634839529e-02
-5.632710016635508743e-02
-1.209402802819918230e-03
3.955763951899580327e-02
4.516829490209829656e-02
7.954764726566426747e-02
8.319320803318625002e-02
4.516036745434259814e-02
2.883385048507692769e-02
-5.319366986624860655e-02
-1.671973835528720864e-01
-1.224856851905729987e-01
-1.240466341469603426e-02
-9.638546123229512971e-03
-2.423958466752024199e-02
8.723060278963499364e-03
1.565315105671726686e-02
6.528175052511941620e-03
2.874872899296973539e-02
4.507169881898717007e-02
2.431178612682195761e-02
-3.426128077821380489e-03
-1.004733914484240778e-02
1.368998234077520998e-03
1.172042244930971734e-02
1.284751524415955748e-02
2.055878161177555549e-02
3.653737764885530565e-02
3.801537042000979749e-02
1.997268046679186865e-02
-6.020208349469378765e-03
-1.460002135266741385e-02
-8.384288917548089748e-03
-6.869417169171956883e-02
-1.591555095692940569e-01
-1.161775176838670820e-01
-3.249556814503614527e-03
5.951167709450161381e-02
1.465398862447580552e-01
1.830800766189691620e-01
9.564654718117703014e-02
6.196190317517870361e-02
4.369471387977064830e-02
-7.060305512331956079e-02
-1.074402833212967923e-01
-6.541498899756055529e-02
-8.553444446388866473e-02
-6.809022205305485798e-02
1.969384421399702351e-02
4.080208922532409244e-02
9.003191536059704236e-03
8.675294269772856892e-03
5.941380067734704576e-03
-1.910344141425624614e-02
-1.833748044100506902e-02
-5.991197365857419202e-03
-1.943528138080557327e-02
-3.209150872678979277e-02
-3.680942731898430298e-02
-4.055857067395642751e-02
2.330626072068646328e-03
5.926525704222406626e-02
3.038704391889271092e-02
-2.055209596200277544e-02
2.026041092578799094e-02
8.754750403190675323e-02
8.961311332158918008e-02
3.494805921146307282e-02
-3.993429115634988813e-02
-8.485867993244976260e-02
-7.865664984800263548e-02
-5.643630945622105793e-02
-3.126964842545085221e-02
1.374636341711005759e-02
6.465611323897808849e-02
8.391576849478879496e-02
6.925564040463291771e-02
5.126051317163730914e-02
3.810192041801487711e-02
2.249000026931353285e-02
-3.111863903442328196e-03
-4.451490271800079279e-02
-5.654579259394432178e-02
-6.118114958508898138e-03
3.111975119214430846e-02
3.627157919417993773e-03
-2.825506631208726804e-02
-2.853973822876385708e-02
-1.468890766582858602e-02
-5.905440180166132962e-04
-3.131164467506020177e-02
-1.172656785643584887e-01
-1.546884488477238140e-01
-9.794002566093265583e-02
-3.885177615352635588e-02
3.589829046431203263e-02
1.952800672437428331e-01
2.559883460551896639e-01
1.267001574192151703e-01
9.313412182870035860e-02
1.508312619292274392e-01
-1.035037690758306220e-02
-2.149178295221708113e-01
-1.804463800524377382e-01
-1.108520815887113764e-01
-1.210921731092135800e-01
-4.826000199246736899e-02
4.187314670989867454e-02
7.147755079328070582e-03
-3.714297947534078714e-02
-5.958829698706196755e-03
5.115685988076211152e-03
-3.885051447152145648e-04
5.932762704155761929e-02
1.176001184806816785e-01
7.585064365557252219e-02
-2.533767072352997862e-02
-6.651155297888766693e-02
6.747193664077992536e-03
6.645395238784844449e-02
2.255686481275042191e-03
-3.770290313964277940e-02
3.431235242467908786e-02
7.967695013658669667e-02
5.848786865413237862e-02
1.822752932187517161e-02
-1.773108350972350464e-02
-2.800149466914000559e-03
6.136680758925140006e-03
-4.295680582820125132e-02
-5.467206858246866086e-02
-2.295445483965176739e-02
-2.186812261672450505e-02
-1.748766374638889912e-02
1.167103350538533854e-02
1.578184458852299743e-02
-9.701727487921193299e-03
-4.381771269515209732e-02
-7.608030872985663273e-02
-8.069920269861263762e-02
-4.155805686894462753e-02
5.174118559893927521e-02
1.469331593982170503e-01
1.388675707977781726e-01
9.572198737140104330e-02
1.171468391522951791e-01
7.556830304441326807e-02
-4.120856667362304132e-02
-5.476966956272588671e-02
-7.004457383728307507e-02
-2.534949634132442897e-01
-3.594271929267173205e-01
-2.167101547660890692e-01
-5.513719972979241185e-02
5.745511566291260086e-02
2.034782230814160542e-01
2.180752747085882570e-01
1.193749376902712156e-01
1.616715018296764339e-01
1.931766818534695618e-01
5.370972801333969565e-03
-1.493192456370070753e-01
-1.271734956629280155e-01
-9.372532368992791962e-02
-6.983649250290417665e-02
-1.347225694595037895e-02
7.643399414574878273e-03
-7.313049411860729834e-03
-1.099238043370056456e-02
-9.654253259639412194e-03
-6.171659017140163767e-03
7.589544551713614182e-03
2.005457693010029990e-02
2.730829044066247421e-02
7.088248035314670403e-02
1.547225738013622287e-01
1.685556273260292726e-01
1.005081397022626333e-01
7.694422559965520547e-02
5.477152597905020348e-02
-5.378448318293647945e-02
-1.188088577650742439e-01
-8.290192169819510237e-02
-7.631740861127569997e-02
-1.034964742206865018e-01
-7.481238823265878857e-02
-2.910410929767346874e-02
-4.510807694452703687e-02
-1.045034925820186866e-01
-9.885351201223580020e-02
2.516688527490999402e-02
1.113766062394810352e-01
4.010961439206828238e-02
-3.402373189336533460e-02
8.377955826705772713e-04
4.900303029575882319e-02
5.184800056750217545e-02
3.423410082495015327e-02
2.587221955415887689e-02
4.040354865328922573e-02
3.359528673364368945e-02
-1.032245788465192653e-02
-2.277613116386984285e-02
7.890818985581827053e-03
2.897448933594010123e-02
2.099088381987004523e-02
-4.017855845737631354e-02
-1.351805782643053511e-01
-1.629109919122385675e-01
-1.192707588596557677e-01
-4.283030481139935008e-02
1.082469529083018023e-01
1.936559128360694493e-01
5.722333287430653170e-02
-2.085294214537353544e-02
1.352560749336386703e-01
2.030190065628529050e-01
1.087152812282193570e-01
5.125789326108524252e-02
-1.016827138544882936e-01
-3.389215795071862658e-01
-2.929410555508247249e-01
-2.720679360234005278e-02
8.724830721716256288e-02
5.705323203907066570e-02
2.100420690711831545e-02
-2.394584384581358374e-02
-3.745637510646726565e-02
-2.313332594539979636e-02
-2.089353526125645177e-02
4.375735721277842355e-02
1.224181246295502623e-01
7.634657051394072580e-02
-7.371311157320968935e-03
-9.977476201331852979e-03
3.314138646852830827e-02
5.620033485342831175e-02
1.904790234086370035e-02
-9.182929046157042863e-03
3.880014936108312773e-02
5.262565979135998273e-02
-1.513574018036364932e-02
-5.665209506418105584e-02
-4.997397527738015044e-02
-4.066438747729310410e-02
-2.699803980226205685e-02
-5.835370810034211028e-03
1.356710473863624068e-02
2.685927476423361632e-02
4.193839513517788609e-02
6.315957585525837359e-02
4.757899929666892236e-02
-3.214444321574824390e-03
5.447836627740350324e-03
2.694602920707713650e-02
-8.427443975787003716e-02
-1.868579416932825144e-01
-6.860201635601059778e-02
9.650449639983163519e-02
8.358105028782542023e-02
3.628151524834415109e-04
-1.529742117111825526e-02
-4.956134868008917407e-03
-1.375564163210411112e-02
-4.536637418726675169e-02
-1.016817307490046479e-01
-1.380165487106374267e-01
-8.918213514919068330e-02
7.507077698477540584e-02
2.223944370546158400e-01
1.124002121139370536e-01
-1.047686496798086314e-01
-5.284499430645309137e-02
1.184939994959670201e-01
9.173745465106769581e-02
-1.255986874426993916e-02
-4.950278922766238737e-02
-6.360190275855845399e-02
-4.277944041501723083e-02
1.887906064961336616e-03
3.438658331596073335e-03
-1.050798260246372032e-02
1.133196923511463165e-02
1.992857196050244056e-02
-3.938877791433496867e-02
-6.677036185056300921e-02
4.728600540732964819e-02
1.342889605096901084e-01
1.171653069954178492e-02
-1.065437583163960228e-01
1.598900939658480860e-02
1.800770740258438585e-01
1.175801140816271489e-01
-5.537209422643119688e-02
-8.672043211756307046e-02
4.728329266777287626e-03
5.213237344403003071e-02
2.110791080846432383e-02
-4.287555438772737426e-02
-9.198917455481930849e-02
-7.084042456325467807e-02
-2.513228971399058403e-02
-4.173836257852000381e-02
-6.396056266879557306e-02
-1.391138182494217057e-02
3.130970002693647669e-02
-6.365105034726009636e-03
-1.606700357880560398e-02
1.001209499929390789e-01
1.706873835355719737e-01
6.084495087538052682e-02
-5.083330486829930328e-02
-4.777084193646148613e-02
-3.636437263468005054e-02
-1.346167974707069594e-02
8.201318104280071186e-02
8.237270260465630323e-02
-1.188051716924696105e-01
-2.105260657440679584e-01
1.540562929352468080e-02
2.126292837650705370e-01
9.379053463655906420e-02
-1.441507567312410032e-01
-2.218184179892506158e-01
-1.098350918489361117e-01
1.206244898411334629e-02
9.248598413546883779e-02
1.989183150050127524e-01
1.243101471008250525e-01
-1.290640449414499347e-01
-8.673223265538505811e-02
1.907225873454597709e-01
1.795928927988995338e-01
-5.855637823697917160e-02
-1.694652316762382815e-01
-1.237873954084426492e-01
-3.389456952750402596e-02
-9.121017335156671874e-03
-5.644130649349014817e-02
-4.373890313474533553e-02
2.702618809682613352e-02
6.233722609382152946e-02
8.703534901323231598e-02
8.868685927142264114e-02
1.140397849631719258e-02
-6.628533034829918458e-02
-8.123700429530462952e-02
-9.215579326623166145e-02
-5.844558871124983651e-02
7.879988985381802813e-02
1.279765580538728686e-01
1.433446978723979838e-02
6.939523789016409892e-03
1.254282627083494195e-01
1.089985321052133194e-01
1.269700796816602452e-02
5.362564548832771116e-03
-2.085107399342647078e-02
-1.055748703847565195e-01
-9.281872946332886398e-02
-1.721124071222861554e-02
-3.165254190355498015e-02
-6.022387319230503022e-02
1.084910911881236881e-02
6.672053074778194759e-02
6.389896512635079295e-03
-5.096916634469924462e-02
-4.646427802006112412e-03
3.989653028302225790e-02
-1.139108190138996002e-02
-6.377909783244110897e-02
-3.079947879265047123e-02
2.751875505116459231e-02
4.436167423249402081e-02
2.945950135543280723e-02
2.317950604026178252e-02
2.378834675067381318e-02
4.827905537531724167e-04
7.605278635029097921e-03
5.987111516096479957e-02
2.159373312051121249e-02
-9.263766705878048735e-02
-1.254335965863400959e-01
-1.131345909322377802e-01
-9.878836249214012488e-02
2.548636650234231346e-02
1.614674882303760439e-01
1.043540351104681740e-01
2.939214965464998983e-02
1.507734686604110808e-01
2.028520146124349333e-01
3.676989304529913738e-03
-1.437888839248708250e-01
-9.908102567650135806e-02
-6.139540441380472724e-02
-7.248588613020678917e-02
-4.622969732182194424e-02
-1.196769444180511080e-02
-3.651954470275089494e-03
-1.098328249459958744e-02
-2.952457483495822543e-02
-2.405728176735172016e-02
-1.396018696641704651e-02
-7.377322746702878742e-02
-1.150738506369256425e-01
-2.620096607733529703e-02
3.864690193720284050e-02
-1.260120268356562656e-03
7.016979684609203627e-02
2.205111880183707740e-01
1.600764688676706016e-01
-2.308451354057189375e-02
-6.228803327804574574e-02
-1.790394565453672787e-02
-2.143310435087340468e-02
-9.298849836692170065e-03
4.701842302546968555e-02
4.979133297913317796e-02
1.687495123718627324e-02
5.351935769207591398e-02
8.663125710496179244e-02
3.078315405491122494e-02
1.218045736441935277e-03
3.538096387648906327e-02
1.580388723608833548e-02
-4.491682506980622380e-02
-6.125730304050358566e-02
-6.040424745109809757e-02
-6.603928739715880791e-02
-4.756958192203639135e-02
-3.079397605855657000e-02
-5.092170764011191147e-02
-6.798278704480870127e-02
-5.570991499864761526e-02
-4.567392541261340588e-02
-2.746487628336323136e-02
4.554183557402231852e-03
-3.671145154030507757e-02
-1.113029658510242270e-01
-4.415094963849123394e-02
7.167251473935730421e-02
5.932944936670725422e-02
7.670772691694313639e-02
1.837468537737654284e-01
1.403923647662028706e-01
3.149482139397891123e-03
4.978284399739838634e-02
1.837964711253066707e-01
1.268872491672176084e-01
-9.460401935350479241e-02
-2.313319377253820197e-01
-1.721410279689841449e-01
-4.873118229859198236e-02
1.678251612380049409e-03
-6.772593604866945088e-03
-1.123655589241134324e-02
1.979486091564163983e-02
5.181713238995587500e-02
3.157390498692914244e-02
1.600987665072200680e-02
1.165229193958389892e-02
-9.370844973319535087e-02
-1.678971748163571309e-01
-2.350049862855243740e-02
1.097654676556874959e-01
4.715594303865960207e-02
4.279000684365905777e-03
6.197960649257900495e-02
5.740656658337391777e-02
1.322488647352867454e-02
6.160894893530011185e-02
9.496766524697265732e-02
-6.331840716050174400e-02
-2.079412246745653559e-01
-4.948079992265128069e-02
1.164094076199623240e-01
-4.430587750159001997e-02
-1.780493714536438010e-01
-2.000997360807294650e-02
1.589518532575735221e-01
1.834816621738057374e-01
6.158496884798568549e-02
-8.629823565628984283e-02
-6.376343563425285188e-02
2.236180035813498806e-02
-6.016404113811775478e-03
-4.653979531727247404e-02
-3.193157107194206923e-02
-2.141176161996380736e-02
-5.323747272066162335e-03
2.802917631704144458e-02
3.758756361118124889e-02
2.391307459064542437e-02
3.657067300813333921e-02
5.468369327208097430e-02
-2.455074442389590730e-02
-1.539222749742615026e-01
-1.532190837392761185e-01
-4.550192297289590987e-02
6.680515461370288566e-02
1.740670333933419522e-01
1.273475522528380310e-01
-5.900434335049273976e-02
-5.246838915742396692e-02
9.723095375614354552e-02
8.488965585430074956e-02
-4.520670503946735974e-03
-3.658321653949303531e-02
-7.073743184699907149e-02
-7.197409805912960423e-02
-1.567629906586861382e-02
1.362319079162174415e-02
8.602819484905257705e-03
1.176525076564434794e-02
7.422462728961411529e-03
-1.787086122717614078e-02
-3.740087076967198859e-02
-3.083252625305071479e-02
-1.330458768222758052e-03
1.134383178928849087e-02
-3.741464353966202777e-02
-6.853960920570202620e-02
2.394693796079424772e-02
1.145225546180638626e-01
5.183463870043969468e-02
-3.420869521029794302e-02
-1.003242254579915158e-02
4.444068938521928552e-02
5.420572663700345961e-02
1.804946232523940361e-02
-4.335009062847149791e-02
-8.792591547418099340e-02
-1.087490729880936507e-01
-7.242617005018320286e-02
6.318871070150053337e-02
1.647911279327456957e-01
1.091145951003464898e-01
1.572562878327464497e-02
-9.985828704926541163e-03
-1.748560751332189911e-02
-2.617857494151625344e-02
-2.192723835664969062e-02
-2.568467006946732051e-02
-2.869058795154119310e-02
-8.570147516637816043e-03
9.682958245831192398e-03
1.599481280980071668e-02
3.211848884016148958e-02
3.471047001214654093e-02
8.675930967109940842e-04
-2.009525533475764458e-02
8.934530747725575456e-03
2.657020780283068928e-02
-5.867260475280399595e-02
-1.969544783773940766e-01
-2.136604591823046406e-01
-8.916610111827327767e-02
3.166501781664064069e-02
8.899192224941070151e-02
1.050385248944470384e-01
1.357304330168169204e-01
2.140240756670133970e-01
2.064126647602415043e-01
3.773191940374473474e-02
-1.173500105821317641e-01
-1.509959898134585754e-01
-1.322114718524892707e-01
-9.099647552947055795e-02
-3.350307361319020821e-02
1.429943611210296797e-02
6.210848717219270149e-02
8.162137315829805229e-02
4.470908372965384792e-02
3.284770684070281721e-02
6.618197152067276101e-02
3.482847671260318884e-02
-5.374297764141810346e-02
-8.468918799119250218e-02
-5.373316081586704263e-02
1.430163766307310236e-02
8.335492947047955237e-02
7.040428455836935523e-03
-1.428623826801855290e-01
-8.099664354770522157e-02
1.161896371019853630e-01
1.757736646758404075e-01
8.346551173559704773e-02
-7.405956741832833701e-02
-1.757618946127512960e-01
-1.269374414792164008e-01
-4.585774814365330132e-02
-3.314566714849178503e-02
-2.979278373825735085e-02
9.246680799118429592e-03
7.436122651269805317e-02
9.431437113485865997e-02
2.065470468874277404e-02
-2.686693634389238777e-02
3.365183594848213111e-02
6.426008120903659027e-02
-5.669112654822621930e-03
-4.276759989217097241e-02
2.818899707750965183e-03
3.377149549989107158e-02
1.831329540000160155e-02
1.180889939967184714e-02
4.274263598131478742e-02
7.514443857004876604e-02
5.186765815008996527e-02
-1.486175139253093080e-02
-4.690160356109787654e-02
-4.317723509099112567e-02
-9.482318926325682129e-02
-1.958506959973585204e-01
-2.095566429897794958e-01
-8.178252346920511506e-02
8.886929162446566277e-02
1.813542442693350798e-01
1.546691031019491736e-01
1.293417848940778270e-01
2.105528348518550530e-01
2.103827979244242419e-01
4.349283209299538433e-03
-1.657998495443220588e-01
-1.729664996483095685e-01
-1.509976244273287527e-01
-1.258174968005532079e-01
-6.453248143714140905e-02
-7.431152504784044321e-03
4.028339293049534864e-02
7.584779719365639106e-02
6.920092957686939383e-02
2.969667674815372471e-02
-3.390238146575033640e-02
-1.169624852983218583e-01
-1.563469742591569456e-01
-8.166258068245632606e-02
4.236569491707741636e-02
4.877825510751476745e-02
4.772646296559435175e-04
1.237649394922535062e-01
2.652661863605660919e-01
1.406762041421503184e-01
-5.265257702741342472e-02
-5.020013149318169193e-02
1.394563350777979285e-02
-1.450097747377213607e-02
-8.150354549113315861e-02
-1.094802740757644666e-01
-7.444659777498982556e-02
-1.644229823599951956e-02
-4.397228911518225036e-03
-3.600574748501968875e-02
-6.403910344891287909e-02
-6.328140778038583714e-02
-1.942269489759501297e-02
5.186638987117797583e-02
1.120297146568124957e-01
1.509934041526771742e-01
1.561727406333968393e-01
1.204300096308788676e-01
8.432015959280188266e-02
5.373786755165305129e-02
9.219470608019956007e-03
-3.225844922356527200e-02
-9.478048138287981095e-02
-1.305182214626453840e-01
-1.456733694837732823e-02
6.711054808662372806e-02
-1.231868096891299280e-01
-2.932617588469133008e-01
-1.731111517229651786e-01
-3.598270965034469637e-02
-2.494432183886293591e-02
4.358827040371437977e-02
1.145326165834527343e-01
1.022943717900762772e-01
1.565530126234796482e-01
2.218129907699201431e-01
1.405505655599770809e-01
2.674304035915219674e-02
-4.082776069856949852e-02
-9.551738240625297360e-02
-6.707036849904621234e-02
-3.083638671923601832e-02
-1.439531346701232450e-01
-2.210631104729943730e-01
-7.633306065465379764e-02
6.597255671659166265e-02
3.011942878606686802e-02
-3.104890806218526741e-02
-2.308566672602507114e-02
-3.083192289645417944e-02
-3.763575914713614828e-02
4.671422888908773746e-02
1.245023926982916918e-01
8.801267885786231981e-02
6.349390000155150093e-02
9.899798300780426885e-02
5.980660437949795322e-02
-1.637764824183476908e-02
-1.267422916042955545e-02
9.845824248093430764e-03
-4.946046242110146117e-03
-2.636839051346757251e-02
-5.546874580312681491e-02
-7.800012941918071929e-02
-6.014171998935478880e-02
-2.311369089988188352e-02
5.910996549982627107e-03
2.488865950412073522e-02
2.861717058315051132e-02
3.194361400359031766e-02
4.470979740670220914e-02
3.063493101862595214e-02
-7.493638945429008033e-03
-1.120204854401428071e-02
1.191099416725897690e-02
1.603463952743618831e-02
1.114116046210635730e-02
7.924812194156378303e-03
1.668186212659358326e-04
-2.893761448020381547e-03
2.950888137118245179e-03
2.823369765318163929e-02
4.203974566261483442e-02
-2.880716420342260831e-02
-1.256570009257781673e-01
-1.602976004344681404e-01
-2.041956902764310300e-01
-1.992842413616106034e-01
1.375346334324390948e-02
2.075183837259501618e-01
1.186539967764532466e-01
-9.108791385540777885e-03
7.158498469750644577e-02
2.051649154755808280e-01
1.946260039591028446e-01
4.849974798781285512e-02
-8.030099430869133692e-02
-8.205068353062550113e-02
-2.878881862897394658e-02
-7.223456393071991249e-03
-3.433882516613258329e-03
-1.501852872117876575e-02
-2.976303017192521300e-02
-5.768659428056569990e-03
1.734800483317674308e-02
-1.331944778976260069e-02
-5.102501028228402513e-02
-3.159481490824864180e-02
2.509666873682287955e-02
3.216663825137905386e-02
-2.703756339710814902e-03
3.005309284992362454e-02
6.975298553706112126e-02
-9.432843740327653131e-03
-8.473343227728079297e-02
-4.166909210950280745e-02
8.110642600760730597e-03
2.416163815867554757e-03
-4.175282920785177050e-03
8.082067504977434938e-04
-2.678033726808012015e-03
-1.986791112866788389e-02
-3.851936123625281788e-02
-4.050947460536555300e-02
-2.234203796397138397e-02
1.239231103451941124e-02
4.030876203028545268e-02
3.270029496206860314e-02
1.785887288232158865e-02
2.292509467261009612e-02
1.165037694359535858e-02
-8.045545410063702912e-03
1.803290705390387522e-02
4.560159627704760132e-02
1.107469535250109674e-02
-2.344882943257705493e-02
-7.267773362196121995e-03
9.402329784139455693e-03
1.261948431800723192e-02
1.931114207101229663e-02
-7.963877358561603434e-03
-7.204017753497472809e-02
-1.112470714698690910e-01
-1.034073262352784156e-01
-7.033985690701817506e-02
-2.594190965457834550e-02
3.749042157484701321e-02
1.062001410697643311e-01
1.213180224159474269e-01
1.283836544549608605e-01
1.953093411677248037e-01
1.602676743811370930e-01
-4.740601457091805221e-02
-1.852706517106177397e-01
-1.429762184836272931e-01
-6.070483640934576375e-02
-4.279470394314251191e-02
-9.108102405033553783e-02
-1.299440638522696423e-01
-9.775696597016529654e-02
-4.966694788377646469e-02
-3.779188171240876679e-03
9.474688239370031295e-02
1.511393831007565303e-01
1.051216166939674956e-01
1.255062300759238192e-01
1.304088004137707590e-01
-1.303835086539648358e-01
-3.122354710086100438e-01
-2.069740489543905881e-03
3.748996309577037889e-01
3.361318136240006860e-01
1.061909329369446070e-01
1.181046273568860452e-02
1.207839154587755232e-02
-1.392592785203063122e-01
-4.028683944977526910e-01
-3.425844660658542429e-01
-8.387211544880014691e-03
1.320619372852575302e-01
1.738626596453529682e-01
2.662607049795465697e-01
1.905942730967747911e-01
2.713305615444502883e-02
-1.457615361734738990e-01
-3.864768947864901660e-01
-2.696627676454180778e-01
1.961795933885960574e-01
1.682686888775021816e-01
-2.499729848066056526e-01
-1.992574247025571399e-01
9.405369422750387010e-02
6.121900879967634435e-02
-3.851664790458322885e-02
1.665488373609806672e-02
4.416858766545121717e-02
2.010243595017782714e-02
9.057419315037959842e-03
-1.252835338474903026e-02
-6.116483224270379687e-02
-1.374185766586837887e-01
-1.708790345446149217e-01
-9.985294635695629584e-02
-4.687532991608988828e-03
1.020045579201122321e-01
2.794133057989445224e-01
3.830380283561496957e-01
3.187135023794692157e-01
2.544596526134409453e-01
2.029562368817540707e-01
4.678386727381898119e-02
-8.502061572063010497e-02
-9.816700664514925456e-02
-1.245973154497028307e-01
-1.802458197360922998e-01
-1.646036528590399395e-01
-9.645387199752816776e-02
-4.973693501192049532e-02
-6.627886378980976656e-02
-1.430275702647708924e-01
-1.546413607601105911e-01
-1.245816004878873458e-02
9.930774670601938414e-02
2.725842508528598246e-02
-5.196917605631889980e-02
-2.223081024915708401e-03
4.683602153445048932e-02
3.493136168881200848e-02
5.969172153530021008e-02
9.136316133848322585e-02
1.732162148781255656e-02
-6.236013455450356568e-02
-1.200687084469896464e-02
3.472542393814698203e-02
-3.913205821117794747e-02
-9.381826651853425458e-02
-4.127173280379636128e-02
1.852090849599072764e-03
-3.350059210844108515e-02
-5.608260145427480803e-02
-5.067473665035382088e-03
5.126964702222369663e-02
5.748534937443582765e-02
4.617360950871264580e-02
5.380945693462318991e-02
5.951741339299337907e-02
2.713851807988373194e-02
-6.174303271244165926e-03
1.804582730149600564e-02
4.921159377779667221e-02
3.600509603150914978e-02
4.460588908813146319e-02
7.095218230918332036e-02
4.065999547973744160e-02
4.319166335545786273e-02
6.710583742290801568e-02
-1.310057284179558523e-01
-4.056430363168918585e-01
-3.416195833431877604e-01
-6.841290030662947053e-02
4.771813885768363961e-02
8.525939051364339605e-02
1.997052061532347544e-01
2.098728482683013263e-01
6.124914039626988549e-02
3.437856176470960312e-02
1.519673945599717690e-01
1.213700473913666839e-01
-8.192677197089198726e-02
-2.095307547650352431e-01
-1.563420755456308708e-01
-3.729761525943679767e-02
2.649968605082241024e-02
3.873457275466836436e-02
4.958489239769194035e-02
4.845427989699099131e-02
2.409539147904371861e-02
3.718502068298758928e-02
4.940283247935466082e-02
-7.222947291312049878e-02
-1.979262669120653018e-01
-1.038807541234929577e-01
4.833635392723350382e-02
2.695423038136492491e-02
-2.830653216989544724e-02
4.197694062577133484e-02
9.272883752765320731e-02
1.988352063898782968e-02
-1.609023703729669380e-02
4.937513598974328788e-02
6.677065428444109441e-02
1.117705384399686475e-02
-1.925364625029619275e-02
-3.488410650808129732e-02
-6.346722307224453297e-02
-5.354970199888206550e-02
-1.123450027449845665e-02
7.368461872385412802e-04
-1.036349576439230327e-03
1.548284974980964138e-02
1.711340734320102724e-02
3.904099047451987069e-03
8.226935837599411161e-03
1.538573639776557624e-02
1.604593923050657775e-02
2.022468815823676852e-02
1.531742104312775951e-02
3.149927181827519036e-03
1.366258015863312369e-03
1.278326836511471665e-02
3.063352260324671283e-02
3.186606630793518968e-02
1.889821683403076699e-02
3.532367066107049147e-02
3.452364458735771025e-02
-7.874686388942261916e-02
-1.909846561073150484e-01
-1.441182284944376724e-01
-4.079033057367828508e-02
5.484791693351709352e-02
1.832097357410471805e-01
1.606482625157727995e-01
-2.666514807605487730e-02
-7.207033157407678747e-02
1.049761631483605087e-02
2.032296791527384711e-02
4.891302124415135462e-03
-7.147500218753726278e-03
-5.011873499430311713e-02
-3.657200706213707686e-02
4.769240604681231066e-02
5.047020909535966660e-02
-7.899887624018479826e-02
-1.583991833850285080e-01
-6.896248515208223961e-02
4.292936223079840685e-02
4.965411638333584732e-02
1.403884036904242023e-02
-3.135905277858916027e-03
-1.563784948539760980e-02
-3.983204213071914884e-02
-6.055020501729366234e-02
-9.000682713105841171e-03
1.112769311353665608e-01
1.490361329347140995e-01
7.404902529464361949e-02
3.531941737791408076e-02
5.660521583926103606e-02
4.187652059516722147e-02
-2.160933088801586868e-02
-6.989860677694390012e-02
-7.350570376068207845e-02
-8.681441645217734260e-02
-8.349673022271654477e-02
4.785324775368191008e-02
1.657259829530871031e-01
6.317582092776591329e-02
-7.317297087694080160e-02
-3.484884203868473390e-02
2.175195233413391646e-02
-2.027103044494875730e-02
-5.205148306058363095e-02
-2.947999895098486756e-02
-7.396408765019365714e-03
-8.437346815764730154e-03
-1.278881072341503736e-02
1.057887240231028710e-02
3.869175516754881639e-02
2.639049094768841641e-02
5.926529276191951079e-03
7.539906299716216120e-03
8.640178439856717116e-03
-4.290169342669833408e-03
-7.040941866520877834e-02
-1.647441107778582214e-01
-1.502309600644267662e-01
-5.091220489168834379e-02
2.045207448381873572e-02
1.263604026638826261e-01
2.166960819715909037e-01
1.387027596828274700e-01
6.404408339301342901e-02
1.258823759506922935e-01
1.048381746951151938e-01
-3.627886304878619184e-02
-1.153393281336688170e-01
-1.292934425329652914e-01
-1.124424522051782893e-01
-4.879523578761925384e-02
-6.667601750536801541e-03
-1.549206191286421272e-02
-9.550978208630312577e-03
3.146967941947390740e-02
5.276059019982850401e-02
9.523072345832061386e-03
-4.917117620047137261e-02
-4.093773312186394647e-02
-9.825870687083917976e-03
-3.538444355769962413e-02
-4.501930034766031541e-02
1.408517668593449110e-02
3.284564292054559242e-02
-1.072293124474104145e-02
-6.925647715422822599e-03
3.785819799973048211e-02
4.179900697465306625e-02
5.274431065917667590e-03
-5.326918821844312674e-02
-1.040033818233919993e-01
-7.411237769644948847e-02
-4.256460191095726153e-02
-1.129659669939471617e-01
6.310605917775536505e-03
3.870067506354435416e-01
3.196464296068695643e-01
-2.711388597353147079e-01
-3.134417783140791558e-01
4.127312859305461989e-01
7.801748668796271158e-01
1.468426603871778591e-01
-6.507122110568900331e-01
-4.400348822809747595e-01
3.981443685868271687e-01
6.122858987297016276e-01
2.418779885622289738e-01
-9.265601138259887959e-02
-4.331471277908279793e-01
-7.109168744777321081e-01
-6.346820187130097768e-01
-2.687732110121813789e-01
-2.931980649374024001e-03
-6.300934698796191447e-02
-5.080156068062664787e-02
2.760595959542821998e-01
4.999057238182137430e-01
4.429409210237435501e-01
2.352520190122387445e-01
1.839315696081013363e-03
-6.912597357245695018e-02
-1.445815818371551376e-01
-3.413595043684559682e-01
-2.744299760461703097e-01
3.348151872483812880e-02
2.205919462018945953e-01
2.577603338085009410e-01
3.735528928725120879e-02
-3.311915387332937666e-01
-2.611327269766327008e-01
1.422071148662084616e-01
2.005493144419350504e-01
-2.993318336199231322e-02
-9.264587868839239959e-02
7.325263758043081691e-03
5.640856211984911217e-02
1.479231957487398344e-02
2.343798244472085346e-02
1.942652994886928663e-01
3.161903488245144112e-01
1.816317253519249275e-01
3.802424473333178290e-02
7.542497447546200884e-02
6.560284581656039560e-02
-5.607665264707154679e-02
-8.081093151674935415e-02
-6.023380439759638827e-02
-1.769643198387763072e-01
-2.654895970153829943e-01
-1.245707035283995789e-01
3.990330685512137598e-02
9.763592608146680341e-03
-9.203623273065285326e-02
-1.049220745514850839e-01
-5.321397841733601503e-02
-2.088760711662517727e-02
-1.793410266838444539e-02
-9.447722232662065373e-03
3.745630700421682252e-03
2.927311874925525581e-02
8.421127991993257456e-02
1.055244755231893455e-01
4.544162322989831609e-02
-1.021273030477850945e-02
1.134162961170349579e-02
4.030680701567631447e-02
7.879077631698594431e-03
-2.414513733804385040e-02
7.085601362086118432e-03
3.058613475776285340e-02
-4.281740689042801834e-02
-1.520710498731269733e-01
-1.686157056612606620e-01
-1.110268287829956901e-01
-5.401533902743846371e-02
6.318286088231307718e-02
1.862434029630538057e-01
1.234367870637462922e-01
3.175448978978115400e-02
1.426699245173250474e-01
2.169018946165607309e-01
8.443647364809818423e-02
-2.428007325214717044e-02
-4.131786366518486880e-02
-6.945009929500807477e-02
-4.996507051527730725e-02
1.855867869104017853e-02
1.258730591569993257e-02
-2.510144310040070964e-02
2.381366075260884368e-02
5.099728019820864294e-02
-8.157971890187384889e-02
-2.049221710160455401e-01
-1.359331653971465326e-01
-1.755889783893751360e-02
-6.757870250962923209e-03
-2.768856500655135847e-02
9.164779142745740209e-03
6.697314428600287251e-02
8.429669610559187287e-02
6.959877256029542436e-02
3.287949172679800053e-02
-3.552825565870942198e-02
-5.138714514739418926e-02
2.339218418674653133e-02
5.230188320543273373e-02
-3.283301671202431063e-03
-2.759911450623957901e-02
-1.440303012476104247e-02
-2.526147887262592331e-02
-2.768717724955267398e-02
2.781690714701950257e-03
1.797715486243365787e-02
1.573050741456333973e-02
3.554404044925468797e-02
5.591499550348255632e-02
4.415768826960892596e-02
1.664199806410131960e-02
-1.196289627911602260e-02
-3.070058169308621798e-02
-2.352394098343347367e-02
-7.667930044559043840e-03
4.989425834174318185e-04
1.895166103410997338e-02
4.115624175359305220e-02
2.409881884473010633e-02
-2.474102395113115388e-02
-5.068736958901931544e-02
-8.486100737608810729e-02
-1.717380309040229536e-01
-2.097319566875794628e-01
-1.459634933231513387e-01
-1.874074451162664051e-02
2.031026425875882002e-01
3.262189752790442543e-01
1.197974188873466989e-01
-7.377939087169319010e-02
3.591533201763642824e-02
1.310688525017189021e-01
4.851439266853798532e-02
-2.261060087278946029e-02
-5.597441555055746032e-02
-8.945493967075915376e-02
-5.995248969051321375e-02
1.109540529858315562e-02
3.159245502584283327e-02
-1.167668606461449814e-03
-2.232770046893670784e-02
-9.757899657786586051e-03
-1.986124526684084068e-03
-2.543773664299161380e-02
-3.681640809087126376e-02
2.591089433500491993e-03
3.039265570710743963e-02
4.052869617260831600e-03
1.558010330447510625e-02
8.456836454456621854e-02
7.305666489807924324e-02
-9.227319249497932183e-03
5.124142848196323874e-03
9.302417914612837180e-02
7.019797207526091987e-02
-8.479819262062111840e-02
-1.769262607435467261e-01
-9.998280900795264436e-02
-1.093236769921590752e-02
-2.534036391511737887e-02
-3.953466467034567888e-02
-3.701423368448093776e-03
2.257229938490095886e-03
-1.051509731063917340e-02
2.495986123337300480e-02
5.625828223983671272e-02
3.309953373162299872e-02
1.394577346495973202e-02
1.236767076906150967e-02
2.605690058416091758e-03
1.836350489856836132e-03
-2.322729528736581367e-02
-4.069736460387982785e-02
8.331103378545517968e-02
1.813123214987766574e-01
-6.539840016101933912e-03
-2.017019182139255240e-01
-8.191927844717261653e-02
7.658430238925706401e-02
-2.317087398573862422e-02
-1.852650350113685951e-01
-1.611133769197174992e-01
-7.162766614612378624e-02
-2.993699836385156285e-02
1.431650808970329758e-01
3.259243597337976306e-01
1.841419968242642702e-01
-1.141473672085773633e-02
6.004040158022765084e-02
1.170789571339014984e-01
9.093461849003975361e-03
-8.103854239626226419e-02
-1.147158051320528727e-01
-9.687316158979425440e-02
-2.315953931248014228e-02
4.612734716741027918e-03
-1.964081485418722045e-02
-8.445479869900640764e-04
2.095692381123357220e-02
-2.968912024259812155e-02
-6.508024719473876063e-02
-2.479700588687069537e-02
-2.248990777865668422e-02
-5.944074267758016339e-02
1.611371037281357846e-02
1.410417185432164822e-01
1.160483302990360788e-01
-1.403431326097092161e-02
-6.173426972738888657e-02
2.721826385018728811e-03
8.851947970874100846e-02
1.043525456912749588e-01
-1.488404608211396814e-02
-1.558794966682355287e-01
-1.225332855470999405e-01
-3.114660940527879535e-03
2.550257468713701750e-03
-5.861535446731296062e-02
-6.297015348796448919e-02
-1.373685706917971393e-02
3.092763833246185007e-02
4.799281981048024448e-02
6.207847527989517056e-02
7.357620073321152754e-02
4.313863824221848831e-02
-7.429350091006097986e-03
-1.487487081782648199e-02
8.773110666882457873e-03
8.916203924434254122e-03
-1.566113615973816625e-02
-2.619818902842481478e-02
-5.635005503338828305e-03
2.737760529778341181e-02
4.151588964043079893e-02
2.283084359880899888e-02
1.053665300923072035e-02
2.235507758898857764e-02
-4.289529117183484008e-02
-1.621317258431205777e-01
-1.127693355414178811e-01
8.974635216798615422e-03
-4.800995254427728454e-02
-3.954198149834199649e-02
1.600359809685183987e-01
1.565720217580626739e-01
9.916085720932943381e-04
7.684292559710576009e-02
1.679231821835333038e-01
-1.883022201320351530e-02
-2.063440084474010838e-01
-1.568045953023449735e-01
-4.201094160874575822e-02
7.612285924023402817e-03
4.570608398593456467e-02
6.320054217599892221e-02
3.208251918830629101e-02
8.746901295545894683e-03
3.467751841813276458e-03
-2.693716653089084714e-02
-5.435579958716155180e-02
-4.757660890829139289e-02
-3.841382503366699147e-02
1.271176553731636228e-03
9.006689159338768236e-02
9.286110154356816415e-02
-7.026619671588407723e-03
-1.869973641977666634e-02
5.536496569667506695e-02
6.065574753613538206e-02
1.397816296537079950e-02
-2.240157639828826291e-02
-4.115257037235470206e-02
-2.073409939002295727e-02
-7.436236378764990440e-03
-4.864337274752408152e-02
-6.586057783161233803e-02
-2.559549833372631866e-02
-5.786443075895786672e-03
-5.912691522856698342e-03
2.019005633325616361e-02
3.739981369286499158e-02
2.544898306638818108e-02
1.332256197931328510e-02
3.953090440315582856e-03
-2.938450812709308708e-03
-6.547114999556171919e-03
-2.559764318258822557e-02
-4.019656965218498801e-02
-1.079989762028426767e-02
2.949291304832410421e-02
3.093260458912857475e-02
1.811349815847444755e-02
2.105565775189601960e-02
2.056380703652315248e-02
-3.390947681806465944e-03
-6.782433943879626059e-02
-1.445564703775193138e-01
-1.275593382213692784e-01
-2.331613933884088205e-02
5.661856564238749306e-02
1.395538726747504177e-01
2.134304616255486564e-01
1.438278582686288998e-01
3.814087287125067505e-02
5.698332597345709405e-02
5.418995651985618334e-02
-4.929990674195918604e-02
-9.213963785440119902e-02
-6.766099015462956334e-02
-9.953837896425107856e-02
-1.198663902338936715e-01
-3.757336228977257997e-02
1.902742630909301860e-02
-1.841518620592783040e-02
-1.484573719101583977e-02
3.898644740497680256e-02
2.683811681851255501e-02
-2.017864091369158536e-02
-2.272471343521540593e-02
1.525487237744219777e-03
6.537175319612501499e-03
-1.593455288984214208e-02
-1.815111139823626096e-02
8.082704015601604661e-03
4.549422590286057028e-03
-3.804006981179240687e-04
4.402814642218935010e-02
6.452650717700808558e-02
3.500561639169377792e-02
3.637778163459256392e-02
3.708789021484450166e-02
-3.342854131656227551e-02
-9.648070802017998104e-02
-8.375104885929175735e-02
-3.556832966033880716e-02
1.678453360043485887e-02
6.008720001697274299e-02
7.811012094599838196e-02
5.773090494730826611e-02
-1.135711338228233801e-02
-6.567411950054867498e-02
-2.990439079864572539e-02
1.968064668643924181e-02
1.140237202475969693e-03
-1.626482086967419218e-03
4.395007353920287602e-02
4.081030726578122048e-02
6.514302100562628997e-03
2.276704205350600294e-02
3.812872906402289819e-02
4.470890686138013527e-03
-2.768825961227750626e-02
-4.506337753530904183e-02
-6.771601536574160807e-02
-8.947897281185496210e-02
-1.213225858204492330e-01
-1.449753231630558914e-01
-9.595913130075746367e-02
2.947911988707341627e-02
1.597920679480558381e-01
1.794546748324027385e-01
6.941565431973874267e-02
4.031859389607997390e-02
1.590672610255050856e-01
1.539827303409533610e-01
-3.606202838183150683e-02
-1.560113535787548411e-01
-1.420286291072143103e-01
-1.133446770268971698e-01
-7.087554032162467210e-02
1.855147146934517724e-02
7.720624971219298971e-02
4.483592706380665205e-02
-5.839945018121205089e-04
1.843219786245143058e-02
3.904107096730496246e-02
-2.942157265341510848e-03
-4.847117518800000968e-02
-5.357504379391649779e-02
-4.156839074602744488e-02
-1.699880296212345201e-03
5.602208106196118753e-02
7.205105632213316957e-02
4.776351350736118828e-02
2.390135882570960935e-02
3.105468194524515363e-02
9.184244682068794241e-02
1.294529834210260133e-01
3.012388586904396481e-02
-1.262273044050799264e-01
-1.500317241533135060e-01
-5.219610239302537036e-02
-6.513710841595866594e-03
-4.172029768593218252e-02
-5.188379939168603905e-02
-2.496966500443428133e-02
-4.599908518394733165e-03
2.151842016313335396e-03
-1.751441255267260216e-02
-3.695054056706121443e-02
-6.912350496583364104e-03
3.792324261032616051e-02
4.679385766088558357e-02
2.290822175748529616e-02
-1.999033745325405620e-02
-5.016949032920599988e-02
-4.822902824762078516e-02
-5.437081368727429698e-02
-7.391181893297840699e-02
-4.633002099930694229e-02
1.784732304678589634e-02
9.535200107703319106e-03
-8.241381131403517635e-02
-6.674121190446426211e-02
1.248249236375146010e-01
2.258200401277976610e-01
1.413693409698552617e-01
1.434233146438910478e-01
2.479833817859607437e-01
2.154008109420060268e-01
1.034791314521826683e-01
4.242023611136750555e-02
-6.204311331736869772e-02
-1.974000475975322966e-01
-2.218434416617883764e-01
-1.680076756826260898e-01
-1.369030330422853770e-01
-1.059357818220633546e-01
-4.815801010162741591e-02
-1.945522239213122451e-02
-3.420679145341323779e-02
-2.715922788720026917e-02
-1.204936829728241177e-03
-1.605168172552121769e-02
-2.108693765976804232e-02
4.541199907544115483e-02
9.644594725792690615e-02
8.314383872730653213e-02
9.635426750107475846e-02
1.138226205665750501e-01
1.939779706332104420e-02
-8.291367377188595122e-02
-3.446380195821432957e-02
4.022225678943360666e-02
-4.800217173598304854e-03
-7.509517756770113517e-02
-8.407250454848136378e-02
-6.201028200689335385e-02
-2.897717816068715729e-02
-1.115538344922797909e-02
-1.204068450480655535e-02
1.745980906008180039e-02
4.790471043334592477e-02
2.400437871503057624e-02
8.625699248643736369e-03
4.741363795569931289e-02
6.336417241818684265e-02
1.441591200544632516e-02
-2.804762072096715630e-02
-1.888302033897007459e-02
-3.221818782589948998e-03
-1.008457916885402168e-03
9.266589369129810475e-03
1.166556726801994820e-02
1.154282165263195367e-02
4.062262804778203618e-02
5.420061387941240566e-02
1.695407187601272181e-02
-1.657544846503978056e-02
-3.682284724166842715e-02
-9.531563014683956669e-02
-1.718026979229864970e-01
-1.633549398596077784e-01
2.493988839631495341e-03
1.936033123840600889e-01
1.668240933669518644e-01
2.162462786141329529e-03
-1.231297945322113591e-02
7.706696096932225126e-02
8.156680202297743321e-02
3.690532381962533665e-02
-1.204559884152430448e-02
-6.265042994832352441e-02
-5.677657999732231564e-02
-3.148449126009546933e-02
-4.001761154547458371e-02
-2.206013630065450232e-02
8.216094495620008750e-03
-2.860567527082660821e-02
-7.498693977423531720e-02
-4.782910039326013912e-02
-1.783293857545328182e-02
-5.823703359937198315e-02
-6.779318548334184458e-02
3.407831015774340222e-02
1.341669560001120809e-01
1.446765958106556726e-01
1.058559060272557528e-01
5.420484830229573697e-02
8.310979254890823315e-03
-2.468691281415814898e-02
-2.748561642909133282e-02
1.036531663695779322e-02
9.540976992374720217e-03
-5.494296626509955622e-02
-6.961688842396877852e-02
-2.845699726685304090e-02
-5.589676534767545890e-02
-9.031778624045937176e-02
2.749129960055819374e-02
1.502777470218396305e-01
7.718902340088726333e-02
-2.908805873245522491e-02
-1.419502686384836038e-02
3.831254532090839354e-03
-1.952012260584910092e-02
-9.350378843764082376e-03
3.746298048421102100e-03
-2.634626546632830996e-02
-3.937158681664106041e-02
3.168191355878687519e-03
3.887056099053169678e-02
1.726280853590764913e-02
-2.336777735264679995e-02
-2.402694387543402935e-02
7.110999599924316614e-03
-1.606897157780294398e-03
-9.448596931014714706e-02
-1.880783351759333366e-01
-1.524317888436557134e-01
-3.073266907857979610e-02
5.366085167127601641e-02
1.111947600516549478e-01
1.596082797179725621e-01
1.835076896897853138e-01
1.975828445707182857e-01
1.410452951875478811e-01
2.723165481758317574e-02
-6.475675275232340572e-03
-1.225027010033116759e-02
-6.830139207018560976e-02
-4.660463453229446440e-02
6.380749830893338304e-03
-9.126323769669462960e-02
-1.864384933947557110e-01
-9.232310471697280363e-02
2.336640816903240089e-02
1.697644473289807582e-02
-2.356005721280793330e-02
-3.190682254020407727e-02
-2.988829423056843515e-02
-3.814478071492276995e-02
-4.042921165190083849e-02
-1.588834506370272528e-02
2.647013396359118413e-03
9.002726085829769465e-03
6.801387915659530548e-02
1.424041135936585933e-01
1.118985787314780572e-01
2.485778034015132670e-02
7.346931984513353775e-03
8.603247583380786018e-03
-4.108396389468099014e-02
-6.053719719735281557e-02
-2.607965779473877740e-02
-2.096941925628370562e-02
-3.127767336221735223e-02
3.306162942978886458e-03
4.227772928150458354e-02
4.043726406309840204e-02
2.776308427710632784e-02
2.919697903036317516e-02
2.930028452042319001e-02
5.446426274969850580e-03
-3.687858750674951475e-02
-5.572833428128878830e-02
-3.514369919294256517e-02
-1.397278612659264702e-02
-1.660805781253107960e-02
-1.673449832104663415e-02
6.227071828006035953e-03
1.966597572835571822e-02
-2.287169726672430917e-04
-1.020635298906262881e-02
1.220958360263698066e-03
-4.200085956654844854e-02
-1.473857120191799652e-01
-1.970264972692001570e-01
-1.119931848697428012e-01
9.265841428474952401e-02
3.019257051395192182e-01
2.891211563029907339e-01
6.124420818912620912e-02
-4.268182964829455445e-02
3.849747676433028232e-02
4.429997771276762003e-02
-2.518599304137204842e-02
-4.371263669975140181e-02
-6.964847848081637260e-02
-1.040367167548884864e-01
-6.405652102711095752e-02
-1.149132942408811336e-04
1.130267697373970280e-02
7.864193783717582376e-03
2.156915466414102700e-02
1.483421757456630102e-02
-1.906133447577940468e-02
-4.035660576618705503e-02
-3.216379580642293734e-02
-3.166747345317266066e-02
-5.231709379852811370e-02
1.363208428938567779e-02
1.584689805264024864e-01
1.440108865798379600e-01
-7.779180178654792471e-03
-3.044892280439768367e-02
1.103104289345300387e-02
-3.834874437678525289e-02
-5.334285960495310092e-02
2.467268987242296485e-03
1.109217500775041762e-02
-6.574119747035929440e-03
-6.135981214021343604e-03
-3.209735505309373876e-02
-6.613676785663887003e-02
-4.847709981226294707e-02
-7.673997222770331805e-03
8.530239980843359882e-03
2.548166117948916926e-02
5.084641584895924910e-02
3.537604682286604740e-02
-3.678480044648867534e-03
2.283577688196432309e-03
3.216398484207034364e-02
2.671748566497296820e-02
1.131052279665823931e-02
2.679944598029641162e-02
5.574837388629264034e-02
8.392719316795030360e-02
6.266235617906618094e-02
-8.018711823864986543e-02
-1.971507778193094251e-01
-1.032759726127203959e-01
-1.416823393706109421e-02
-1.366511194224014070e-01
-1.978555547343042731e-01
-2.838834131971290989e-02
9.656293395043097361e-02
8.117742431652302804e-02
1.200502035416302349e-01
1.608826244006986150e-01
9.564756635202995017e-02
9.696587315666641005e-02
1.486055190807465398e-01
1.748737374782514259e-02
-1.602258312454790112e-01
-1.404640030333415557e-01
-6.329982837906225623e-02
-7.236322179988756431e-02
-4.602515720691102707e-02
3.644144764224558491e-02
2.682895470162417403e-02
-5.437315542679603542e-02
-5.153565650320791197e-02
1.386114913624082907e-02
1.966093629708062090e-02
-2.500042346695837553e-02
-5.776217262799662744e-02
-1.482015033494788955e-02
1.271955335666158926e-01
1.863304567453252514e-01
6.767396378880816132e-02
-1.043725793728525648e-02
2.185608395819110469e-02
3.337660302914777916e-02
4.550694990397771700e-02
6.892422607335024765e-02
2.284306019376944677e-02
-4.205545999627810505e-02
-5.230211683483440566e-02
-6.469707784408687545e-02
-1.021288386994047837e-01
-8.317820970490691357e-02
-1.721939714353321743e-02
-1.172754878289355117e-02
-3.999806293361210519e-02
-1.449887015562412521e-02
1.474576972057935025e-02
1.450065012790011099e-02
2.300428655530606381e-02
1.122581744237143367e-03
-4.295628559283097558e-02
-1.936858239438613710e-02
2.800884643538636282e-02
2.470498169607878575e-02
2.648130237226875572e-02
4.525360561548493615e-02
1.843304726321753212e-02
-2.290667200092503381e-02
-5.192524488679722133e-03
4.531850783630510249e-02
2.415060377212423920e-02
-1.054202440538777735e-01
-2.171416572416224045e-01
-1.772777971653196061e-01
-6.462418838144012856e-02
-3.033246447022197242e-02
-4.749398034326755141e-03
1.629778727263368476e-01
3.421591762288310745e-01
2.639802734541029094e-01
-3.834984218408419437e-03
-1.393341537631729576e-01
-8.909086046918063273e-02
-4.879304074100586364e-02
-5.811206136603977446e-02
-3.705812414935742705e-02
2.726484883211309496e-02
1.170062022544430397e-01
1.713291944910981801e-01
1.364042739609817034e-01
8.005712611534160361e-02
5.439860678064589727e-02
-7.022720096534035630e-03
-9.874357608415434973e-02
-9.583620156031669168e-02
-1.748150073557072290e-02
-2.698033821931587750e-02
-8.282156834033861659e-02
-3.359935374536125730e-02
2.363874884273442153e-02
-2.302152135468135338e-02
-7.056078370766498409e-02
-7.826494446695100859e-02
-9.158256529254235612e-02
-7.288531684272646360e-02
-7.152692838987175297e-03
6.183468168504822893e-02
1.024886338963574284e-01
7.649770050748593009e-02
-9.783754886640200904e-03
-6.768254590566066820e-02
-4.738979078688419083e-02
-5.096618959106001892e-03
1.039398364529665539e-03
-5.431426820381373560e-03
1.271960711190354455e-02
3.199726509235308047e-02
1.542494949779788134e-02
-2.235534716846711289e-02
-4.646838862829809347e-02
-5.907748451322373390e-02
-3.997299940341803720e-02
5.707119951433109462e-02
1.400165812272781141e-01
8.453538808641494762e-02
-1.076947417334149504e-02
-4.940487219272090419e-03
4.426922278204291350e-02
1.804952994875760192e-02
-7.321662912590112815e-02
-1.250768374177493036e-01
-1.224486777819258354e-01
-1.017099121776532805e-01
1.346538811604655085e-02
1.664100001238252025e-01
1.224157180220323965e-01
-6.799996489770948616e-03
5.804223104705210495e-02
1.613917292623061606e-01
9.822048991885037883e-02
5.073995241116274063e-03
-3.739585436974437321e-02
-7.354717247770678479e-02
-4.970003745688660740e-02
2.399719351190677391e-02
2.023414228140419172e-02
-3.478310147972682453e-02
2.858239861909811150e-03
5.142149950021941002e-02
-5.937297040346639632e-02
-1.778914600138402358e-01
-1.070536660950352492e-01
-4.968070792092729726e-04
-1.583194352886370393e-02
-4.481819981148817827e-02
-2.954334315789813870e-03
3.955298939909954181e-02
4.360378318811977683e-02
5.638742912284445269e-02
6.837667591082087493e-02
1.877441117333567347e-02
-3.023386846035899453e-02
8.695522941892809207e-03
4.236708442693339072e-02
-1.921115725652927653e-02
-7.127334248919539594e-02
-5.027040012756467391e-02
-6.225356504203954228e-02
-7.299341471796588765e-02
6.642394705654225406e-02
2.007275537480208150e-01
1.279587707444362621e-01
2.497189079268251691e-02
2.643648162065029630e-02
-7.295950444084473019e-03
-7.464292730927980790e-02
-5.563034898916836835e-02
-1.109273003041771205e-02
-2.670794310884775855e-02
-3.522673958720043408e-02
1.133502099660908119e-02
3.992159448993951032e-02
1.733539977254159453e-02
3.113360614909708567e-03
1.245830862951824262e-02
1.089838860799858047e-02
-2.372552535151771849e-02
-1.048353261288616223e-01
-1.653652341643748191e-01
-1.289567217212824191e-01
-4.912416493467171297e-02
7.226746008618890882e-02
2.101157181446106637e-01
1.223907530120576376e-01
-1.151874663344217148e-01
-9.564263029623910894e-02
9.346747871637596516e-02
9.904430685203982621e-02
-3.883149262536568502e-02
-1.100336639726157556e-01
-1.146263375303893661e-02
1.339118112727855081e-01
7.999709284248156249e-02
-4.460271232846223233e-02
4.017568830701928606e-02
1.498620353834261287e-01
5.233591532401818402e-02
-5.936798423025562571e-02
-4.204094126807851606e-02
-3.001902768174596545e-02
-5.979482735628874335e-02
-4.529250091351340324e-02
-1.549235619883207633e-02
-2.559735446866377370e-02
-4.745105229669606579e-03
6.039810354930795488e-02
4.360608041548381247e-02
-3.175630827071082574e-02
-2.963851667849129456e-02
1.368151393746697836e-02
2.711150893179886667e-02
1.764507058313039695e-02
-2.112816181958066322e-02
-4.531045784783154645e-02
-2.776288880147807780e-02
-3.808084610794869318e-02
-6.855807496035348780e-02
-4.311925625758313008e-02
1.803722850363116345e-02
4.648342192903368031e-02
2.683310593673113656e-02
-1.181239647072777899e-03
-7.195385812068678250e-03
-2.332394920187524576e-02
-2.554029804559391700e-02
6.629031309898289481e-02
1.338635332273672429e-01
3.402046971339697801e-02
-6.646214527066460209e-02
-4.288574223444317768e-02
-4.170448728563621449e-02
-5.522612305562889928e-02
5.679421866941070790e-02
1.620062215894141622e-01
8.873082142200638955e-02
-7.453823624067651421e-02
-1.915334059588221227e-01
-1.782363951782326705e-01
-5.269681240297763303e-02
3.368626966241983212e-02
8.627442294794823718e-02
1.542276248647300174e-01
8.993079922389775327e-02
-3.566441314071958080e-02
3.373271976714341952e-03
8.003643656585419930e-02
4.604451562162218542e-02
4.757677508000345869e-03
-1.796787083283832992e-02
-4.203289012920903567e-02
-6.425602375768597538e-03
5.374724504794441832e-02
4.122016496733531959e-02
-1.618545051904808456e-03
2.258803905697449182e-02
2.884837161221857210e-02
-9.520757811932904768e-02
-1.878159967803166575e-01
-1.071316854694348286e-01
-2.417609493038549995e-02
-3.082203747680910960e-02
1.386465356733112414e-02
8.351576940033612895e-02
5.298673443380214759e-03
-1.423238333500868591e-01
-1.433287931099604673e-01
-1.039149125940131563e-02
1.271179339705557909e-01
1.950162692707368417e-01
1.239251890722929822e-01
-1.505749431871240482e-02
-4.202478631675460319e-02
1.547871036621773985e-02
1.649172994778595053e-02
-9.401653154572787996e-03
2.264749201394246347e-02
7.393534036497224904e-02
7.373433779533568322e-02
3.781555058205090386e-02
1.535781494651796385e-02
9.147229307840730114e-03
9.287741684717841853e-03
-2.177075814244540386e-02
-1.302007747218733857e-01
-1.989669979718575177e-01
-9.637396053660363116e-02
4.018495654271928008e-02
4.640935674811459688e-02
2.555323709344310690e-03
2.654378637593531043e-02
6.132304056193649267e-02
2.424296295982940330e-02
-1.057128997692799617e-02
-1.221039359751329573e-03
-4.772065123533517084e-02
-1.214122950919975241e-01
-1.144724367049851227e-01
-9.046195620056816933e-02
-5.888137446884313120e-02
8.634120410443484051e-02
1.962636236399371570e-01
1.038410898214462974e-01
4.554621366799381510e-02
1.381946594145441187e-01
1.248417682447510446e-01
1.330166954957402031e-02
-7.995709215721232693e-03
-2.822864822573936325e-02
-9.157242921522015799e-02
-8.651885664577840807e-02
-4.783187204196377024e-02
-4.482600809625533061e-02
-2.813080305443761350e-02
2.615797428551224282e-02
4.119022868223474326e-02
-1.657841120745905117e-02
-4.851062659659770293e-02
-1.190351113540819190e-02
-7.630651466441163919e-03
-3.751443271542882069e-02
2.259295587115816607e-03
4.706658916561898276e-02
9.762880540464822024e-03
9.273027927963377673e-03
6.813476875203372529e-02
5.300225182981569555e-02
1.800097676196540236e-02
4.867523943527338887e-02
3.497332138426598874e-02
-5.380245246525118541e-02
-8.448592897127371604e-02
-2.529206729633411491e-02
1.275555643750444536e-02
-1.493935940260347935e-02
-3.641967208842676607e-02
-2.464291511608772065e-02
-1.635411735631872240e-02
-7.582864289754087835e-03
1.077208082316890962e-02
1.581246879787162260e-02
3.628022696871111875e-03
-1.040760350533427060e-02
-1.334327202492584762e-02
6.157813360844793978e-03
3.611624716437815408e-02
4.108486134320468025e-02
3.223987558637665674e-02
5.379680972251230098e-02
5.849562325181097838e-02
2.782886792572800139e-02
9.692495361703974688e-02
1.513672618770151024e-01
-1.210652065694322876e-01
-4.338829711318974991e-01
-3.009885247431196564e-01
-3.868128192192207132e-02
-9.538811898714313897e-02
-1.974066471451182414e-01
1.111886843384513393e-02
3.027876514067799341e-01
2.652023274197277680e-01
3.237425409973430229e-02
3.357180565870768879e-02
1.605921816350897868e-01
9.295481349095705004e-02
-2.786306484224415278e-02
-1.569349694560504688e-02
2.650051675481252672e-02
5.034201490719583671e-02
9.459097024224838446e-02
1.054693770588020774e-01
5.870171617205504483e-02
1.066382348547611179e-02
-2.930084597978803440e-02
-8.028138680691493390e-02
-1.274452640850248231e-01
-1.463763744359453667e-01
-1.162372996193793417e-01
-5.487167185005126929e-02
-1.506459353636825128e-02
6.971771914393281450e-03
3.157794589109435418e-02
1.918896743836948429e-02
-3.264469854932725013e-02
-6.320548300874512249e-02
-4.495898797351732812e-02
-1.533507364618652904e-02
-2.506006642986999267e-02
-1.113814606470649692e-02
1.007941500916538224e-01
1.555593458658094119e-01
4.788848433697365931e-02
-2.887422269245381451e-02
1.252697330618030708e-02
3.571120956289789566e-02
1.373398078463253583e-02
-3.687133034044956514e-04
-1.640725571918450615e-02
-3.240955228205740640e-02
-3.511598295018276972e-02
-3.430764641286655758e-02
-2.177111676900655643e-02
5.810828490038750550e-03
1.678623705473709579e-02
2.594611845567947050e-02
8.964326683714039790e-02
1.172789620974901414e-01
-1.932606637038483677e-02
-1.368801428139609366e-01
-3.859619324531222972e-02
4.583196276276083753e-02
-6.047082449150076311e-02
-1.230404140387120066e-01
-4.913310572624490086e-02
-2.203883519979308800e-02
3.201993642266200146e-02
2.090417063870235459e-01
1.272570540488777158e-01
-2.842002159890343327e-01
-3.434728127439656276e-01
8.499205465718667751e-02
3.218271012812205512e-01
1.926611243488405012e-01
4.830589173704671890e-02
-2.397411173222713937e-02
-6.594520314691471041e-02
-4.739927597045490854e-02
-4.059265246201799668e-03
2.598929726822619708e-03
-2.447725458923881436e-02
-3.977927903029375434e-02
-2.705632958432096363e-02
-1.619170952578156963e-02
-1.440602011128378282e-02
-6.161479102043858694e-03
-6.601690261728431798e-03
-1.821598088960856357e-02
9.532772624982024587e-03
7.927740804868704805e-02
1.068705779375840881e-01
7.284343758783964895e-02
2.360014336589355902e-02
-3.961371600470454946e-02
-6.291774750826285845e-02
2.778678166205035549e-03
3.398858248050239811e-02
-2.889744589791515619e-02
-5.799414002926350092e-02
-2.807451995886496923e-02
-3.389363606120105593e-02
-6.203033178613900911e-02
-5.008669283070120437e-02
-2.181447699359728015e-02
-7.833293274046568277e-03
2.662055311079093885e-03
-7.557518506714658996e-03
-4.952048653928595862e-02
-3.573483911448876310e-02
8.885238693158373224e-02
1.594548143216667213e-01
4.806307690730763499e-02
-4.004920711171582048e-02
5.802328971918160189e-02
1.389373466427608617e-01
5.769616614512108888e-02
-2.807601103296680431e-02
-2.168136941892965380e-02
1.984748524138518766e-03
-1.352054544968166357e-02
-9.781722433466413791e-02
-2.031438236532120412e-01
-2.013519533264979400e-01
-1.145962465878831438e-01
-1.828073825881896056e-02
1.362707132062898063e-01
2.450727999350759689e-01
1.757551185020440054e-01
1.229854072251612557e-01
1.552935680510425243e-01
5.466999352964677095e-02
-1.129966713567800568e-01
-1.599296575144973087e-01
-1.782292006179672650e-01
-1.770805514168881378e-01
-2.138867530539519113e-02
1.406351892840187745e-01
1.036007578632003739e-01
-8.275100161707606150e-03
-4.518488456559151267e-02
-4.388406298742839745e-02
-3.319230901934126093e-02
-1.881671225712507403e-02
-1.744805757055445383e-02
5.141849105912399930e-03
5.417194482022100882e-02
5.449183264334987037e-02
1.694560079349107656e-02
4.303293813578139976e-02
5.841550675707669199e-02
-5.323527456601728075e-02
-1.163678616239483404e-01
6.212717412918750820e-03
1.209353749051469279e-01
9.316927262538009236e-02
1.135530315125567007e-02
-5.331456416878445348e-02
-9.285841347570333859e-02
-1.028697044281606660e-01
-8.366921041529275238e-02
-3.642684513711158534e-02
1.888855303973337868e-02
5.638958526578125019e-02
8.447091401151511636e-02
8.928639302185086002e-02
3.755284623708555342e-02
-2.097679972538782009e-02
-4.285300501325951111e-02
-6.221413116394981097e-02
-5.531994832936790868e-02
3.461763089119189105e-03
3.529550449541482560e-02
2.243554781048026636e-02
3.761913323166394402e-02
5.799229946568443955e-02
3.521316641104463296e-02
4.120353436905196953e-02
7.197772715269334931e-02
-1.799362600834754009e-02
-1.810119476071826439e-01
-1.931515370529783560e-01
-7.601283953042464736e-02
-4.528106970827562583e-02
-5.552312886130417874e-02
9.437838717389335219e-02
2.340547954704759182e-01
1.257900333414484761e-01
4.598922200729938653e-02
1.684866762175468435e-01
1.368104620652833003e-01
-9.881480297983782912e-02
-1.752361735932518039e-01
-9.232356558918761169e-02
-6.147134430372524355e-02
-5.173277420035009289e-02
-2.925195180488920910e-02
-3.172852422649962562e-02
-2.834984537764939812e-03
3.396017646855617467e-02
4.360606835203156145e-03
-1.121875967388902273e-02
6.426263673638227432e-03
-3.103167708149178611e-02
-8.179861373629093713e-02
-9.765517196151400625e-02
-5.684634654915842605e-02
1.147896372242908358e-01
2.457856409073037873e-01
1.208269473164644420e-01
-2.852587999720825399e-02
-9.494779947389349328e-03
-1.122244158862257049e-02
-6.626529753671160650e-02
-4.709922955211056500e-02
-2.917733438665589402e-02
-7.497073965298804710e-02
-8.032013616194012828e-02
-1.039633302654984111e-02
3.837114618349734413e-02
1.294687302470207309e-02
-3.119668942699544215e-02
-3.481376657042126177e-02
4.206532587034046179e-03
6.076017162451499004e-02
1.002306949451317875e-01
1.149265227276255047e-01
1.339387414780240648e-01
1.465648864437869014e-01
1.086905822671973415e-01
3.588299208233203252e-02
-1.233164312000959578e-02
-2.118290763148223885e-02
-2.986123782252514403e-02
-5.638115225163389810e-02
-6.636078798553073088e-02
-4.921565660188229052e-02
-5.638259656025378791e-02
-1.151511831868333585e-01
-1.670724176406845618e-01
-1.625972470031018247e-01
-1.421692843858838318e-01
-9.475675287768428601e-02
4.082297056357434700e-02
1.362259631853026676e-01
8.743865448745527513e-02
7.517571062627814715e-02
1.407593063664054345e-01
9.946249428415658567e-02
4.920457625699273252e-03
-7.023305771636441028e-03
-1.736724014890880449e-02
-5.388563897296506922e-02
-3.191948427965801000e-02
1.336013358787151509e-03
-2.359525032687610074e-02
-3.436124272776566735e-02
5.479518384544001738e-04
1.851255828672894194e-03
-3.286345276539909960e-02
-3.932377482944982711e-02
-2.230453293486807376e-02
-1.888225801569029874e-02
-2.454138171681554195e-02
7.742306930900659089e-04
5.135248896563768262e-02
5.633702314231064934e-02
4.055136853397451474e-02
8.603410785171493325e-02
1.112371686519903341e-01
3.837526909664827623e-02
-1.276938712351694330e-02
1.008717716314743579e-02
-3.489131173322692486e-03
-5.487058132965066948e-02
-5.168569769237334882e-02
-2.323165343851602352e-02
-3.513965667656698821e-02
-4.666207062244412396e-02
-1.751096527640164796e-02
1.500447089876443679e-02
2.691877168378938728e-02
2.594809095136723504e-02
1.621276758512329302e-02
2.613396140379907473e-02
5.540429556886964507e-02
3.761610828328908196e-02
-1.172768850267639357e-02
-6.567795055998932457e-04
2.439089479897090657e-02
-8.856684378116626635e-03
3.111266419259206897e-03
4.759017964166140091e-02
-5.924689837676225257e-02
-1.862758955568508956e-01
-8.495346134238646041e-02
3.732492763224291854e-02
-6.390485910747625842e-02
-1.749931863842446034e-01
-1.160182840403114202e-01
-1.935412050839144249e-02
8.377828703831220747e-02
2.023977786986331240e-01
1.576426727369250047e-01
7.059291856347765792e-03
1.736392646323004982e-02
9.623619167315718148e-02
5.102447952139153864e-02
-1.638881954214532408e-02
-4.051133862188124879e-02
-8.773503399209592324e-02
-1.045298095863612248e-01
-3.111621990574681140e-02
3.857397328395087421e-02
4.352819447831712818e-02
3.130475715514347002e-02
-2.486532358598596629e-03
-2.588911360197084996e-02
5.536757664119826977e-02
1.167522903168443371e-01
2.242188102271430034e-02
-5.210057054856160469e-02
-8.784462808955034729e-03
1.275449030857764808e-02
5.163328327152673022e-03
3.018846845012103722e-02
2.662563662379238347e-02
5.751611687448530616e-03
4.915747515659001782e-02
9.800806489340166405e-02
3.463532827839040096e-02
-1.124281884807200455e-01
-1.660774300879172549e-01
-8.300815069943479063e-02
-5.450689178520384814e-02
-1.099600083526423716e-01
-7.984056729393899932e-02
2.833323105335058822e-03
1.623051930679121971e-02
9.494847562629280674e-03
2.634926417952402830e-02
2.843204251863821336e-02
2.555915513474158948e-02
3.478719063926567767e-02
2.698973232545271578e-02
-2.530044917871224729e-03
-2.347740267411414089e-02
-1.518555375653201506e-02
1.387135556377734440e-02
3.675608531474720830e-02
5.421386779745888257e-02
7.939444985363643126e-02
7.674108988965090694e-02
2.572101373246455519e-02
-1.451105901155732777e-02
-3.070669216359387180e-02
-8.871738963578712500e-02
-1.374659428601436584e-01
-6.665606179843100443e-02
5.221106267542557910e-02
1.178040721421291792e-01
1.138537834097378409e-01
-1.515379498292187925e-02
-1.168652221250353063e-01
5.223131517942036783e-02
2.225701668606256400e-01
7.614534736733742648e-02
-1.155402027318617741e-01
-1.145373792280335867e-01
-6.642454561814914449e-02
-3.945027966398657882e-02
3.016659320672519448e-03
1.588275887901071867e-02
-6.777152474879599015e-03
-1.193304240380622765e-02
-1.437512920278067284e-02
-3.868139415908453810e-02
-2.610423587122322198e-02
1.963861864017986750e-02
1.845517581098958526e-05
-4.146419919421616418e-02
-1.824307000818629725e-03
3.781376339018392013e-02
2.383550043708012461e-02
4.328824814614017080e-02
5.402222400442527328e-02
-2.064659270253527829e-02
-6.878003472353270975e-02
-2.219854694915314453e-02
3.533503917116744691e-02
6.711683215443896289e-02
6.600509253659143927e-02
7.939828281394686535e-03
-4.137163978250561758e-02
-1.296469339660979818e-02
2.064228803542688534e-02
-2.288567689585573744e-02
-7.713431881594245976e-02
-5.223528069991950629e-02
2.616409268122937143e-03
1.468029249858116697e-02
1.433279509615051871e-02
1.857356164704322687e-02
-6.954722152796549706e-03
-2.797565996155456855e-02
-6.772031469365580661e-03
1.096394209537911862e-03
-2.014779348098612657e-02
-1.353406879833047791e-02
1.303185049152351394e-02
2.154301366080453237e-02
3.133436635092871902e-02
4.713926088294272815e-02
2.036998082558435022e-02
