7.786942532063655109e-02
6.833398698502765600e-02
-3.111291050649971079e-02
-4.483627454434532117e-03
1.042288553237633586e-01
4.182019796373155629e-02
-1.032789594059461968e-01
-8.094891510794902101e-02
-1.769612250947007540e-02
-9.187316459275407521e-02
-1.477748469341995385e-01
-6.095111925239421469e-02
4.895660850131726416e-02
8.364263482042627595e-02
7.617381776948922711e-02
6.438328522541937604e-02
4.562374417874490856e-02
2.725678608227442151e-02
1.403512092843870081e-02
-8.144609361563078659e-03
-2.061271524053610166e-02
-1.739817209328327514e-03
1.366243269170818765e-02
1.095854545982387351e-02
2.143123027077565787e-02
2.664750648149646212e-02
2.490609298292277216e-02
8.560681310416894119e-02
8.985576529068833862e-02
-1.560131269616643612e-01
-3.614382204983940250e-01
-1.489590882827717677e-01
1.392492762591341082e-01
5.696982336137479397e-02
-1.418502151026630187e-01
-9.807021025067944042e-02
6.981439853808422968e-02
1.422730272505149662e-01
1.232026225726662316e-01
8.523047167219564846e-02
2.216529740193417392e-02
-8.114149556096048044e-02
-1.488161283489459752e-01
-9.839382337142690838e-02
1.723772491355327063e-02
8.520272041047562139e-02
8.599284194681346138e-02
7.766920142286320994e-02
8.525484274985441202e-02
6.737751463577813793e-02
1.910764734969075049e-02
7.996923663045959682e-03
1.995613369085535299e-02
-3.471475220208426055e-02
-1.159604045249019444e-01
-1.146042314058127454e-01
-5.105723892280645410e-02
-2.669314019031913520e-03
1.729488488893701076e-02
3.840819208661329365e-02
8.558491512588176087e-02
1.036443970982151436e-01
1.519387600894402286e-02
-1.027809192401639149e-01
-1.393710733224262088e-01
-1.357790699998944195e-01
-9.126944572244537202e-02
6.414034524588693720e-02
1.864764450041236921e-01
1.291810296963016580e-01
4.771536868039771839e-02
4.579870988227463524e-02
6.887103524564740925e-05
-9.005924974718820808e-02
-8.677848004681253113e-02
3.327610806794018689e-03
5.113533765366434780e-02
2.735556625283273174e-02
1.641543957341967674e-02
3.573252792222980645e-02
2.487649079014421505e-02
4.808362738104801290e-03
4.548003611987517375e-02
8.236986778267707532e-02
-1.627627993824706451e-02
-1.668334917677776752e-01
-1.491224540650601393e-01
-3.007864398553629359e-02
-5.314580815112676659e-02
-1.324205666610083765e-01
-5.610758030681615299e-02
7.106910536113175691e-02
9.590909921260655502e-02
8.537732119074173398e-02
1.240474701634738525e-01
1.195511493935139669e-01
-7.237481753042626642e-02
-2.577876572934371668e-01
-1.238487976545607494e-01
9.396970796060197251e-02
4.858551172262506879e-02
-4.598355404376046340e-02
2.769810875151526228e-02
9.630996006143813237e-02
6.851456750245114857e-02
5.647344664894933530e-02
8.194794391473195216e-02
6.937448022034581330e-02
1.983564077171445783e-02
-2.419253078424654993e-02
-8.474619698232113696e-02
-1.323712416695202732e-01
-7.670824685037946900e-02
1.510689458935231613e-02
2.868666090286693671e-02
3.301146421276508064e-02
7.854635800840249760e-02
6.655443030276594896e-02
-2.549102750757411412e-02
-1.076984672958885281e-01
-1.391612039278755375e-01
-1.354714860421971645e-01
-9.572465799301034528e-02
-3.011071237942396575e-02
2.310405616928190575e-03
1.756831859920314487e-02
7.562351638633665885e-02
5.719290728244304234e-02
-8.992823590816927115e-03
2.329022390913344787e-01
5.921512340579933031e-01
3.996552229365782360e-01
-1.442438110073028523e-01
-2.895875922592821561e-01
-7.501496029037181545e-02
2.226274315168655718e-02
-3.813026612640851853e-03
6.855210478687707998e-02
1.183286114816704399e-01
-7.318285467893451135e-02
-2.938327316737787132e-01
-2.823732900167681970e-01
-1.871694072980750190e-01
-1.406488737509669629e-01
-1.166154550025798736e-01
-1.420938467576768616e-01
-1.159075555848509409e-01
4.804675417986453700e-02
1.539773918189595858e-01
9.043227398978991027e-02
-2.544690997438536773e-03
-5.529186726085091874e-02
-9.543752528779335387e-02
-1.080550212497455725e-01
-8.001613269007978868e-02
-1.031482521062636673e-02
7.982866884428366228e-02
1.356001799090996163e-01
1.683929591010371041e-01
1.795044061853924844e-01
8.043448674848570346e-02
-4.864401313445648051e-02
-4.415673768678844702e-03
1.393420767995616760e-01
1.713212766361874861e-01
1.075864558852011182e-01
9.853299442622814874e-02
2.040966024942822699e-01
3.052113388484434253e-01
2.491584465253103842e-01
1.187994375245764456e-01
7.813388551768718493e-02
7.556232013186874041e-02
-7.330323412325950860e-03
-1.693109436323592953e-01
-3.346857556302461068e-01
-4.122729118176629570e-01
-3.782286193268745156e-01
-2.905052846517429677e-01
-1.930665411800625841e-01
-1.150675360979760975e-01
-8.984897417188883462e-02
-8.552991794702347050e-02
-4.629387190384674083e-02
-3.299763837228589236e-03
3.164969969333387978e-03
1.881343764812143382e-02
7.138668511974879949e-02
1.142165491147961731e-01
1.160388153505178543e-01
1.026424449926308657e-01
1.315548071542484709e-01
2.057251427018687295e-01
2.145995787232599095e-01
1.021431389336538154e-01
-2.811898966549099266e-02
-9.312196601187078260e-02
-8.633124510227338511e-02
-4.821154801084533842e-02
-1.013243108246770496e-01
-2.149598247899435766e-01
-1.640282304637365740e-01
3.948600556299964454e-02
1.659003317910913711e-01
1.589669209867833333e-01
1.005025358640243838e-01
3.082348927877205311e-02
-5.246065462893986092e-02
-1.409669264057442362e-01
-1.561561763872662267e-01
-6.848139599054331450e-02
-2.661959588217259823e-03
1.980151010759800823e-02
1.287369583132770279e-01
2.398265101451906023e-01
1.589693212312851545e-01
-7.925477356696417411e-03
-4.093165280816238316e-02
2.013791344436290445e-02
6.357757010638453998e-03
-6.622257682901411258e-02
-5.138654195870664965e-02
2.443001756279078104e-02
1.234322324735818814e-02
-3.823860926295113288e-02
1.679062580090788515e-02
9.437101497363090119e-02
5.504543080098642238e-02
-2.008022700513321240e-02
-5.555083223009680410e-02
-1.251091981891581661e-01
-1.773755600452463776e-01
-8.918052841320131541e-02
3.609931330438168051e-02
6.431781917432619067e-02
6.810692045088818924e-02
8.939925302304471688e-02
4.420290710801226541e-02
-3.932498854497724905e-02
-5.313817016331081472e-02
-2.624127869786135880e-02
-3.526931883351289848e-02
-4.722227073952134369e-02
-1.196207350061244575e-02
3.832624350012261982e-02
4.794668036535919275e-02
3.018604929279745941e-02
5.368486524265797533e-02
1.128529688760861599e-01
8.892686444648144339e-02
-6.817649543258254285e-02
-1.834476859301387153e-01
-8.779187838165763980e-02
4.984743123562698081e-02
-8.910906407179432220e-03
-1.339687198854792316e-01
-9.931369868084469199e-02
3.322916297199101504e-02
1.211390682353693515e-01
1.435502697751812051e-01
9.644429175220800565e-02
-7.952300833864814691e-03
-8.471801754757471437e-02
-8.751840037803892969e-02
-6.499721011425339812e-02
-2.125509180893949898e-02
8.458418373230155995e-02
1.397516073078972909e-01
2.792501849686740770e-02
-7.750975985789304579e-02
-2.356704025834562011e-02
4.527793848995280424e-02
2.970057157263079201e-02
-1.473964726004228093e-02
-6.818187865544358961e-02
-9.414907912475636853e-02
-6.036786133144507460e-02
-1.666093811820878318e-02
1.203773609005438783e-02
3.392400070455714456e-02
5.180857327747610125e-02
9.286390296805090150e-02
1.198043422619148590e-01
4.556044055246788460e-02
-7.506576001050127567e-02
-1.136001563643994350e-01
-7.866034925851492221e-02
-4.554815234025542253e-02
-9.340953069081045501e-03
5.294830343591882399e-02
9.581443388262063376e-02
8.222719771313495574e-02
5.129555932423172926e-02
3.363421431670164663e-02
5.361277184600692601e-03
-3.867583962854448387e-02
-5.761303339327496220e-02
-2.821208205090049853e-02
7.936628754128585359e-03
1.985651515413000209e-02
5.027323934834564828e-02
7.208922937419487420e-02
-2.163918727861904347e-03
-5.951222535841532019e-02
4.753001619004208755e-03
-1.649603301657320484e-02
-1.535119991491794567e-01
-8.642868589981872463e-02
1.118204324103788116e-01
2.828335680133075430e-02
-1.951589975530017285e-01
-1.119705761229844998e-01
1.049614955207932854e-01
6.802078705350234067e-02
-2.794383618100972078e-02
5.180716633888943212e-02
7.317362453992641569e-02
-6.432634375989071396e-02
-1.367042757066069536e-01
-7.873543828141160716e-02
1.009001791476313997e-02
8.266387158779570088e-02
1.056980543038533171e-01
7.852321850181916141e-02
5.958059463817842738e-02
5.550349425021961630e-02
2.255163018565533792e-02
-1.859710099256285318e-02
-2.310999546004030916e-02
-2.743710737045985601e-02
-5.844801609738025511e-02
-5.832279323089128303e-02
-1.365132989199206552e-02
1.873293545044782057e-02
2.244697082250848852e-02
2.689123663752982993e-02
4.726436222246870045e-02
5.339838927788527478e-02
1.390218747945694278e-02
-3.929430002675825262e-02
-6.552473847339893021e-02
-6.022334027320715155e-02
-1.562938329131034754e-02
4.061421187328487226e-02
5.430612634211841316e-02
4.631465161189585178e-02
4.647156726848432340e-02
2.165969440848670990e-02
-2.154689861811575485e-02
-3.449969727815895004e-02
-1.954809767635695000e-02
-5.956684542635803763e-03
1.076466440120739431e-03
5.417017310452959880e-03
4.591142087800571814e-03
-2.171256953037582760e-03
-7.512340473521196375e-03
7.695260158916038089e-03
4.376352601357390987e-02
3.920410515005669227e-02
-5.441918118095893236e-02
-1.506724872620234801e-01
-1.101632646917927311e-01
2.436127046157844991e-02
4.243705996898027716e-02
-8.680348940841176031e-02
-1.363224659155382879e-01
-1.436668475130054717e-02
1.145744321760852752e-01
1.467513004893327422e-01
1.237177122270401164e-01
6.614221376907725158e-02
-2.806143632183296169e-02
-1.016237475074210916e-01
-9.000887712712751787e-02
-2.654286325324572635e-02
2.572126689407684685e-02
8.771737060659602625e-02
1.182688076379558584e-01
4.066882801191806437e-03
-1.214321992182317705e-01
-3.940389254226343146e-02
9.537506993205359385e-02
3.643456675053509397e-02
-9.741345229148172524e-02
-9.984721378550277804e-02
-1.592639949182189998e-02
3.932507412665443153e-02
6.617030124584717676e-02
9.230863433503298798e-02
9.869767064229822973e-02
5.905649460231063297e-02
-1.607143770196075780e-02
-8.021647764765121869e-02
-1.013777788222673532e-01
-8.460392515443590500e-02
-3.329170042181655437e-02
3.148185262127341233e-02
5.700164299991844485e-02
4.524310594737421948e-02
4.125698659611057306e-02
3.482565412676435351e-02
2.893437103203398090e-03
-2.622855856457193685e-02
-3.839964977437475280e-02
-5.423853581799462781e-02
-5.546163738044132541e-02
-1.159878686032079879e-02
3.410691225440998925e-02
2.555199615729092724e-02
-3.983406372789141670e-03
2.545295490376845837e-03
2.954777173559164360e-02
4.659853235788606607e-02
6.091347839397779490e-02
3.191200692276503076e-02
-8.271047444299753360e-02
-1.287711742183645369e-01
2.230384697257843316e-02
1.144039069437740169e-01
-5.448363133102423345e-02
-1.897701054664667486e-01
-6.855062212086185380e-02
7.920192125728885146e-02
8.728140571473839981e-02
7.388380894342423677e-02
7.996947636004014814e-02
1.265705042836898220e-02
-1.059901934275167268e-01
-1.513278109926335935e-01
-8.762455839091515264e-02
9.286009158924152934e-03
7.180994770636044133e-02
9.199031263817106230e-02
8.253619318026367280e-02
6.230529796849822166e-02
3.243709628109889276e-02
-3.170331478542839920e-02
-8.474302825050453181e-02
-5.775565920356363903e-02
-1.286323088885737292e-02
-1.322917466126843043e-02
9.377173785085549454e-03
7.477048019906065712e-02
1.032231857756415599e-01
7.991214474334759621e-02
3.130981546422190870e-02
-4.597375650803070535e-02
-1.092754570401938269e-01
-1.102354658815688226e-01
-7.541080232302060926e-02
-2.031887441147077478e-02
6.106233925878668672e-02
1.125448148553737648e-01
8.602621515217417913e-02
2.739921047741800814e-02
-8.996478870216546853e-03
-3.276830401456320291e-02
-5.114448888695542761e-02
-4.820723759422311516e-02
-4.171993744179610525e-02
-3.518256181690124218e-02
1.052169234351047443e-02
6.509944467620257247e-02
5.825967638369797252e-02
1.658795799139136523e-02
-6.133821862385454085e-03
-4.698916403682753054e-03
3.212404769834338591e-02
6.940804221363180981e-02
2.361805200347995987e-02
-8.307557305745320864e-02
-1.203538963454676980e-01
-2.476746997298054712e-02
6.748432555114337872e-02
-1.907212008500262443e-02
-1.646359294551336117e-01
-1.251161828826283240e-01
2.581704144429618208e-02
9.147031200910313298e-02
1.049307014232181562e-01
1.231999219585022398e-01
7.404651907850762216e-02
-4.015325857304722496e-02
-1.164130078492448678e-01
-1.055978274487746060e-01
-3.019945108911744128e-02
5.732074475959141741e-02
1.052058924538527007e-01
1.046072503384153918e-01
6.648154708109101085e-02
3.950582767195188680e-03
-4.207008378718933572e-02
-4.790045741923838751e-02
-3.493850667206991473e-02
-2.210212026476121583e-02
-8.500695647700857310e-03
1.705119689686503820e-02
4.501853802666023335e-02
3.906479166490267607e-02
-1.525300348025197469e-03
-5.950480420784269586e-02
-1.396656443652722068e-01
-1.862563438495311585e-01
-1.160885053268717187e-01
1.772705963551525488e-02
8.915770860674324116e-02
9.133231880177025697e-02
9.713166996458415248e-02
9.929734422754377121e-02
5.203462102147336094e-02
-2.918467153341556576e-03
-1.428564417912978751e-02
-8.659393139129436742e-03
-6.503637204609700323e-03
-5.961982962379021311e-03
-1.088242489723703285e-02
1.415900654012134524e-02
6.803597198577511496e-02
6.697539875021125966e-02
1.972553627144364025e-02
1.182032157545782544e-02
9.196441297858230779e-03
-2.625300774236529605e-02
-1.744819860822693913e-02
2.954677729270128658e-02
2.689696202485525409e-03
-9.997783788156273943e-02
-1.385570123579879520e-01
-4.274905811019763524e-02
2.002748737160051085e-02
-7.836251159537427347e-02
-1.381386861300902824e-01
-1.736989258356785165e-02
1.136759014457892070e-01
1.518885830876061938e-01
1.364508566400234046e-01
3.985547733512993795e-02
-1.032239944419112432e-01
-1.608215164876832248e-01
-1.198425314505700140e-01
-6.483279028696231627e-02
-1.286827752062598938e-02
6.918640163103376151e-02
1.530879989939777364e-01
1.623859813061000190e-01
9.795090170930566276e-02
2.086683315107287773e-02
-5.847793019459543440e-02
-1.002045234434366522e-01
-2.526087817248570677e-02
7.405923004679161592e-02
4.678258140137867005e-02
-1.151015363069643818e-02
5.377766732158408003e-02
1.517553276707313548e-01
1.241964778223488275e-01
-5.923271348338898443e-04
-9.725649189646727588e-02
-1.341668728005255828e-01
-1.388254290488956655e-01
-7.653717705948401284e-02
2.700398431229823412e-02
3.755764850276997052e-02
-2.331309515805047097e-02
-2.427972665356781592e-02
-7.413036912288731989e-03
-5.209676361322274768e-02
-1.044226110905333155e-01
-1.135071313006829896e-01
-8.139338755794528479e-02
-2.446340342238397664e-02
3.682894590026847617e-03
-2.755754423989183188e-02
-5.639612252633711964e-02
-2.151675130104712189e-02
3.471752635803954101e-02
3.101656810081501042e-02
-1.446255529122562195e-02
1.882763168044025021e-02
1.441823620954119922e-01
1.742560503383919768e-01
3.192119456237683950e-02
-8.014582024397479132e-02
-3.695873980825504362e-02
4.053886093300615445e-02
6.353655609207015109e-02
6.244369641777212238e-02
8.274273809952088776e-02
1.562580469853781517e-01
2.295087684210855850e-01
2.053099270254044595e-01
1.157607927773223744e-01
6.251118513603595717e-02
3.349708416772999298e-02
-2.978661813546257600e-02
-8.500303513983439863e-02
-8.588329271936603893e-02
-7.486914623024369664e-02
-7.351745002976756149e-02
-7.260505828296176523e-02
-9.672398641955434750e-02
-1.418894880574963768e-01
-1.727191300804801488e-01
-1.827649703665235881e-01
-1.838516643026898989e-01
-2.012025175905736707e-01
-2.096325919086274858e-01
-1.236170777375600049e-01
2.725712318057620098e-03
3.918425144083085426e-02
4.930984549976416553e-02
1.228269878601616488e-01
1.867193587699425839e-01
1.962284858070140470e-01
1.712108501792995452e-01
9.885955002395639679e-02
1.514503555693872371e-02
-4.573834574129482383e-03
2.490605361724686911e-02
2.877290343258676053e-02
-1.161879642533725221e-03
-5.504567979436107011e-03
2.464783637605282365e-02
3.998249598206551902e-02
4.111442836576744558e-02
5.023058078003198035e-02
3.452235254415758625e-02
-1.449737529645055839e-02
-3.884462730596817404e-02
-1.380406582193655779e-02
1.960022882160144392e-02
6.534593072713082082e-03
-3.220420542119325352e-02
2.361280985948187305e-02
1.110971717430467021e-01
-1.050534737531880203e-02
-2.184569136426695313e-01
-2.001597843334177451e-01
-4.725582754045343226e-02
2.707818242937106573e-02
-1.241799834650902240e-03
-1.205448276810482111e-01
-2.000803232869717285e-01
-8.198717694196192007e-02
1.118126570009903148e-01
1.865375716968560305e-01
1.657128447602255195e-01
1.200428367753930275e-01
2.917082158454636226e-02
-8.056835774651703586e-02
-1.407888169219379815e-01
-1.496904120191686893e-01
-6.701416021928843780e-02
1.348775011078226227e-01
2.547783606107616450e-01
1.643679542753110068e-01
5.906105842340991785e-02
2.031212371487627760e-02
-5.972823371475478177e-02
-9.545340300303255254e-02
-1.342538771580083917e-02
1.966404747503239930e-02
-3.868023742179133029e-02
-4.404141831937880003e-02
9.901645948733554109e-03
5.008347709616238486e-02
8.229592963204729328e-02
8.044206606983109187e-02
2.301906339274959953e-03
-9.200719535634101220e-02
-1.280880560004075686e-01
-1.162652591528778034e-01
-7.155928602388969550e-02
2.667734595511668874e-02
1.040129436714731237e-01
4.175408231024597960e-02
-5.840109860573809708e-02
-3.074077572752930559e-02
2.327746895494869905e-02
-2.099427059261004674e-02
-5.805465215741231755e-02
-1.393985970990552908e-02
1.844323708072376222e-02
-8.394750886357070507e-03
-2.072534594052277343e-02
1.381060203477567881e-02
3.418094250060355055e-02
2.770728626452417798e-02
4.744854779469970252e-02
9.782010731942611392e-02
1.034693422474911306e-01
-2.837038620010283105e-02
-1.627843462662829643e-01
8.138086586924421495e-03
2.702341540469626047e-01
7.522251614216238225e-02
-3.296374479370882682e-01
-2.961280007606179598e-01
2.022669255043379327e-02
1.325764036784935207e-01
9.615090059896469477e-02
9.482640384928092692e-02
2.747696417508177502e-02
-1.032276565371962745e-01
-1.151812179993194907e-01
-1.930588378055083168e-02
6.048054453997100260e-02
7.609258968050817973e-02
1.803422643175418144e-03
-6.213638495509311854e-02
-9.548235184456965730e-04
6.798817134403332962e-02
4.186047656688585139e-02
-5.626034858053862581e-03
-2.418285381780847093e-02
-1.543702539349101760e-02
1.159355264267135019e-03
-1.489387392122953901e-02
-3.773445498013477256e-02
5.772905380095027551e-03
1.045407852508952046e-01
1.338349514317134781e-01
2.447200638374774639e-02
-8.761472775581748140e-02
-8.714647496521230052e-02
-7.569437956195620987e-02
-1.089673324215783834e-01
-8.980329388361540932e-02
-3.528443629269119482e-03
7.111442071957260747e-02
9.485261019061042020e-02
7.033331765701983374e-02
3.598450864887171863e-02
3.358228915251518232e-02
3.487408401359584631e-02
-2.972065680574982843e-04
-2.549166806654834527e-02
1.000147483078187537e-02
5.268875853197279441e-02
3.786633650195448536e-02
1.215662874019156695e-05
-1.319450404212640232e-02
-2.342298163243073175e-02
-2.901872037399537418e-02
1.732808593143841600e-02
6.548251499243037954e-02
2.198179897766444277e-03
-1.389832723626837074e-01
-1.857479879693479385e-01
-4.562917039836950073e-02
1.271665660516577978e-01
6.045064343440239435e-02
-2.020781373602127395e-01
-2.668615994884729892e-01
-1.812196664800044127e-02
1.902607792870777137e-01
1.577099081427443816e-01
6.537702180422966247e-02
2.302916281016284539e-02
-2.682560916669961618e-02
-5.170266908861048671e-02
-2.693462164454480529e-02
-3.110800423974949963e-02
2.157038189463000421e-03
1.762074520114986775e-01
2.612844361220096889e-01
6.851089799354485865e-02
-1.329024396169856126e-01
-1.368340401314303012e-01
-7.680468776267795894e-02
-4.458085516575360785e-02
-3.884656614355695009e-02
-4.888571359691764456e-02
-2.042262071451506414e-02
3.921449737003589869e-02
7.810746248993813423e-02
1.071659364302556677e-01
1.244298430473981254e-01
8.338947925970009722e-02
2.471221707709874219e-04
-6.458566330565823632e-02
-9.855389096165481644e-02
-9.644911076065082467e-02
-3.992402092810436176e-02
3.135103819483941318e-02
5.789761701284407841e-02
5.313742569600023169e-02
4.801329456670259954e-02
1.745165399191722297e-02
-3.583643655856069699e-02
-4.666540937165971487e-02
-8.905919672024828135e-03
1.529215929841781785e-02
1.002011148228504518e-02
2.323855193496019225e-03
-1.849031073458275512e-02
-7.978492761692385082e-02
-1.358397019339696865e-01
-1.106400223871144006e-01
-2.979912907564909522e-02
2.757272703104085565e-02
4.272163034822469563e-02
1.875239403286889719e-02
-9.134769508755151771e-03
4.988273925892679206e-02
1.413996512920520920e-01
7.710535548356269031e-02
-8.789235026594270639e-02
-1.239226724709238947e-01
-4.828486519836514002e-02
-3.225708868194608961e-03
2.420821297259539637e-02
5.900058252994195424e-02
5.334321314667248015e-02
-2.512844683329195500e-03
-7.308965156756469517e-02
-9.017311636336006186e-02
9.423531886811185865e-03
1.618133902861076390e-01
2.112970417728930184e-01
1.254138875365225503e-01
5.259289540096398485e-02
7.324896867664457134e-02
2.653934028760893821e-02
-1.748579998667467439e-01
-2.832717231313988115e-01
-1.404489684749140599e-01
1.732866556357307020e-02
6.333952185460664519e-03
-3.612234655334453648e-02
1.669586776624984795e-02
9.813669112430833952e-02
1.100106994115906400e-01
4.599538213281728627e-02
-3.512225669797495314e-02
-9.241368994141493931e-02
-1.226553056916396267e-01
-1.186620492190910703e-01
-6.224810118837730000e-02
3.750934703884709759e-02
1.080609010439790435e-01
9.601584607627772217e-02
8.084387428720320179e-02
1.144927603239749431e-01
7.447249058857974280e-02
-6.125117437442720303e-02
-9.747613624126913456e-02
9.223282006825858637e-03
7.522031901562135914e-02
3.822252877467276211e-02
2.970504897142490618e-03
1.777646754679574476e-02
3.283673906394187630e-02
-1.275724316046132839e-03
-3.065976039508579165e-02
4.808404462372488364e-02
1.362417659110923551e-01
4.020258331690224063e-02
-1.186009497964301967e-01
-1.136912290910346568e-01
-3.442549666566976918e-02
-4.072367734134732520e-02
-1.090151723787634586e-01
-1.408045915408983328e-01
-5.100917196653721036e-02
8.003375882588824319e-02
8.423173337837125407e-02
2.892190921511136187e-02
3.079960337057333422e-02
-7.347919995950848333e-03
-1.152759790029289494e-01
-1.692861846657769953e-01
-1.390977066372703908e-01
-6.557632576722594031e-02
9.612005651871653733e-03
2.589476340043212962e-02
6.673969594379883935e-03
3.178772971157877054e-03
-2.824356733555236088e-02
-6.871182096303889153e-02
-1.706209841854260459e-02
6.107276307296026496e-02
7.948636527760110163e-03
-1.000962291639259372e-01
-5.806136132263443883e-02
8.160718364114712131e-02
1.181140884440284727e-01
8.618151699914064490e-02
1.352645419547627570e-01
2.344365389258263321e-01
2.750563752504155968e-01
2.218672759951881845e-01
1.090066415298754088e-01
4.653411761843933431e-02
9.706402142822763424e-02
1.641410529439389643e-01
1.727635808983073729e-01
1.628349570930943124e-01
1.341071317394630924e-01
5.195060766232774407e-02
-6.339255905674447134e-02
-1.952148226526128072e-01
-3.182929635264061252e-01
-3.566894310728951911e-01
-3.020304936917042049e-01
-2.442632936774849495e-01
-2.250496504660031150e-01
-1.939303083778148307e-01
-1.171061570135121799e-01
-4.933403017040162430e-02
-3.607555340358738205e-02
-3.418494886848198050e-02
-2.070287017152878939e-02
-3.518156136514093146e-03
2.905017307008197353e-02
5.588605032824298102e-02
7.795234649838680974e-02
8.823117575285896463e-02
2.046953104873923054e-02
-4.353238308478536711e-02
3.702398918774303660e-02
1.667525041259940999e-01
2.092155354245962273e-01
1.883842927037821802e-01
1.159869640031829102e-01
-1.795989947084774760e-02
-1.344583748054680172e-01
-1.641277179799134622e-01
-1.236937433073802828e-01
-5.843700099246891544e-02
7.742705509532557540e-03
6.688720879334193736e-02
8.335455421876912518e-02
4.094719770226888655e-02
1.124492523855588101e-02
3.212068691905525797e-02
1.984149640436879206e-02
-6.322226891533008764e-02
-9.567895969244895327e-02
-1.004422149399965963e-03
1.100177704759753433e-01
1.597022674521629826e-01
1.780554162717606081e-01
1.362226359180470081e-01
4.115462346639220392e-02
-7.323085135991027478e-03
-1.546544272669202191e-02
-6.677761693847740487e-02
-1.426303541053297042e-01
-1.583847004254504975e-01
-9.661815395864764566e-02
-2.989423304744347198e-02
-4.088898962670827267e-03
2.932295597914788901e-02
7.647609317482972902e-02
6.070866218051401697e-02
-2.592651926236273080e-03
-2.436044063996984851e-02
-1.306385695351289580e-02
-2.537760206502767332e-02
-4.344243276766052847e-02
-2.778408789847790911e-02
-6.546065327487369037e-03
-1.234847690102511969e-02
1.909267454278199341e-03
7.004018098885739230e-02
1.274272980613618267e-01
9.683433179720535300e-02
-2.847945141782807013e-02
-1.495076735501401632e-01
-1.220995498879607066e-01
4.602696314090711643e-03
2.835013406943547379e-03
-1.263705537841956772e-01
-1.388499598422832659e-01
-1.109385687736997965e-02
6.149347113260079239e-02
5.772570674019818909e-02
7.993703182401729057e-02
8.527901159558294586e-02
-1.479795302540140058e-02
-1.398299293992502079e-01
-1.443197736757547422e-01
-4.416899606128437544e-02
4.538453809017710394e-02
8.774879999244802886e-02
9.246696354074508684e-02
6.313313405637047127e-02
3.752854655905118325e-02
4.781012926479294434e-02
6.012574200242752631e-02
2.555532038878348400e-02
-2.359826637489667589e-02
-1.553704297029381842e-02
1.223720114393543612e-02
-1.916489609351768042e-02
-5.138254824190342102e-02
-8.684691128225775075e-03
5.402813784794930491e-02
9.352394493853759261e-02
1.206031813333251351e-01
9.043237889955627051e-02
-9.435295129481248433e-03
-9.516480984812505928e-02
-1.127915171614195938e-01
-7.102554332309304885e-02
-4.054360023926902035e-03
4.533843860735595199e-02
8.497308075204550171e-02
9.664456673506935380e-02
-2.502656949035756903e-03
-1.239881140492834072e-01
-9.666519145121971190e-02
-7.316154563661400601e-03
5.228886777987948667e-03
-2.348692670293195395e-03
3.613094887257561547e-03
-2.532141400561913058e-02
-7.451572415187865395e-02
-8.964381000017439260e-02
-4.427219233920798303e-02
2.619430290878152490e-02
6.152733988517868069e-02
5.676686755240959587e-02
1.732562871775457022e-02
-2.999059505074479909e-02
-2.127597865057926155e-02
-2.937976209189990112e-02
-1.438350619375484141e-01
-2.031884056394814009e-01
-7.187931590432737605e-02
1.036922391548815714e-01
1.825348611550665356e-01
1.886482913193682498e-01
1.389204775770765399e-01
2.712290968461445601e-02
-7.675489265452029031e-02
-1.006819161399986340e-01
-6.674124888862678628e-02
-2.787719141275689025e-02
8.363412162531908695e-03
4.567251797572684235e-02
6.039926738695689662e-02
5.200881006100020049e-02
6.921481154373965161e-02
1.131927327704028430e-01
9.045301894082528882e-02
-1.898033700888636724e-02
-8.302300267071442696e-02
-6.712108693258592163e-02
-8.018269064376348787e-02
-9.487147464409291520e-02
-1.835170529549043014e-02
7.763606163158286166e-02
1.058249058294480349e-01
9.769458777119852111e-02
7.932358081931766003e-02
2.342722410998133303e-02
-4.474859876509339890e-02
-4.531657415958007668e-02
-3.964577427224356965e-02
-1.602544070501054629e-01
-2.479571647910940868e-01
-8.843700866861722854e-02
1.147772634596375962e-01
1.306195298801909599e-01
9.206519695265942549e-02
7.765932709194035832e-02
-2.534619087704733167e-02
-1.271750185421341162e-01
-3.839137110190449231e-02
1.469399472602243573e-01
1.841450001943967796e-01
3.484534083134440546e-02
-6.093695736861121093e-02
7.697599198404392329e-02
2.184073535149989309e-01
7.301401494948089876e-02
-1.817846142543156629e-01
-2.452881352442745355e-01
-2.167932601070838294e-01
-2.489575518795383302e-01
-1.921023223201774044e-01
-7.875398172420099499e-03
5.911899918073292709e-02
-5.023825907367487908e-02
-1.076814623188236814e-01
-2.565772096022165757e-02
4.603703290160971601e-02
3.573076554477092048e-02
1.280211844583362818e-02
1.299785605571701468e-02
7.524863218069193470e-03
6.829325182250754224e-03
9.057043398048846006e-02
1.910611600465837723e-01
1.167973031023455122e-01
-4.430145842086022356e-03
9.595994472338760517e-02
2.162402511572084907e-01
6.382466843709441728e-02
-1.053974834546475975e-01
-1.666674440666833512e-02
1.290345607455901655e-01
1.253671337994809176e-01
1.421879428974729895e-03
-1.004605862275676914e-01
-5.600924799857132097e-03
1.872915304738261011e-01
1.991064184999806197e-01
8.821699909438344978e-02
9.646383968192928648e-02
1.718580426778520409e-01
1.257212993105621124e-01
-2.726715787476020891e-02
-1.671208621309282771e-01
-2.696992462692034409e-01
-3.534584101690448898e-01
-3.736916975233580129e-01
-2.963754273768220981e-01
-1.861396620212291131e-01
-1.006748690346017938e-01
-1.465629655902226519e-02
5.466232633414554176e-02
4.002624992686795030e-02
-1.801313491576373577e-02
-3.177475217459448109e-02
-1.964500291080653951e-02
-1.534213810385533228e-02
7.542587002409451014e-03
5.137960252845064080e-02
1.293771551690584831e-01
2.581664290679628881e-01
3.014016653745669738e-01
1.555168722355694533e-01
1.282703034037341143e-02
1.525333351286032452e-02
-4.705884848140107213e-03
-1.086324272781897943e-01
-1.459509014129746762e-01
-1.258252072002431776e-01
-1.219044953062713016e-01
-4.111256162378580659e-02
1.400373110001474353e-01
2.251392328477443971e-01
8.625921232799857452e-02
-9.423084466470314779e-02
-1.114729543248821203e-01
-6.719039361670442467e-02
-8.602994551108111843e-02
-7.688713842244201957e-02
9.334569992389542964e-03
9.360695369139092337e-02
1.158473807330281657e-01
6.872538731141654422e-02
1.248229882842366925e-02
5.074878150184562384e-03
1.462084097135327859e-02
1.829458418876372949e-02
6.284486278903928316e-03
-4.782948610345278545e-02
-5.204338067003249496e-02
2.632131243108990978e-02
-1.563180020435731184e-03
-1.184002086049442681e-01
-7.072903289398360660e-02
9.857564769824637974e-02
1.588182482306294552e-01
9.099038853961685658e-02
-1.425326193945853671e-02
-9.226342008648018289e-02
-1.190780460557335774e-01
-1.413297393389505718e-01
-1.117491834916075066e-01
6.045286190415258970e-02
2.168822008308268490e-01
2.044349810843176796e-01
1.172475738742132373e-01
-3.069944203475108522e-03
-1.235964408005088694e-01
-1.166769953549330885e-01
-4.640521310838591207e-02
-3.346896962303708839e-02
-1.742078430953774779e-02
2.212019111329811133e-02
3.278480299783093771e-02
3.904161142479543878e-02
5.854661320579405276e-02
6.410554089231260133e-02
2.852512033958979829e-02
-7.670719047449814365e-02
-1.672721448880769290e-01
-9.630102918228793107e-02
2.950187156270490940e-02
-2.035384928119602851e-02
-1.501518926370121187e-01
-1.128660911039323783e-01
3.929119676144861989e-02
1.247752135608305168e-01
1.469864970091062928e-01
1.368761149691059276e-01
3.965745027656520511e-02
-9.745013171239308436e-02
-1.379707081840343685e-01
-7.707466673499398235e-02
-1.489268441480459323e-02
2.565396765475148888e-02
6.196599748031988986e-02
6.194192268914838068e-02
3.545609361824937633e-02
3.096458622412718090e-02
1.090414927619785465e-02
-4.230828955137358460e-02
-2.111353014099768416e-02
7.222647106787762061e-02
6.414813067994355744e-02
-4.755597165405692911e-02
-8.405920117576277939e-02
-2.603409306108694227e-02
2.135475572637116071e-02
3.863911420000176039e-02
5.232022496657949551e-02
7.382343865587648324e-02
8.900176982705444717e-02
5.649405289970334948e-02
-1.740088503922091606e-02
-8.124565418401191730e-02
-1.147875310345864153e-01
-1.061534462000661289e-01
-3.944197332250524296e-02
4.666498090904257906e-02
9.066572373097697701e-02
9.654720094738947211e-02
9.103942633790378103e-02
5.037067436420535060e-02
-2.881119973099862883e-02
-9.440274952752304716e-02
-1.215333510967932656e-01
-1.173083111033605686e-01
-7.712293166484002205e-02
-1.327301426005090754e-02
2.514779200912206636e-02
2.135235629025932294e-02
4.412015190916925012e-02
1.234961309497743936e-01
1.297330096835729585e-01
-1.265869483152710223e-02
-1.229788803532071845e-01
-7.246774019087343088e-02
-3.201554694675085716e-02
-1.133115926002460638e-01
-1.447486785970628076e-01
-1.662330356942020096e-02
1.373319300241506169e-01
1.870505126005924390e-01
1.606303349035515249e-01
1.090127855088297987e-01
-1.673789871005964408e-02
-2.007201819008455068e-01
-2.590983143796299348e-01
-1.380247284776036087e-01
-1.092766714689812763e-04
8.783746993211347109e-02
1.490127287054630045e-01
1.414530856205576947e-01
9.354715115342965293e-02
5.996716602043152683e-02
-2.641137214952703552e-02
-1.156840558520386975e-01
-2.746531796751256263e-02
1.020124617073925322e-01
4.825149048610540004e-04
-1.504023244657314018e-01
-7.307651053523842033e-02
5.910110765767211116e-02
4.474232056719359973e-02
-4.979458344262562008e-03
1.591157763805430350e-02
5.356458107027246840e-02
2.403393272022944643e-02
-7.020839590127583851e-02
-1.243264027096102065e-01
-8.191015318447997240e-02
-8.371851164571723902e-03
3.679569219274164693e-02
6.118498446706372579e-02
7.217906103305726795e-02
5.015407405888551440e-02
4.164304162484978866e-02
1.384224424506459716e-01
2.300646326585227830e-01
1.101085957235126700e-01
-1.162744947281997288e-01
-1.933404448933230824e-01
-1.069857783269812235e-01
-2.860954439406050362e-03
1.668142400961974622e-02
3.699006230305165038e-03
8.601249142488524846e-02
1.381156897115339288e-01
-1.858340107828038851e-02
-1.450712281874902698e-01
-5.593780559127928959e-02
-1.467452755767182163e-02
-9.559321896037548116e-02
-9.142173789791381566e-02
-5.073719417155472117e-02
-7.375237698546985299e-02
-6.329891369470830309e-02
9.647004008795923014e-03
9.576845190809271657e-02
1.622391738934591821e-01
1.196468876768621709e-01
-4.622865952567874193e-02
-1.771482087417286522e-01
-1.769107628093035123e-01
-1.201912491884247758e-01
-5.743751556041622186e-02
3.474233609024401231e-02
1.046509838191513331e-01
7.041206826040821709e-02
-1.257081048628401997e-02
-3.462775454489921273e-02
-2.560997406453784098e-02
-5.937091554550902317e-02
-6.559018047812979757e-02
1.846751293477021105e-03
3.119366837273658977e-03
-8.642701174944386611e-02
-6.661356757051366262e-02
6.179697236135592298e-02
8.643752458451385567e-02
5.742074506172920034e-02
1.645611353095753349e-01
3.088858521599642804e-01
3.012232081951093932e-01
1.813895499243890486e-01
7.352451859097464126e-02
7.531857399762295624e-03
-2.716268007002200016e-02
-5.733971971600734796e-03
8.509140768982860481e-02
1.655188458708564403e-01
1.506880814044409544e-01
7.897967797229374365e-02
1.855384264269161962e-02
-3.834509115534281976e-02
-1.109947999257830248e-01
-1.788478799576395939e-01
-2.136546443926259364e-01
-2.263277318786123815e-01
-2.459996363784133777e-01
-2.392674041957021658e-01
-1.708225686603263294e-01
-1.259663965621259096e-01
-1.557743383911743829e-01
-1.515413312669932067e-01
-9.022134164418015023e-02
-3.707678981059476381e-02
4.860382819380623665e-02
8.009156116113366752e-02
-7.608551127549571802e-02
-1.711587364594481242e-01
3.047966764709535148e-02
2.803956321759196180e-01
3.230243743308723881e-01
2.620878863737738929e-01
2.107160160696298079e-01
1.123237280297508245e-01
-2.394532392167638898e-02
-1.016051437801713114e-01
-1.040474193186698426e-01
-6.794543059354871128e-02
-1.489894737961562632e-02
3.438011452810814383e-02
5.883588725531045671e-02
5.220968900572037913e-02
4.042176122619412643e-02
3.734026671538080711e-02
1.476759614530540228e-02
-1.840493024414757706e-02
-3.233816328221399833e-02
-4.292228646724799423e-02
-3.494369608287213602e-02
9.095818334168549041e-03
1.001336910264189611e-02
-3.613609390731286480e-02
1.014080657847884863e-02
1.352797345918362037e-01
1.539539049772650769e-01
4.406734790648961925e-02
-6.363055049800331320e-02
-1.266726689491365354e-01
-1.540064132261290131e-01
-1.216666560771577504e-01
-4.631722676346256007e-02
2.153210308880969259e-02
7.195881124459235778e-02
1.052008262685672491e-01
9.795755752364698754e-02
5.207817715143997495e-02
-9.360847514164622601e-04
-4.303501202332182113e-02
-6.188125647884774178e-02
-4.773157511468412162e-02
-2.322724410647777210e-02
-1.933922571585178565e-02
-1.904260719290073664e-02
2.066563186573537256e-02
8.611423602130290067e-02
9.453053009458718681e-02
-2.675589209589501055e-03
-1.203407415061413799e-01
-1.218703298575063709e-01
-3.055564505237246681e-02
-1.353909313450383373e-02
-9.176043151255910968e-02
-1.072745550742303933e-01
-2.825931787252921462e-02
4.058401404917474919e-02
8.634413836786773710e-02
1.193740704689708193e-01
8.013784719484567942e-02
-3.563270290000591922e-02
-1.459703578186226092e-01
-1.623757753409132976e-01
-7.108012553632132857e-02
2.836714292724800551e-02
4.382753587248319066e-02
1.986968985880632754e-02
5.124202388833989930e-02
1.162151810129868346e-01
1.598648585216668749e-01
2.095647879621359566e-01
1.713896480440749159e-01
-1.962154393997386087e-02
-9.152453288460023206e-02
9.485065308430219722e-03
-2.745847840356114775e-02
-1.324099984602476743e-01
-5.973993431731183107e-02
4.315306284931278574e-02
2.939523742949789326e-02
2.595396698387495912e-02
9.288937246881788512e-02
1.045372376656743402e-01
1.711648523837391508e-03
-1.087228054344713396e-01
-1.487040483526901880e-01
-1.504532549782583439e-01
-1.256915098286958132e-01
-4.919110006466576035e-02
4.315484897296047173e-02
9.202065641036752397e-02
9.784849201351705772e-02
7.049620573347535613e-02
1.768209783677026498e-02
-9.834060177611039094e-03
-1.025269494865748386e-02
-2.660467096627091091e-02
-5.875267885939192657e-03
3.476726540740591315e-02
-5.460459457440967196e-02
-1.347283069788783871e-01
4.291206253086549127e-02
2.281486085438198252e-01
1.077554680352101613e-01
-1.277094976613475374e-01
-1.898044054372068634e-01
-5.634638351259325939e-02
7.656311496110451698e-02
9.314333717124669704e-03
-1.410202196359690296e-01
-1.349545285933339278e-01
-2.958349072182762246e-02
3.038054183649313567e-02
7.914193830381499595e-02
1.202045125514084184e-01
6.250872961680883910e-02
-6.156519418782577246e-02
-1.239078602870641310e-01
-9.493191653791609175e-02
-1.964167463989072854e-02
7.062977071139908691e-02
1.230419143327024512e-01
9.877156938085907001e-02
5.261041221238395293e-02
3.437369727688950605e-02
6.967962581768717689e-03
-8.931522886072478309e-03
5.021640413293407268e-02
7.008787992474471706e-02
-2.474818279827944653e-02
-4.475465724393509065e-02
3.651898715584218913e-02
2.353269084014587148e-02
-4.023138990872828641e-02
-3.092534063975188943e-02
4.348211439225582384e-03
6.433498036767244799e-02
1.464653929599419036e-01
1.092922709922899555e-01
-7.905377828162393761e-02
-2.243359836422343656e-01
-1.821573245185004464e-01
-4.887651013221013668e-02
1.207569970907476295e-02
-4.914157144532891458e-03
-6.350800807943214263e-03
2.908352466400147135e-02
4.979035384248195473e-02
3.579490136122288890e-02
1.307737799700511329e-02
-1.330339569243840434e-02
-4.542280953270247390e-02
-3.517215330702696402e-02
2.851487278430351463e-02
4.468508682534376442e-02
-3.095397322433350584e-03
2.477489545364992829e-02
7.997286801194784800e-02
-6.032525639693187697e-03
-2.851600413401771811e-02
1.807483864617726865e-01
2.198894656035071948e-01
-9.914092886692893458e-02
-3.385248846832668024e-01
-2.636903544045435810e-01
-7.210958420575477867e-02
6.681082887413786198e-02
1.230687583913084443e-01
1.381616630861675910e-01
1.263999817391455172e-01
4.400295918723026722e-02
-6.815779353491013826e-02
-1.113861219313599937e-01
-7.749727223681350530e-02
-2.504206629360421210e-02
4.819980248343430640e-03
1.812892274115704416e-02
4.205963710093470892e-02
6.594121923139492636e-02
5.595525821832738472e-02
1.581500608791727713e-02
-1.384612253136349724e-02
-1.053916099006718156e-02
-1.535294871131006461e-02
-7.769756291830802464e-02
-1.437792063662179654e-01
-1.143575504782926161e-01
-8.500204058154348444e-03
6.623311486578573049e-02
3.396579446927898427e-02
-7.642625427312832453e-02
-9.175471980679840434e-02
3.504100478474396485e-02
5.408352099528474649e-02
-1.011976465323130292e-01
-1.701101035111814985e-01
-8.634437496066306450e-02
6.342955543292869841e-03
8.518280550069110002e-02
1.568419603266399953e-01
1.747014495251215660e-01
1.595315986108993278e-01
1.508053985507659123e-01
1.365538765293582701e-01
1.358626820833701010e-01
1.799648404481354880e-01
2.173442724883735133e-01
1.990652325764503405e-01
1.528096565571880339e-01
8.260731404517067389e-02
-4.394515963963195604e-03
-3.161225628338393961e-02
-3.956887587091937469e-02
-1.501650281387555408e-01
-2.705818189823000486e-01
-2.888843029009832697e-01
-2.778596022510304575e-01
-2.088275120259836526e-01
-9.831705174472149533e-02
-1.876431421931769317e-01
-3.587956292196485819e-01
-2.136956560014329209e-01
7.555933248952412251e-02
9.011781392117979017e-02
-1.351054555465239226e-02
3.716934264833086227e-02
8.851254890748669335e-02
3.916654445990944838e-02
2.332410854029352137e-02
6.229675868971790154e-02
1.198074611891413732e-01
1.945102204867107387e-01
2.025553647371858279e-01
1.197245929104146234e-01
6.570876575857031998e-02
6.089694536848061501e-02
-7.413600781386427141e-03
-1.229052169109879911e-01
-1.296488835251720650e-01
-2.275296385034800140e-02
2.542304684418006042e-02
-2.294897709501261818e-02
-4.134233639296327339e-02
-8.938159040463078409e-03
1.031914736135940147e-02
3.874421535869029820e-02
9.387827394889709798e-02
1.173434310806471259e-01
7.504067589198869237e-02
-1.703342277189681675e-02
-1.073863904925921875e-01
-1.489088200031535025e-01
-1.606483086304282548e-01
-1.101828774025770397e-01
6.834360668068245603e-02
2.134562166396019589e-01
1.556681989383027764e-01
5.371883215138027051e-02
4.110746215259938191e-02
1.295452430976860858e-02
-4.779351837388880198e-02
-5.787461908529317745e-02
-3.309742830783882206e-02
-1.739973022121048263e-02
-1.784756525023803442e-02
-2.217459891576320508e-02
2.188718762464431783e-02
1.057869836309202477e-01
1.033230715308018632e-01
-2.525217292994232435e-02
-1.322807312770361010e-01
-9.804631791872685243e-02
-2.017289355703420078e-02
-4.235885503992239259e-02
-8.257265359627460888e-02
-2.053292191949242923e-02
3.895829507364685640e-02
2.354150559026552472e-02
4.248367843587462500e-02
9.893046001720078031e-02
6.731454038812470508e-02
-5.269551576315745223e-02
-1.552209324464007834e-01
-1.816209766268135906e-01
-1.200356081815240894e-01
-1.048102360769334954e-02
5.025792859398627022e-02
3.684817070441656628e-02
3.144811209422975623e-02
4.898210808800729232e-02
9.979188290287672319e-03
-1.919056699422118720e-02
8.190410751718305016e-02
1.448415503965872486e-01
2.111315366485223832e-02
-7.752157310384834299e-02
-3.620165454103506375e-02
-3.190925679036485732e-03
2.547712304531281856e-03
4.401728015745048211e-02
7.740706644556238913e-02
9.908591544103111104e-02
1.318909717339485921e-01
1.034288948139275993e-01
1.285156350244527146e-03
-8.052216209885958154e-02
-1.259304873264753266e-01
-1.481840212212806318e-01
-8.691026392238257459e-02
3.745220474984807535e-02
1.078305463754911514e-01
1.044901922607106015e-01
7.928016075847124644e-02
3.473404492037140967e-02
-1.690151148737127629e-02
-3.834653945285153298e-02
-4.430832866429944283e-02
-5.566691179687634217e-02
-4.729918240392425033e-02
-2.130677304197882774e-02
-1.216244466262291282e-02
-7.328829073896096086e-03
1.662205536855934640e-02
3.315616922859419835e-02
-7.398904333908747424e-03
-1.108861825770198622e-01
-1.502568434659529162e-01
-3.577192989832064102e-02
3.377720100269792497e-02
-7.216073701047817646e-02
-1.137807464055736462e-01
1.155822205967594989e-02
7.557254334306366672e-02
3.180465617074965112e-02
3.707983793861547445e-02
6.500631775426427006e-02
9.979717370942976784e-03
-7.923230227131287939e-02
-1.071932299889108708e-01
-4.938516315212237995e-02
5.222338073012183085e-02
1.223335385664519326e-01
1.365275545277049585e-01
1.292498612865700947e-01
1.046032983791338050e-01
5.171443444818273061e-02
6.685858389918501385e-03
-4.279801639633668692e-03
-6.937584754472887055e-03
-3.373722670645673549e-02
-8.919639662186336360e-02
-1.230118205993423752e-01
-7.709905157648122564e-02
1.590573401700889900e-02
7.460177825040534283e-02
9.903329204831555488e-02
1.573044266546418379e-01
1.908724324555725327e-01
6.060015950208280655e-02
-1.279438708734561558e-01
-1.726603202841650864e-01
-1.226499339142216871e-01
-6.569873151810924627e-02
1.835648000013260714e-02
5.893885904316256696e-02
-4.872539058534172685e-03
-7.465158473920593951e-02
-8.698298871043255720e-02
-8.217454667011428460e-02
-5.213532642754045709e-02
1.738912834652097533e-02
6.000227553208122011e-02
3.468892985052306199e-02
-7.591062121827474307e-03
-4.809374727183920659e-04
4.547895133856499211e-02
6.816387749808430763e-02
6.515364783343502442e-02
5.213941555557894542e-02
-1.002898049444847679e-02
-9.563601287330580902e-02
-1.143865569001534521e-01
-7.789914993514140962e-02
-5.544652196133474653e-02
-5.114704009234093129e-02
-4.821218452493931245e-02
-4.073694340251594187e-02
5.623975243889112706e-03
8.699460096837491330e-02
1.190076093759854514e-01
1.057397777109363446e-01
8.336458047578085284e-02
-6.247305947394606040e-02
-1.670080453244126573e-01
1.468262850764517069e-01
4.596090421648424962e-01
1.396247911800271857e-01
-2.951062946661220932e-01
-1.986946147602908497e-01
5.055558522724731829e-02
6.252041655201907855e-02
3.114055876939151798e-02
6.901496008259368209e-02
4.077313174673050100e-02
-5.735306990429151625e-02
-7.406332831796069716e-02
-4.453313433754393924e-03
-7.258304923732177699e-03
-8.155472254910635377e-02
-5.323151292793470990e-02
6.309299331628658025e-02
7.389296686036016248e-02
-2.128550555797438168e-02
-7.410076987513773694e-02
-9.089889326479907994e-02
-1.283077613896545233e-01
-1.128510504217137278e-01
-2.067938833441240742e-02
3.395544220242858319e-02
1.430089699010745133e-02
1.350264934617195420e-02
5.197469648641764306e-02
5.041520953784113523e-02
2.517574171599460189e-03
-2.919175291997086127e-02
-4.066546269444965001e-02
-6.391774647361567196e-02
-8.754207784557441197e-02
-7.222326417992067094e-02
-1.818438328889807401e-02
1.439783025057948460e-02
2.481176116038723983e-02
1.129711817826547088e-01
2.119533204689047767e-01
1.147043166614673260e-01
-7.602227711054540538e-02
-1.054619519474378625e-01
-3.397113884208403933e-02
-6.268974725267273396e-03
5.744852667710275904e-03
3.948576566633395235e-02
1.242168498556265877e-01
2.675427145957870456e-01
3.610556830660857086e-01
3.304902281272275033e-01
2.280041857578432862e-01
1.011476560247389078e-01
-3.075159473570860530e-02
-1.329331910132717509e-01
-2.011208790114984990e-01
-2.494502848716201870e-01
-2.508557476794952557e-01
-2.156519760434691402e-01
-2.241181379565922449e-01
-2.575826638883755293e-01
-2.188679656918173511e-01
-1.474402630035261674e-01
-1.183356800489073213e-01
-7.077365704820828829e-02
5.828772561066869473e-03
7.034913119553239114e-03
-3.192963841882692083e-02
3.448111156667135746e-02
1.536868814428452024e-01
1.637555502819473541e-01
1.284011057516076248e-01
1.816795970879099553e-01
2.318085338456122857e-01
1.809219076715316010e-01
1.081573110462523274e-01
4.907017078082417938e-02
-4.137793404796884927e-02
-1.163096040686693033e-01
-1.047171275713364852e-01
-4.810997612479848279e-02
-1.659707840022031644e-02
4.716583985960358383e-03
4.692534115117852345e-02
6.334080911794891244e-02
2.255862032742553952e-02
-1.714678077713845117e-02
-3.148617493539844492e-02
-5.379631560141248658e-02
-6.408236065628460099e-02
-3.718873648378340224e-02
-1.974715533454536945e-02
-2.265379700868785581e-02
3.383817122610749406e-02
1.326151140791330396e-01
1.067665208508976615e-01
-6.870937015790065661e-02
-1.817976331380093957e-01
-1.110025788270134761e-01
-1.477234475328961967e-02
-4.456380753853245863e-02
-8.584648455127850963e-02
-2.414846735775581787e-02
5.429415951696654752e-02
1.150971817263099495e-01
1.902004771501253078e-01
1.935946474659508421e-01
8.223850418426981168e-02
-4.601537112787832534e-02
-1.287578854055181909e-01
-1.363588742590450265e-01
-3.735780437330996073e-02
3.524038195666939766e-02
-5.729791615343893252e-02
-1.239416138832617614e-01
2.239600527663321988e-02
1.643000497650436154e-01
1.037558509334735868e-01
1.254755644015993071e-03
-5.021037252278573795e-03
-2.104660418796883148e-02
-1.018441867192228373e-01
-1.105075901987483400e-01
-1.042315371202890209e-02
2.355502677118885904e-02
-4.442903697110983652e-02
-3.126294570048502447e-02
9.363743307443801733e-02
1.518258919882757851e-01
6.726012989971363876e-02
-5.182519733880617402e-02
-1.055625698569108289e-01
-1.222352098539352394e-01
-1.581372782940693444e-01
-1.321195928045517665e-01
5.202533359929171347e-02
2.286872584641949091e-01
1.965741517012626338e-01
8.473569947034879923e-02
5.967615887105228584e-02
4.399779580933867174e-02
-7.735015100704643876e-03
-2.189429694672348492e-02
-1.112175208131447463e-02
-2.398339025336792413e-02
-3.185516274637283096e-02
-1.693624691229913062e-02
1.596070437167741024e-04
3.348040317894405288e-02
9.242850749923371689e-02
9.366014307258550831e-02
-4.678297949816998674e-02
-2.018612793799198224e-01
-1.397725585870277787e-01
5.659564155730970048e-02
5.740339910947321600e-02
-1.266392921491378554e-01
-1.724736209694422429e-01
-3.817957345295517474e-02
6.673053992423259861e-02
9.697144962333589802e-02
1.117857127550333507e-01
7.643102432706115612e-02
-4.007230353794589278e-02
-1.430400462105390902e-01
-1.298964786413952521e-01
-4.661963066682016377e-02
1.107770807849025110e-02
3.620682564458120589e-02
5.288252131895355285e-02
6.186787134396756760e-02
5.521325047072173087e-02
3.722673907017737260e-02
2.843929442748902373e-02
-1.197867572093735608e-02
-1.189107355417214629e-01
-1.370521014390476133e-01
3.331724863222512711e-02
1.579917233733846849e-01
8.592122061559370749e-02
8.906160580571557614e-03
3.114675367158666053e-02
6.591032223335499540e-02
9.116163022576954933e-02
8.366472487694190385e-02
-1.808184438025612316e-03
-9.342254139367608956e-02
-1.116565480684991729e-01
-8.324856334529041890e-02
-4.303006029071181071e-02
1.021147948387444559e-03
3.237574640558699840e-02
5.193613824896104597e-02
6.764036553766608617e-02
6.400587199580851094e-02
3.430069928556722658e-02
-2.213326599684667211e-03
-2.586343380613084428e-02
-2.926474408456786538e-02
-1.970103400120733900e-02
-1.496085774140238495e-02
-1.478931894033829082e-02
-1.202131622804903082e-03
1.765319922078393416e-02
2.892991599884564211e-02
3.406034953470157833e-02
-3.559894525851341196e-02
-2.048244437216547587e-01
-2.431717156013818437e-01
-2.210753909729083755e-02
1.266671028368095142e-01
-6.301715951300433660e-03
-1.201291968341181432e-01
-4.261086666892215102e-02
4.401422568786315243e-02
9.112391667052244237e-02
1.555063257211951877e-01
1.522755215412129326e-01
4.572668584509743950e-02
-6.587465346609222561e-02
-1.146122982711673954e-01
-8.995780237964347281e-02
-1.197659546331259969e-02
5.500321643706559960e-02
6.905245449418426218e-02
6.001616571718450949e-02
5.916057510663223773e-02
4.602117604134436935e-02
-3.753262508190247093e-03
-5.001422299281978179e-02
-3.795924100155949332e-02
-1.453835556210698876e-02
-4.417374510580923674e-02
-7.065182625096530500e-02
-2.795495221295780930e-02
5.391999235317928435e-02
1.181513220807005327e-01
1.405187588800791143e-01
1.199871698471527831e-01
3.545574252886406902e-02
-1.065572769383722751e-01
-1.929273307549445593e-01
-1.556389785972831785e-01
-9.321874979336675082e-02
-7.019375886800706399e-02
-2.799030146764590679e-02
3.497041300217799964e-02
5.732371496520993759e-02
4.677647076121965730e-02
4.750872262293454051e-02
5.117731248818272599e-02
1.029543451964438742e-02
-5.516804664234780525e-02
-3.900230867230354559e-02
4.933331419459134615e-02
3.213485967996227571e-02
-6.669776614039367446e-02
7.874976685446577473e-02
4.558578472213214439e-01
5.258565303438557104e-01
1.098944818433516130e-01
-2.810451689458701163e-01
-2.918921994516773810e-01
-1.572883961645667183e-01
-1.152039255314166732e-01
-7.258164389687299378e-02
-3.458972318379893024e-02
-1.191230877654608639e-01
-1.650306917544254737e-01
-4.514389308202682721e-02
6.155994731763156369e-02
7.846134394502521370e-02
8.890338121413970951e-02
5.262250550940809901e-02
-6.730571464381429614e-02
-1.542073320810167791e-01
-1.555897011367987637e-01
-1.487037694375706043e-01
-7.815870414748225803e-02
1.366721212770579119e-01
2.662763205254128906e-01
1.255540111697371342e-01
-4.814574142732230833e-02
-5.494622307022170582e-02
-1.886118519233405053e-02
-4.378407883840447490e-02
-8.084481218101127742e-02
-9.036228115162506236e-02
-7.110950937533305760e-02
-2.625350239203808056e-02
-4.771632308905621178e-03
-6.373740738040086645e-03
8.593505576505859611e-02
2.242602561100905945e-01
1.941378417217487773e-01
2.539465505148439523e-02
-7.910798866753207537e-02
-8.111975566037077368e-02
-3.672868759349585954e-02
3.349525604851630312e-02
9.622023536923555997e-02
1.334375643885463147e-01
1.797485773466899195e-01
2.264004882287614928e-01
2.017116533948224988e-01
1.077667438773154407e-01
3.877716616433676822e-02
2.897170921899706875e-02
2.435265516762974772e-02
1.427985703502419185e-02
3.335254864032270727e-02
3.707869808736655864e-02
-3.371540772010435394e-02
-9.000507805157181851e-02
-7.017021182018556846e-02
-1.402314437190957941e-01
-3.468900879069262144e-01
-4.557782784658805930e-01
-3.936871927158872575e-01
-2.676667101771078028e-01
-1.356075977628747875e-01
-1.438405042371080356e-01
-2.480407596793203218e-01
-9.525175313864434057e-02
2.318290067016559042e-01
3.219769352514199046e-01
2.515887362617336143e-01
2.623247217757125327e-01
2.445778048753589617e-01
1.036358867813979567e-01
-3.008925419240407462e-02
-6.488954659952833603e-02
-4.695368653057412078e-02
-2.555648654492930633e-02
1.125690336486544554e-02
5.942695627291678939e-02
8.942027380684670901e-02
9.086679069026334932e-02
4.520940102819993173e-02
-2.379070795353666404e-02
-5.014017883360357558e-02
-5.859392963355892353e-02
-5.721256039663968895e-02
2.905540826103565274e-02
1.102809344564402161e-01
5.004003428166993450e-02
-2.542321997304524198e-02
2.105952710587637167e-02
9.970494700978314861e-02
1.208890640129379468e-01
8.551419855644602774e-02
-1.685999836284714920e-02
-1.360263179478049533e-01
-1.549904176824378754e-01
-8.443108845189317702e-02
-4.335335377413904179e-02
-3.475185462327667202e-02
2.051136276386741203e-02
8.737591014587697824e-02
7.716596734238836963e-02
1.856424477932599668e-02
-1.209892911465264287e-02
-1.959241748610799499e-02
-3.128625764692474082e-02
-4.003618286653160691e-02
-4.124621501009764074e-02
-4.050866342382469093e-02
-3.070572512079847508e-02
8.698406855515494057e-03
5.817409946068102106e-02
6.204256722959414216e-02
1.119224191352817185e-02
-7.173353084191338991e-02
-1.154487700561808161e-01
-3.371684138659940960e-02
4.380750251757715291e-02
-5.111164472166672412e-02
-1.546881316825461095e-01
-8.337380588506543289e-02
4.385677352815522262e-02
1.031004525701948171e-01
1.221515583752939005e-01
1.151545701126442667e-01
5.835968516077416623e-02
-3.499119902722913622e-02
-9.790353904274501362e-02
-7.906492913214857587e-02
-2.289915486919743767e-02
5.846563635849928199e-03
2.573269982600931427e-02
6.214817371055419981e-02
7.381544979017268249e-02
5.180573634419908396e-02
5.076038302458279333e-02
4.821745175186033933e-02
-2.745227756234851907e-02
-1.043698813618591376e-01
-7.459340617600290768e-02
-8.205828917904157277e-03
6.588600600265424184e-03
1.328105007248041661e-02
3.780706205385408331e-02
5.874332927795307413e-02
9.457266695693788972e-02
1.222576311062604781e-01
6.264462141806625972e-02
-5.193222219134319834e-02
-1.060600708146223620e-01
-1.026396821399192666e-01
-1.103232911713183800e-01
-9.662289417309263828e-02
-1.133101663772421303e-02
8.633213627083784203e-02
1.154452794667061577e-01
8.511044386985086585e-02
4.319061166812396269e-02
4.903253640951182532e-03
-2.712609945607823841e-02
-4.961269968428375088e-02
-5.462283603747437183e-02
-2.461372325302467121e-02
1.382216054089797919e-02
5.638109505195342680e-04
-5.205967590524739064e-02
-6.650850807595069802e-02
-1.341530001271682912e-02
3.019877085382237716e-02
-3.391803794114174597e-02
-1.147979388819636293e-01
-2.085396193589603153e-02
1.256560767634164466e-01
5.675667377784690548e-02
-9.131770135342034966e-02
-5.804167485147505856e-02
3.844067859342441967e-02
4.512938087148248012e-02
7.223694462012895945e-02
1.470550373169907943e-01
1.083205271982218276e-01
-6.830045881890962900e-02
-1.997509020614098296e-01
-1.719078200002228107e-01
-7.143901990070802843e-02
-1.156156091281745815e-03
4.829599706140862148e-02
9.197831942704562391e-02
1.033615123941198088e-01
8.950924162864208611e-02
6.664754212300673386e-02
2.693233874936605196e-02
1.170890844821794244e-02
3.195190759675770042e-02
-2.696090443727010982e-02
-1.501036297150608045e-01
-1.338770389422692941e-01
2.131787345432347228e-02
1.001705023634865965e-01
4.394836633058149533e-02
-1.050093399313812778e-02
4.586008348274007301e-02
1.204677614653432982e-01
2.405570846324763673e-02
-1.477049921865828674e-01
-1.197253372760349599e-01
2.447732092448602972e-02
4.328767865183397179e-02
1.588462808608262153e-02
5.202250069067349686e-02
6.651348564155298848e-02
3.953807071492253244e-02
1.137162671250734058e-02
-2.550733585159734029e-02
-4.098267050096119496e-02
-1.486884215705698911e-02
-7.673982916309456028e-04
-3.877267467992630973e-03
2.778664770406726048e-02
4.779551180152764173e-02
-1.290832861258562302e-02
-2.599224705549173231e-02
9.453296260521980299e-02
9.779134862291369301e-02
-1.174534323313477790e-01
-2.295631708753831657e-01
-1.384563052352321133e-01
-7.867482176411325079e-02
-9.729865486950284303e-02
-1.100000724972836491e-01
-9.892712243558596241e-02
-4.324905827978064998e-02
2.419788763591162670e-02
4.292492062916408030e-02
2.414312708206699243e-02
-1.160178517163504286e-03
-1.561418131494799084e-02
-2.979458847093778215e-02
-5.575081949753097482e-02
-4.253617553463188289e-02
3.961993559479698446e-02
1.283512061689689732e-01
1.557351687814025609e-01
1.269982388736808632e-01
1.131254019292060597e-01
1.486414719216195834e-01
1.746958559445809522e-01
1.664833297458226946e-01
1.693787719400796365e-01
1.563511748844904348e-01
9.794366044579747022e-02
1.041126214490489255e-01
1.739038414865423932e-01
9.206173076169428537e-02
-1.142361112185459326e-01
-1.631495036773261409e-01
-5.897367075642657996e-02
-2.185843892215078021e-02
-9.265753998648476597e-02
-1.998775562469677636e-01
-2.986662032100619868e-01
-3.551945453414304676e-01
-3.583166577441812550e-01
-3.149778596778767259e-01
-2.466129894706115266e-01
-1.625869570202242431e-01
-1.597154050038500361e-02
1.600525504253058062e-01
2.373413646378323694e-01
2.537859110522568962e-01
2.709967985962408177e-01
1.686452095153498920e-01
1.056774332042632186e-02
1.544725171141607054e-02
9.640008747003951661e-02
8.470714107913626667e-02
7.260462763501449035e-02
1.224845592033088210e-01
1.021677415412744760e-01
-2.590205654180474659e-02
-1.350025499019314457e-01
-1.337476569563494366e-01
-4.612598379804563192e-02
-2.272114969038220578e-02
-1.528511843278985427e-01
-2.283239448870957033e-01
-7.879160268144985713e-02
1.022505938627593230e-01
1.449242989992569897e-01
1.300409151861160462e-01
9.286836952786610422e-02
-1.106928139490615318e-03
-1.073882798450181697e-01
-1.791557385905020172e-01
-1.432445114631984706e-01
5.265942352165133705e-02
2.124100108501892070e-01
1.478485953412743137e-01
1.777581292029079343e-02
-2.063539102343429216e-02
-4.772102854442258901e-02
-4.340660573959037594e-02
8.496067445450167233e-02
1.563562108870875655e-01
1.345775492154991856e-02
-1.192812477134160692e-01
-7.693576940700397326e-02
-3.636503416594520643e-02
-5.639079411102450312e-02
4.817548499414708169e-02
2.282795221901914862e-01
2.203303781093010616e-01
5.195700579783828210e-02
-5.685622457459740819e-02
-1.003512126791120951e-01
-1.464106033553179698e-01
-1.467083980942395227e-01
-1.019651501863538812e-01
-6.575744942171224405e-02
-5.498992900695982497e-03
9.081436644052359730e-02
1.279222613774116668e-01
6.693937890325743489e-02
-7.770363558930978506e-03
-4.070491192937043118e-02
-5.484478250624834350e-02
-5.627403295983707948e-02
-3.656512700685960598e-02
-1.465849088109785932e-02
1.242441103954092067e-02
5.262434744667930653e-02
6.865025372476091237e-02
6.248627744785868743e-02
5.502661890482712231e-02
-2.799098945961991242e-02
-1.586882536631830376e-01
-1.201904379427347624e-01
5.021745419384742587e-02
3.788537816361987193e-02
-1.259099095631217025e-01
-1.219256811500399051e-01
3.295654115836107317e-02
1.069993731702095358e-01
1.033889416116799409e-01
1.118040235825120549e-01
7.292488608189469368e-02
-5.344352924155024165e-02
-1.543014998047159692e-01
-1.336664168170496880e-01
-4.656192877492167093e-02
1.993781815594210249e-02
5.349184110335289399e-02
6.246209086847029357e-02
5.374551516027949172e-02
5.240200871800780591e-02
4.301762611235370598e-02
-6.087901785928816548e-03
-2.079906395156284893e-02
4.985162604836188699e-02
6.621072182596617062e-02
-3.540151193088431070e-02
-8.999952849006949418e-02
-2.827026202435416885e-02
3.873144593859133983e-02
6.014089636720809651e-02
8.103431779745733088e-02
1.136572643131288501e-01
9.380310686594682534e-02
-7.670630277733013133e-03
-1.013187918323370657e-01
-1.156307313383988511e-01
-9.365631998670720382e-02
-6.954716977328964655e-02
-1.682293488827208208e-02
5.079412847472895148e-02
8.098374563848285967e-02
6.856267530636445118e-02
2.868384214405834964e-02
-4.520073639372873542e-02
-1.187731140076672270e-01
-1.246260982407711299e-01
-6.488063994345984187e-02
5.884425273506050692e-03
6.092245380286273604e-02
8.179875686136511836e-02
6.308082836887786427e-02
6.583574726434950064e-02
1.142370893775767893e-01
1.067759024376166571e-01
-1.818052566198717634e-02
-1.679570290491409490e-01
-1.979631076986152483e-01
-7.698520841889533450e-02
1.929551707878286379e-02
-4.899757884099374683e-02
-1.291179919281033872e-01
-5.880009508265939683e-02
7.178274885887379886e-02
1.364841365079559887e-01
1.355402993436740644e-01
1.012152503403611070e-01
2.152364219402523940e-02
-9.524558079560775659e-02
-1.518264691326066118e-01
-1.009907754824820314e-01
-4.500361069104875933e-02
-4.795853350205822596e-02
-3.148574598867918961e-02
5.697854169705723199e-02
1.275507206705295271e-01
8.711924257477463018e-02
2.490272694502171369e-02
8.580522385257381701e-02
1.750000700849994595e-01
8.254613916739582391e-02
-1.050529517378458871e-01
-1.350961275238843629e-01
-3.507155238564788752e-02
3.261800264788105447e-02
8.474116130359658772e-02
1.261022707188892145e-01
7.766293967564358303e-02
5.705285395437229012e-02
1.701637443383333392e-01
1.363822546168999561e-01
-1.923279783024447465e-01
-4.114499397110668588e-01
-2.655971298399530944e-01
-2.360063154741153316e-02
9.558269373585287498e-02
1.393051563721499908e-01
1.256539162077159877e-01
3.242182155742185518e-02
-5.308640444212280041e-02
-4.559419678126250264e-02
-6.693932122895001995e-03
-2.031874417574924124e-02
-4.254158804637460378e-02
-1.133303658250614347e-02
1.403203637817674286e-02
-2.347024390394506638e-02
-2.956960400833438807e-02
6.996157387688996254e-02
1.142397994259814475e-01
-3.450192568900305179e-02
-1.813196928295527088e-01
-1.620941571960977379e-01
-1.232855293118251816e-01
-1.232778472586086027e-01
-8.456347558009691401e-02
-7.989136558949036515e-02
-1.102476823016043522e-01
-2.133169618765787950e-02
1.466072513776239539e-01
2.034172782621765374e-01
1.264678418888923184e-01
2.827695995641078125e-02
-2.987128022533431723e-02
-3.915069629302261184e-02
7.861248892125083376e-03
8.567255300279404129e-02
1.607931459896918824e-01
2.263654244383377090e-01
2.088576164595752627e-01
6.628137869475940469e-02
-1.129515282914342680e-02
9.647103029063219815e-02
1.896993909959410196e-01
1.667052419611610714e-01
1.539433623202973167e-01
1.162471878411119180e-01
-2.314667048099047081e-02
-1.201195767488458660e-01
-1.495107704660935677e-01
-2.384942632188614131e-01
-2.655675741945661139e-01
-1.343599988530677358e-01
-5.877704334074709130e-02
-1.086282423606391434e-01
-1.567156031694881269e-01
-2.321752360875345700e-01
-3.042969086056187544e-01
-2.042911968764883901e-01
-4.472743072050067159e-02
-2.655207910358002577e-02
-2.305798629044286674e-03
1.513860698588887777e-01
2.565469970024847335e-01
2.340641616381571866e-01
1.992764232888756815e-01
1.795294083626991222e-01
1.225839157861094708e-01
4.622603267449135189e-02
1.771699503750744087e-03
-1.570155458043927255e-02
-2.843750219342540408e-02
-4.507619417322070166e-03
5.389947148637581897e-02
5.293885923143904632e-02
-2.725761607599345993e-02
-1.130853666916606520e-01
-1.510657279089091254e-01
-6.182537439496930964e-02
5.397540312065854384e-02
-1.078987080619704386e-01
-3.472611328489892402e-01
-1.548441425556526807e-01
2.263892452668143651e-01
2.688768012676666097e-01
1.329698501528137344e-01
1.061371251414611749e-01
4.941129309041945861e-02
-1.010019187278158315e-01
-1.436722818877913810e-01
-8.415190259034097120e-02
-1.274749657942037817e-01
-1.535911823927575970e-01
6.400062847602373817e-02
2.789048217592231538e-01
1.811580593113389648e-01
-5.059666447658275890e-02
-1.113473747915179057e-01
2.422977453656785518e-03
1.086158716738848395e-01
7.507087992027791645e-02
-5.663525739654701185e-02
-7.858331230193973949e-02
7.276250015832884388e-02
1.462563261355315503e-01
3.672434514898585689e-02
-1.482353433748751469e-02
7.731219015497889369e-02
1.220872115650537826e-01
4.241789406038159321e-02
-6.583504601388065480e-02
-1.324263114501946781e-01
-1.538304819157076953e-01
-1.368786568427566019e-01
-7.779506184663662061e-02
8.616098463444878813e-03
8.097793843956835325e-02
1.021393085539463175e-01
6.312645488016904727e-02
7.553303730240667341e-03
-1.454208991890623692e-02
-2.979666082201336622e-02
-7.107395837184389553e-02
-9.024174310631793983e-02
-5.880535520136173644e-02
-3.112713650439155599e-02
-2.100451342588037854e-02
2.022643743641720088e-02
6.058282656277738654e-02
4.021396252522703441e-02
-1.351312465037961437e-02
-9.664943696082728408e-02
-1.655060576475892720e-01
-7.544050459246459672e-02
6.715133008869801634e-02
1.393149000610033328e-02
-9.422008084345043222e-02
-2.773756363898441032e-02
7.510093048552449191e-02
8.571538852919934059e-02
9.916504457590982757e-02
1.280122053540685145e-01
8.805969133043724251e-02
-1.838399857827201916e-02
-9.975550375294230110e-02
-6.388058104575217166e-02
4.841930053878432116e-02
8.775517260432413869e-02
4.498000923407607932e-02
4.837297950489383852e-02
8.776022218065207547e-02
5.911268413544849831e-02
2.383452259456542155e-02
6.906996075578143712e-02
5.866229569832967505e-02
-9.651760008489795872e-02
-1.956821663739562733e-01
-1.219449505850198345e-01
-2.886441468824319997e-02
6.874676672688141005e-03
4.033841633872563281e-02
7.055357595052796915e-02
9.948369096205825213e-02
1.251231649917917410e-01
7.043270584083781427e-02
-5.912829800048183260e-02
-1.377948791715498389e-01
-1.256333853799780353e-01
-8.536675776747849886e-02
-4.126468716269502540e-02
4.268000212146747310e-03
2.928366656136407314e-02
4.341426700209552458e-02
5.710987882968804330e-02
3.577401968862342629e-02
-2.139805814601287298e-02
-6.185911513203736639e-02
-6.488730233143800985e-02
-4.066778230953861650e-02
-5.409786324109192371e-03
-3.492613145795329249e-03
-3.650805357155954139e-02
-2.593265555552928814e-02
4.309227421977931266e-02
9.019566537816001150e-02
6.587643601419221340e-02
-3.693671850170842513e-02
-1.417601975861656205e-01
-8.496265858078658195e-02
7.342609612071378244e-02
6.257347406648332278e-02
-7.888958573409962649e-02
-7.497781005607047355e-02
5.447283856166817984e-02
1.257251760327746659e-01
1.294242062217338951e-01
9.653377464410022035e-02
1.764935579718307848e-02
-9.525786688622928100e-02
-2.182708151056233226e-01
-2.454137037132144705e-01
-9.643279861612097381e-02
8.669201436268804406e-02
1.569584095187550599e-01
1.679428214463373203e-01
1.666756537008967920e-01
1.102752744759196435e-01
3.241051879795927432e-02
-6.638007172276669948e-03
-2.506296920785881788e-02
-1.829613394302088969e-02
1.809529602598827086e-02
1.349445429523984941e-02
-4.022771296294894855e-02
-5.246437024663529181e-02
7.158187042333900157e-03
7.536630834248543576e-02
1.137576924458966604e-01
1.081912972563461028e-01
1.564586171889941618e-02
-1.096617074514942836e-01
-1.439361304176223766e-01
-1.224402991231618165e-01
-1.370747585575890215e-01
-1.265326812184507654e-01
-2.266518149707502303e-02
8.236392902282996253e-02
7.449587756511538705e-02
6.719264635495873772e-03
-4.039156438279251776e-03
-3.577260224499659823e-03
-7.940162551069086805e-02
-1.095502189437711354e-01
1.978985484463617259e-02
1.291526172776932269e-01
5.456478930472814098e-02
-6.492868561591509657e-02
-6.673470799814294752e-02
3.758087481252034290e-02
1.422799194808210821e-01
1.080529292638413297e-01
-4.875474554294789709e-02
-1.484245315960105449e-01
-1.440460694815483000e-01
-8.724802562914489579e-02
-1.289073071423333001e-02
-1.766715708221230571e-02
-5.632811727000049118e-02
2.718026088832416198e-02
8.213432506801900124e-02
9.707375989822426138e-03
1.627228413504230586e-01
4.747886573787166720e-01
3.211838481118718391e-01
-1.173772318803449899e-01
-1.358202505242497027e-01
4.917233157792445797e-02
-2.896759691667807543e-02
-1.049936363076288959e-01
-4.656228255269581617e-03
7.836893243102870457e-03
-8.176645775029743601e-02
-7.319288308459082071e-02
5.871128861831229409e-03
9.315836363923747990e-03
-6.867659746836690671e-02
-1.313798979070822381e-01
-1.176914452124390026e-01
-5.907450322507796364e-02
-5.235835947314998462e-02
-9.803067324789195569e-02
-5.087973000611609176e-02
1.036025185531468940e-01
1.751909420066460332e-01
8.097228209400508803e-02
-6.642795516853407245e-02
-1.536259849628660856e-01
-1.554532869153224806e-01
-1.189212402743714952e-01
-9.708689183713917203e-02
-4.937549939870135990e-02
7.679913902380036683e-02
1.823579580814007062e-01
1.551851203455600070e-01
7.627605348528178342e-02
6.155933623833351187e-02
6.839506053091826132e-02
2.665408109690997271e-02
-2.048076299910827486e-02
1.257184493817838783e-03
8.177076569036084708e-02
1.324561050256115868e-01
1.578489990729684544e-01
2.823108891753102201e-01
3.891154441346530990e-01
2.077283338444593785e-01
-7.735620473438439837e-02
-1.275550672446834066e-01
-8.847744422545275600e-02
-1.353650587241000125e-01
-1.609557884137591266e-01
-2.033081101030802806e-01
-3.061083558602204491e-01
-2.772895389788635478e-01
-1.025869744170363890e-01
-3.315088727041282102e-03
-2.987443665279292115e-02
-6.896795902221335151e-02
-8.067456686051566184e-02
-1.055066387093197139e-01
-1.434211407214929235e-01
-1.159446531582657425e-01
-6.430467576878984293e-03
8.882889517959530190e-02
1.499852446805091111e-01
1.988821565952932358e-01
1.244049307952784372e-01
-4.273130557274477243e-02
-4.401981388589139288e-03
2.476834481981408931e-01
3.239796784512325445e-01
1.161414177789980573e-01
-6.940737701561752737e-02
-7.130312413258298176e-02
-2.644390715441383155e-02
-4.213319515420141381e-02
-6.772832760600498714e-02
-4.700342672006851963e-02
1.022661271594640237e-03
3.342504160835452209e-02
1.915063302309010992e-02
-3.541888932053387923e-02
-9.445077871189401508e-02
-1.376470199113958293e-01
-1.032514597384719124e-01
6.153384246430630700e-02
1.937970532606879681e-01
1.225768697753311931e-01
-1.731838479595293467e-04
6.716568581675335520e-03
5.028043918100505438e-02
2.138250002783469161e-02
-2.503088229672780635e-02
-3.950844154690454080e-02
-4.832751213287215380e-02
-5.290537178014931285e-02
-3.332016798853344036e-02
-8.265023515854350369e-04
4.078421013113308485e-02
8.110963213277860850e-02
5.720379505691707001e-02
-5.445556931110656640e-02
-1.472266629139455940e-01
-9.361817551200400656e-02
3.746302150881140880e-02
3.310742820596364322e-02
-9.594152678775764997e-02
-1.173944311879294988e-01
1.985716483406101823e-04
9.046666164635315532e-02
1.108508167967696412e-01
1.089968562917457001e-01
6.609765312673679394e-02
-3.031775782264379063e-02
-1.067789585400321095e-01
-9.721201550434600824e-02
-4.472675608178908885e-02
-1.086692115096359566e-02
3.053156450785351333e-02
8.584867480429705933e-02
8.740284151511135136e-02
2.949163529839416570e-02
-1.940264054322731954e-02
-2.940724264384940792e-02
-1.779064288402197602e-02
-1.793565101431838713e-02
-3.170284019109745333e-02
4.916013560334924620e-03
6.297191329729553977e-02
2.109366916641552958e-02
-5.642523417943128006e-02
-2.287484089405824803e-02
7.379944867824868304e-02
1.122655319531674772e-01
6.403673264319448277e-02
-1.986514280776321625e-02
-7.492492455091070980e-02
-9.853476976693587019e-02
-1.063044527569776548e-01
-7.249440102082994886e-02
-3.042828210622921040e-03
5.680478526546462598e-02
9.643558083936912273e-02
1.028611708869711650e-01
4.813509620511884080e-02
-1.782975762670440528e-02
-2.300246133285594255e-02
-1.978050064123496737e-03
-1.230413744826024634e-02
-2.789738239210070095e-02
-1.689663717921929126e-02
-5.265696627058228958e-04
2.863900071336780619e-03
1.213071941936729597e-02
5.079358727524767303e-02
8.037724573991443522e-02
2.506867433920098934e-03
-1.557505212490333524e-01
-1.752927865354712844e-01
-9.554634207708540689e-03
5.986925738982681877e-02
-5.968468686826700065e-02
-9.651443653088256913e-02
1.880861800977653639e-02
7.738024658283247648e-02
7.302263941110286039e-02
1.051396068947353102e-01
8.004172923144979579e-02
-4.056266183111134627e-02
-1.138662672915966706e-01
-8.826623388013329907e-02
-2.544987518585253850e-02
4.576398684420233259e-02
9.261867630111297878e-02
9.264214770050004100e-02
9.042949354259059713e-02
9.407450894063817959e-02
4.853107574254576784e-02
-2.831691918965150920e-02
-6.197972883449659465e-02
-7.609154862191622182e-02
-1.443778805649696961e-01
-2.146512484723520908e-01
-1.819190851885613691e-01
-6.563999936272602032e-02
5.531820183857329848e-02
1.407989184423385221e-01
1.750500742618639471e-01
1.892881198754089722e-01
1.910393981263938390e-01
9.480582195457676331e-02
-8.445684693929980669e-02
-1.782135387312255570e-01
-1.353034327005463722e-01
-5.916300614834800464e-02
-1.061443659074720082e-02
1.432948250695796968e-02
4.770847757678964990e-02
9.586907039949565945e-02
7.471026035898181705e-02
-2.158846774641754590e-02
-5.000047772945877267e-02
1.021784011378333926e-02
2.764143667537891091e-02
-1.071866115737145006e-02
-2.270947350868798495e-02
-2.558349827714797436e-02
-3.813190163970398699e-02
1.255961492839343177e-02
1.011438994138267600e-01
1.100358625913857857e-01
4.150932592308471947e-02
-6.905664493079222144e-02
-2.222444195502848718e-01
-2.837412318094030272e-01
-1.354034007929886818e-01
6.958895765355087304e-02
1.311861894920253735e-01
7.163099258090535604e-02
3.145608410090208057e-02
6.360283928188213698e-02
9.810537748628765653e-02
6.972089054714791789e-02
-7.108671289860087755e-03
-7.269922558103013299e-02
-7.031936878387151646e-02
-1.812504572424835161e-02
1.521217453660148392e-02
3.257783934441869228e-02
7.010974780848107379e-02
9.005535082717014417e-02
4.847412828485503367e-02
-1.441956552723141008e-02
-2.021357751783191617e-02
4.706128076744325178e-02
6.690719271139483615e-02
-4.780054731667805756e-02
-1.185735134997676909e-01
-3.907963343813353890e-02
-1.417376194809936117e-02
-5.541585616429116345e-02
-3.904866573261403517e-04
2.683090282014100048e-02
-3.737184135811779523e-02
-3.176092105388133441e-02
-1.915193967893324967e-02
-1.239906096563043181e-01
-2.013736877346393450e-01
-1.371758781415202411e-01
-5.030975474296699862e-02
-2.589956822269807654e-02
9.103270314329586776e-03
7.520511650345605703e-02
9.853874128464200355e-02
8.701532419722839140e-02
9.117766721795123042e-02
8.879476319496107384e-02
6.321506804934481916e-02
4.319607821520771856e-02
4.428765859692881252e-02
6.881424549145527536e-02
9.840184196529724869e-02
1.106375311937060624e-01
1.736381847863093797e-01
3.219004697371283252e-01
3.470251698861366307e-01
1.253688327715833106e-01
-7.781167004638497864e-02
-1.057145599999105290e-01
-1.221630316000514999e-01
-1.479901660331150171e-01
-1.559221222792995798e-01
-2.677784565125297944e-01
-3.691764251823056453e-01
-2.382554186916787664e-01
-2.533570541669112955e-02
2.178952170321251519e-02
-4.371587634771580827e-02
-9.044256548257655071e-02
-1.399143258503589282e-01
-2.030976170943115944e-01
-1.924300960165713781e-01
-8.001313812855515017e-02
5.896484116535698206e-02
1.564302303399779936e-01
2.044814981216539485e-01
2.255998615257905626e-01
2.234850659875586842e-01
1.933237199813119811e-01
1.518967552179557867e-01
1.030620214192933121e-01
4.802754668643412911e-02
6.788088450720677208e-03
-4.439840687904616362e-02
-1.143787057513465932e-01
-1.158025446990958301e-01
-1.763905381270177569e-02
5.690062581848937678e-02
1.975144588276325948e-03
-9.293530332034959096e-02
-6.180644268202448166e-02
4.997518511225351734e-02
4.513206664939437701e-02
-8.058038008485628179e-02
-1.401502448594117434e-01
-6.215466592330040618e-02
5.207310324578594968e-02
1.062030201206314028e-01
8.540824288792923935e-02
3.323611636953727189e-02
