-1.270662818349879708e-02
2.002174756594272964e-02
4.005809314733990711e-02
1.173922872077230728e-02
-1.040138663179357437e-02
-7.956826606875922955e-03
-6.535975082687888946e-03
2.425385396120510739e-02
7.733898054472609918e-02
4.181825045730799828e-02
-6.208843643965062525e-02
-6.934047170625698420e-02
1.225434312763874420e-02
3.831562448965792483e-02
7.957209066737757491e-04
-3.242416147106478436e-02
-4.817254645677980507e-02
-3.532325422974209872e-02
4.363372996309124521e-03
2.940116313503516113e-02
2.278182114293093863e-02
-5.725200682634642990e-04
-1.161069343897888975e-02
1.217493746076898226e-02
2.159904835571592810e-02
-1.503389825352040299e-02
-9.628930373308551560e-03
5.213372704097849614e-02
5.937818521946697931e-02
2.724971757932057037e-02
3.901537116103932779e-02
4.718393484892799417e-02
-4.588707032306555030e-03
-9.772152685674870276e-02
-1.664845821428295458e-01
-1.021555409573468992e-01
5.157360116306320547e-02
9.385677190682051307e-02
1.797028559141051335e-02
-2.201643840691192358e-02
-1.993464568453501284e-02
-4.007211190832658115e-02
-6.096765006875415338e-02
-5.315726003920039078e-02
-2.619967246369699770e-02
-5.287277354619345122e-03
-6.713503728016902844e-03
-1.701769347708325872e-02
-2.362878442293702211e-02
1.910481776427673528e-02
1.511208207715398766e-01
2.029194783088670295e-01
3.700375735452560155e-02
-9.320735258310902660e-02
-3.177785228034725462e-02
-3.595150181916415694e-02
-1.213768892776730668e-01
-9.895963787027985126e-03
1.572822570143152521e-01
7.681519417556825768e-02
-7.298358235472748867e-02
-5.169830612316866220e-02
1.363638617201393816e-02
7.367041068557690295e-03
4.385135710363944825e-03
1.993532059767486389e-02
1.953223035458088747e-03
1.175053976242045398e-02
7.354796307685224077e-02
3.518139962810484106e-02
-7.046232561531758087e-02
-4.095429749669363129e-02
3.424488658236882199e-02
1.474890340685000925e-02
1.229595990948552028e-02
3.997382311349249179e-02
-1.441720915414672344e-02
-6.260692658097433139e-02
1.355175334924206207e-02
7.825213108305895116e-02
5.201062104002177749e-03
-6.386379046480929189e-02
-1.213000253932632402e-03
8.660771466783555306e-02
7.424680575303344021e-02
-2.383948286010521139e-03
-3.244164059746235812e-02
-2.464106076326240055e-02
-1.034052184345397724e-01
-2.254759184628227775e-01
-2.172516793196049290e-01
-7.051205989605716096e-02
1.463834720438724202e-01
3.177185961569488071e-01
2.256339275233221753e-01
-5.774736005564230779e-02
-1.822318604074478210e-01
-1.035601574228962457e-01
-4.532391205001774781e-02
-5.932312235197920169e-02
-5.595315655638437302e-02
-2.304927206337347573e-02
-1.950015692243831783e-02
-5.460431307790912514e-02
-6.087847986232231695e-02
-2.319524025342215023e-02
-3.154922067236601985e-02
-6.206353088644889909e-02
3.593366358853460063e-02
1.304510200200561798e-01
-3.173404353757073443e-02
-2.254233994493656246e-01
-1.310717053972851043e-01
7.451469286161424566e-02
1.423529855353696250e-01
1.084659261748972259e-01
7.500450229278854408e-02
1.018870926844102076e-01
1.668845512763807992e-01
1.933686885024010205e-01
2.250035608291898748e-01
3.193920260743384198e-01
3.682939565084493716e-01
2.947069788327779105e-01
1.758377496447684762e-01
7.926458784264393820e-02
1.438607776075108424e-02
-3.536119786405509530e-02
-1.115433875183136220e-01
-2.040886399901322423e-01
-2.566716772997593154e-01
-2.792293536833784784e-01
-3.091813878068987997e-01
-3.187555601758579882e-01
-2.921251067933584022e-01
-2.621014274609233530e-01
-2.176314270068040180e-01
-1.382170517396781317e-01
-5.300560261673946394e-02
6.604558562264398192e-03
8.137343301892030478e-03
-1.787627458891404009e-02
2.670022103165701349e-02
8.691596203271495513e-02
4.915136927965241959e-02
1.920198574814533515e-02
9.104543147986216001e-02
1.428537122868414888e-01
1.273240102475894087e-01
1.351587722316403839e-01
1.409805116128526603e-01
8.925016001993178738e-02
6.251873744916504327e-02
5.388803698910202278e-02
-5.455188970873539600e-02
-1.420076796276931452e-01
-3.903569637144802679e-02
8.542614002889506453e-02
6.361282224055611612e-02
9.668928689223078160e-03
1.457378690550769490e-02
3.836280837735488169e-02
5.390272865693625237e-02
3.968504908372515877e-02
-6.892533653947477065e-03
-2.935038428323288873e-02
-1.580607848104853899e-02
-1.217911987241342489e-02
-1.445019483642708338e-02
-1.706445986507418647e-02
-4.055452291823862659e-02
-4.506499487114230124e-02
-3.922207807378985320e-03
1.849121254448576196e-02
-1.884301198964036250e-02
-6.387462594339535227e-02
-5.558586193245615426e-02
-1.365343427871113305e-02
2.954358672273288064e-03
1.661439822168517960e-03
3.280012553823193587e-03
-2.621120749196602026e-02
-2.785518760718373732e-02
8.813035045924424993e-02
1.592759648381590620e-01
3.870464383373262152e-02
-6.680576675562957534e-02
-3.420232466529436743e-02
-3.244508657509043853e-02
-4.472344023231589194e-02
7.061220809576973512e-02
1.687591745822100975e-01
1.095873638489879565e-01
3.116185677571654822e-02
1.023908443844964364e-02
-1.746843157369352972e-02
-4.091120621207510605e-02
-6.255318139332081973e-02
-1.238325602117438945e-01
-1.463014605728535089e-01
-6.666926557609247073e-02
2.048455547449769959e-02
4.819046877064987050e-02
4.146798712915956975e-02
1.880014875358830898e-02
1.609675989645944702e-02
8.658736836724875360e-03
-9.656902784768203740e-02
-1.923410898199662822e-01
-1.040911789671840615e-01
3.571728025620030111e-02
4.095964329313735164e-02
-2.882514328788162578e-03
1.813534947894492391e-02
5.599433272710971354e-02
4.623177463631848727e-02
6.878036310640898987e-03
5.591285387556405029e-03
5.703379921166597255e-02
5.408373362080483304e-02
-2.434607770904356761e-02
-3.395600837200148103e-03
1.057646370113648066e-01
7.620279448581770976e-02
-4.049874512915598718e-02
-3.912335306524969414e-02
7.949166016685466074e-03
-1.922516261578256433e-02
-3.337124486741413487e-02
2.034559032841502454e-02
5.630842970432350242e-02
3.121774981181512504e-02
-1.574272740253175942e-02
-4.349606768459922390e-02
-3.241383860363765412e-02
-7.472990446138116569e-03
-1.615856754028734566e-03
7.374924000570913692e-04
5.535497340469899136e-03
-4.440836559705982171e-03
-1.479730330699343885e-02
-1.435159794507883529e-02
-2.810246024616106647e-02
-5.867875781018645764e-02
-3.169174663677429976e-02
9.164545777410613991e-02
1.759423694600404375e-01
1.311083666577223805e-01
7.955316026240683014e-02
5.411600066555492111e-02
-2.943616500814672313e-02
-8.896185347729879123e-02
-6.917952173339429744e-02
-9.990938798878293281e-02
-1.619701044231721121e-01
-9.934520198345250797e-02
2.757636513445969190e-02
5.646707683867960292e-02
5.489732884411523822e-03
-1.516293415693534090e-02
-4.513187963848534941e-03
-4.904716758435212487e-02
-7.612098076401423163e-02
7.206884294044013650e-02
1.859276956026480743e-01
-3.430560067950137737e-03
-1.914035976154683794e-01
-7.717356276057003861e-02
6.642047505281165054e-02
3.172776606996439291e-02
-2.998518928276711071e-02
-3.506284800844945704e-02
2.908778718427843142e-03
6.198791457671882360e-02
4.085967379527966070e-02
-2.590954743250312164e-02
3.044110963048987303e-02
1.196350858574996984e-01
6.243507923362802414e-02
-2.366742513158183805e-02
-9.612104886463711251e-03
1.189813783219856314e-02
-1.483348494359867584e-02
-2.678773467953297210e-02
-3.678924600547930912e-03
1.310964358417338743e-02
8.914257142757195038e-03
7.349554529209817791e-03
1.443010812480157931e-02
1.247976028501453401e-02
1.594284977745619516e-02
4.456695470141575771e-02
4.352793553725209375e-02
5.451407674926652888e-05
1.431837980918950620e-02
3.312455729729411186e-02
-9.101386603580602364e-02
-1.999923237443191892e-01
-1.059055380976431093e-01
2.681943169769211710e-02
5.700994248961821498e-02
4.608853997339075470e-02
2.646405791266482482e-02
2.276012844768982718e-02
2.821030310654270429e-02
-1.477830860478933361e-02
-6.494676490771554567e-02
-9.798634234715480895e-02
-1.295004358925056775e-01
-5.339890158527529906e-02
1.038331720484660659e-01
1.260955830761082974e-01
3.103644408695908213e-02
1.399737841178716382e-03
2.526540557609584584e-02
8.849396743735686577e-03
-2.292679613312373701e-02
-1.991335351834296052e-02
3.686403153232093236e-03
2.803868037249655429e-02
4.671480383612987286e-02
3.839434928784674766e-02
1.053487690773406704e-02
1.135796170272643582e-02
3.548631712043794767e-02
2.213829116657851578e-02
-7.486278807053457773e-03
1.447329833180695420e-02
2.981992182956613724e-02
-3.814589102041383156e-02
-1.083018629254695747e-01
-9.854357709167024804e-02
-5.728085436074092235e-02
-3.182554710097200423e-02
-7.845034934569165841e-03
1.705479265118405724e-02
2.500515792331632625e-02
2.120044800218111314e-02
2.568741266482504892e-02
3.745393282902408083e-02
3.423664661328765929e-02
6.003630742603681923e-03
-1.505363441270229224e-02
2.702705199837369433e-03
1.823765450655903675e-02
-9.868054213579413939e-03
-2.236004446527118175e-02
1.803740924055247108e-02
3.161873646405508748e-02
-5.243092374522505435e-03
-1.242462324964801849e-02
1.043719282485098404e-02
4.081031757246894251e-03
-9.720407001997874441e-03
5.361088449845513235e-03
2.882193648065288841e-02
5.333549891679544019e-02
8.017516912197585055e-02
6.292372263349697847e-02
-9.667377557125477264e-03
-5.908391626073732084e-02
-6.007753023645796830e-02
-8.314695375375490138e-02
-1.175770921692826515e-01
-7.665544508093011244e-02
1.013664889664584422e-02
5.116164743851330660e-02
4.969389343491076305e-02
3.356921200497649249e-02
-2.013007647947279849e-03
-3.009905334088621917e-02
-2.529372205264370302e-02
-5.239182387648400573e-03
1.434530060823927151e-02
2.196223917453713273e-02
1.102987619634488228e-02
4.302254802986731075e-03
1.431965410872795656e-02
2.047432296698521725e-02
8.408213314406703248e-03
4.274020160988569600e-03
3.881740481618652094e-02
4.595240129585288769e-02
-4.502042428232935073e-02
-1.230234442898625186e-01
-8.355137300305409687e-02
-2.517818762997472287e-02
-1.692254285812041029e-02
8.659251509769488528e-03
4.917033164358419750e-02
3.592703819297560913e-02
2.360755771356160340e-03
1.595050694547917730e-02
2.824216764462589291e-02
-1.615613437528045510e-02
-2.155654928371036200e-02
8.365833518622137199e-02
1.510301746602867867e-01
6.639575686156433398e-02
-3.282262643794892770e-02
-2.822249911088917790e-02
1.222667132854578925e-02
1.838736293627606447e-02
-5.622412753765661242e-03
-3.628668171563454586e-02
-3.988491437851521271e-02
-1.443972001713461802e-02
-9.793786801633201297e-03
-2.511194419988667728e-02
7.443210822803406589e-03
6.399627645282335298e-02
5.008984454096690464e-02
-9.177739812884841766e-03
-3.883745087934091511e-02
-5.554205910944581825e-02
-7.672984478574644551e-02
-9.127463706476644789e-02
-1.151048468412606829e-01
-1.139912126407907206e-01
-3.320108206811622081e-02
6.121499087960381724e-02
8.676808290341680996e-02
5.983437774988595304e-02
-6.235306015623078707e-03
-4.887903436140819680e-02
4.337601154325922137e-02
1.483456660153246731e-01
7.980877002804176445e-02
-2.312306711093802328e-02
2.028366474416190557e-04
3.688644959207630636e-02
1.173608669587909367e-02
-2.499949285325955145e-03
5.777722035327330363e-04
4.358476564428183028e-03
4.338270154285496505e-02
4.965473433903577760e-02
-4.805071166433388247e-02
-1.064324671610521050e-01
-3.813051280089616718e-02
7.664633981988869249e-03
-1.672752559057084573e-02
-1.485859041379274451e-02
-8.055406314099180023e-03
-3.966443814516824873e-02
-4.601089473917467643e-02
3.408118135500656613e-03
5.347887954190497228e-02
5.037663416168003394e-02
3.036162433112409020e-03
-2.488972615748753781e-02
-7.570133588819022777e-03
1.766994378940116295e-02
3.055652403694918487e-02
3.563667445318445537e-02
1.946770550071666439e-02
-1.955483323311744612e-02
-3.819089349519030896e-02
-1.555148953233344462e-02
4.085078700668019064e-03
-4.298482775120257213e-03
-1.034468315742004957e-02
9.200514674705225632e-03
3.948520878083044972e-02
4.656181520141094293e-02
4.594043748446559328e-02
8.521115768262881029e-02
1.030491862668974079e-01
1.530288912435062709e-02
-8.684455068752627849e-02
-9.508891240477157503e-02
-8.363137292488173613e-02
-1.210887301687332551e-01
-1.117549008699340735e-01
-9.607097269514955698e-03
6.415696736101646203e-02
4.476965108049599934e-02
4.501148695954203943e-03
-1.173076154105556421e-02
-2.147207031005915479e-02
-2.682174868881711735e-02
-1.421338819938495687e-02
1.249300319443799948e-02
3.215230825392736969e-02
2.957267714775115366e-02
1.806607960232578178e-02
1.977928768327318065e-02
2.942022853521645415e-02
3.668176720035604133e-02
5.485659845746712615e-02
6.028549262122728097e-02
-6.828169445970097909e-03
-8.443876363393304496e-02
-4.792071191073929426e-02
3.585230931499049090e-02
2.861565174556937596e-02
-2.848688290016069408e-02
-4.396992742264372450e-02
-3.049914644233399363e-02
-1.871587279486380470e-02
-1.826842420718233651e-03
2.401683885841017496e-02
4.247198977229070527e-02
2.518991951412030347e-02
-2.951645905338665457e-02
-6.786615827345492125e-02
-4.713854100119185819e-02
-3.899436446067080890e-03
-5.228528470053952007e-03
-4.920207515214052030e-02
-3.632717974117910531e-02
7.388796090514028470e-02
1.290294912920287862e-01
4.177655293683267546e-02
-3.092970273247798094e-02
-6.931319547655523383e-03
1.523021525368533149e-02
1.415122684265501980e-02
3.236257023666412602e-02
5.319361191056732469e-02
7.000844137459587280e-02
8.313936629413644364e-02
4.675587401330815601e-02
-2.640611984165167417e-02
-5.196475985783334528e-02
-4.844784901838693897e-02
-9.541104988948333199e-02
-1.319306811779754063e-01
-6.955120495227748445e-02
1.458452891918059040e-02
3.363044893820758829e-02
2.612332579631528040e-02
1.982349941504878837e-02
3.578679773200392142e-03
-2.833026770422320331e-03
-8.288480280543592676e-03
-3.308767677746006497e-02
-3.018974221662239221e-02
1.533350119988233402e-02
3.191457822542095868e-02
2.301109445821040642e-03
-1.884232908360018027e-02
-1.387594853705690495e-02
2.136347510486426987e-02
6.108172726439713152e-02
2.600772352617419098e-03
-1.194814516237504565e-01
-1.076643852315214145e-01
7.150344765353887355e-03
1.063545685858853680e-02
-3.201961172004955808e-02
5.779363335487289893e-02
1.407190961376592053e-01
6.796212634302853384e-02
-4.979891207489458953e-03
1.044230299627350173e-02
9.941159410204293903e-03
-1.716300191246247775e-02
-2.147185685357217572e-02
-2.270885668070100893e-02
-3.032467156101860406e-02
-1.801388962059195104e-02
1.378393210617305173e-02
3.156326293197060651e-02
1.891018423477155985e-02
-5.995138724161879450e-03
-1.348841447438571192e-02
3.142900881664055686e-03
-2.579172265763669120e-05
-3.475783711749949600e-02
-2.896981625622069290e-02
2.566621546569378132e-02
5.132410988257724016e-02
5.160977615387027373e-02
7.750714178559116319e-02
9.986399088158021131e-02
7.123496071574594857e-02
1.200285718665927530e-02
-6.802822220717459969e-03
3.560069042920598406e-03
-8.507237154126251477e-02
-2.219180370205352804e-01
-1.836085702791966090e-01
-1.408971482144823206e-02
7.079240630671235213e-02
6.950203568408509780e-02
6.034314784327463738e-02
3.948325172098687830e-02
3.170293937148092184e-02
3.701232199745334989e-02
-1.448236407146981375e-02
-9.976769119219684734e-02
-1.236629614037986075e-01
-8.304617393843277684e-02
-3.372638817379778470e-02
6.793257208812727987e-03
7.082509260930336392e-02
1.662056171522307002e-01
1.676861854023674880e-01
-1.450722156008711974e-02
-1.853543390917437583e-01
-1.390801162265137836e-01
2.879191917241695486e-03
4.385722448195695372e-02
-3.722979445841337331e-03
-5.264213915149799222e-02
-7.368586859138410994e-02
-4.556874891918274995e-02
2.842273573662381161e-02
8.385222014349622000e-02
9.428974268016529492e-02
8.258143900154672756e-02
3.401582469378760382e-02
-2.324401902162521322e-02
-9.381053937306534779e-03
4.030825832659491736e-02
4.084523381287784305e-02
1.616463507259631449e-02
3.866869816929558931e-03
-1.008762415378580343e-02
-4.862982284813488834e-03
1.979700212834458600e-02
-9.726724194773606058e-03
-7.469305843400014799e-02
-5.683852451386916388e-02
2.587130668678992024e-02
4.988715617759535703e-02
2.061161495639709379e-02
1.991202146651845431e-02
3.923558537248957034e-02
5.173209199007637593e-02
6.332005004195989661e-02
2.933968585292308015e-02
-4.607697769114287023e-02
-7.090049108650549325e-02
-7.778345552284045283e-02
-1.261558039063108705e-01
-1.100126406340140722e-01
-1.294945127526921612e-02
3.404180081968065374e-02
3.779825594194607952e-02
5.886753556164761592e-02
3.771602564448658240e-02
-3.296267819569109053e-02
-5.039018737747780891e-02
-2.445791756414084257e-03
2.039932871485379551e-02
5.615736315112260582e-03
1.080798261828555887e-02
2.549012730445236394e-02
7.783753795806141497e-03
-3.341874594717785321e-03
4.320669513688160657e-02
7.643072335600913092e-02
8.790211868510484916e-03
-8.209770329435094049e-02
-9.501682950444875764e-02
-6.989469879816728737e-02
-4.215276003903140750e-02
6.269973179827793147e-03
4.147551556090070535e-02
3.456594310862846908e-02
7.326731665917616577e-03
-2.360177192115181857e-02
-3.941037144807784526e-02
-1.598217101310623126e-02
3.693872791694911145e-02
8.464360649304371320e-02
9.641323044112644347e-02
6.166656861701701187e-02
1.404053405308315107e-02
-2.228256355221107377e-03
4.527344143446049296e-03
8.760882319756271158e-03
2.382201916533026147e-03
-2.147308543343423581e-02
-1.997086492423500934e-02
4.917694161843690764e-02
7.562810837395399222e-02
-3.579599797279030271e-02
-1.208597056322539554e-01
-5.059396510024184723e-02
2.061684106812413861e-02
2.115216288617868465e-02
6.473542771726223388e-02
9.164964180995542609e-02
-2.227066854284462383e-03
-4.937743829103319326e-02
5.876067771667908141e-02
9.793086841600018300e-02
-4.757263183871143775e-02
-1.457227489599118853e-01
-6.954971251397998322e-02
-9.173617056584416202e-04
-2.889230531169076355e-02
-3.221582839527919323e-02
1.176148518025288067e-02
4.257516607622935378e-02
2.858187414084225816e-02
-8.068222996446174078e-02
-1.677544357453076007e-01
-6.481179180687651753e-02
5.909488621432647248e-02
3.122604339123456405e-02
-4.947174922565487909e-03
1.962339835250549377e-02
1.405667179236624181e-02
2.352893482931094418e-03
8.897485119244872773e-03
-3.847515145124589392e-02
-9.292770260418078965e-02
-7.301039041648049732e-02
-8.204489512506214777e-02
-1.441242830791800156e-01
-1.079221073751669979e-01
-2.869290498448609852e-02
-2.808162490567361891e-02
1.751418311851544313e-02
9.601056103921401519e-02
2.021604190473964141e-02
-8.688738778611790337e-02
-2.013846779497646677e-02
1.027982847637018832e-01
1.348776093877359361e-01
1.409345033155439686e-01
1.970035814707700450e-01
2.654304813966749665e-01
2.979872547362890089e-01
3.001255261480637593e-01
2.717640657617799160e-01
2.109936927757468661e-01
1.606201336320526862e-01
1.405512322948267168e-01
1.038706480866940229e-01
1.914644792257697015e-02
-7.942413700910758156e-02
-1.437615220451945452e-01
-1.557664344201752371e-01
-1.429471369384020252e-01
-1.860292099522944109e-01
-3.034992279314602803e-01
-3.757432400342182732e-01
-3.419155747163497572e-01
-2.971786796334109360e-01
-3.064301944132865607e-01
-3.268474244904426840e-01
-2.820488781054932836e-01
-1.448650686308963764e-01
1.918562658894867878e-03
7.249989927288193192e-02
9.630143637356709807e-02
1.255358834451996697e-01
1.499319834677144692e-01
1.544778455432271047e-01
1.622503628181132806e-01
1.898414205429834190e-01
2.074190184513848567e-01
1.838045119986138620e-01
1.430663110889186240e-01
1.199150262672504935e-01
1.043135384754845657e-01
9.762714039194814175e-02
1.125749529506118451e-01
7.802675724161202420e-02
-4.502053758261853611e-02
-1.403577212055089063e-01
-1.563727381176034659e-01
-1.657523257955221818e-01
-1.402718749278288601e-01
-4.100101795559460416e-02
2.147300169221493665e-02
-3.099070498526626874e-03
-2.311489932787384391e-02
-2.291785875891002439e-02
-1.675734164004731575e-02
5.949407466528293387e-02
1.322820606895016016e-01
6.747981157370962213e-02
-3.193523031248202831e-02
-3.921581995696063472e-02
-2.056326555119902116e-02
-2.383125063280677747e-02
-4.999596946572676393e-03
1.853249034183430261e-02
-6.602909709342217465e-03
-7.357284588820000963e-03
9.825804025635852257e-02
1.662166664013907669e-01
6.687151402815494361e-02
-5.139008287959930671e-02
-5.019048595878803504e-02
1.052698654233416922e-02
4.448897854954560194e-02
3.314500814906704701e-02
9.008000060517429991e-03
-2.235094966847124553e-02
-7.398618480488509952e-02
-1.003754241977069112e-01
-1.075876823553598288e-01
-1.382195541858329824e-01
-1.275553298727725160e-01
-4.614487527900135166e-02
1.983970042904943665e-02
4.022105564172134828e-02
5.194859540874335879e-02
4.516314343026152367e-02
-4.344075630154858175e-03
-5.083296138371280054e-02
-3.182429339665392154e-02
2.925685084423932519e-02
5.967833754722359774e-02
4.492131482580041107e-02
3.399071297677967729e-02
4.849721860427548548e-02
4.766750900969196625e-02
1.629276173537201611e-02
6.309541001029983498e-04
1.416489795430648721e-02
2.832890886299017918e-02
4.311597655879605834e-02
3.357627070334537334e-02
-3.712400102575114103e-02
-7.450525238458902133e-02
-3.867781752431305453e-03
3.288092539888379240e-02
-2.624964539100666655e-02
-1.989226701679247533e-02
2.648763041592482048e-02
-7.111529498032499730e-02
-1.793326312276168899e-01
-8.773038536450938896e-02
4.901653654774230234e-02
5.864520029114728139e-02
3.072962294306910702e-02
3.644986737209533756e-02
3.706133645379239977e-02
2.841885995985183808e-02
4.134961724039731140e-02
5.840879413584702806e-02
2.931027385013732639e-02
-1.815573460546831761e-02
-1.319490730487191468e-02
1.177240635257670483e-02
-7.567031582487704008e-03
-3.027671904646266759e-02
-4.625271277535905959e-03
4.083389162339869094e-02
7.872236116242994908e-02
9.276578930847853566e-02
3.762838141095563305e-02
-5.378830198768451420e-02
-6.683225062817257922e-02
-2.527166159045792990e-02
-6.634676506723230505e-02
-1.443212181650680992e-01
-9.883151243833712685e-02
1.600290660455472649e-02
4.453084046401156737e-02
1.259577297102605284e-02
1.586968021445938140e-03
-9.732652379445479868e-03
-3.536481127426479437e-02
-3.585244754846116794e-02
-4.675694964719073927e-03
2.307826275061901702e-02
3.738228695647412975e-02
5.205924816531931620e-02
5.470573361562401649e-02
3.666072657310211896e-02
1.728714766526862068e-02
2.298506442599609380e-03
-2.882648526341949000e-04
1.764092028454504121e-02
3.150212738546352004e-02
4.141843623356113863e-02
4.373515599323397202e-02
-1.830122596421908041e-02
-1.087501769391947259e-01
-1.125121103252827576e-01
-4.406369724111365571e-02
-1.391587775243287436e-03
-2.698537575136860864e-03
-6.121105601554141518e-03
1.387374621798272405e-03
-1.430321864784115000e-03
-6.221259379079716219e-03
1.512574050522138593e-02
3.819831112981999371e-02
2.723079809362735984e-02
9.589060737010119545e-03
1.996422054994055270e-02
3.836468949687636687e-02
4.157132931120043062e-02
3.954113597956255416e-02
3.093513407843344332e-02
2.245116865542670301e-02
4.550335508970641124e-02
2.354929389359882233e-02
-1.194569622355823590e-01
-1.798340606472157432e-01
-1.383359962568334739e-02
1.205080647952709583e-01
8.036766362010469567e-02
5.522846597579863376e-02
6.886378489943167924e-02
2.722917288460064908e-03
-7.320512107894575071e-02
-9.563044997827944982e-02
-1.264219682499484743e-01
-1.251562579007070020e-01
-3.005953104855425828e-02
5.838294700004096477e-02
6.262036743009685713e-02
3.774590048450801594e-02
2.072005025892274810e-02
-5.130252468237093272e-05
-2.481449712903926325e-02
-3.666072206128425520e-02
-9.728437920766205838e-03
3.950503694486937750e-02
4.944148158203381244e-02
1.214458757063173293e-02
-1.411958703369011088e-02
-7.492718970980336707e-03
-7.213901322752305778e-03
-2.341309143968968789e-02
-2.438433618450536883e-02
-8.173955754739031798e-03
2.232722858316459752e-02
4.937357183911781494e-02
3.703983566475310338e-03
-7.016944726749088646e-02
-4.174257678380439984e-02
3.090331245521568335e-02
2.916362726032183106e-02
-6.744338660947561334e-04
-1.001985163101850977e-02
-1.697715494116740220e-02
-5.251803556524815147e-04
3.863265448971337640e-02
4.786522676629546141e-02
2.601535056344456837e-02
1.287144483946470706e-02
8.015832437322803483e-03
9.540355949021290735e-04
1.293426923064399520e-02
4.306361696163096831e-02
4.637575735015605355e-02
1.701554437878770309e-02
2.372890550375075271e-03
-2.276797936001691627e-03
-2.793601310977199964e-02
-2.765040647551759642e-02
1.742555558751018516e-02
2.786305374047860772e-02
-5.464153932759390798e-03
-1.583184315042365526e-03
3.890430555426664661e-02
3.374750566116799938e-02
-3.706869898101883970e-02
-9.090095986002078021e-02
-7.073133727792219050e-02
-5.280833040219166941e-02
-1.018046383083580919e-01
-1.210564147794526424e-01
-3.975532201678039917e-02
4.143264154926271786e-02
5.117140432588604404e-02
3.752249518253289451e-02
2.792275174251106565e-02
1.363048035528390337e-02
-1.786089150963149352e-03
-9.466273812920422692e-03
3.176485853698713009e-03
2.138876702327850016e-02
1.809363351228008773e-02
1.686925701871945862e-02
3.488321544359698767e-02
3.079899800304088109e-02
1.610603075231378800e-03
-4.023053053268217487e-03
1.059087437112498156e-02
2.718296261719996623e-02
5.047976744666765603e-02
3.280753368941421305e-02
-4.066313604047672170e-02
-7.710432455394364282e-02
-3.237837525323956911e-02
3.230526303356018314e-02
4.797575651253174062e-02
-1.962166950130356767e-03
-5.752703007743298347e-02
-4.692274957175417843e-02
1.365577225999214765e-02
4.764098138130968413e-02
2.210963624799357208e-02
-1.312797606924495999e-02
-2.747237133044238416e-03
2.492471099125591685e-02
2.016636352942449001e-02
8.777259935476056790e-03
1.760881100989048972e-02
1.782846104402648069e-02
1.933781493159511533e-02
3.208311989441014339e-02
-6.457863640592643485e-03
-4.164108402119751778e-02
5.454705802034708062e-02
1.439297922801197338e-01
5.029760953614831331e-02
-6.945529839668648786e-02
-6.477276886853200466e-02
-4.532019029101684582e-02
-9.929185571622933804e-02
-1.533601829981704467e-01
-1.066565488718770327e-01
6.078835926017035068e-03
2.923154831100418724e-02
-5.404104272216640747e-02
-7.542329708955147760e-02
6.087183404037616215e-03
5.417617454733410221e-02
4.400257875458934986e-02
4.679575352013270323e-02
3.038059536537630889e-02
-1.785704887349623404e-02
-1.027826758219753736e-02
3.906438587684516600e-02
3.023017490634448412e-02
-8.289723355764853918e-03
3.708854038557098630e-03
2.223231090748955391e-02
5.368296487234009914e-03
1.451583419430145690e-02
4.745667799380621360e-02
4.425819388036093815e-02
4.061818314085122172e-02
4.548321318758297149e-02
-3.790098450195908755e-03
-4.208494797666405968e-02
-1.809111522370968062e-04
5.806988212950161751e-03
-6.756891738026939154e-02
-8.542558915832629274e-02
-2.350994815760680187e-02
1.809166207698175571e-02
2.555268763552572681e-02
1.639303254761173903e-02
-2.243568216204455332e-02
-3.212951556819015897e-02
2.760264199220298711e-02
6.665627722220827944e-02
3.573792763947245682e-02
-1.452926875383353696e-03
-1.716572304959196327e-02
-2.371273496743375037e-02
-1.272676623797738653e-03
3.711263147026781090e-02
3.226833341459249549e-02
-3.942179148819221352e-03
-6.785747125369760539e-03
2.810804541347042794e-03
-3.070919501336955362e-02
-6.440062889102930732e-02
-2.878309116496945846e-02
4.488482169056710880e-02
8.379781112251596942e-02
8.467158489086115680e-02
5.509449763502510117e-02
-1.599962140044881506e-02
-5.290568509588972762e-02
-1.626624863166067220e-02
-3.839812870480511370e-02
-1.388310635257316017e-01
-1.329551747045698007e-01
-1.940051200300669035e-02
1.428936244134459098e-02
-2.146899990496436636e-02
-3.179140291945650384e-04
2.615402583681607218e-02
-1.738440234767885464e-02
-5.318285401903703052e-02
-2.512414189969239611e-02
1.512388736380314985e-02
1.629151878308645815e-02
-2.574136962112750365e-02
-2.597272990242507906e-02
8.175715169638507474e-02
1.409325889688347599e-01
5.159969936618685749e-02
2.122489156535628183e-02
1.119074654929734791e-01
9.975292784816172653e-02
-2.245229686880738720e-02
-6.975252776366239194e-02
-6.562764832854110775e-02
-7.444453502495854136e-02
1.640331352058081033e-02
1.949162048932129576e-01
2.210622198369796010e-01
3.889330498983253892e-03
-2.279352230431565540e-01
-1.905747006169433433e-01
9.499352515925543750e-02
2.419662617319758291e-01
2.739515409147948166e-02
-1.997199402894107578e-01
-1.204527056636033044e-01
3.213166547488881253e-02
2.219469910451495748e-02
-2.980922217424956944e-02
-2.328650927167533191e-02
-1.867708096673323034e-03
-2.692568717222657351e-03
-3.833947713681885860e-02
-6.986535751675730654e-02
-5.032006417687814870e-02
-2.033509897725584159e-02
-2.862677520165501227e-02
-5.128344198497034045e-02
-4.133630386096092540e-02
8.377130173238794830e-03
3.060443853980151369e-02
-3.993139675721589510e-02
-1.415825805910167767e-01
-1.556857927642172346e-01
-7.523638252127622106e-02
-1.600938851972034255e-02
-5.872769604992687104e-02
-1.099689854266513861e-01
-4.649310590554069783e-02
6.255801273047473243e-02
1.027743943545200156e-01
1.138010427757656789e-01
1.660638247080754026e-01
2.459381771742233658e-01
3.050419227876589034e-01
3.076426282972436477e-01
2.626947967663396111e-01
2.160457816878661175e-01
1.921534285413649124e-01
1.835820307921839922e-01
1.698804924976188291e-01
1.081785395724148557e-01
-1.115722667774608767e-02
-1.104476595779235598e-01
-1.485329718057170345e-01
-1.973416044518017110e-01
-2.857045203290208280e-01
-3.374044874178159237e-01
-3.252243595552530286e-01
-2.925587768262848387e-01
-2.452731464673446327e-01
-2.014193483196085876e-01
-2.006407081558818639e-01
-1.892096794241600322e-01
-1.142822018289072483e-01
-4.067269292859554408e-02
-1.313544531529307891e-02
1.816067561666434571e-02
7.429842754271637206e-02
1.185475402595551897e-01
1.491261489137590268e-01
1.796051635830137050e-01
1.851821182226248141e-01
1.663771121839204004e-01
1.571767146249878067e-01
1.471245879175383797e-01
1.057452638131918116e-01
5.562003998182805942e-02
4.174447837181616272e-02
4.710200433531563230e-02
1.306505149413472039e-02
-2.433082915386165779e-02
2.366512190622224038e-02
6.917050710839758865e-02
-4.068268676194265396e-03
-6.155586291771467100e-02
-2.252307226892614339e-02
-2.763095106500291359e-02
-7.027834579507695467e-02
-5.802935006796841599e-02
-8.757516944815761650e-02
-1.881617787073187609e-01
-1.550356984673668670e-01
6.166957570590851645e-02
1.834271297009417712e-01
8.645847875122111836e-02
-7.169345232627154230e-03
-5.113112925049016072e-03
-2.753348197861232860e-02
-5.980987748673239485e-02
-3.179321911387253397e-02
-3.969430159498238755e-03
-7.333633594663190210e-03
7.272439084987798383e-03
2.049455642678138859e-02
1.130153351634115982e-03
2.211213291311879200e-04
2.844250381758757149e-02
2.490002332770134552e-02
9.433346510896237214e-04
3.333750120249739934e-02
8.740427079163864965e-02
1.749923409442515065e-02
-1.393728796786417035e-01
-1.180987296572433010e-01
1.048745662760509206e-01
2.021111455121073486e-01
6.252430178478735057e-02
-5.572551384671948355e-02
-2.422209949643054985e-02
-1.590638496131282706e-02
-1.339879412369613942e-01
-2.043756186264115704e-01
-1.033287728379336384e-01
8.286611428750062514e-03
-3.072640835257781089e-03
-4.912535171353631797e-02
4.031083388898255154e-03
1.558347199628246915e-01
2.074437196061797439e-01
6.203707458074209785e-02
-4.591651231267721012e-02
3.199923329244968445e-03
2.655016867617214504e-02
-1.467204574724920683e-02
-4.359065858955582518e-03
2.819560092196546006e-02
2.809335009193812335e-02
3.845665940404469074e-02
7.266507908847991137e-02
7.978566863947142429e-02
1.915337889468781210e-02
-5.916646256677700333e-02
-6.540377549992255901e-02
-4.980053162194361671e-02
-1.069306298449884396e-01
-1.520521371244716591e-01
-8.550528198799581259e-02
7.568433707588717932e-03
3.569090415474130557e-02
3.252191440208092310e-02
3.219257004461514859e-02
1.919575154556308477e-02
-1.685822150842734846e-02
-4.922305790239776824e-02
-2.503886658991325009e-02
3.240493188589272516e-02
4.125000650887720305e-02
2.945069145918056269e-02
5.853005838749644058e-02
7.565563664102317731e-02
3.700053023633415733e-02
-1.479872688549247958e-02
-2.188861670598961709e-02
3.085436094332290671e-02
4.248768389523436412e-02
-5.373360452298638762e-02
-1.053611555948163331e-01
-3.965356638522501975e-02
-1.224097438782312600e-02
-4.660507531184368557e-02
-2.671113998490498229e-02
2.205704869717902902e-02
2.462800799666761339e-02
1.014598214972066773e-02
1.118753240231059980e-02
1.931934733162594953e-02
5.140407009225007179e-02
5.936679399697082637e-02
-4.602425571910783580e-02
-1.441020098144651096e-01
-7.555688605456448159e-02
3.961488083297326490e-02
5.797533709072389546e-02
3.453995996233444332e-02
2.931206243749810703e-02
3.132168564350338441e-02
3.192138183676408725e-02
2.730294485551818320e-02
6.271741870814393632e-03
-2.031700512244108067e-02
-5.748765181323963955e-03
4.489923341876772556e-02
5.491962349556672729e-02
3.106680148496698129e-02
4.838266974641514118e-02
7.054853715506109735e-02
3.356096616735150528e-02
-2.103678529021065641e-02
-6.115278942106702059e-02
-1.015325802138785372e-01
-1.241364322392405350e-01
-1.008671432146989455e-01
-3.357931709849967805e-02
4.129817132044098782e-02
6.967402078439646762e-02
2.968917808366078673e-02
-1.841700320090988718e-02
8.248596154986628098e-03
3.315934591125287850e-02
-6.785547156239159217e-02
-1.515347856703641860e-01
-5.190449367217117582e-02
6.925791776620311702e-02
5.150220694856599835e-02
-1.706189728569285080e-03
9.260404670183885675e-03
3.287993224330716668e-02
1.935975767827970151e-02
1.035350808817284314e-02
3.395815522077768461e-02
3.846220946607253194e-02
-1.237933054038518367e-02
-8.418831557394836074e-02
-9.943226786001733986e-02
-4.216812399475071416e-02
-1.528152224103446893e-02
-6.547853449064900896e-03
1.019162414268579286e-01
1.684666284249488055e-01
4.012119868313855642e-02
-6.971870340896904605e-02
-2.285873640546147792e-02
1.433863409819599935e-02
-8.327422496418886155e-03
1.181518987174754592e-03
2.275916131884194588e-02
1.551792211011254058e-02
1.580170614917898730e-02
3.921760454801381107e-02
5.170387570515977416e-02
3.195524272584738396e-02
8.246074977178486504e-03
1.153787881079912370e-02
4.509299967817442106e-03
-3.027427983732108169e-02
-8.489382866170701314e-03
3.282750203450718329e-02
-6.534728894674769750e-02
-1.381519537443401946e-01
7.088008227633066372e-02
2.699148592001109348e-01
1.241077858874041484e-01
-8.919808310819563046e-02
-8.507053579351267492e-02
-5.949638047808201297e-02
-1.474424579907821220e-01
-1.465427839956343348e-01
-3.406394469420097326e-02
-4.648055683585426701e-02
-1.243392118836476185e-01
-5.734162440772169744e-02
2.568683344579205871e-02
-5.729681270053695041e-03
-3.875336978431070944e-02
-5.326661667135844380e-02
-4.752570698201134120e-02
5.687725477866212298e-02
1.312474912788114123e-01
8.311382192845476191e-02
7.476943829207115255e-02
8.648058282849040157e-02
1.275825195757519272e-02
-1.608879995678317437e-02
1.739139571043115881e-02
1.708155838829500048e-02
3.097194045382288888e-02
1.994405167993008182e-02
-5.191619912978220897e-02
-2.608137172994910366e-02
7.049106204888613836e-02
6.032611267843362296e-02
-5.098821147079268812e-04
-1.924059913957309326e-02
-1.786165462678945132e-02
-3.844594102978307962e-03
-7.190040079287975464e-03
-7.471186826263114672e-03
5.641773021172213215e-02
8.480748217418576651e-02
-2.982431815086148547e-03
-7.402735109733080132e-02
-3.587624187536907205e-02
2.058146706379921503e-02
1.332883890311718431e-02
-1.071483255169678253e-02
7.561783510341181513e-04
-1.853488311721844875e-03
-3.019308467549229602e-02
-4.524478942047787181e-03
2.584101542230343024e-02
-6.007759474071193428e-02
-1.438831950002631421e-01
-5.548999787910455922e-02
6.782069372721723222e-02
4.773732980791330766e-02
5.676355227866546060e-04
6.432311984422244000e-02
1.243621779099698677e-01
6.200852379676405346e-02
-2.592343626383223493e-02
-3.404156548647318398e-02
-3.166096154369729687e-02
-8.597353522512742041e-02
-9.574546956238930151e-02
-1.052714043266199211e-02
5.133550502498211709e-02
6.049798474013555472e-02
3.962831223661528179e-02
-6.734087478026978824e-02
-1.558719166605739004e-01
-8.247940798172612165e-02
2.119695495560177181e-02
2.674927394767703456e-02
1.358947719864098819e-02
2.413878046961680235e-02
2.739542568330786271e-02
2.273993629626759952e-02
-7.279733355381100453e-03
-1.881567070918676449e-02
7.332315188948816675e-02
1.464596905935653948e-01
6.903014925674957891e-02
-2.355616258078213621e-02
-4.944665347990005039e-02
-7.945869364427052273e-02
-8.111955024972522521e-02
-3.514510952712103509e-02
-3.360484976789726574e-02
-7.401023850690155448e-02
-5.300482110711886991e-02
2.097012708600352188e-02
5.657188675507772435e-02
7.531494342960604049e-02
1.033253437450359358e-01
6.879337876802034402e-02
2.029892450017278804e-04
-2.238744771827669636e-02
-3.024238331079390565e-02
-1.303566524378321073e-03
1.048083532481255409e-01
1.268293321361783632e-01
-3.842602000211787702e-03
-6.897099636974790560e-02
-1.379725782995557676e-02
-6.530860969043910530e-03
-4.331890201841048782e-02
-3.939997688161095413e-02
-2.139976748700956125e-02
-6.228130004997901523e-04
2.876189982239246018e-02
3.627985799835944936e-02
3.857903346699548958e-02
6.519627155215508563e-02
7.092176884455109187e-02
1.544303289612486418e-02
-4.000422002004237754e-02
-2.868319105108148651e-02
-3.018451844940684553e-02
-1.101008388598648524e-01
-1.240881265849098358e-01
-4.002183707905664078e-02
-6.027248738291907798e-02
-1.341992082815647302e-01
-4.862943994121146640e-02
6.831147684625082928e-02
3.868429026839139556e-02
-1.778941672499784535e-02
-3.864681245593460518e-03
2.436805615614013112e-02
4.889811176425575001e-02
5.686695754176620404e-02
2.256599878039743448e-02
6.685626044588775449e-03
3.860662610219894181e-02
3.933545334711800734e-02
5.490146774999455671e-03
1.946682785137913985e-02
5.447648273391053619e-02
2.451655948501505616e-02
-3.590189693885731392e-02
-4.292859158713048517e-02
-7.117589170821305572e-03
1.794360434729024706e-02
1.906947392225342292e-02
2.093694217319213517e-03
-2.109744494798168613e-02
-2.348871434946067649e-02
-3.611740769164255294e-03
6.660646847883379060e-03
-4.930902677632390332e-03
-2.420257755698421165e-02
-3.238676954659366891e-02
-1.627492959350891263e-02
-6.732013935664417706e-03
-4.555198790728227226e-02
-5.154598888578362792e-02
6.470102430216177758e-02
1.472037162733009774e-01
4.939907242026302797e-02
-6.085148055636400988e-02
-4.779354542255959126e-02
-1.262951144321802603e-02
-1.530169094838934596e-02
-3.850536936818955980e-02
-4.365517333107318126e-02
4.544280079003560485e-02
1.405178018831819142e-01
9.037844901144639898e-02
2.287084737617146868e-02
8.115378637007461538e-02
1.033560740358328151e-01
-2.668248953930271727e-02
-1.303623087603895114e-01
-8.004797359605980711e-02
-2.007343221957346921e-02
-7.539452261773099684e-02
-1.241688916399736609e-01
-4.358070216223172699e-02
5.559692981907070342e-02
4.731843579707874919e-02
-4.539170004110096301e-04
-6.285224962300354698e-03
-1.977622703865635628e-02
-6.499733281521904993e-02
-5.640731103472990809e-02
1.976623052421231513e-02
5.580803469962089536e-02
3.842859665332623575e-02
4.952293034734109312e-02
6.209207148418159627e-02
2.701512153098040159e-02
1.395190985476805513e-02
4.401143997316321610e-02
3.412549756314452870e-02
-3.037105362842678832e-02
-9.109725321005099352e-02
-9.825376243482070171e-02
-4.474366540550561711e-02
4.675700939654219533e-03
7.455357855260554348e-03
-9.977403728249525927e-03
-2.743064760444101011e-02
-1.840788880910964459e-02
9.441836195750076197e-03
1.780941300921031617e-02
5.939234802549155784e-02
7.960013052923055332e-02
-8.206621968366738240e-02
-1.965789208233161556e-01
2.859443810800180175e-04
1.623428295834712376e-01
6.961085104077546770e-02
5.713056279970594314e-02
1.445755849289585560e-01
6.735613351466465670e-02
-4.753519422959934237e-02
-1.782714478139743597e-02
3.091030777669656615e-02
-1.731249089589080581e-02
-7.382332729224448664e-02
-4.607733485660213402e-02
-1.608113186569706116e-02
-2.891542185193958850e-02
1.669093806022557344e-02
1.011005266257591489e-01
1.305626331850607558e-01
8.646082748987204969e-02
-4.453204283094804733e-02
-1.555417935595949097e-01
-1.312585429084467681e-01
-9.048420971220844100e-02
-1.296438622967541754e-01
-1.587483229283924158e-01
-7.422670459175480240e-02
1.053929732977542388e-01
1.994988736592382128e-01
1.110902365226565380e-01
-6.592500425788957313e-03
-3.356972312558813287e-02
-1.812833519977264524e-02
-1.243190323357310639e-02
-1.811986792748303959e-02
-1.319425497798331313e-02
1.345710929408038686e-02
2.675803584096448154e-02
1.417440412803769312e-02
8.977038826376055811e-03
1.394395519872226007e-02
4.045190295961342830e-02
7.829091739630837654e-02
2.019893123830217296e-02
-9.686849894261544136e-02
-7.802962201974708578e-02
3.534783458821175173e-02
5.247114909704519992e-02
-8.837609523188188695e-03
-3.401186595732715034e-02
-2.012107174474238314e-02
7.110216746426759743e-04
4.271554229900376837e-02
8.744850212906311870e-02
6.942123628888818843e-02
1.690935854071211331e-02
2.735880724295955413e-02
3.555354422482093907e-02
-7.810535912647982582e-02
-1.615384162251151945e-01
-4.764705998658345237e-02
8.369651402907565818e-02
5.038486550631193078e-02
-2.466140688304257686e-02
-6.559514096049052188e-03
2.562074810725550530e-02
-6.322765297219075029e-03
-3.160507188238630139e-02
-2.410885157925225786e-02
-2.751655238723114613e-02
-4.771187757042039818e-03
4.798434973107143509e-02
5.550641721099588283e-02
2.655925438125354351e-02
5.589267277893511347e-03
-4.331425919819605064e-02
-1.201235789665811848e-01
-1.341527837082421015e-01
-8.061808162686769086e-02
-2.589368880197733674e-02
4.136655954076922520e-02
9.701117411878298902e-02
7.636494796394756313e-02
3.235388511273336321e-02
2.663158172304343901e-02
2.020703704199696901e-02
-1.555486639299990051e-02
-3.857389719628394331e-02
-2.560122440071620209e-02
-1.206984975081200687e-02
-8.156539524062754107e-03
3.463795817710473533e-03
2.027668016871881501e-02
3.555367363803910163e-02
4.106749527950876583e-02
3.994296343579398917e-02
3.694167133623627031e-02
1.288677554615608699e-02
-2.943255363112388945e-02
-4.707270016516277439e-02
-1.732547071273418671e-02
1.919980802755903368e-02
2.537385293649199389e-02
2.347569129473781741e-02
1.095621590520920452e-02
-2.529030391118914506e-02
-3.417265450451046488e-02
-5.990824364451265670e-03
5.377968103661019336e-03
-2.630535895711968390e-03
-8.153648531241394076e-03
-1.754346536297593864e-02
-2.682163138390892404e-02
-2.934649048625800546e-02
-2.642367540742526777e-02
1.122111746795830109e-03
3.859745076809591863e-02
2.898387778075134369e-02
-1.823947569011321809e-03
2.239272011073379157e-02
6.758770303286092129e-02
4.714708332244603450e-02
-1.891768390501187905e-02
-5.068373191691177837e-02
-3.532800327024950005e-02
-1.032130553266236497e-02
-6.370098124476815393e-03
-2.119410010387221335e-02
1.295175404681628457e-03
8.086213270967318456e-02
1.333019787270883494e-01
8.594954232698798213e-02
-1.800901763905403408e-02
-5.745315913768101607e-02
-6.313013929114437428e-03
-1.067700272396734061e-02
-1.157967195175514524e-01
-1.401848323933955198e-01
-3.889706497470294538e-02
4.571402315622025495e-03
-3.415455937575644779e-02
-2.607933765703204093e-02
1.570026684277817542e-03
-1.234372151736271711e-02
-1.429224615041473426e-02
-3.523417785524013933e-03
-6.926321934051017995e-03
1.739306891295722482e-02
4.228253992152748025e-02
7.905743314917269143e-03
-1.932733680253470240e-02
2.733486424957335542e-02
9.006425495473165121e-02
7.621348054125777483e-02
-1.663025347271474691e-02
-6.012942232631642708e-02
5.103164415698593914e-03
5.176055706445289312e-02
3.398833811720144982e-02
3.861090997755469573e-02
4.792071542726891731e-02
8.089632263305926788e-03
-4.494386561431288479e-02
-6.633667369450005347e-02
-3.001615901935455327e-02
2.512773118414536946e-02
1.622535153853062184e-02
-5.772094082450115494e-03
3.229420995204770189e-02
4.648877002117979274e-02
7.761280375568486642e-03
6.588454604053717301e-03
2.618697535439069163e-02
4.501001841917130764e-03
-9.648598322086539281e-03
2.297193656284921351e-02
5.809448425679754335e-02
5.401648700461479657e-02
8.648425105964859666e-03
-4.148966868337720937e-02
-6.052380260336721884e-02
-6.725220120540489899e-02
-7.300201834236667853e-02
-3.812644752175319007e-02
2.126231659508667077e-02
3.846651590755521821e-02
1.206667306579294746e-02
-4.897572154559806656e-02
-1.298088692234010966e-01
-1.330535887084614288e-01
-5.739296422608222703e-02
-4.698098969784919587e-02
-1.016356858637999794e-01
-8.888680566531070859e-02
-3.016212379522753562e-02
-3.747233736701686968e-02
-8.569621732582513585e-02
-8.629239997413960805e-02
-3.911277866803054837e-02
9.655111308156478708e-03
3.152026076836349916e-02
2.382771453086527866e-02
3.066574313932692031e-02
8.636150913088044834e-02
1.333938206596621268e-01
1.402336101839730120e-01
1.772271813979951760e-01
2.327650793825438713e-01
2.580816019230969260e-01
3.124670583889506692e-01
3.189208074738880128e-01
1.511545935397417273e-01
2.382378252634952120e-02
1.060134560280463351e-01
1.667985300531556470e-01
8.146044560919310507e-02
-1.232759551558738204e-02
-7.695651092554853245e-02
-1.347405972025494669e-01
-1.631706004791862730e-01
-2.069934873470686554e-01
-2.752868628795712147e-01
-2.754169338678522094e-01
-2.529496164009200632e-01
-3.278219346715928184e-01
-3.764760022254255434e-01
-2.666620787421640770e-01
-1.391170205649962799e-01
-8.780491229374458306e-02
-4.340557984248494261e-02
1.430086532082416872e-03
4.262841724019870993e-02
1.000026346151426937e-01
1.343283976387728007e-01
1.395520850293979764e-01
1.496165794623318668e-01
1.564926600829447123e-01
1.656884171101266068e-01
1.733170641490959230e-01
1.430265616713990717e-01
1.306450501112187412e-01
1.615348443282599300e-01
9.553681286830804920e-02
-4.863982977456003665e-02
-7.736259168036097034e-02
-4.701294465337012285e-02
-9.662304502776232484e-02
-1.256379324235764317e-01
-7.000682872782673649e-02
-2.549921236354099618e-02
-8.599297186183895228e-03
2.105839014397909575e-02
2.851518891010970322e-02
-5.460680888721530270e-03
-2.144750798161588340e-02
5.231735903688684158e-03
2.541739410191198520e-02
2.416035697433328161e-02
2.656294978580192936e-02
2.094765213861810374e-02
1.695649156981820366e-02
5.048354650507043406e-02
6.315610131499320434e-02
1.343025567527753560e-02
1.045920485256882082e-02
5.838764022654525238e-02
-1.584621268590594503e-02
-1.581217255344446182e-01
-1.317496647322646819e-01
2.402792805456431535e-03
3.557592944076550662e-02
-1.855266096676147503e-03
-1.824940971103511736e-02
-2.581702104458323196e-02
-2.183716502753277680e-02
-1.290470770142697517e-02
-3.080953653876013568e-02
-4.079540954902551725e-02
-9.841270610130433208e-03
1.774478068834277680e-02
8.703551937132503885e-03
-1.790830425812715843e-02
-2.870906415310312335e-02
1.015907102953806859e-02
7.732673182331135930e-02
8.692288925453565962e-02
3.052059266880953470e-02
-3.642759887615635260e-03
7.204009770130439388e-03
1.342694059785762631e-02
2.050318397078597192e-04
-9.950302287537567819e-03
-7.203151551388466654e-03
-8.573510510690822428e-03
2.086279840806308863e-02
1.328359276389599331e-01
1.913295519412759327e-01
5.478374074269266869e-02
-9.781505679766049066e-02
-1.007047879017970160e-01
-1.093574501789568998e-01
-1.860053115527016965e-01
-1.529867206752998088e-01
-1.544473555070461843e-02
5.262423585630798817e-02
4.178827713237118213e-02
3.156341477816358709e-02
2.059595412400919145e-02
-6.037055655412602168e-03
-2.988904274978547784e-02
-3.313372447906186985e-02
-1.498904838198561983e-02
7.020998570887054292e-04
-1.411477151232902461e-03
-1.546527653707868884e-02
-4.152447604171845968e-02
-1.559994220175424037e-02
1.194895375455164721e-01
2.081710100120583440e-01
1.088399558521516569e-01
-1.328212342975301254e-02
9.049996030862154234e-03
4.015441770384015063e-02
-5.442645653618798096e-02
-1.099817997582702711e-01
-1.665640126265358761e-02
3.238054171498808836e-02
-2.917042082794379237e-02
-3.981987899593031344e-02
1.907389852168239405e-03
-7.890811307494617621e-03
-3.745365638322959573e-02
-6.531642491273328271e-03
6.880309283056534886e-02
6.288488851888685005e-02
-7.369821811875702788e-02
-1.466871987427890711e-01
-2.450906137161636481e-02
9.457720899950432247e-02
5.963943231425611335e-02
1.261971062917860605e-02
4.649508788157873801e-02
5.592899824913178525e-02
1.119992722382856347e-02
1.450900980933806164e-02
3.049047145960129962e-02
-6.819808704266433486e-02
-1.598012589111489634e-01
-5.012991203591572742e-02
1.232578172651404846e-01
1.370014209419611051e-01
3.945945586513202596e-02
-2.849389411961060145e-02
-4.455953976278453910e-02
-4.725370767225457735e-02
-6.465537269664618780e-02
-9.578108508869717652e-02
-9.653017712760103564e-02
-3.211720174684259271e-02
4.805953164929045729e-02
7.144637542264006824e-02
4.350058929793318430e-02
9.395606667786911628e-03
-8.465733401682641601e-03
-1.397625570729164358e-02
-3.074028528503417595e-02
-4.902186019315141197e-02
-1.979183860288413060e-02
4.200905122547539394e-02
5.640074961982585733e-02
1.191281544456220670e-02
-1.512653999805547642e-02
-7.800413683618664246e-03
-2.908983562074037368e-02
-4.615317614050892803e-02
3.246465514791388451e-02
1.507839711201114652e-01
1.779580317393020528e-01
8.741274290790267132e-02
-2.813371963304480555e-02
-6.649933966647723904e-02
-5.295926609113053851e-02
-4.873286827095238416e-02
-2.839280001703698569e-02
-1.178696725558578927e-02
-5.288016748020840652e-02
-8.888682136652266419e-02
-4.868006876942470446e-02
9.800954574906808534e-03
1.103739879479642000e-02
-2.703048478950930561e-03
2.215089732377924225e-02
2.680578752442365487e-02
-3.420285460805748065e-03
7.365987815145884007e-03
2.887242068940622242e-02
4.230235775128383946e-03
7.797476189043257844e-03
4.655115883359899065e-02
-6.622490704523949570e-04
-6.457979998866154869e-02
3.928353511134472648e-02
1.722992775173270430e-01
1.139299981504572484e-01
1.447858997007063671e-02
3.803066931041368393e-02
4.404419514343983072e-02
-4.967544833027653928e-02
-1.057534237999652182e-01
-7.569032475677643645e-02
-7.161477441613206540e-02
-1.104725431402269753e-01
-9.566300056423436560e-02
-2.884847528273614542e-02
7.732981148345497227e-03
8.072399759939527172e-03
1.929340386992398071e-03
-2.058660322911581853e-02
-3.416495521277071457e-02
-3.593785342079234245e-03
2.250450858821766847e-02
1.625889519252064069e-02
1.906492453625993969e-02
2.748098200016766551e-02
2.010746540743977434e-02
1.646118565627547811e-02
1.811931285060921354e-02
1.003471185846555210e-02
-2.359594558623702432e-03
1.981218310620831875e-03
4.020239258940110083e-02
4.978384179816124772e-02
-4.381897983700035887e-02
-1.324078847835480910e-01
-9.292053221389645623e-02
-1.910345033783610730e-02
2.833163654632957912e-02
1.169027423211027872e-01
1.586393531021171310e-01
5.738272366561071591e-02
-3.631896360980501476e-02
-2.263588696449457885e-02
4.386059847614764279e-03
4.198521359353821203e-03
1.064922915417711169e-02
1.352784003339548707e-02
-1.993026107156049137e-02
-2.307495352637637873e-02
1.068486780906342110e-01
1.902363349725179065e-01
3.383001736675026599e-03
-1.846511075193632834e-01
-7.884420581072627832e-02
7.733461262219717969e-02
5.229943661950373079e-02
1.384136113005465449e-03
-7.632282407993982998e-03
-8.136763114733225333e-02
-1.290013897805765142e-01
-2.497636619143726172e-02
8.901840800338096937e-02
5.225899983022302270e-02
-6.069182169867219645e-02
-1.004991383750334505e-01
-6.563693994198496751e-02
-6.296355212619572650e-02
-1.023099613252077822e-01
-1.008674818192060174e-01
-6.096349181342931162e-02
7.255438462910997199e-03
1.439416005723609948e-01
2.245913256106885081e-01
1.209935880684723103e-01
-1.040291208375381665e-02
-3.790696736634326103e-02
-3.900643706294244784e-02
-2.758187328213435735e-02
2.511705170750244687e-02
4.735153419693181875e-02
1.864963924450878385e-02
5.578087847312785709e-03
1.614643908444752043e-02
1.680754123844168876e-02
3.763423122527636590e-03
-6.682146647561532093e-04
2.830477957737751599e-02
4.020558054129402120e-02
-3.824935838904622298e-02
-1.178693510588527532e-01
-7.551859508686541156e-02
7.600597367269271154e-03
1.775988578081353839e-02
-8.293097465030853377e-05
7.541556500477317182e-03
1.216734045305379631e-02
1.101630122201683638e-02
2.889827153924734091e-02
3.849773968872769597e-02
1.217194548038853102e-02
-1.741671882387704068e-02
-1.433017862961659915e-02
7.792559766794235863e-03
8.431705594752586866e-03
-1.005945213405568667e-02
-8.856778626158112386e-03
-6.663972892234498735e-04
-9.890875797772308645e-03
-1.239579475372801567e-02
-1.041837905748163248e-02
-1.967418186155687684e-02
-6.490542700759409887e-03
3.639423391415065601e-02
5.541224489417634347e-02
3.361754344827930924e-02
3.235247994324977339e-02
7.932593153401591712e-02
8.630426003671415325e-02
-4.390818714639732265e-03
-9.305274242671150720e-02
-8.479851738395016714e-02
-5.213982952037211210e-02
-9.299164225767921066e-02
-1.326495962778521942e-01
-6.199974622640092026e-02
3.726142514694889829e-02
4.974688859641647476e-02
2.537235836388812213e-02
2.450919446838820820e-02
5.334663885779201628e-03
-3.470298969431634406e-02
-3.043439203977231500e-02
1.423362625333090062e-02
3.466562964936288627e-02
2.296912605343418706e-02
1.870741595113413827e-02
2.923237284342128720e-02
3.469194390407280559e-02
3.230185507206259632e-02
3.465251751581493317e-02
4.842814697408834995e-02
4.610579190746279254e-02
-2.108395031678286183e-03
-4.055343351846711630e-02
-1.588139300040111029e-02
8.580547001956550374e-03
-1.879610447520555644e-03
8.439933572172257648e-03
2.972952001842291830e-02
1.065771580905535733e-02
-1.698674577229523572e-02
-6.413171169396486918e-03
2.027717055228899293e-02
2.684820094539304078e-02
8.354034724761335781e-03
-3.369827902091964561e-02
-8.685515730155361769e-02
-1.116373859545066460e-01
-1.042603745195764126e-01
-9.784749027242786723e-02
-7.000866774337866083e-02
-1.977154006083664019e-03
5.561947559325305934e-02
8.704981154468613425e-02
9.677680833685708972e-02
4.946247249551741221e-02
-1.824294756678223120e-02
-2.994915916331267886e-02
-1.999862352491574291e-02
-1.769332896067030841e-02
4.488610695177800564e-02
1.408004469209518938e-01
1.441623289764690508e-01
5.905529121562874684e-02
-9.226735562416089192e-04
-4.302374384163629162e-03
-1.956163880569303237e-02
-7.376248278630262445e-02
-1.018024095243289795e-01
-7.513763521378810650e-02
-4.275711161013835693e-02
-2.280260082861354162e-02
-4.285102230874710677e-03
-3.705936765617523325e-03
-2.020326264701555186e-02
-2.390491902092620191e-02
-9.793163918802506862e-03
9.836489197658629391e-03
2.941157371984539498e-02
2.993184586611469938e-02
-4.155464360836718350e-03
-2.533267471502058041e-02
2.448093306065639643e-02
8.077082811153918351e-02
6.071815523891820748e-02
4.022326159618082320e-02
6.096927525092525613e-02
1.765428559646185433e-02
-6.481284939691932256e-02
-6.129181896829261067e-02
-1.563000138204339098e-02
-1.724121648997815198e-02
-4.749778350104084251e-02
-6.978429299127134056e-02
-4.829128588845209291e-02
2.691873208986288873e-02
7.471716717785574502e-02
5.134814890394419351e-02
1.803906013807380498e-02
-2.142922501720978534e-02
-7.567835824081960150e-02
-5.321459298950644706e-02
2.693338991720924114e-02
4.097687674649629075e-02
2.713108833968342487e-02
4.592395631189082755e-02
2.220906669915434159e-02
-3.471886707148309770e-02
-2.931073160120291343e-02
1.338417796284728685e-02
2.989532260487101287e-02
2.304273139416139482e-02
-1.587471725186022711e-02
-6.514699759660932954e-02
-3.770280261909359637e-02
7.021759234851401854e-02
1.602252913054458272e-01
1.476469483199952526e-01
2.729184312731852691e-02
-6.587797294982100649e-02
-1.997371861371977780e-02
2.867760490334586576e-02
-4.809244265889818515e-02
-1.262258599577730789e-01
-1.000406893501272487e-01
-4.902927802005145608e-02
-3.809961155503120700e-02
-3.057527364203973738e-02
-7.797330499419316552e-03
1.171937773918127305e-02
2.147175902481647872e-02
1.205943614290912527e-03
-2.503118017926722616e-02
8.341414158404740833e-04
1.428591441179502541e-02
-4.080336033953897365e-03
7.170548235532657466e-02
1.444237190232297019e-01
4.585682426227550429e-02
-3.649911147073268969e-02
6.108133474120282930e-03
-3.838496265051784262e-02
-1.183719172485085125e-01
-1.222553924461335095e-03
1.252895430660382337e-01
2.445273312981684558e-02
-9.323343743216062907e-02
-6.654528123805289463e-02
-4.265999153610881833e-02
-7.123940106040266285e-02
-9.941151948503088032e-02
-1.379744984108865757e-01
-1.394416055345672478e-01
-6.859596835575146323e-02
-1.887900787263230989e-02
-2.541234706857321141e-02
-1.318103019654892627e-02
2.234572695772085726e-02
3.239077682737874497e-02
4.409479188267911159e-02
8.330555053253607678e-02
9.154291641214860886e-02
6.502901674628809581e-02
8.384956768357297585e-02
1.332059440735268163e-01
1.498869575238065688e-01
1.696640967485471274e-01
2.059433295738624936e-01
1.993531112674048478e-01
1.717850363024500671e-01
1.793912873567598265e-01
1.981335028919469776e-01
1.899553340165659743e-01
1.216741594801477033e-01
7.139738935300898870e-05
-6.375173308089990276e-02
-5.239494142696862061e-02
-9.965175169352823159e-02
-1.932458991339336407e-01
-2.430656366920961042e-01
-3.177201955922426269e-01
-3.900883208605028796e-01
-3.158122446958980256e-01
-1.986626519725459283e-01
-1.982134620833637118e-01
-2.278830977774416455e-01
-1.994514625085827830e-01
-1.510937797795952053e-01
-8.909827027436351132e-02
-1.256757021695791010e-02
3.271716583621074592e-02
5.914289206993975090e-02
1.118281041070096765e-01
1.556045413150032863e-01
1.662524584869595756e-01
1.706663430596564446e-01
1.339280646347100479e-01
8.136070168157653881e-02
1.434076268650081309e-01
2.379201116070351063e-01
1.620047689940060931e-01
1.830377554772398552e-02
1.043389350978946029e-02
5.863534091806051757e-02
3.108905076118110775e-02
-7.414843907547413043e-03
2.239765884789302053e-03
2.581321080142556790e-03
-2.695139374086979664e-02
-4.417645134159967762e-02
-2.298368950835621288e-02
2.583481660695203380e-02
4.016842001687626756e-02
4.000127688447582819e-03
1.489259022889631925e-02
5.043835121076664652e-02
-3.529942187721367419e-02
-1.409056227605997025e-01
-8.102584373004702301e-02
1.668989849094913019e-02
5.723594539726525876e-03
-1.515074058638104723e-02
5.171339952462980505e-03
-9.254518226061892935e-03
-2.475839106884962504e-02
4.878549713730755133e-02
1.081554776428689801e-01
-6.868571145882650109e-04
-1.468544788001684975e-01
-1.163178771570138742e-01
-2.343147975605105668e-03
-8.873763280917403712e-03
-9.790460385071410310e-02
-1.097650726741294380e-01
-3.215689062941996801e-02
2.870933805961770058e-02
3.496876676288640517e-02
2.449201808879646058e-02
1.054676117148598512e-02
-3.854213336499932516e-03
-1.041936000911693715e-03
2.037665251381962084e-02
4.676685035965309767e-02
6.078017983993915657e-02
5.835068296323332043e-02
5.504116520078800034e-02
4.894018665811109003e-02
3.067502099913776981e-02
1.064284531007302775e-02
-6.323332119473695778e-03
1.709779127483160993e-03
5.955141586913424018e-02
8.023167730760623340e-02
-3.400411740435633351e-02
-1.641792676629780789e-01
-1.409466697574643101e-01
-3.777694573756046337e-02
-9.169762049113124730e-03
-2.602382248865389019e-02
2.889342168061395134e-03
3.810813332315114016e-02
1.331334409591962940e-02
-2.302231977116961023e-02
-1.435090039901990890e-02
8.245889537092730703e-03
2.108781033271891342e-02
2.873958906517724496e-02
1.141846964240244428e-02
-5.480645776517008814e-03
3.098034599599856428e-02
7.029580811495671211e-02
5.004681314349530147e-02
2.288483538389280217e-02
2.028028522941852443e-02
-4.792313894416345109e-03
-2.992373468263501493e-02
1.596040648585523788e-03
3.683858581481181532e-02
1.587318823398337769e-02
9.004795192785882210e-03
6.907253156039305786e-02
7.998251917872135908e-02
-4.326394993309261305e-02
-1.584726928073047769e-01
-1.287312144008238846e-01
-4.500938387030886667e-02
-5.796293229214980608e-02
-1.549305566739336559e-01
-1.409188470990827002e-01
7.266789046402843955e-02
2.294820205288106707e-01
1.438249462436319570e-01
2.229758931219215715e-02
1.065374876495769028e-02
-1.227378846416272984e-02
-7.448273137578455272e-02
-6.577556933917705351e-02
8.210019688083554368e-03
3.797931925583031276e-02
1.780962021920990540e-02
2.902435218251116222e-02
4.723764229502636081e-02
1.042850889596742305e-02
-1.474796624307963405e-02
2.523751901461824404e-02
4.960224097251157704e-02
2.863355908881200229e-02
4.977640501095264430e-02
7.691294673429928397e-02
-3.413296760575294797e-02
-1.848559827307781900e-01
-1.514369309056317059e-01
-1.397105281818700542e-02
1.796598067502160057e-02
-2.330958486673603836e-02
-2.778835459259103302e-02
-2.742657569501528655e-02
-5.181024888481314261e-02
-3.910951443480862461e-02
1.819645839451629679e-03
-1.698969283317792317e-02
-3.388938316585776711e-02
7.589267290853526915e-02
1.808534317642750411e-01
1.154277517249553409e-01
1.903107605851675488e-02
2.802259781141825182e-02
5.008823891209038259e-02
2.399092746565967271e-02
-1.044639890881806678e-02
-3.461819927644044226e-02
-4.119495603416560570e-02
-3.102257389517948730e-02
-2.087366934449232103e-02
-2.090985823930176755e-03
3.968005340650600232e-02
8.187583143842674938e-02
8.084442352862472592e-02
2.775419174375020476e-02
-2.039320623896435231e-02
-2.912080037375414099e-02
-5.751998081916141065e-02
-1.196454993801790156e-01
-1.120666451683981907e-01
-2.090780256882283569e-02
2.848529613692798307e-02
9.606771048150339679e-03
1.147135615995152971e-03
1.356023710386740355e-04
-2.819763085910566985e-02
-5.117136616168715263e-02
-4.111925031240053208e-02
-1.026513952794572485e-02
2.223686848203174082e-02
3.512924494484244431e-02
3.193918632261680268e-02
3.650048898295234906e-02
4.191268117458337578e-02
3.476170040451143778e-02
2.565329737724673584e-02
9.482817069210267014e-03
-6.161963983478715469e-03
2.378914595915009728e-02
6.492623005543120274e-02
2.791977583304010996e-02
-4.934974140934371423e-02
-7.183746675607752263e-02
-4.670266418954387849e-02
-1.788926285524621018e-02
-6.582847914656893805e-03
-2.222612522345658592e-02
-3.322106086667619279e-02
-2.438347201655252303e-02
-2.897486565731413263e-02
-3.090200793499172510e-02
-2.399943703668588110e-03
1.037080552147234477e-02
-1.552759310690893235e-02
-3.465167839763674817e-02
-3.336058694813028719e-02
-2.899221236180588718e-02
9.672413781773667868e-03
8.600293871788480815e-02
1.329252233596144861e-01
1.529409564021997070e-01
1.497887198973061051e-01
5.413777393692657813e-02
-5.322918846522499414e-02
-5.053962388301324465e-02
-3.374201474625752872e-02
-3.410943992045765982e-02
7.148526448035406877e-02
1.672258332720313601e-01
5.856842206885289059e-02
-1.063535009657212982e-01
-1.286542967365312817e-01
-8.738517001057768963e-02
-1.014837140057810866e-01
-1.337071037237780591e-01
-9.619170265392994190e-02
-8.568848442914023603e-03
3.331014250613788252e-02
3.798806429792488115e-02
4.019993536527521893e-02
-2.082285601328330571e-02
-7.285835523630530830e-02
3.225930658854903044e-02
1.457819715281525041e-01
7.639312378955183391e-02
-3.286662142253367336e-02
-2.913195264718793434e-02
1.287211639207928859e-02
1.522125271115197347e-02
-8.161291400498680432e-03
-2.202703886088134069e-02
-1.520109484247818971e-02
4.307980993494761601e-03
5.217054199774420059e-02
8.842734596417226034e-02
8.132002303675325491e-03
-1.183779141271124602e-01
-1.140696080532258988e-01
-2.920926458092982028e-02
9.204957149660242255e-04
-2.590752467003758566e-03
-2.315665485764507349e-03
9.818593386838863485e-03
3.161461446764137623e-02
-3.603647597501394035e-03
-3.240841983109297303e-02
8.775039412006520323e-02
1.825571373991803914e-01
6.992904316291852218e-02
-1.552772194252941690e-02
2.014716060420748689e-02
-5.391839247263657819e-02
-1.528971285977592243e-01
-6.822085956291325248e-02
3.294296814337642487e-02
2.114839141074517995e-02
8.210814387967656572e-03
3.496370324430500640e-03
-2.193373375581535167e-02
-1.209104936131664282e-02
1.576422918746987409e-02
1.940006444911754335e-02
3.719142711419789332e-02
7.901042636473877556e-02
8.681281582754442339e-02
2.930866514062243494e-02
-4.317958150814641544e-02
-5.202566236318187376e-02
-2.842063127680917109e-02
-7.357297761800711544e-02
-1.389102135449732101e-01
-9.902436703596315115e-02
-1.272086683621556462e-03
3.847225745049048101e-02
3.460528866428938533e-02
3.125453957979709707e-02
1.213246913109969002e-02
-1.463972605543055125e-02
-8.770609786128126528e-03
2.659293574543812252e-02
4.566446692665947910e-02
3.250498378950749528e-02
2.888119120043678573e-02
3.929449156990064834e-02
2.760084986413925690e-03
-2.743539819416185299e-02
7.446235292820982399e-02
1.987502140135414264e-01
1.424614037800781552e-01
-2.776183881323209673e-02
-1.366540701382823464e-01
-1.674592192553457648e-01
-1.825174929015385972e-01
-1.892447390766630322e-01
-1.379800975844509558e-01
-2.910111021358674152e-02
5.171594299305755371e-02
7.239934612618900700e-02
8.776278827546699079e-02
1.096640691317735949e-01
9.632091180062513081e-02
4.328219936528641953e-02
-1.336634834716865679e-02
-4.014017720758059071e-02
-2.508217814274664795e-02
3.558436122875961033e-03
5.038207091351470067e-03
-7.946898892974008088e-03
4.206283846861086362e-03
2.809145088449039110e-02
1.735129972524724826e-02
-2.360648860542378241e-02
-3.757271964157679611e-02
-4.206546891959156084e-03
3.073050898984153526e-02
3.297418605973784222e-02
2.552321899308616221e-02
4.476701401564455590e-02
7.828575985509941826e-02
8.527954801161280463e-02
5.894573712920196662e-02
6.643247313161503367e-03
-5.229175687153681668e-02
-7.177871064126438438e-02
-6.330344771931568915e-02
-7.993839695207208274e-02
-9.394434219545540199e-02
-5.613987985799672592e-02
-1.149891361942196114e-02
-1.044094456972811773e-02
-9.343843866172065610e-03
3.065615599601318256e-02
5.258344142866701321e-02
8.955786418469773025e-03
-3.033116416841574389e-02
3.989052242362625504e-03
4.336098771114396677e-02
9.004980168714633512e-03
-4.697884313776672094e-02
-5.408154535283057202e-02
-2.559967163858522382e-02
1.374568594205708219e-02
5.120153602102490292e-02
5.672894034131073515e-02
4.327578868697837255e-02
3.241960164600656003e-02
-1.970974120803269114e-02
-7.491193813190752393e-02
-2.555946740026770331e-02
5.863473295478256742e-02
4.832428630672463282e-02
-1.817777382822111445e-02
-6.651753604311307078e-02
-7.333101441010758670e-02
-1.513212777781087863e-02
6.056366559717155790e-02
6.762454095219834482e-02
2.726155835864566002e-02
3.651556001708969150e-03
-1.375046738041101058e-02
-3.953780180861573429e-02
-4.306905564934369879e-02
-1.527488344714726491e-02
2.043892834387965943e-02
4.194060645864842313e-02
3.957975340979819068e-02
2.088778989323095484e-02
-2.514690060662461580e-03
-1.147083246895387425e-02
9.103183021056785590e-03
2.621474150851043489e-02
1.948413300483968491e-02
3.102427438352006392e-02
5.967752156879566755e-02
5.930420979156285355e-02
5.371501950706936840e-02
7.661948110691320368e-02
7.334019318153313371e-02
1.257949196071549841e-02
-2.344926643808568911e-02
-3.243283556875363113e-03
-1.775227285977460517e-02
-7.051832259518306389e-02
-7.934945491159613173e-02
-8.424895352933665926e-02
-1.373565483073687643e-01
-1.510334175773630772e-01
-7.765483660091225537e-02
-4.563432082419690075e-03
1.101451707866602306e-02
-1.131516701800482083e-02
-6.402208240675787143e-02
-1.087510647180668644e-01
-7.216202704871159390e-02
-3.295754037678530132e-03
-1.221487604354550005e-02
-5.093120123530878868e-02
-3.806979182295674308e-02
-4.795152553169595988e-02
-5.216554717238390537e-02
1.393200539022024786e-01
3.572043114529694363e-01
2.093477766484200253e-01
-1.273592845628505055e-01
-1.936311119069949460e-01
-6.576604879648399737e-02
-2.649218263864342587e-02
-3.080766446391733707e-02
-9.738994086821935875e-03
-2.723663230654061601e-02
-5.324296090226757899e-02
-4.185313245418925687e-02
-2.240603027862585195e-02
1.490598508706916792e-02
9.885027948503445627e-02
2.310411420045345166e-01
3.677146245901192767e-01
3.890322666838489929e-01
2.747362824254099833e-01
1.849231514208634353e-01
1.850588820458736738e-01
1.736313691949656346e-01
1.159436486139950734e-01
5.158266823982840532e-02
-1.940861250193696985e-02
-8.311367252143964102e-02
-1.205591607706347490e-01
-1.665194653050943996e-01
-1.954799116395856684e-01
-1.074371064623761002e-01
5.808453423664340642e-02
9.386424212162443326e-02
-1.573974136376315169e-01
-5.873893755214572021e-01
-8.163097892426587343e-01
-6.248168545927644812e-01
-2.572137993496397268e-01
-3.190652083076911394e-02
1.179816053673017617e-02
-8.870586996325952045e-03
1.931892654249819929e-02
1.117896019148108683e-01
1.797199892336087124e-01
1.881901986595613530e-01
1.820624476950964410e-01
1.654372534726149813e-01
1.368262642574200327e-01
1.203052162339492415e-01
1.026191826033885091e-01
8.166957887631870472e-02
8.044378654988966482e-02
8.093245255101270963e-02
5.348643648979059528e-02
4.524902680569389823e-03
1.011083545073770268e-02
1.285089290849777133e-01
2.228181566461603369e-01
1.479967344738654100e-01
-3.030208366377379336e-03
-8.965118622033661777e-02
-8.330647141004438039e-02
-4.233320462895601849e-02
-4.626194574257695008e-02
-5.040973524282642976e-02
7.612643854663786458e-04
1.122813290577071715e-02
-4.453206064134076353e-02
-5.459439741685763459e-02
-1.848146635762085502e-02
-2.617084975944178327e-02
-5.900648956242147969e-02
-4.025941556960615370e-02
8.948065442867973035e-03
1.265507268135199030e-02
-1.606151548656892594e-02
-9.804242802230057896e-03
2.228146269217205072e-02
2.526235620094656811e-02
-9.291764365504003031e-04
-1.711957927627198034e-02
-1.474987591670960316e-02
-1.587534427769257336e-02
-2.136273685942968736e-02
-1.523199346386009019e-02
-2.419163019161195416e-03
-6.981155807800639920e-03
-2.931066368528386853e-02
2.144691522417254553e-02
1.788802862520344761e-01
2.120914058980047923e-01
4.745614068012597719e-03
-1.378515653655864037e-01
-6.909127077939575257e-02
-5.227647776772385846e-02
-1.520139263154887677e-01
-1.487512519696819469e-01
-3.976385974717359939e-02
1.272457320395930722e-02
2.244476168172465300e-02
5.894150819579682676e-02
6.228669111264911740e-02
1.565382900983285086e-04
-2.572470697194104150e-02
3.125010979877031192e-02
5.577801534156017621e-02
1.990933303619907627e-02
5.327778671780409453e-02
8.798298015853456278e-02
-3.831298078095685122e-02
-1.442547024665019884e-01
-4.690468531842265781e-02
5.665564965079465665e-02
4.308992695099048142e-02
3.950873706481704273e-02
6.731680802095996174e-02
5.607572293575744521e-02
-2.272585390977626286e-03
-8.474724609326819702e-02
-1.138044899771044893e-01
-4.492683994224289101e-02
2.079268450692381767e-02
1.568482460404986567e-02
3.066457250272153559e-03
1.736835741967419564e-02
2.602608591062895507e-02
1.350295270197370001e-02
-6.842275634234424621e-03
-2.030842831268801427e-02
-2.220223783473454157e-02
-1.699053523220514506e-02
-1.557402796691303992e-02
-8.985911925198979133e-03
1.929017433329307390e-02
3.460746220875648288e-02
1.693103090707673980e-02
2.178451700767967958e-02
5.043460492988070115e-02
3.649754119419407888e-02
4.801161635384130696e-03
1.323456572545543553e-02
1.296321328641694519e-02
-1.908660633275848645e-02
1.049592249700198425e-02
1.066124289249067991e-01
1.338651633739937896e-01
4.756349144464176726e-02
-5.244929825455915684e-02
-8.383138347745273944e-02
-6.935647116855317429e-02
-8.522400598785034864e-02
-1.284319918252530834e-01
-1.169678220196462698e-01
-5.201501833420459076e-02
2.774183219985187562e-03
4.566149029738719028e-02
6.519040245208243545e-02
1.324206230224254585e-02
-6.416843559248736062e-02
-7.169024791112714456e-02
-3.053767363832364870e-02
-1.102375193958306070e-02
-3.209473211206742213e-03
2.184869092907229526e-03
-7.527541061127901792e-03
5.361933865649841889e-03
2.498124596549189044e-02
-1.381287138759939963e-02
-2.740723615443420302e-02
7.241803059172161050e-02
1.615585810041065551e-01
1.584401728773633111e-01
1.359510734009021782e-01
8.352326884562488729e-02
-2.655543012836263789e-02
-9.788633192053017296e-02
-7.790244812940630426e-02
-3.805704011868510372e-02
-3.549965731504093475e-02
-5.318983489464534226e-02
-5.548520840003533239e-02
-3.261939770544911021e-02
-6.196053088160577774e-03
7.978324599793435584e-03
1.615158572863689690e-02
1.659667604798795160e-02
7.607379895869967670e-03
7.540034197849876385e-04
-5.552973435279217728e-04
2.204642816891901926e-03
1.557286095835851494e-02
3.821381315604019391e-02
5.038559918120126546e-02
3.245468709327821444e-02
-1.153409479014099945e-02
-4.412700873282609376e-02
-2.723092557935341551e-02
1.245261583084399971e-02
1.706091715437054943e-02
8.613591400940905779e-03
4.631731106379953500e-02
9.702246389843911800e-02
7.825035016696761658e-02
-5.500047054184435680e-03
-5.847343891423624485e-02
-3.889922718859677164e-02
-2.282377301300386047e-02
-5.694900667296494412e-02
-1.120400023843162868e-01
-1.607992747532315803e-01
-1.266820136309023126e-01
1.153872243630599780e-02
8.316439511619454217e-02
1.003656396760985864e-02
-3.276395585758762330e-02
2.962895037996435971e-02
8.151554875774170289e-03
-1.160270037420810529e-01
-5.671340976357960861e-02
1.343267415811147947e-01
9.304447292869816311e-02
-3.801086392038968698e-02
7.948375248100876533e-02
2.127720239893826637e-01
9.381072492877468028e-02
-4.981465282577710735e-02
-3.380795901873459575e-02
2.004417721854492504e-02
2.817440323528250939e-02
-6.560153551924749818e-03
-8.634868634884573790e-02
-1.267469354648423918e-01
-5.964936262417072643e-02
1.246050884712315843e-02
-2.359540530973557038e-03
-3.654584618241019794e-02
-1.751000380542976770e-02
-5.110322862934032866e-04
-4.495187643117681126e-02
-4.020493467974817908e-02
9.440346205044926331e-02
1.653794524283443979e-01
6.232841493667806015e-02
-1.807252515571235521e-02
-2.242592029078966515e-03
-1.485463509400907108e-02
-4.149333751607126031e-02
-1.570806761150487368e-03
3.757943707457987725e-02
-1.973755987447201737e-02
-6.747982305919124346e-02
4.807961870833196705e-02
1.679525092554314258e-01
8.500901601704206889e-02
-3.727147697675505661e-02
-1.943889330557288520e-02
2.256590617932836829e-02
-2.125650908437556712e-03
-1.667005749550733509e-02
-4.928146689124902544e-03
-3.421059916238915199e-02
-7.388539270091128153e-02
-5.276255172270201410e-02
-4.512477958694697394e-02
-1.272015736355460447e-01
-1.617622611249905640e-01
-3.687479194747243783e-02
8.853446310686295673e-02
7.460861487588089924e-02
2.093438981436013605e-02
1.164252109655298031e-02
-3.715350743128849331e-03
-3.667848089320199095e-02
-3.432801096078538089e-02
3.109575206821768752e-03
1.775336532135440848e-02
4.790037806685838381e-03
9.878488234457447753e-03
1.235803638209754390e-02
-1.042355492457907457e-02
2.715566023120325519e-03
4.092435373955116695e-02
2.560965674084945617e-02
3.579630986896641803e-02
1.513204055452040675e-01
1.946538144517583058e-01
5.772876837075278933e-02
-6.151518893896404383e-02
-3.453050370295866062e-02
3.846601517300399231e-02
3.414432709164918339e-02
-7.388847533335360374e-02
-1.518684032366661718e-01
-8.764605377236453498e-02
1.512471020963186176e-02
5.460365565578696734e-02
1.999613276336808035e-02
-9.071960952450401627e-02
-1.547511232207876564e-01
-6.914822935763989542e-02
2.863463595311952631e-02
2.627303671612909314e-02
1.248085974856890865e-02
4.017151451124839623e-02
4.572271926729198910e-02
1.569187020801084131e-02
-2.047310571337964888e-03
-1.290692626503046544e-02
-3.495697058966526494e-02
-3.073213993945060618e-02
-4.670287684074131071e-03
-1.587894176037043387e-02
-6.074625437898029633e-03
1.139354552484073968e-01
2.090601899953644927e-01
1.382021256877063453e-01
1.756458411846321954e-02
-4.907279260133434740e-02
-9.133275845570049123e-02
-8.498564452651857781e-02
-4.341944535765032004e-02
-6.620275602980554841e-02
-1.103956663772462932e-01
-5.815865029543029058e-02
3.830645303542627028e-02
7.852352919596260195e-02
7.159821047883607736e-02
3.038153598529446872e-02
-3.425728220505977473e-02
-5.110723738319090936e-02
-1.154659915543729612e-02
3.264424140694937616e-03
-2.197504417807775307e-02
-3.010862556991362321e-02
3.211208324069266765e-03
4.922661580516721203e-02
5.064811373910595160e-02
-6.792741706474344013e-03
-4.213782962988994740e-02
9.632652459846640161e-03
7.627795527125046104e-02
5.221667270612975753e-02
-2.005262518009330239e-02
-3.390322047617209261e-02
-1.810185638237881561e-02
-3.880552941743022066e-02
-4.660641121484965926e-02
-9.067461698034181422e-03
1.257260314417728807e-02
-1.104166202685634077e-03
-9.412678845320867835e-03
2.316250313469912087e-03
2.559070979036158489e-02
4.098598982622696923e-02
2.967233152347353159e-02
1.417777010970373321e-02
1.100677511849826318e-02
-5.659335445962272032e-03
