-7.399222071842663506e-02
-1.621650125555526012e-01
-8.506388361619776628e-02
1.068560223109283475e-02
5.853617857827786430e-04
-2.560849492697467311e-02
-4.986409104274064016e-03
1.506078742476480402e-02
1.390826764018250443e-02
2.308928444490648477e-02
4.792831753291700025e-02
5.055405596880852004e-02
2.490916987446223016e-02
1.814337291421135338e-03
-2.305000809096573178e-02
-4.584612778307413372e-02
-2.713851617177263226e-02
1.509580322289527307e-02
3.513838641506256133e-02
2.813360497269777605e-02
-9.456329598064522682e-03
-2.036463576642151899e-02
8.199208147014425130e-02
1.778498918003552920e-01
9.764315647473174875e-02
-4.524377244003728593e-02
-8.129282065391274514e-02
-4.149503217465419502e-02
3.940479319864059055e-03
2.231381458273623206e-02
-6.292297001231408719e-03
-3.588991787356325680e-02
-2.180133351069000330e-02
3.932813243142944427e-03
1.220247375848958551e-02
1.122976864680471504e-02
6.158995341041216542e-03
6.426261298383133258e-03
8.752531075012746908e-03
-3.047452719950953428e-03
-1.654293113836209639e-02
-5.542628619392263312e-02
-1.283303938080674333e-01
-9.610814338108131238e-02
5.907274545134198057e-02
1.130208468588127096e-01
3.254434457939873321e-02
-2.310601758080054260e-02
-6.017785293366306049e-02
-1.067942478022974734e-01
-8.366972966297453462e-02
3.271469749587301024e-03
8.149374237618954575e-02
1.217547545895441008e-01
1.021211635572656790e-01
1.891033926253901654e-02
-8.225243332719031630e-02
-1.449719621006662074e-01
-1.237336916623066607e-01
-3.712731205436560489e-02
8.920515255327769732e-03
1.224164607941377950e-02
9.618503684250297170e-02
1.892244046202201935e-01
1.202644298512887677e-01
9.879398541567356237e-03
3.189140479351178920e-02
6.758191792525687636e-02
-2.223217165114460287e-03
-7.266343594106983161e-02
-5.966116937042093005e-02
-2.796439726131049602e-02
-4.041750097040422429e-02
-6.794815330147938037e-02
-5.301245716080005277e-02
5.679303026781310805e-03
4.002764834976625663e-02
-3.326846145118118533e-03
-4.479991539269405354e-02
3.040572696948554490e-02
1.223780052259780399e-01
6.712495464824351499e-02
-3.178206966262539512e-02
-1.758367704478857110e-02
1.630153206221879314e-02
-2.803782168881462089e-02
-5.859371471842494961e-02
-3.012437860929367828e-02
-1.174528903837297744e-02
-1.101752796295325972e-02
-6.050056185581178516e-04
1.215933252084979224e-02
3.289560447187205028e-02
6.142178246047976659e-02
7.208505014649173315e-02
3.626953618512128441e-02
-5.399163770464613515e-02
-1.233590776117544363e-01
-8.974255485754828454e-02
-2.223931745887499506e-02
-1.914654357558122008e-02
-3.306921985891160543e-02
9.753310092011314644e-03
6.843296415004078426e-02
6.426884899915663585e-02
2.637812576011080989e-02
3.730566273697999424e-02
4.689304636369048818e-02
-2.598703332617805298e-02
-9.602818801367279944e-02
-6.467660277331520324e-02
1.882981844426053278e-02
6.441955735732245170e-02
4.785776629216670353e-02
7.745879325391941475e-03
-1.154081130027604513e-02
4.069834963625584313e-03
3.732491101413774881e-02
4.011940249155362265e-02
1.527907447471457333e-02
2.182044227691826502e-02
2.562650750934630101e-02
-2.577633218228026282e-02
-5.381236392556118520e-02
-1.671557201650882354e-02
7.593716244710146598e-03
5.403770219812541881e-03
3.050000900749851376e-02
5.680610709141761111e-02
2.293176580321893213e-02
-3.879818987029497179e-02
-6.217517208165165843e-02
-7.171607529763220079e-02
-1.049941943313047188e-01
-1.094839679375839425e-01
-5.499582675817717148e-02
-5.116674010476261227e-03
6.227765631704644880e-03
5.544921646426829998e-03
-4.040136571691889736e-03
-1.908612130517537905e-02
-8.993807792171041801e-03
2.145883014473324440e-02
3.631476234483198978e-02
2.189797051327985189e-02
-1.428437324656388514e-02
-4.046966237775243003e-02
-6.012678245265759558e-03
6.754580864337075830e-02
5.654369877001789307e-02
-7.283370157292851088e-02
-1.368023085416649187e-01
-1.304241198036399166e-02
1.176387839849841604e-01
8.660798292390572972e-02
1.376285786212685068e-02
6.396224647820890341e-02
2.204965870408901185e-01
3.044671060529431927e-01
1.872143042727908990e-01
5.237240622445011456e-02
9.335937198366978107e-02
1.235220123926087654e-01
-6.980538265921222216e-03
-1.062874381048689865e-01
-7.360312493939222267e-02
-5.010163085391332316e-02
-9.839887068358249556e-02
-1.547019624452041775e-01
-1.877541481183919170e-01
-2.106049265613700316e-01
-2.248423584178270429e-01
-1.962679146353623894e-01
-1.170689853794383006e-01
-5.116590168401406041e-02
-2.086488046369852634e-02
3.085116111572493158e-03
8.571938878607049395e-03
2.404925165977059992e-02
9.591787890083451618e-02
1.573886505421366599e-01
1.519320904841862385e-01
1.075917641078445591e-01
4.295105688215006962e-02
-1.369634065174766191e-03
-1.916214051430591842e-03
-2.824577318835347350e-02
-7.428856907663458631e-02
-6.357636433191571346e-02
-5.972380192564716306e-02
-7.141404867435602322e-02
4.629758111578238799e-02
1.940905387140030303e-01
1.545098763828466337e-01
4.539858746507478837e-02
3.528032120772062186e-02
4.317885250471516917e-02
7.614340857125095549e-03
-2.107664606687532569e-02
-2.540680003659155292e-02
-1.053329307431578876e-02
8.305803549370341377e-03
-7.916707376471635374e-03
-5.105952711664663718e-02
-8.064717231357614036e-02
-7.916170132249651659e-02
-2.942272755109544280e-02
2.547521458658456167e-02
2.102835707052669659e-02
1.731843968667702571e-02
4.345150640574241968e-02
8.218589206656358795e-03
-4.016220690453266989e-02
3.703403245678889982e-02
1.177047276968180567e-01
2.485664784572412522e-04
-1.460524625322396908e-01
-8.973139136720871545e-02
7.509834018021646629e-03
-1.751390313095255516e-02
-3.972824390571331327e-02
3.260412025072174230e-03
2.580910569736064725e-02
3.717366216288464295e-03
-2.263976889385020674e-02
-1.773399843937825682e-02
1.726458437900137491e-02
3.735545423293161471e-02
2.269781151800107435e-02
1.388869602122113495e-04
-1.562878399495958026e-02
-2.685383464875243376e-02
-2.609252961623880623e-02
-5.671269037690950671e-03
2.624507059753525620e-02
5.778923515564598351e-02
6.860814324024343269e-02
2.282223037408070976e-02
-2.021238637998136814e-02
5.284034319097218046e-02
1.396055870941153021e-01
7.455097337976353267e-02
-3.976509275745521849e-02
-4.074004242711788681e-02
4.805278093810436829e-02
7.657486956114363530e-02
-5.685122026356393549e-02
-1.863298469571128269e-01
-1.176598279472559350e-01
-6.140428114762411238e-03
-2.051110873092142420e-02
-3.742903740131071910e-02
2.291157487305466381e-02
4.495317303882422760e-02
-1.065323463134234053e-02
-3.082580820619183065e-02
-1.217882272828309416e-02
-9.686765224263996221e-02
-1.843867428898494643e-01
-2.961343511200565520e-02
1.678416759338100805e-01
1.122427652540906595e-01
3.921510969464041263e-02
1.199511563125501418e-01
1.049640605794204956e-01
-2.108199661596656810e-02
-4.623690129466527521e-02
1.108711597377897914e-02
4.822433299031348569e-02
3.860302836169097335e-02
-2.261893297528503113e-02
-8.181561959844760312e-02
-9.788808364956429198e-02
-1.188956881832562984e-01
-1.266315869332450827e-01
-2.706070066168967531e-02
1.136924546147767001e-01
1.292842431033179584e-01
2.203022378353615071e-02
-5.739562032046982565e-02
-1.369401739255180633e-02
5.268655761417934819e-02
-1.088209952429543964e-02
-8.282819722904501136e-02
2.576830782386127852e-02
1.416213654293848323e-01
6.457543073811593259e-02
-3.787090871911946016e-02
-1.263139098703754473e-02
3.376277655194902250e-02
3.655410768863329857e-02
3.151651591447320738e-02
-7.966336265338117006e-03
-6.983733411693976434e-02
-6.277933083413660131e-02
-1.374312863557036746e-02
-2.340018915411886877e-02
-4.580674217695111100e-02
6.960321501565830751e-03
6.411283778980846060e-02
4.291591346320140082e-02
1.069670271117520791e-02
1.660911247613244823e-02
-2.771243585757687637e-03
-4.927216059530485637e-02
-4.434856983324601126e-02
1.438414852905438822e-02
6.311222900533346170e-02
6.737775658681086077e-02
4.778438675629298471e-02
4.529410021151712706e-02
1.019372295696631923e-02
-1.291805613645929107e-01
-2.249456034420337924e-01
-1.082954371709694275e-01
4.318295467867532683e-02
1.751341316412937180e-02
-3.983541516321032622e-02
3.508805620994753793e-02
1.120903703251411032e-01
7.633047286626190586e-02
3.248670107967338572e-02
3.611178188354424723e-02
1.105284569162695400e-02
-3.571794512079273787e-02
-5.648240919123882764e-02
-7.757429615269281764e-02
-7.569298075413341542e-02
-3.089294699396203520e-03
5.556943601658288767e-02
2.194779188484887247e-02
-1.663214362838339247e-02
1.421306786283351754e-02
4.920691771477223031e-02
3.496250470553045886e-02
7.317623772476841704e-03
3.709688998755746557e-03
1.786263224537342278e-02
3.112119599522554861e-02
2.811666378562463139e-02
-8.147672127636996359e-03
-4.180949162669622687e-02
-5.634305962529950751e-03
6.292762686999230082e-02
8.689875087287454725e-02
8.403376576642312967e-02
5.631000694922485422e-02
-3.736992449574745578e-02
-1.213041754010692197e-01
-9.059093683828273180e-02
-7.156234594557223799e-03
2.309378788528611282e-02
1.388330443021268921e-02
1.205586920573023003e-03
-2.173694189051268710e-02
-4.282014930199991298e-02
-4.924537932097669546e-02
-3.846414587300565208e-02
-3.100689561450614955e-03
1.368483184528239763e-02
-1.414998845426988089e-02
-2.251147485766834266e-02
-2.783112819598035186e-03
-4.011023490283755280e-03
2.232528003825094004e-03
8.605570038680019143e-03
-6.838040465042048710e-02
-1.574566402973059664e-01
-1.028364137598352102e-01
4.875240406553592309e-03
-1.706702358331577823e-02
-8.779791110345920579e-02
-5.248479148763393609e-02
4.403983816226163250e-02
9.393136187776826573e-02
7.897113620398729661e-02
5.617805429402689121e-02
7.101650066264154904e-02
8.350196542634552577e-02
6.483287337540502571e-02
5.984383348954727677e-02
7.606045015903645234e-02
1.077984230799931137e-01
1.799984301903780337e-01
2.240454796977266461e-01
1.852618118830342830e-01
1.659511257200511902e-01
1.363497945877845674e-01
-4.796229846387307233e-02
-2.037580575430468222e-01
-1.172896550611220584e-01
-1.949278431350285473e-02
-1.196436868059173320e-01
-2.504730338107807319e-01
-2.619912335142123849e-01
-2.221102905644359304e-01
-2.286983158359462420e-01
-2.655616014138433845e-01
-1.910591842764456927e-01
5.144818410587992386e-02
2.417592396807960453e-01
1.885940039981887639e-01
4.713222524248925072e-02
3.047212383346276435e-02
1.006288095218027118e-01
1.281190481056710684e-01
1.018205755925089134e-01
7.160770689422149560e-02
4.071754795019576906e-02
6.682043326738299101e-03
-1.037316081388749145e-02
-9.171857200840438304e-03
7.516566168918499546e-04
6.420004766542046840e-03
-1.275782136119904195e-02
-5.218098370596226110e-02
-7.621844289435213138e-02
-5.161907530755738965e-02
1.085945232859428580e-02
1.816917034507593842e-02
-8.852551259333331368e-02
-1.483794983540807078e-01
-2.128146344347579474e-02
9.271387263691664715e-02
3.465193094549356284e-02
-1.852278619402800836e-02
7.222842762231592231e-03
-1.102857890750277327e-02
-3.523987665489024951e-02
2.147377675737540195e-02
8.244892657896214783e-02
7.874004328433717448e-02
3.299370077265744577e-02
-3.600261760047881315e-02
-5.100602122623551504e-02
7.273429656424609813e-02
1.722847020699551923e-01
7.029618860501372912e-02
-3.451883938502443849e-02
3.928431781348559748e-02
7.024669617743092842e-02
-8.316323431365453545e-02
-1.747406594030087579e-01
-6.677231429131359752e-02
4.210658379238698540e-02
2.126068304256316377e-02
-3.605634740799637528e-02
-3.186098285584089418e-02
7.377931084794029336e-03
2.762697985124046296e-04
-3.178647599923593164e-02
-3.081641089283518493e-03
5.633052809075531076e-02
5.610656014034226535e-02
1.288746625616641640e-02
1.146440226501046198e-04
7.295830927873565852e-03
-1.250421882899331247e-02
-3.541825633931123402e-02
-2.660541530144881067e-02
-1.754268406335137646e-03
1.674181359169965577e-02
1.814026386372305163e-02
2.903353629329270130e-03
-8.010553542428912668e-03
5.472296688184562913e-03
2.253518506921742964e-02
1.966093642964667973e-02
3.729673376113963601e-02
4.962901652977576988e-02
-4.385073590230079144e-02
-1.194290773626378449e-01
-1.032161309369692206e-02
6.118120490395407424e-02
-1.033668786997478661e-01
-2.216131230200825697e-01
-8.113203552528558404e-02
7.274881957250722841e-02
7.349240987189778473e-02
5.583063382242013650e-02
5.086228164841828658e-02
-3.584976385385445913e-03
-2.557131778131419703e-02
2.644044467129871845e-02
5.149705791815194222e-02
2.639969339002653376e-02
1.811761886083315676e-02
1.790396971746514854e-02
-1.337340741886901448e-02
-4.570043649839113792e-02
-4.556911755011143483e-02
-2.970786177205405471e-02
-1.674593257918043088e-02
-3.749759121703002355e-03
1.337037933794802194e-02
3.916392193450394382e-02
6.528590018662643046e-02
5.548974855835485387e-02
1.922389482088765131e-02
2.360823898292760750e-02
4.398100206148639058e-02
5.513598857651057575e-04
-4.238428592445678267e-02
7.399872214625798084e-03
7.308788818190717351e-02
6.031324317828458403e-02
8.306318707338127341e-03
-8.757475171522928481e-04
5.008175510322825791e-02
5.566699779133892773e-02
-6.961370665798612134e-02
-1.598283810186466036e-01
-6.672460941741666096e-02
3.538374322994877752e-02
1.488227155032648477e-02
-1.156617935018773406e-02
-1.015255230631032304e-02
-5.116698571199017331e-02
-9.018186311496521890e-02
-7.012217586323410412e-02
-3.406200016344797243e-02
-1.732400374007438126e-02
-1.200202860204678534e-02
-1.268039127184346360e-02
-5.892839445025834302e-03
3.640511023304429661e-02
1.018734957634757216e-01
9.399329913151806271e-02
-2.272961952595008162e-02
-8.923328704666746991e-02
-8.553654892066022558e-03
4.877138070356441812e-02
-2.323046838359296706e-02
-5.675198929448203172e-02
3.201194134298445543e-02
9.272663560094943080e-02
6.382273459206222466e-02
3.843219561992142902e-02
3.240954942541736383e-02
-1.193506866318226958e-02
-7.914309958962380265e-02
-1.019787953675474340e-01
-5.990001518456217200e-02
2.944384543566531606e-03
3.621343471679178833e-02
3.975871349961393464e-02
1.994546443743722836e-02
-3.351936151995008745e-02
-3.066528568340180783e-02
1.113983776988217433e-01
2.051311541587428344e-01
7.562165955399431649e-02
-8.753831579400699059e-02
-9.972105102719727721e-02
-4.747404284944950481e-02
-4.335930541889749211e-03
3.174464338856928386e-02
2.915792123610490283e-02
5.342681941612924083e-03
2.969160469444642649e-03
4.547521671876166363e-03
-9.287023529220903365e-03
-3.727430053403107957e-02
-6.252833731021043007e-02
-5.534890292814254042e-02
-4.315170433812649808e-02
-5.970820571279961131e-02
-5.111577429676519152e-02
1.313023954451689873e-02
6.189157595028512565e-02
4.785248477500982089e-02
2.264742908681645350e-02
3.243243207387290494e-02
3.621870685024407982e-02
4.140547680740603274e-03
-1.508808984856463073e-02
-4.747024620949230264e-03
-7.693314374535154335e-03
-1.457293470349147087e-02
1.818685475963485731e-02
6.639010537719046423e-02
6.238545802357885889e-02
-9.783110441879157640e-03
-7.340061267011048496e-02
-4.703366868293971936e-02
1.221003289894923016e-02
-8.615580912165514416e-03
-5.924286324286576200e-02
-1.625335269233305069e-02
7.646913991715004189e-02
1.040578293529134113e-01
7.995909844762366658e-02
5.219295718032773701e-02
1.381449385035118244e-03
-5.748217139415113391e-02
-7.949552592712957888e-02
-8.083507850490498359e-02
-5.973295534758218950e-02
3.530998534282488947e-03
3.483080170911541373e-02
-1.951113517754449536e-03
-2.784019294867181443e-02
-2.980312715814419783e-02
-3.621913694113026300e-02
-1.954463663128522613e-02
-3.549513309807020549e-03
-1.869030498380147565e-02
-9.242736880085049636e-03
1.665183614208204724e-02
-1.736906143090299198e-02
-6.724253204479344048e-02
-5.295237404900170197e-02
-1.985094292922303175e-02
-1.300973768155586074e-02
-6.271560484968478379e-04
8.988020786667390294e-03
-2.113023765981337371e-02
-6.460490692250032974e-02
-6.431044563163840211e-02
-1.113386357925365278e-02
4.631216409037866577e-02
7.119849740206599109e-02
7.864352883603399624e-02
8.570127223983033116e-02
9.125705321909653722e-02
1.067118627749232967e-01
1.447072195554660601e-01
1.909420804985347275e-01
2.287673601102445109e-01
2.594566101623100307e-01
2.546099834511830196e-01
1.775563883974476953e-01
6.598482531515881266e-02
-2.307553584566712085e-02
-8.532051766866063924e-02
-1.381112711311880958e-01
-2.179056185428248360e-01
-3.369876442033731268e-01
-4.043713991300759703e-01
-3.615966429339586008e-01
-2.960767598668216927e-01
-2.457783912662199477e-01
-1.555519939373758154e-01
-5.598037919669736351e-02
9.212783300322657798e-03
7.225823134498615685e-02
1.270135142992855903e-01
1.407823598783086716e-01
1.336659391006581044e-01
1.224857920238341114e-01
9.615541600555294055e-02
7.377965654627455239e-02
7.824694143585367301e-02
8.436390639216871656e-02
7.002324976910570542e-02
3.852688154724306924e-02
-1.549274356132079346e-02
-6.294518360993775485e-02
-4.331193237958033682e-02
1.175931664780785132e-02
2.105236501832599694e-02
1.639606630313601016e-02
2.196459053598028011e-02
-3.193438031318536485e-02
-7.003245335147632866e-02
2.006326931367101440e-02
1.069339447614963273e-01
9.156392682501998670e-02
6.532156181864590128e-02
4.042246189262879708e-02
-1.606864308456543849e-02
-4.484275900872713300e-02
-2.409212538291784222e-02
-7.012965529582960295e-03
-2.373230653365127063e-02
-4.756042768807225429e-02
-2.616793391282240533e-02
2.460033697297214078e-02
3.003458285673097847e-02
6.236577180529978212e-03
1.216359480753193348e-02
1.293259398237984331e-02
-1.031970091604134110e-03
2.873180628165710598e-02
3.578473781994543496e-02
-7.138239235742088740e-02
-1.584792918416109420e-01
-8.938642474140785776e-02
2.099706181200186941e-02
1.448498477285435973e-02
-1.108061780430805998e-01
-1.665485296519214342e-01
1.215256457837696202e-02
1.889341166193905241e-01
9.681699783910109602e-02
-2.943762365615677778e-02
1.529934956848257727e-02
3.971598898491590646e-02
-2.092112287014630256e-02
-2.041309720940057137e-02
3.716616122644243736e-02
5.942226182466497919e-02
4.122347614373048086e-02
7.644272389337907099e-03
-3.008903664822681207e-02
-5.210895708273796667e-02
-5.193599497367880347e-02
-4.148738090502272768e-02
-2.377835385254318395e-02
-9.479385426806040058e-03
-4.957494757472645161e-03
1.431160943467171646e-02
4.377812727579447061e-02
5.373702503472908149e-02
6.321343748227226111e-02
7.643271852779150166e-02
3.949661598798885620e-02
-3.963890757065267195e-02
-7.825953235227318949e-02
-4.706892710170661187e-02
7.619660512273682129e-03
4.027873359229922068e-02
5.046336549317885500e-02
4.491905478976945809e-02
9.890336620746233501e-03
-2.277617620804492024e-02
-4.370724141778590047e-03
1.842965815534208449e-02
-2.162042139566432153e-02
-8.167559195147061635e-02
-7.700128922224537542e-02
-1.106627279101305046e-02
4.638287385441140775e-02
6.546975449919088808e-02
6.083437297781547903e-02
3.284032774464419602e-02
-9.433809064034867284e-03
-2.529751314448051153e-02
-7.786835133408815009e-03
8.674183068150664172e-03
1.723798069365042873e-02
3.650251574347394140e-02
5.762008074055954832e-02
1.578823358478752270e-02
-1.366626045757301233e-01
-2.725544392454472553e-01
-2.153331924794312235e-01
-6.851859176381722150e-02
-2.527696469944070920e-02
-3.178769006223023524e-03
7.535966005797344047e-02
1.123722512481170055e-01
1.379409368597905028e-01
1.544354029974975562e-01
1.371676658329378309e-02
-1.379601117528922449e-01
-3.435924553715320739e-02
1.369606549607851054e-01
1.044104274836680779e-01
1.341778693535716077e-02
3.517225628182954478e-02
6.452239664495341975e-02
1.553460528331818830e-02
-4.097708599727976214e-02
-3.441837525741929527e-02
8.788036658221601294e-03
1.504906193818601051e-02
-1.053939774127966161e-02
-2.801487909974717180e-03
1.245106483804712255e-02
-3.228278156929224180e-02
-8.395780495509641561e-02
-5.909351294359520279e-02
-5.916713135628838549e-03
-1.051017047434101709e-02
-5.172247589860601985e-02
-5.286948042028020989e-02
-6.612923278207206122e-03
2.347489793909701347e-02
2.147072981959230117e-02
1.755527385984738398e-02
-1.201386430673301482e-02
-3.629602225826590589e-02
3.443284968358126946e-02
9.478775162575643620e-02
2.317848610640554571e-02
-2.645360948974435217e-02
3.443332630854231691e-02
4.470233826481057743e-02
-3.237080373095382879e-02
-5.109863081964755721e-02
1.732390329964402648e-02
6.024513240271119757e-02
3.302559624623202517e-02
5.778693952439675416e-03
8.606247753439537351e-03
1.043265819297104630e-02
2.951327769804354059e-02
4.193568886941002882e-02
-4.449226189669477222e-02
-1.415048766415002990e-01
-8.061445900405997400e-02
2.184189496456343665e-02
-1.775963602394158708e-02
-7.618700546603097978e-02
-5.458507447890949618e-03
7.401915366548227071e-02
5.977226698130842092e-02
3.689999365691969124e-02
3.583173010723107732e-02
7.477859197591274834e-03
-2.198771680070346971e-02
-2.638870067021747978e-02
-1.711612894141558913e-02
5.979435939125116173e-03
1.206291274077003588e-02
7.893674063562672316e-04
2.157094630464780755e-02
3.702676325905308180e-02
-1.074224325642156828e-03
-2.459495355639984560e-02
1.809528021129054587e-03
1.953338265930538650e-02
1.154137700697695224e-02
-1.150796158208792705e-02
-4.344745280409771648e-02
-4.095878875552434739e-02
-1.866431338245978094e-02
-4.512771290626453602e-02
-7.960561925899428681e-02
-4.773812927364254333e-02
8.160757752519048197e-03
2.843564205742906900e-02
1.785854610929789310e-02
-5.950033797327477884e-03
-8.721209804135871338e-03
2.047207166894949790e-02
1.255557896817037673e-02
-4.850564385863360972e-02
-6.625636743162940934e-02
-1.696614179415509294e-02
8.496919805730439312e-03
-1.351011373832025457e-02
-1.151152509866510375e-02
3.431318032831046083e-02
6.986425595404799349e-02
6.938267347868221080e-02
5.636171903590995319e-02
5.066222889433903698e-02
5.777814001610288852e-02
8.032926915614284347e-02
1.127746551517093271e-01
1.266877924616875151e-01
7.860481376874196846e-02
1.306032061841492196e-02
5.449166186641805909e-02
1.515260611986630757e-01
1.196242774010145560e-01
-3.391014718283046243e-03
-6.485250850515444920e-02
-9.095649783360740259e-02
-1.343623397047843948e-01
-1.543678340070851474e-01
-1.542988085621394001e-01
-1.704640099737486370e-01
-2.005631092800202464e-01
-2.282784664364441440e-01
-2.197816686037048772e-01
-1.414920655568203123e-01
-1.942132917493342645e-02
7.333354460921193141e-02
9.894687724147963048e-02
1.004824341459715220e-01
1.180830510108583919e-01
1.250593893201799311e-01
1.196153539269484006e-01
1.270303141929445823e-01
1.094833963497149482e-01
4.587914960433790712e-02
-1.429918804842238676e-02
-4.443345314094439974e-02
-5.335555434061244745e-02
-5.520598245154050010e-02
-4.581748060198936878e-02
3.534283213411929664e-03
5.369836612562121914e-02
3.895907025486666786e-02
6.420992865601000965e-03
2.039126231665320393e-02
4.731048820961564899e-02
3.755245749418297668e-02
2.050822532338129195e-04
-1.921554403094949404e-02
2.446519325127512884e-04
2.752495183398716988e-02
2.409630958757376026e-02
-5.540192928057298752e-03
-2.205131729461386886e-02
-9.410629029268044801e-03
1.912411220881178944e-03
-5.219359706402930746e-03
-4.419006567167007432e-03
1.073800661869806980e-02
9.452227977827399458e-03
-8.299400366368669957e-03
-1.882778519410698709e-02
-3.944090482491804245e-02
-9.090838872783930935e-02
-1.155230455730104078e-01
-5.433596699891101584e-02
7.226080091074336617e-03
-9.268173456798058790e-03
-2.851597095674006030e-03
3.610376834491034470e-02
-2.586008960482646599e-02
-7.469379049173771601e-02
6.591437874961053600e-02
1.866545051757244333e-01
8.630470600995993058e-02
-3.760552341008597393e-02
-4.461883578513956006e-02
-5.687148045396907270e-02
-8.313684131913354203e-02
-3.723184482275739698e-02
3.094480958032458200e-03
-3.858273152280793095e-02
-4.794629933062975746e-02
5.503576148572617011e-02
1.582293514729796735e-01
1.761911984556890631e-01
1.446515938602390694e-01
7.769535238305638747e-02
-2.405961598255404801e-02
-9.821441456716985263e-02
-8.631699643158602386e-02
-3.006939632428413597e-02
-1.292225838169019404e-02
-2.340640173134445057e-02
-6.236180626787144778e-03
2.331326755785630839e-02
3.203254286465238854e-02
2.549135589059061541e-02
7.419422979761856884e-03
-2.665334023558309923e-02
-5.518279509928559340e-02
-5.886905624211885568e-02
-5.162783190119966947e-02
-3.724425426855134530e-02
-9.336012128371509039e-03
6.646402893699020209e-03
-5.934607101004501367e-03
-1.543427455378297217e-02
4.554098060780325564e-03
9.136338999752791762e-03
-4.726387039269639573e-02
-5.097666958888318056e-02
9.763581600200307853e-02
1.929209556601199638e-01
8.350829835398185241e-02
-1.472384887146079013e-02
-2.703340042641225877e-02
-1.303820658423168466e-01
-2.063598205147450515e-01
-5.681636579554665695e-02
9.902550734450782377e-02
7.015048030182173544e-02
2.745952532098083071e-02
3.541290663824186308e-02
-9.196501959357412243e-03
-4.330563169940338658e-02
2.720671754020043479e-03
4.786957305427296666e-02
5.299690311536912196e-02
4.344640358876221409e-02
1.552264249783729712e-02
-2.097424969498730418e-02
-3.940275838580731271e-02
-2.994860618150264192e-02
1.604879715910686663e-03
8.553757093380139065e-03
-2.659250520366505596e-02
-2.798868505495245851e-02
2.949269093957417737e-02
7.103083333326880300e-02
5.842400913382001654e-02
2.699707539242827276e-02
2.409557429825089428e-02
3.011281867926463365e-02
-2.374835263036184987e-02
-1.074577121417494563e-01
-1.164527020191756246e-01
-4.762715950334871218e-02
1.939435299875290342e-02
4.623072213540266318e-02
3.186147229379705792e-02
-1.402297412397235550e-02
-4.858995476112490386e-02
-3.714478389808831271e-02
-1.791792013061414487e-02
-3.852362648214264357e-02
-4.563119590681767590e-02
2.298798499561583580e-02
8.243165190224269190e-02
4.337965184592959544e-02
-9.740216744042929156e-03
6.890715932630629356e-03
2.227639533264596378e-02
-1.518112211874100143e-02
-2.826936298577913120e-02
3.014005069599126618e-02
9.075201634075623358e-02
8.533810920590122195e-02
4.217759860893376123e-02
3.153275587023383897e-02
3.141960741913460420e-02
-4.640498101335044367e-02
-1.420818287034549821e-01
-9.893325601244343237e-02
1.904896983521862930e-02
1.250884308027985260e-02
-7.001352144462126559e-02
-2.547607508701429935e-02
9.823618610012452290e-02
7.942837742039912663e-02
-2.874682427928135567e-02
1.753229357196443676e-03
7.171686979917313298e-02
-1.237416150420786107e-02
-9.136531777721124126e-02
-3.416395713583357530e-02
6.489163341513048792e-03
-3.271135823819532051e-02
-5.190024744661817652e-02
-2.491816134720120646e-02
-1.213243491964666014e-02
-2.724645544005708034e-02
-1.439450842991610129e-02
3.539644302712689067e-02
5.919404975538690439e-02
3.347052716590804416e-02
-8.663310502038569158e-03
-2.991885593693624501e-02
-6.238543739908437510e-03
3.963974482393359949e-02
6.413535248160624758e-02
7.730324243552741392e-02
9.197778744086661240e-02
7.713713775725826449e-02
3.404051566898342457e-02
-1.796044192604805828e-02
-8.411196934119699598e-02
-1.142879094085239022e-01
-5.740048333654770851e-02
1.470996469087990088e-02
3.348445427467146990e-02
2.115728796320499872e-02
-1.459468228558438024e-02
-5.363303546177970726e-02
-4.712913930808193541e-02
-2.334109354251231311e-02
-8.440741675446353232e-03
3.928396338053581627e-02
9.063747398347310469e-02
7.068185708202465167e-02
5.853732525647673338e-03
-1.926621971375923337e-02
2.038312928707702171e-02
5.911272022272372889e-02
3.540909452092239063e-02
-5.879787037930857274e-03
-2.320732105340733362e-02
-6.048311917910197122e-02
-1.033597496865816118e-01
-8.779932495188239039e-02
-5.400570374465921836e-02
-5.072933212327897928e-02
-2.235451032243456967e-02
3.570869653338849120e-02
4.095294336053757062e-02
4.074849267926772961e-03
-1.297140044946060861e-02
-3.635897115824597570e-02
-8.247569156763723264e-02
-1.031552029033353385e-01
-8.776222273853520606e-02
-4.953058710277616350e-02
1.612143310484709727e-02
6.299864247946716789e-02
3.368283780176116460e-02
-1.603412486130022241e-02
-1.139762971881483518e-02
7.980699434729813732e-03
6.303748524997486100e-03
2.567550810888251378e-02
6.518170868672035212e-02
6.971574153825936537e-02
3.457021307790341530e-02
7.801594806056700790e-03
2.525666577543471056e-02
8.668176300558723402e-02
1.551670118723079694e-01
1.880265363709501536e-01
2.106398443642889806e-01
2.678612483118659737e-01
2.888867420094854421e-01
1.921827867304628512e-01
5.638377696794708016e-02
-2.176533856992168836e-02
-8.100187810152328916e-02
-1.709976062592887536e-01
-2.511044829106974796e-01
-2.795224847916103483e-01
-2.780453452820054738e-01
-2.666135518228046064e-01
-2.235670095448160921e-01
-1.521238009336058628e-01
-9.793535630844599216e-02
-6.720662543160575708e-02
-2.133285913548826906e-02
3.444130189026217009e-02
6.887140917785899985e-02
1.028711866082414883e-01
1.329998830502715224e-01
7.365172903251891723e-02
-6.259645117836831751e-02
-9.894599887395258420e-02
1.029486605776082885e-02
8.051999638642411139e-02
3.298518801414565549e-02
-2.429516835014794776e-02
-4.814445994358869385e-02
-5.278157903919082627e-02
-1.320561213741962975e-02
5.220152999227048451e-02
9.837412940031542430e-02
1.192262188442566456e-01
1.009685937092486968e-01
4.333278988661961456e-02
4.752135271114971832e-04
-1.650572276221638768e-03
7.268905567100580889e-03
1.908850367049382685e-02
4.291987442436926564e-02
6.005682795688564724e-02
4.675523931987497772e-02
-1.037650489348562743e-03
-3.796372446914816901e-02
-3.916706685000274218e-03
3.959501346266477290e-02
-6.816466293881792357e-03
-7.171159618623816623e-02
-5.602377826569647501e-02
-2.577136297442120944e-02
-3.462970386863563343e-02
-1.463761833076685989e-02
3.580036895401422781e-02
4.427665087705932867e-02
2.965635128590202868e-02
2.032947178052477502e-02
-2.669650752241801636e-02
-7.663590989933601050e-02
-5.649155532473195546e-02
-2.446119120494995997e-02
-3.287550548398094491e-02
-1.278654115878779043e-02
4.198317919023278333e-02
5.267293874667811765e-02
2.324083971275884425e-02
3.566439527229771367e-04
-1.325912777566350641e-02
-8.286080363855729755e-03
1.582554656017825384e-02
1.772763044920240214e-02
-6.865265587101716804e-04
1.325657739325865163e-02
4.891317393114181372e-02
2.745317993830821701e-02
-7.991070116746774865e-02
-1.716733906946723842e-01
-1.119736578734979310e-01
3.783143964726264075e-02
7.777469029104425169e-02
1.646961987915155148e-02
9.083552738069506499e-03
2.852149055428346291e-02
-9.118831559201968570e-03
-3.302957239727366545e-02
6.230161873289799535e-03
4.312640967780998619e-02
3.996530199044182746e-02
1.720785269840605786e-02
3.837958018631053552e-04
-6.129026436903237639e-03
-2.165278168302155193e-02
-3.786413602257589217e-02
-3.245536686732442694e-02
-1.753300024516867006e-02
8.411360345207553185e-03
4.231357357153921889e-02
3.474884489127366693e-02
-2.314319487067223804e-03
4.588320295133395919e-03
4.817530090475793947e-02
6.476810474058442013e-02
3.245228264735505741e-02
-1.437073620016952186e-02
-1.221313958887671088e-02
3.537067521107350315e-02
4.718238762340475762e-02
1.447299554875582442e-02
2.643968967267342277e-02
1.014742312522453893e-01
1.008049296915668191e-01
-4.523743545986395886e-02
-1.445618314688056627e-01
-7.836522083976277253e-02
-2.203337770789925987e-02
-6.119630285368651834e-02
-8.651208904861608373e-02
-6.362303234983721079e-02
-2.586523986717699161e-03
4.892663307473783807e-02
-2.107711423236644302e-02
-1.109264869177822577e-01
-4.082576556381453670e-02
4.757470934456075468e-02
1.817077375874574102e-02
1.545739593347667321e-02
7.389122140806657357e-02
7.587552206434444724e-02
2.687572661753565018e-02
-5.050169839088013840e-02
-1.528222414643963800e-01
-1.646355986247539371e-01
-5.816514553932639053e-02
2.446314005813224335e-02
5.818738777870495482e-02
1.143893743672053237e-01
1.419311300525042396e-01
8.291200187743898165e-02
6.378578912725488270e-03
-1.122891469833330394e-02
9.712168582301276831e-03
1.185090275890625204e-02
-9.649015934167805980e-03
-2.270555879083482193e-02
-9.516154232645979497e-03
1.697472060350189299e-02
1.004630721936161999e-02
-2.358441676090923533e-02
2.193060029940073138e-03
4.740796407907248156e-02
-4.381563907140452810e-03
-4.730600978522505468e-02
3.072649315738505693e-02
8.581221299879156217e-02
4.630312614794761250e-02
1.054420798423817696e-02
-1.194625910873947823e-02
-4.348521876272271047e-02
-5.277481857578739805e-02
-4.240516833384037898e-02
-3.077891937385429655e-02
-2.407808905381825237e-02
-2.200148137901100989e-02
-7.935344881026148295e-03
1.640459855832018810e-02
3.579843987052699905e-02
4.298502190635379583e-02
1.989001463217952848e-02
-2.537417947476207011e-02
-4.873097566866921998e-02
-4.588735933162262776e-02
-4.392670855333884183e-02
-3.790856969095235396e-02
-1.711555058019638420e-02
8.522714546052143417e-03
2.852101499043341315e-02
3.007038215323400501e-02
1.867514859210914202e-02
2.640105048466943188e-02
5.293836706203035314e-02
6.673733636889948861e-02
6.977938269164661589e-02
7.970980932242946460e-02
4.617106036249665757e-02
-9.094187697440266061e-02
-1.994855544022761940e-01
-9.188718298722364786e-02
8.688870049803830431e-02
8.560072235447110933e-02
6.828660119221015290e-03
2.411201157892508412e-02
4.285975218773836054e-02
-1.927753648930859501e-02
-6.666117801800909570e-02
-4.243972169971314129e-02
-2.022516756051971273e-03
4.915622488475698826e-03
-1.615624349222250303e-02
-3.228403069543725468e-02
-2.388111017867664346e-02
-5.329834007975710677e-03
7.206240986219137647e-03
1.616466825965663656e-02
1.248047446054799392e-02
-1.628219853513358101e-02
-4.857900029895897281e-02
-5.777286120374299644e-02
-4.742778191281886435e-02
-3.437529750260440164e-02
-3.238358932775787374e-02
-3.789047335913045544e-02
-3.366772636021845427e-02
-1.712809723073182439e-02
-5.609665511010365757e-03
-1.415017286283172526e-02
-2.489020613044480232e-02
-1.176950167053858985e-02
1.969045532994527850e-02
5.847510713088476669e-02
8.433408523558461045e-02
7.413015343095182008e-02
6.205699893596804823e-02
7.920675207316875410e-02
9.395568558375050339e-02
1.069569353069493162e-01
1.375041370333019985e-01
1.441589350431445871e-01
1.250491189654116542e-01
1.284163233674006088e-01
1.321293754018419975e-01
1.106544564084493976e-01
8.698969445594706418e-02
3.623795859830779981e-02
-6.338467540033249081e-02
-1.464665665230060199e-01
-1.575285536121752705e-01
-1.380373673738662932e-01
-1.941034618192277184e-01
-3.431379886918780597e-01
-3.985795741527508040e-01
-2.511564572244918692e-01
-9.522808743995338221e-02
-4.943615987935130740e-02
-7.521229921081354353e-03
2.379931890656112464e-02
4.031797727414264398e-03
3.571366261682417526e-02
1.385206579662081605e-01
2.065221049444473933e-01
1.956324524303054146e-01
1.394562877415942148e-01
7.516516642203033283e-02
1.984135981975341384e-02
-2.141334877770539533e-02
-4.479470218314416524e-02
-5.282236372584371564e-02
-5.338703188644705611e-02
-4.113734991150923281e-02
-1.047506733591446922e-02
1.721299749665151924e-02
2.415645369220453809e-02
2.985624037950676546e-02
4.957197370450476537e-02
4.554070871980813590e-02
-6.227956466532009842e-03
-2.905698841354354897e-02
8.346953140104074881e-03
-6.635556808191132860e-03
-3.660919076349757745e-02
8.440689802518520912e-02
2.007507577414825439e-01
9.281687124932130883e-02
-4.941271109949251644e-02
-3.971124297033006706e-02
-4.529060331614355450e-03
-3.383461340037288712e-02
-6.925230409291829869e-02
-6.309903664023129577e-02
-2.863639171493880323e-02
-1.605288486782887464e-02
-1.780165474784066101e-02
1.501314207186839333e-02
4.911263735440419415e-02
3.787401189163458470e-02
1.243242794939547653e-02
7.641833660343726100e-04
9.838022156594219449e-04
1.585114041194893644e-02
2.326177644478951909e-02
7.507633533029048518e-03
6.546339417647677704e-03
-9.670319217809298512e-03
-1.296835624396356912e-01
-2.240098940761335033e-01
-9.321553023791284698e-02
9.322221797864534143e-02
8.611937805395375456e-02
5.752647929391233733e-03
8.408022699017903695e-03
1.469404651201052653e-02
-1.748929220817894981e-02
-1.662214809360176154e-02
2.750043408039657550e-02
6.126325767912337017e-02
5.263121736528758587e-02
8.362696455363763381e-03
-3.173292425124353555e-02
-2.913309885840461438e-02
-1.634414303284420847e-03
-6.449398340897423421e-04
-2.825959512724280503e-02
-3.320985066788874340e-02
-5.775098145799946979e-03
2.450330436666249730e-03
-1.329539418354855340e-02
-2.521775083879347016e-03
2.942271013224979220e-02
3.750377903719098738e-02
1.501288085504451017e-02
-2.682134319585834092e-02
-5.301640024860473921e-02
-3.082471584006842708e-02
-1.829073024394781144e-02
-1.887055512628413312e-02
8.093414232104143013e-02
2.012672672805204122e-01
1.471447988856391664e-01
8.826774378852483144e-03
-2.891414101791954169e-02
-1.242667984824040450e-02
-3.472268650612358315e-02
-6.263894391767027559e-02
-4.620177289216351874e-02
5.922283892140500772e-04
2.892781780217002288e-02
1.344443783283668509e-02
-1.256070523027487222e-02
-1.941322420233008213e-03
3.071372480973718136e-02
3.431800549358570568e-02
7.686033131894190115e-03
-1.024529453609629437e-02
-3.166179183795200715e-03
1.277380014884489309e-02
9.401193610157409369e-03
-2.992908339183693311e-02
-1.006337751093819427e-01
-1.482723187705945189e-01
-1.022935105537395445e-01
-3.363668580738064795e-02
-5.531230516325089108e-02
-6.318991905636271722e-02
5.296816131016274937e-02
1.527368532296621562e-01
1.155048112878638011e-01
2.429592990383071943e-02
-4.173499206739293699e-02
-9.431183523970061711e-02
-1.323631478453217991e-01
-1.251847369696070245e-01
-4.520718513231227614e-02
9.903033843961890625e-02
2.127476626352770572e-01
2.046770031271038792e-01
1.138655489532509474e-01
2.290288994285159113e-02
-3.409100506425873089e-02
-3.335721831878590143e-02
1.012169946979301835e-02
2.972266195214242138e-02
2.106167541400612297e-02
3.635524626669533327e-02
1.174405123271632032e-02
-1.418819840890620243e-01
-2.516983308324616253e-01
-1.215876438650514563e-01
7.291833420227862572e-02
1.104110968878509458e-01
7.219744504657460427e-02
6.146923704146973338e-02
3.173612681095727694e-02
-2.811049207598362645e-02
-6.106548836026321619e-02
-5.204381151103490422e-02
-3.229185414764323275e-02
-2.158962400302621293e-02
7.626585856960011595e-03
6.783723074099159978e-02
8.392627350722797752e-02
2.176614065315323615e-02
-3.179886612706377125e-02
-3.593923897075008977e-02
-3.873292414825063590e-02
-3.771093081136775438e-02
6.482944471321674430e-03
6.185575618870260695e-02
6.615343810246172851e-02
3.092576951722276687e-02
3.199505946688670222e-02
8.899166547158415819e-02
8.595189497438285309e-02
-3.503150281913799957e-02
-8.779921681350240370e-02
-2.026001369132068158e-03
-2.979498650432518825e-02
-1.811801478726024484e-01
-1.566989071682647339e-01
3.857426500269735964e-03
4.956146616251016351e-02
2.702742963375594568e-02
5.846024402044743690e-02
7.608541946884328500e-02
2.215847361402790289e-02
-4.088484581514847255e-02
-5.913236469903024317e-02
-4.163871580745798912e-02
-8.063317299130566204e-03
2.964940740634330538e-02
5.064972088915210835e-02
3.287325210788008545e-02
2.295763779377207880e-03
1.682218019718221755e-02
4.370753228363619125e-02
7.613027156634000550e-03
-2.218663184770670524e-02
3.169613253154189569e-02
5.321439256122068723e-02
-1.762602293003087336e-02
-5.363945022095968629e-02
-3.978188199723696472e-02
-5.633726981547593216e-02
-5.474047167592149821e-02
-8.789856901941827186e-03
7.419344878921153331e-03
-1.127797089246683135e-02
-2.967917610391710911e-02
-5.989494935840314338e-02
-9.414718593625767684e-02
-9.272761307334419223e-02
-6.172400396643860920e-02
-3.698250464467704723e-02
-1.628964001927667854e-02
8.609770834209835855e-03
2.769316180922001824e-02
5.553942873369577260e-02
8.950425679034948456e-02
8.644945198685603793e-02
5.890885246016919902e-02
5.423062602087186379e-02
5.978322101949318929e-02
6.618712121382505642e-02
1.039485828078861585e-01
1.610593768321171015e-01
2.050222185789760121e-01
2.201856520978082432e-01
1.626010293176822219e-01
6.742433643458432824e-02
6.799729886419925151e-02
1.061474790252425054e-01
1.468277721893129426e-02
-1.227517138246915496e-01
-1.761635281124408481e-01
-2.098840076155903955e-01
-2.560762155661864825e-01
-2.672080122023920423e-01
-2.458145361194914447e-01
-2.050013430386431745e-01
-1.708908200342907358e-01
-1.746439844512295836e-01
-1.528680007712627520e-01
-3.806443962095668737e-02
8.871652419423622926e-02
1.238628572338428685e-01
1.072477929464521612e-01
1.092352049733330832e-01
1.082162385537629723e-01
8.487944183423937194e-02
6.690914219278955299e-02
5.752501109276772495e-02
4.600086462363836559e-02
2.774301071811826475e-02
-1.762545039185077489e-02
-6.349436371214030317e-02
-5.296053732014537052e-02
-3.660098678207648892e-02
-2.737618358580173883e-02
9.232009598027796082e-02
2.148570582835115095e-01
1.313550248914379937e-01
1.613636683090736990e-02
6.015071361311885578e-02
8.663150366117795820e-02
-7.177903747060221211e-04
-6.121141563598687940e-02
-5.590766943459420796e-02
-4.093149938556384093e-02
-2.096359375680505871e-02
-3.718777172148171953e-03
2.284275118417410967e-03
1.857102438819700080e-02
2.614356173482044673e-02
-4.112908300046578917e-03
-2.160929596964956262e-02
4.198633897411756244e-03
1.887542657991096717e-02
8.682920708433402440e-03
5.958550867624658708e-03
-3.400582813551972835e-03
-6.596074382330294195e-02
-1.744985352293756120e-01
-2.010145315608347361e-01
-7.644390840567558132e-02
3.565677470965651630e-02
3.164766141907449093e-02
2.604597158002756527e-02
4.723604911550254026e-02
1.669911274976237925e-02
-2.522563899322035480e-02
-1.644997183951679449e-03
4.926685210735836512e-02
5.170663818703311043e-02
1.299791405142895762e-02
-1.268258632521441880e-02
-1.381576960133143461e-02
4.351173689385996052e-03
1.296410804885687190e-02
-5.641097674223281150e-02
-1.139191599943103345e-01
1.608014400541864578e-02
1.835359424159736241e-01
1.388601525670619119e-01
1.135022022247375063e-02
-4.434791136675574064e-03
2.091308125416237521e-02
8.680668505377804600e-03
-1.242138367619622166e-02
-2.662498187616651329e-02
-2.750573924306330340e-02
-1.184168253182573891e-02
-1.254352153773568776e-03
3.079213876107702794e-03
2.053131560653470924e-02
3.021694338167934396e-02
3.255111166562160967e-03
-2.458091673265943092e-02
-1.773161118164922820e-02
-1.633087448628777610e-02
-4.521698483188683199e-02
-5.427516200678406122e-02
-2.412917473285998773e-02
3.231386446458616758e-03
1.884455602959801690e-02
3.338392987115022803e-02
2.937039873975149859e-02
2.324342405372369774e-02
3.925753341411000741e-02
3.166003229855975792e-02
-8.792153802300183355e-03
-1.388696501146640880e-02
1.132505109361571505e-02
2.297058708113197331e-02
4.266901461380250699e-02
2.453585709851503066e-02
-9.253752803282312700e-02
-1.494758771466134228e-01
-2.362816379296986402e-02
9.236321237022052100e-02
7.334741121665985797e-02
4.276363561254901968e-02
1.248333927095366704e-02
-8.333417183177660448e-02
-1.406241154154501405e-01
-7.807928395194679849e-02
1.675944794810711388e-02
5.453306414797577661e-02
3.248455648409157709e-02
-1.320380028215652375e-02
-5.639287071751360875e-02
-8.408372377822354027e-02
-7.897177928343429576e-02
-3.944943816604350173e-02
1.225680828299459922e-02
5.541313350901332091e-02
8.115633454956866499e-02
8.638396124327978043e-02
6.940995164359881064e-02
4.018738859808158176e-02
7.780487291404066669e-03
-3.153132800731830998e-02
-2.620554963601983561e-02
7.178353974983400776e-02
1.378545087814623538e-01
6.494565921028584710e-02
-1.745556918560252357e-02
-1.658221533086532209e-02
-1.873616936998241320e-02
-5.290084667998182916e-02
-6.756351569119638245e-02
-5.092498939184258305e-02
-7.230822876856961637e-03
2.991794402867319763e-02
-1.927978989332898054e-03
-5.994234333231329703e-02
-3.548891642559115489e-02
4.004291394478892707e-02
5.019640434649633165e-02
-3.654841472119666965e-03
-3.605686702082815803e-02
-2.677418377992128035e-02
-1.984616935633299120e-02
-2.880775289486071575e-02
-2.180275590716292469e-02
1.352302622001604233e-02
5.311957920324308219e-02
8.696980942338820852e-02
1.132679605327047700e-01
8.602760931143781098e-02
-1.902169718169439624e-02
-1.138191742601585149e-01
-1.060587320931073302e-01
-4.060028078241856297e-02
-9.730175081593040246e-03
-9.781466340072087623e-03
1.009065984232081215e-04
1.931386339487040082e-02
3.765975722728241715e-02
3.052286990964323682e-02
-5.140462645966672670e-03
-1.750748489773334624e-02
-9.987369524328170572e-03
-1.928050262314641439e-02
-1.313570779931243042e-02
1.055041978129004493e-02
1.296839503641380488e-03
-2.620481469513220515e-02
-3.060689219637618280e-02
-2.411909019837717508e-02
-2.564621581529398509e-02
2.212713867517038073e-03
8.413105421149558172e-02
1.212045307668341010e-01
5.157165989050975508e-02
-6.140087463505743137e-04
2.006802151819827434e-02
1.613536142484762320e-02
-2.982775388139915010e-02
-6.242668568916039801e-02
-4.727903742575313012e-02
9.013324361886863867e-03
3.428902098056384878e-02
1.820311366991103630e-02
2.167984507638579666e-02
7.831496048643296279e-03
-5.745782382778089753e-02
-7.936855699473807646e-02
-2.476665237001542466e-02
4.357897519669037302e-03
-2.584088219884166787e-02
-4.227341856589832136e-02
-2.620136448679853333e-02
-2.816558247960208525e-02
-5.648651847232238205e-02
-6.806993228960288300e-02
-4.736195738101228736e-02
-2.438958087190455648e-02
-1.074397668838936518e-02
1.019568557646077442e-02
2.248228853463695581e-02
3.601594851762826566e-03
-5.452871556758134147e-03
3.298966329073222542e-02
5.006712808573621221e-02
-1.203683524203027350e-02
-4.115178618509720415e-02
4.623987169903667760e-02
1.121589450871437743e-01
7.853962841941007633e-02
8.685478449760597464e-02
1.887593987367199855e-01
2.574408592131556262e-01
2.464508246394917501e-01
2.218149843130795551e-01
1.818531801668497039e-01
6.708195097308194965e-02
-8.238974314777161578e-02
-1.592996682434313915e-01
-1.635838807649552251e-01
-1.748393086160297538e-01
-2.053100807922070004e-01
-2.240708683943630763e-01
-2.233958617102837219e-01
-1.922105085661670598e-01
-1.445499052825069408e-01
-1.230367703615281305e-01
-9.878225413949250078e-02
-3.160770973350714164e-02
2.328241120065023539e-02
3.648609205137923195e-02
4.486580570221623127e-02
5.629430522735000969e-02
8.330872932688432320e-02
1.182822313365934352e-01
1.060147891663764108e-01
7.336383148999943427e-02
7.413296850113763881e-02
6.667079360696885615e-02
3.388672892283359217e-02
1.567859536626052541e-02
5.429815402253831969e-04
-2.835121280832835974e-02
-4.779596897703164426e-02
-5.768679259227950384e-02
-5.952841882247061206e-02
-2.650035657497028935e-02
2.617387688692595499e-02
4.949282662471178595e-02
4.694474538832103805e-02
4.764492127942229760e-02
4.400604157873495154e-02
3.799134645042284014e-02
5.089429305498845840e-02
4.947040165216975982e-02
1.023242566167132175e-02
-5.210201408981330815e-03
6.826701976187461718e-03
-4.559602023466784171e-02
-1.438365107266123544e-01
-1.398267260656391731e-01
-1.896169181642342813e-02
5.496488225089367352e-02
3.818967570956731394e-02
3.542177978305367791e-02
4.143207002222427937e-02
1.920722659616853900e-02
3.636101212433420771e-02
5.753675722241152063e-02
-3.219483212155689611e-02
-1.247863030402497075e-01
-7.115850798207806749e-02
-1.599373660941235190e-03
-3.954531531633646152e-02
-7.483493176166927663e-02
-4.896867387769525404e-02
-3.141990274594638755e-02
-2.168605057234607170e-02
7.134268713514553897e-03
1.274849847507264836e-02
-2.291033007821573209e-02
-4.160606329518260621e-02
2.100175159877135100e-02
1.297502756054647322e-01
1.805884288300977081e-01
1.652570313017776293e-01
1.111298750397974461e-01
1.094600545102735432e-02
-5.091752052681110252e-02
-2.575036442383921154e-02
7.998491429872696401e-04
6.719917524896992789e-03
8.025314126460783223e-03
-2.728087327149522623e-02
-6.313168933222812473e-02
-4.846829346742461547e-02
-3.643561068657426988e-02
-6.417463987982610640e-02
-6.924982379390476339e-02
-2.809913237802443356e-02
3.000816269719585976e-03
1.631177262444891141e-02
3.878524220099643927e-02
4.535327491923682453e-02
2.265847770193881588e-02
-4.506209373949760649e-03
-3.306367723283138577e-02
-4.119835118874274477e-02
-5.438293267407673555e-03
1.747429741242338339e-02
1.495924230370574218e-02
2.733677609032922340e-02
-3.615431499995572229e-02
-1.523815671157326967e-01
-5.475735060792279868e-02
1.819595998314208207e-01
1.752599559592148970e-01
6.593091255445542032e-03
-9.353889410796366322e-05
5.189252547750372591e-02
-5.083635395570718085e-03
-1.530646441130286903e-02
4.444295564742138660e-02
-1.878598314164437594e-02
-1.262587455629874400e-01
-9.461090473567421166e-02
-2.628931076490693616e-02
-2.602390766050808463e-02
-2.877705991092204679e-02
-1.964875983539475165e-02
-1.550126215276029229e-02
-1.662477529613390348e-03
-7.034123109245587167e-03
-3.636053811968892324e-02
-2.013890098510750376e-02
5.207298739946263078e-02
9.433478214692107844e-02
6.533378502003388266e-02
2.290297222920908288e-02
1.259513160977596830e-02
1.633299925203447744e-02
2.701599478665640472e-02
4.445381020618250495e-02
2.642051864720428023e-02
-2.927946301677832042e-02
-4.701460628740960351e-02
-4.715026140796073351e-03
2.697260112932791526e-02
9.944794587602615726e-03
-1.034015670913612100e-04
4.678073232655856339e-02
4.799518503246123780e-02
-1.039176811724885352e-01
-2.177230100724772410e-01
-9.826443503714793470e-02
4.595513948898826556e-02
1.982070955328960743e-02
-1.750437476527083244e-02
4.490322771180099704e-02
8.654397577022193699e-02
5.193821661417587915e-02
2.850128977804844074e-02
4.779955477467030117e-02
5.039912293330716525e-02
3.031817732236841492e-02
3.260228939238092594e-02
1.773673433632618618e-02
-7.959839903754190038e-02
-1.621515438813248833e-01
-9.814846245076300213e-02
7.538996528970932226e-03
7.999158722645725514e-03
-7.135642516140025884e-03
4.749622895153979285e-02
7.779073101185987604e-02
4.667653832307786660e-02
1.595652656417459458e-02
-1.470738989187038437e-02
-4.715651884525795534e-02
-3.471547260878020402e-02
1.645315173801441613e-03
5.407560792684015273e-03
-1.107343432988328220e-02
-1.888904038675371516e-02
-1.389988136406730516e-02
7.612199625152374360e-03
3.184659906105288818e-02
3.681532997711700617e-02
3.421658288200419423e-02
3.631373565973974871e-02
1.285116909101737502e-02
-2.933196878295613735e-02
-2.749629038666849892e-02
2.141481764446923064e-03
5.044386321017235025e-03
7.423839312058933167e-04
-3.499836118970120306e-03
-2.013793719383503988e-02
-1.928001576435559722e-02
1.262487098460834262e-02
5.356840706952520348e-02
6.069211483243792254e-02
9.806651840666726766e-03
-3.687535476603683027e-02
-3.376137116835582763e-02
-2.992729495149799163e-02
-2.717870722266471639e-02
1.098143148882674627e-02
2.732966744061210429e-02
-1.898530508048568502e-02
-6.073580381658776062e-02
-4.890890338031107787e-02
-8.038770486986659969e-03
2.074407529254354565e-02
1.722609362964135776e-02
-3.271813947227276802e-03
-9.971778750879326317e-03
4.349779515404888705e-03
1.941201584186775381e-02
2.873171866503467300e-02
2.674714408031583085e-02
-3.758848334847175732e-02
-1.161679368123385153e-01
-5.632598075580401431e-02
1.265651101037236666e-02
-1.531685927563575800e-01
-3.123860092025309010e-01
-1.532258815952227127e-01
8.806153217381033904e-02
1.463477917921890137e-01
1.424378257274515336e-01
1.743250148709504233e-01
1.663421275870655136e-01
1.143811442964806357e-01
9.198558271562659594e-02
1.220392652784188098e-01
1.776221844402199046e-01
2.028435398308549575e-01
1.653336623549048756e-01
1.264061581938376033e-01
1.118250433740417549e-01
3.706458314025101730e-02
-8.806092618006233774e-02
-1.596221290639605883e-01
-1.783341605342771419e-01
-1.831219171028860560e-01
-1.679729167940160195e-01
-1.613870749502598068e-01
-1.892183164140507079e-01
-2.149715289272241536e-01
-2.121458912767329452e-01
-1.837397058654265114e-01
-1.162741315866994418e-01
-2.153841605369376938e-02
5.673399291947166939e-02
1.289629291074608497e-01
2.095650749941873614e-01
2.232707887276620395e-01
1.300507822418623671e-01
3.281124278392892613e-02
2.081901204505929789e-02
3.740748205399600096e-02
4.108228397041865758e-03
-4.558732399588789203e-02
-4.474565276459159524e-02
-8.428956271273307238e-03
1.253665742745782227e-02
2.251778117308063029e-02
4.540538577963257327e-02
5.359494752622404046e-02
2.752239674341095191e-02
1.846896059253239075e-02
5.329109182428636710e-02
7.329862722489069449e-02
1.916991526971105475e-02
-9.300959355188362365e-02
-1.508980496568442797e-01
-5.489595993515777872e-02
8.968461892102776167e-02
7.979981794201057577e-02
-6.935830265373311987e-02
-1.520674957286888007e-01
-8.349445551310874514e-02
2.387746407397611098e-02
6.430863375297997397e-02
5.553754532343826988e-02
4.715852143408739983e-02
3.051112622354985870e-02
-8.740729171188862598e-03
-3.335350301621455710e-02
-1.808666962242074308e-02
3.803609877179877675e-03
-4.678547310969603280e-03
-1.841389112907198394e-02
1.611614022908264623e-02
2.462364301971419270e-02
-9.680031043323314432e-02
-1.520098595156516019e-01
4.488495455729138439e-02
2.000871437501254846e-01
7.656789656957407875e-02
-7.557992928472613559e-02
-6.192596308984810866e-02
3.329985949108767856e-04
2.112130211892584031e-03
-2.946090885083819250e-02
-1.554181506668853366e-02
5.235674298739351890e-02
7.929198016397827342e-02
3.151599964503442458e-02
2.618160800041355232e-03
3.072170645676958883e-02
2.315569569162140989e-02
-5.379156106826987749e-02
-7.883597075513204544e-02
-1.309656505974859247e-02
1.733959196602843141e-03
-4.400165071325687696e-03
1.404948602084317155e-01
2.340390125037744573e-01
2.178967031775265462e-02
-1.806643854488295120e-01
-8.765838082498514372e-02
3.633470449509802053e-02
8.938422299877825383e-03
-2.587896753388431101e-02
-4.869283013038172396e-03
2.686653477127540907e-02
1.660289501095845235e-02
-8.474101066474251653e-02
-1.702483589920840701e-01
-9.241042694403046875e-02
3.461453303029959211e-02
5.372196021298197843e-02
5.318177637783430556e-02
7.742840018635015198e-02
9.667282718692549182e-03
-1.270141230263531484e-01
-1.999915674753138528e-01
-1.369811709449764991e-01
5.903901494367318203e-02
1.972948679794785665e-01
8.836678361800368031e-02
-8.097250025538599294e-02
-5.699681748859439928e-02
3.917025802866046236e-02
2.836141509192311935e-02
4.233353265778505570e-03
5.408003706121649462e-02
8.668215745052317012e-02
6.820904724247514594e-02
6.506908254744117603e-02
7.252745018346336281e-02
5.378326971074812862e-02
2.637056476180118722e-02
-2.325012250957974452e-03
-4.243102784473454236e-02
-7.187853571680012654e-02
-7.302779015069330026e-02
-6.140523361215971532e-02
-4.963244767905259508e-02
-3.083903906689910643e-02
2.825869335575483584e-05
2.508108543769758947e-02
1.791477385161127645e-02
-1.264928484210347572e-02
-2.060723190562348955e-02
1.568794231312567716e-03
4.858645073465409948e-03
-2.797166604054751766e-03
3.073209865944218772e-02
5.904705620550117218e-02
1.794788115292204889e-02
-4.404850496402093474e-02
-7.222837766124888537e-02
-6.601512890658597921e-02
-1.997623875634342572e-02
4.374812619501123462e-02
6.829911970480054273e-02
4.298760550136201952e-02
1.808785172420884421e-02
3.028550525411512553e-02
3.286656958783790161e-02
-3.680346013175352787e-02
-1.146117623923483542e-01
-7.906229902007579080e-02
3.426144105814519364e-02
7.362335913916004393e-02
1.718365613605201889e-02
-1.433033024838267430e-02
3.130670615695212156e-02
7.367552057596883641e-02
3.984349534733172549e-02
-2.608491922379767292e-02
-4.163614948922836345e-02
-2.005257493726979312e-02
-2.332790532336169453e-02
-3.438496545273881516e-02
-1.283534368422256655e-02
-1.303510833962495761e-03
-2.413808249206677095e-02
-2.065409572524791806e-02
1.420374615172971013e-02
3.017778569249018883e-02
3.980531590080032406e-02
5.499905325271015749e-02
4.875192659148842866e-02
3.192215067096441927e-02
1.849267756923100858e-02
-1.061264801078281965e-02
-3.506496277038976400e-02
-2.399113915987248144e-02
-2.230824375311981148e-02
-5.258584438689657692e-02
-4.847505567392013104e-02
1.464769648294502596e-03
3.643074318045792792e-02
4.381702364249877996e-02
3.502337959408895196e-02
1.411079967018804421e-03
-4.736669588771907913e-02
-8.330353204068406681e-02
-8.184408434254389353e-02
-4.625810020952449836e-02
-2.534796238353511158e-02
-4.244761486819333129e-02
-4.937476538963862793e-02
-2.894365036346480818e-02
-3.184654422168087945e-02
-5.504481178685526749e-02
-4.050739731135114680e-02
-2.484045899715547553e-03
7.315836698350126899e-03
1.699716177102327322e-02
6.953902977603783342e-02
1.170549850623744392e-01
1.179950459231080273e-01
1.009073000019046346e-01
4.856422016264826114e-02
-2.736432304201011009e-02
-1.378695141193111984e-03
1.105184246194989145e-01
1.595957836660468754e-01
1.647310804693847552e-01
1.874995353821637956e-01
1.714156867592689371e-01
1.242502228333529080e-01
1.023371150654856093e-01
5.949541767187732644e-02
-4.203127808851993275e-02
-1.353277428649249103e-01
-1.762520138002633407e-01
-2.032694928396438783e-01
-2.386648933445579823e-01
-2.647573551108265977e-01
-2.665032504032692207e-01
-2.360158613649904757e-01
-1.908791998409207769e-01
-1.369490666256023004e-01
-4.797566382716903638e-02
3.114924322583963179e-02
5.363388525461862399e-02
9.934454450754801047e-02
1.818852575657267101e-01
1.696014245605730331e-01
6.799478743914856571e-02
3.453810978838090656e-02
7.536064415711640763e-02
7.702353573554783506e-02
5.207891394966290138e-02
5.434713293863994293e-02
4.581104566378373100e-02
1.758699171531653144e-02
1.133608586091156001e-02
1.060218471076107213e-02
-1.858483248323810136e-02
-5.153819945323727392e-02
-5.046596938697486823e-02
-2.153658797582848339e-02
2.776304034744133190e-03
1.542852696267442772e-02
4.064552349318841656e-02
7.139926125758941367e-02
6.474735275536872003e-02
2.234343068189684547e-02
-1.439871621165718027e-02
-2.748106255441325196e-02
-1.878994516182084032e-02
-2.444413591127280252e-03
1.077692331740202208e-02
2.413770146728969057e-02
-1.220483754778978538e-02
-1.260225560622122987e-01
-1.692263475494106828e-01
-5.463246901132545741e-02
4.039808292467107070e-02
3.655914054980653055e-02
5.567936876364623644e-02
5.990608674407271739e-02
-9.545123655911726818e-03
-1.806393037869006863e-03
6.879610062942886906e-02
1.106437603876913797e-03
-1.085082815470310019e-01
-6.126336610228817758e-02
2.005104191852519202e-02
6.992066291369256753e-03
-7.577821748331083074e-03
2.347978673455885026e-02
6.390883476095449156e-02
6.172793540580883559e-02
-3.464535463608694327e-02
-1.059827514381228020e-01
-2.482310526810238907e-02
6.182749411715744714e-02
3.094827909017908510e-02
-4.077360293733828418e-03
2.410366424703841437e-02
3.769216545684836439e-02
7.415510379287309183e-03
5.718238495957999983e-03
1.343843688521680069e-02
-6.917766870655034372e-02
-1.317914840764319306e-01
-1.784008780812530726e-02
1.195448032509480313e-01
1.000283065510907676e-01
1.464406741435022447e-02
-2.412629814408347520e-02
-3.968574453745960656e-02
-4.691236807347894111e-02
-2.247688221856343135e-02
8.756361175333297192e-03
2.739963039439983171e-03
-1.951898316964049626e-02
1.843208698261868507e-03
5.784676656883358525e-02
6.905108695027332988e-02
2.568424091625806649e-02
4.029033456212196933e-03
1.693453817311919157e-02
1.288427825551330223e-02
-1.486633355640141260e-03
1.868313260968107459e-02
4.529394967694010121e-02
-1.818884212701072506e-02
-1.456104801692184314e-01
-1.430573067580275248e-01
1.796621594562827773e-03
6.507297350591993712e-02
3.448130061790930651e-02
5.784299724574671481e-02
5.714754594481862016e-02
-5.339708529848225665e-02
-1.237764272959877426e-01
-6.449656296144004597e-02
3.096043600574583700e-03
3.114672368440230335e-03
1.444346094708887605e-02
6.278840040654665167e-02
6.241008271934193191e-02
6.812864949108661528e-03
-3.684938848298298375e-02
-5.839281118972335094e-02
-5.501360752225741002e-02
-1.829700404777546974e-02
2.433262256818165530e-03
-1.327656557002129638e-02
-2.944978254216270869e-03
5.318696215041761322e-02
7.454269231005931917e-02
4.587256923184609980e-03
-5.562164120901535308e-02
2.056255414153789624e-02
1.223608409254127866e-01
8.673032378599784820e-02
1.144130759218110922e-02
1.565498973896962964e-02
2.564645477926382616e-02
-4.998141373687699923e-03
-2.860397866040019499e-02
-4.215766013873538387e-02
-6.102585793389131430e-02
-5.650755945595597324e-02
-1.804057017706940658e-02
1.344264122132139694e-02
2.401016445468476951e-03
-3.166457293656405741e-02
-4.254063593505817698e-02
-2.395774173958176850e-02
2.393482706564962516e-04
1.898377248312884194e-02
2.415072294724143753e-02
9.799036112083261627e-03
-7.492269520666392998e-03
3.048994539849767069e-03
3.380712852311103245e-02
3.455648856637772576e-02
3.367443168926646108e-02
8.027889777885233169e-02
5.444804813727422560e-02
-8.041870135305423384e-02
-1.099885855271240387e-01
-1.874889409429483442e-02
-9.738942516529043927e-03
-3.905777109504011968e-02
3.008009837442093826e-02
9.117885850461135422e-02
2.925955712938224998e-02
-4.403751611492982831e-02
-2.048080212210642501e-02
8.824264789351440180e-03
-3.474723799500046423e-02
-6.749449321679415470e-02
-3.065876151653686849e-02
1.759918331399874802e-02
3.354044920759294279e-02
3.465223682570747060e-02
3.365079134990936471e-02
2.264038621005809784e-02
-2.077901601538554698e-04
-1.244374972459792381e-02
1.214305556098102881e-02
3.755647013768020903e-02
9.393183124273722651e-03
-2.458144802451028496e-02
4.918000074711097180e-03
4.458454985340579158e-02
2.048379376040736569e-02
-2.259716331357958588e-02
-1.957021657265465425e-02
3.946627157150487362e-03
9.648175704120128676e-03
1.708537758329645596e-03
-1.358217748953696562e-02
-2.504983370862949588e-02
-2.284477574172965805e-02
-2.353070340269982838e-02
-3.491062395067436042e-02
-4.447499610164963590e-02
-5.222324379594213417e-02
-5.340206970386033453e-02
-3.288705548700159020e-02
-1.542357037863092105e-02
-2.393643969557099696e-02
-1.243345070440695678e-02
2.844118856089378200e-02
2.316414264850997357e-02
-2.059223005346337565e-02
-1.088014563625133713e-02
2.705424817696710366e-02
2.175719906142178570e-02
2.865740173615910144e-02
4.676892860071800440e-02
-3.633196025049072186e-02
-1.211792173345926787e-01
-2.598998849205708464e-02
9.748712579340293449e-02
5.623497090163892542e-02
-9.518781328465893837e-03
3.125237905542734007e-02
8.940767953980782723e-02
1.264200211031803189e-01
1.841159432953118624e-01
2.113115262497418101e-01
1.703569363186535068e-01
1.518335555897482869e-01
1.408318308178581890e-01
8.807318602886693437e-04
-1.575275346247340391e-01
-1.378535517644217667e-01
-6.182131492526355548e-02
-8.654124286425056434e-02
-1.344193239409204044e-01
-1.431617074941136381e-01
-1.564475013601802911e-01
-1.847686631778513999e-01
-1.906969900805717266e-01
-1.576258394197699031e-01
-1.366917515757992696e-01
-1.686204798229939961e-01
-1.454682059335669075e-01
3.244629901759850388e-02
1.980091140131081395e-01
1.799413510663921412e-01
1.241234890148220221e-01
1.613750413194197653e-01
1.745652752014639209e-01
1.279992020498902372e-01
1.062450262910027698e-01
6.077962033592979041e-02
-4.760077329973455562e-02
-1.136357021078685248e-01
-1.153380198858824368e-01
-1.164971635770012670e-01
-8.073062057702226624e-02
-1.317217209383911639e-02
-1.941668945197511098e-02
-2.468113030206355030e-02
1.171762503641807646e-01
2.422192795354095041e-01
1.676440790667240721e-01
6.522275780725032834e-02
5.569097032143911080e-02
1.390479386487049676e-02
-3.089103058395790968e-02
2.873641596002368681e-02
3.313216544629354887e-02
-1.420171915221553338e-01
-2.489175475837799301e-01
-9.615005348466082458e-02
8.067034415553062110e-02
3.788902403203104480e-02
-1.093181497438993344e-01
-1.436370557642782375e-01
-5.063043311827288701e-02
2.960903384656374954e-02
4.131549615035047529e-02
6.425332913285593250e-02
1.079766493722161408e-01
8.095493192695257800e-02
-8.553563614944741100e-03
-5.580313515932043555e-02
-4.779337426514939507e-02
-5.138495225630607122e-02
-5.922607286044986874e-02
-1.582464012287007615e-02
3.337883546480184538e-02
1.193779152665887591e-03
-2.597485037732928312e-02
9.262122858038315809e-02
2.311902058624348000e-01
1.592761798832393327e-01
-7.021994587715296721e-02
-1.986778990750912577e-01
-1.264881592973776947e-01
-1.235593637101199509e-02
3.705709392675195918e-03
-1.802192983879619820e-02
5.375614533797617133e-03
5.635820876310639743e-02
8.868321447037544325e-02
6.877803528349604734e-02
5.186686077830422910e-03
-5.034086153450391399e-02
-6.684467863466836413e-02
-5.294346667494292252e-02
-3.541513786666267150e-02
-2.467936687586581510e-02
3.612456512814633640e-03
4.149712527180571264e-02
4.377830814620088662e-02
2.609341068216505452e-02
2.876189523523313071e-02
2.773708033815128898e-02
1.322852710264940321e-02
3.189101376253131864e-02
6.035487171655398719e-02
2.389850961022565307e-02
-2.303408868925096997e-02
6.482261034816293524e-03
-3.219516592479921419e-03
-1.525922681157970695e-01
-2.246318769935279069e-01
-5.947527623524395679e-02
8.693374029861267172e-02
4.169410885508632175e-02
1.256314782810688535e-02
5.743777696343011635e-02
6.103942474127351317e-03
-7.125002660033355473e-02
-1.515569570195053790e-02
7.633082572206188743e-02
7.229368456106116669e-02
2.102986697665105986e-02
-5.414008775656420705e-03
-1.004068250763383296e-02
-1.643038310165656490e-03
1.760588112635618971e-02
2.092539956179002847e-02
3.176955332380171967e-03
-8.952335372331183747e-03
-1.494598501696749182e-02
2.581078274063747496e-03
7.239170149845887414e-02
9.073178327260383869e-02
-2.841865923347711848e-02
-1.106448701186119321e-01
-3.423531871959599460e-02
3.199847104238755235e-02
-4.499616550244256094e-03
-5.232575800459043913e-02
-8.581703121776290688e-02
-9.852163961046063456e-02
-3.324781696824337385e-02
6.882486719983391121e-02
8.905066069780290250e-02
3.577330211792439929e-02
2.248476368600637459e-02
4.619223460939363146e-02
2.471993629252694502e-02
-9.545804568132070650e-03
1.031286411396234101e-03
3.097451131143907216e-02
6.829167066169039568e-02
6.328217325979815233e-02
-7.185038945213345629e-02
-2.065753521356023803e-01
-1.508933461537271814e-01
-3.137480973022760411e-02
-4.677047807465644844e-03
3.628970805020216572e-02
1.290478958554230338e-01
1.571423691905800279e-01
1.323247122310030055e-01
8.071219236950051557e-02
-6.824499042701642759e-02
-2.057946361918632783e-01
-1.534584264477079629e-01
-3.088121819231165119e-02
-1.446754712515787092e-02
-2.866793265729764353e-02
-5.661124062044660225e-03
-1.300578136097388718e-03
4.983413601836807205e-02
1.712122694586777072e-01
1.279916797369529124e-01
-6.613811143122273750e-02
-6.323755256924246115e-02
7.313414431576813202e-02
3.942233159685781807e-02
-4.292306613135941223e-02
-3.164801460887732565e-03
2.980473537237135484e-02
-1.281931335612821257e-02
-4.331397586447181813e-02
-2.587952704376991764e-02
-5.407513749832839126e-04
7.109447794676049433e-03
6.433794484352463143e-05
-1.867511104706953695e-02
-2.324251543440425741e-02
-1.766640491980912917e-03
-9.509502137676487804e-03
-5.279349260661123089e-02
-4.829661809159419700e-02
1.380533578341961061e-02
5.927868384973800781e-02
7.151434838851356002e-02
7.227093156581944344e-02
4.056877234332800786e-02
-3.070156929967613607e-02
-7.741235002516284880e-02
-3.909279196366461512e-02
4.441026018653137369e-02
6.562788811676631417e-02
-3.897915039331466963e-03
-6.555572744918451711e-02
-4.708828299047237986e-02
-3.898597169498647062e-03
4.121362331630772265e-03
1.231376765755358080e-02
4.206057179895782150e-02
3.845062335160259748e-02
5.290293091436604547e-03
1.502103511943688602e-02
5.418990137833512577e-02
5.690352642304175035e-02
2.830637967096977931e-02
2.027207513075556054e-03
-2.047650296477161388e-02
-3.919442577325531196e-02
-4.586570692036155694e-02
-5.511449633136614873e-02
-8.272826886247486300e-02
-9.514198972253611053e-02
-5.214771724874067704e-02
1.919391596422367202e-02
5.726349351032350432e-02
4.707856586693698331e-02
2.567564904233704537e-02
4.394477737989102052e-03
-4.804644067116119188e-02
-1.105339514973817938e-01
-1.180791724479561960e-01
-7.784095722927207583e-02
-4.395345021208830333e-02
-2.217906164631586186e-02
1.045574459997651931e-02
3.921507571214912641e-02
2.807644692018240046e-02
-1.664129586120915993e-03
-7.142640987668442271e-03
-2.200501353640707536e-03
8.057969068696017520e-03
3.285158772093425827e-02
3.542995598850343097e-02
2.016135776817959066e-02
3.620026402906795226e-02
5.652349841173207046e-02
5.161210981697768319e-02
7.973347867682070711e-02
1.579298575846724284e-01
2.331395823912549570e-01
2.877270577991253298e-01
3.087138786633337739e-01
2.758831091989282225e-01
1.843961249002996350e-01
1.536956386781417050e-02
-1.642673108527449854e-01
-2.319600777697466976e-01
-2.241685993905429553e-01
-2.339474024600889379e-01
-2.353525677950823458e-01
-2.070037559992487508e-01
-1.814907553386074790e-01
-1.532678099344938205e-01
-1.178530710096878376e-01
-1.005994320970550471e-01
-8.648305896558636241e-02
-5.004267923973949178e-02
-5.371261566665418152e-03
3.964804949447361948e-02
6.180469845042536881e-02
1.241781233065158280e-02
-6.071761810265983994e-02
-4.286424650174133766e-02
4.224225967154242312e-02
7.507340711769096286e-02
6.978650565097782588e-02
1.011269558965318255e-01
1.175592177281084699e-01
7.342886412620588943e-02
3.630529522711029716e-02
3.819747692520293614e-02
3.524588376818375834e-02
2.674329485708447016e-03
-3.940996203163689426e-02
-5.186208423110681004e-02
-2.694105097063042437e-02
4.566104237437175473e-03
3.499210608503885989e-02
6.760244127573356021e-02
7.274960046500043853e-02
4.736790342603183074e-02
3.079313049518670256e-02
2.310099371552080255e-02
3.343428414686469910e-03
-9.233106225182328985e-03
-9.710912121456225649e-03
-3.367888798424594626e-02
-7.066067120149546743e-02
-6.627311870277562134e-02
-2.862167242096915615e-02
3.917224661438570982e-03
4.060727503410983125e-02
6.552108281866574069e-02
5.034549707909566352e-02
3.854199560728541196e-02
3.419313243367372301e-02
-1.616847678530651186e-02
-6.556003366105300767e-02
-5.188485426747682649e-02
-3.345209792815732192e-02
-4.268658030518546198e-02
-2.620183415309916206e-02
2.052528286718684897e-03
-8.583955261051906538e-03
-1.414472324114163584e-02
2.046668340645486570e-02
3.629792727544357139e-02
1.166709984933861181e-02
-5.458757561635958939e-03
4.447440895576546503e-03
1.947673934507493723e-02
2.932589351763552343e-02
5.068360382639821443e-02
3.269718652437605261e-02
-1.034276418887137977e-01
-2.124254564676128776e-01
-1.035725709820547735e-01
5.480616292629925113e-02
4.714765056810772681e-02
-5.463810560758775720e-03
1.030042069025683890e-02
1.015686294295643083e-02
-1.006311533099125272e-02
1.793803240434381496e-02
5.807658289976537491e-02
6.047904541758247765e-02
4.809108909172926660e-02
2.804740399917803051e-02
-1.644475126346719995e-02
-4.636240628142784814e-02
-2.822783886706595885e-02
-1.643211553611518758e-02
-3.875443474053069659e-02
-3.566780540935844679e-02
6.246863879746275897e-03
3.403500956169032421e-02
3.163024749735675323e-02
3.172276091345194171e-02
5.524414258145286111e-02
7.306154705636891400e-02
4.932853400418751172e-02
1.087962176597854873e-02
1.127848457994343363e-02
7.748977064363067602e-03
-7.435121953173744191e-02
-1.274776959720557712e-01
-3.209877855943109315e-02
7.651333244209768125e-02
7.371337604650113340e-02
4.898428616911602168e-02
5.269883762372522956e-02
2.279233096461148050e-02
-3.103359976550119567e-02
-4.320704403974529040e-02
-2.106628325440820793e-02
-1.120778104307694652e-02
-2.429717496960278472e-02
-5.333093027219028281e-02
-7.500472637715839552e-02
-4.612467523396805713e-02
1.696535853007557701e-02
3.665022348660027657e-02
-3.087018669882354849e-03
-4.407249841837657806e-02
-4.373434801157039670e-02
-5.177090742376476776e-03
2.355657476102673148e-02
-1.262412899420869115e-02
-8.784252131863286295e-02
-8.884206716344514310e-02
3.106405922517222959e-02
1.249815999242469555e-01
6.373812513109775035e-02
-1.665150993884773056e-02
2.084627606189535728e-02
6.549014655945566143e-02
4.662065860728553668e-02
5.242814495757320420e-02
6.813193789666505129e-02
1.341972634424045720e-02
-6.207325277706599032e-02
-9.013390842351953758e-02
-8.906447532374585363e-02
-6.803523733809670182e-02
-1.514688608705521376e-02
1.653074560038350627e-02
-2.781092778341308358e-02
-4.706287850660981209e-02
6.422987525606518866e-02
1.430852542916255521e-01
3.470132462509097071e-02
-7.545898108177859220e-02
-1.546774235279312765e-02
8.170528032119460382e-02
7.682920208562613040e-02
2.458485262018833550e-02
1.908294100763466630e-03
-3.338902314968221138e-03
-3.225313529641634855e-03
1.785981198736953310e-02
3.097223364946292620e-02
-1.369732677937355366e-03
-4.774036339253172334e-02
-5.620646091626341906e-02
-4.090246766124453620e-02
-4.562502596467153670e-02
-5.003476519739975120e-02
-2.109269568212835538e-02
7.511049511258875190e-03
9.621739042711059328e-03
7.501653470294859100e-03
8.705742103652682612e-03
-2.341175640640727126e-03
-1.548555898339239872e-02
5.078958595287634895e-03
3.836899052257071452e-02
1.917044788542422024e-02
-1.994152419574065846e-02
3.111330293190974795e-03
5.598354763851948190e-02
6.750867747610309055e-02
4.310246338894960227e-02
-7.588303124694929964e-03
-5.998666703740916650e-02
-2.200014664667602343e-02
7.077637713697318422e-02
4.210612008656267058e-02
-7.767688701920794081e-02
-9.432202051437861556e-02
-9.011108166442842460e-03
4.126017220009767922e-02
2.339206683871620368e-02
-3.118435459610661292e-03
9.577494415523106139e-03
3.720476105629120372e-02
1.283398553642756817e-02
-5.355152779593666534e-02
-6.977471229910409134e-02
-2.018762285340992488e-02
7.880816183095521940e-03
-1.158869701028196648e-02
-2.480583645951844537e-02
-1.543191285641565616e-02
1.010103331728853457e-02
3.815656064175373952e-02
1.555508037878681506e-02
-4.520159671241517907e-02
-6.166655442125507092e-02
-5.340497453332512801e-02
-7.277926529990999538e-02
-6.493959590896906942e-02
-1.836675215974515468e-02
-1.585870578567994890e-02
-5.043114614057303546e-02
-3.798991832612384767e-02
2.193911533129338370e-02
4.513645434901340098e-02
-9.952954908563500444e-03
-6.077975413701403734e-02
-1.623038550642730282e-02
7.101397757562655233e-02
1.103470578581435685e-01
1.121985836802089909e-01
1.100611386887686977e-01
1.049132149359574273e-01
1.169740294686144877e-01
1.653338076501532916e-01
2.164795501615394691e-01
2.336202659305051388e-01
2.288202054316793299e-01
2.007273289526841087e-01
1.201222573216434164e-01
2.255527654628122075e-02
-3.749344095976759467e-02
-9.397800205939002560e-02
-1.801732326761812941e-01
-2.728405421823852928e-01
-3.668932890744716069e-01
-4.096910585718828157e-01
-3.317048173297695302e-01
-2.304269339042186726e-01
-1.952310039812580056e-01
-1.440941137459995358e-01
-6.667753840974402491e-02
-1.775224310722700594e-02
5.965663556247192967e-02
1.661925827964335634e-01
1.899972205879117415e-01
1.274656212200356298e-01
8.845844658590654164e-02
1.028061442391195734e-01
9.846243059591482105e-02
4.866260573915316689e-02
7.359873273488356377e-03
3.865879906387781687e-03
1.316056682734543203e-02
1.175706564419625594e-02
-2.597577717164166813e-03
-8.002843141515522327e-03
1.830157655601546626e-02
4.766302050145731356e-02
4.392548407163142377e-02
2.941631233042087123e-02
2.172167230186643899e-02
1.904161323473558404e-04
-2.384232909924311958e-02
-1.215511803382995221e-02
3.450171664005627359e-02
6.939156964535596328e-02
5.379077926437604573e-02
1.744189719315188819e-02
1.315666899642589996e-02
2.564841028584837618e-02
1.011917494593363685e-02
-3.141285053787565285e-02
-6.103069754021300808e-02
-5.261149630593502796e-02
-2.539001953864170047e-02
-1.107513688913957031e-02
8.813142600198231764e-04
1.885193611955270077e-02
1.090516758427483718e-02
-1.567851350582422781e-02
-9.180666301863000395e-03
2.258994892083516365e-02
2.938196053307255695e-02
2.801673087360952857e-03
-2.294485136398406386e-02
-1.456647318860873966e-02
-1.350159459206626625e-02
-9.291437441190736335e-02
-1.727110120813601934e-01
-1.149396437608691951e-01
-6.603452701100945635e-03
9.825142138771697509e-04
-1.612261068284772531e-02
3.104673672205147950e-02
5.068482186989452243e-02
-1.383717540135154245e-02
-8.187294061255918909e-02
-2.906887335787389226e-02
1.473202483519719663e-01
2.102761691848106240e-01
5.260540141579217455e-02
-6.219688956558717952e-02
-3.195495357105600231e-02
-5.906368886545042968e-02
-9.494053503020474793e-02
5.038806977662048381e-02
1.917177743216726959e-01
1.111321261999317356e-01
-4.456731510734448024e-03
9.863550510897871326e-03
4.069564538607011589e-02
3.295958564155414272e-02
2.302342124931432144e-02
-8.235256234026242655e-03
-4.825228432487125435e-02
-5.883107909117171741e-02
-4.777655043855898176e-02
-3.151584975881177586e-02
-1.907543239445249478e-02
2.486952312984539067e-03
4.671978897254353696e-02
7.057580467553632719e-02
4.768083892363245146e-02
4.677481564699294964e-03
