-6.964564157019270674e-02
-5.409719530758532596e-02
-2.829265296924188960e-02
1.213196517101840927e-02
2.999092748070021630e-02
2.383908817529997726e-02
3.033937090298553102e-02
6.465256602396311780e-02
1.058087761033735669e-01
1.287940499882747336e-01
1.051743949793906563e-01
2.482011519981379422e-02
-3.679893753954871505e-02
2.147857423254798809e-03
8.603688868884293295e-02
1.124104392448961737e-01
8.688989069425030742e-02
6.947053067604912202e-02
6.169104909626708932e-02
3.469482974494723926e-02
1.063775143407970705e-02
9.807930265069587233e-03
-3.422729004954105925e-03
-6.315286477122320635e-03
6.803746284299730385e-02
1.494027795071155851e-01
1.671800738580154766e-01
2.378172975366938113e-01
3.238571543996180968e-01
1.262031268812290885e-01
-3.213522583909710351e-01
-5.538044231510198534e-01
-3.771952254868107812e-01
-1.162907582786354282e-01
-4.910340422282511580e-02
-6.722165778453950691e-02
-2.868591813265242152e-02
1.386822296896579945e-02
1.217642323929138057e-02
5.857296914154618006e-03
3.531627813059204368e-02
7.899132403370125177e-02
7.236209947908175955e-02
1.939384238099199631e-02
-4.056846620589131536e-03
2.296137123841708594e-02
4.203722450725333459e-02
7.162340538449418412e-03
-4.271449523780767449e-02
-3.526998516029692526e-02
-1.626744762282161284e-03
-2.520558899956696491e-02
-7.373153067110439773e-02
-7.133342581957941020e-02
-1.697081876108039178e-02
4.072263706937847422e-02
2.707797860350129662e-02
-4.879535191202715588e-02
-6.571498776717654700e-02
-1.545241855967223465e-03
5.045010508421399198e-02
6.639348569158416702e-02
7.978747513101015765e-02
9.472376340844154696e-02
1.029434515486228885e-01
9.251394251979269678e-02
5.348517096030387663e-02
1.416998765784299209e-02
9.276477046206321742e-03
6.656271337130852811e-03
-4.329722630372136172e-02
-9.953622840556185236e-02
-9.956006010870467604e-02
-8.964863657196167623e-02
-1.212884703510285211e-01
-1.127231554344419878e-01
-2.696121369697053460e-02
1.596403622482037848e-03
-3.487949991867969612e-02
2.892594978644514800e-02
1.492084655464460674e-01
2.008111972969127412e-01
2.844743463609340495e-01
3.809567082305729269e-01
2.389259893690262038e-01
-1.249994864847503440e-01
-3.886760949513297647e-01
-3.681712743004844635e-01
-1.700791132168971431e-01
-1.526129782726495798e-02
-2.783376526849568044e-03
-3.504289512843356685e-02
-8.276385294835699943e-03
2.271384141434956011e-02
-5.944332553052964624e-03
-1.475231623302708517e-02
3.228446835062963316e-02
3.480934488390119430e-02
-8.581189552573607882e-03
6.713308857954433488e-03
6.388418138785652289e-02
7.423558501386735842e-02
4.110772097268156761e-02
1.249485051599973952e-02
-1.010869875334250573e-03
-1.997682671233317470e-02
-7.046150309736673445e-02
-1.272751307222197426e-01
-1.098474621525125650e-01
-5.567895956951816189e-03
7.301263138424145260e-02
5.103978562116316675e-02
2.112960561372237422e-03
-2.214886555144066245e-03
2.163655073572658474e-02
3.696332645562978858e-02
1.484013862733283944e-02
-1.936271320832915269e-02
-1.601852568911411173e-02
1.410116627183384541e-02
5.539131895345616313e-02
9.464672340766762393e-02
7.211853195910068737e-02
-6.066407332188444509e-03
-3.532275683406753408e-02
-1.540576499903702559e-02
-4.881930720426679027e-02
-9.142542794991921629e-02
-3.569085569631101629e-02
3.039878561678547100e-02
-1.637647315393608166e-02
-9.521857596495096610e-02
-8.304868168227302894e-02
-1.363038324718274935e-02
3.850340820960526655e-02
1.043294622936356553e-01
1.929745179615798556e-01
1.982970792297518714e-01
1.588380439282613410e-01
2.485853023648781635e-01
2.633924952742602299e-01
-1.118780011311093364e-01
-4.969780441482698485e-01
-4.058396351743535080e-01
-1.281837002101259004e-01
-2.629320290620876938e-02
-1.637496276645892396e-03
-1.312779478711243938e-02
-3.624636402763456444e-02
8.796385271063839051e-02
1.983112139674251817e-01
6.977603199645263099e-02
-4.830378296831600027e-02
4.673342889628510910e-02
1.283918358216796785e-01
5.562694206085260634e-02
-4.077963231813280104e-02
-7.334203326293471659e-02
-4.755672219221755703e-02
1.193137470873978888e-02
-3.095815490273230025e-03
-1.161478053430304996e-01
-1.461520451229240125e-01
-9.170600371908407822e-02
-1.054942871827830309e-01
-5.959639431393622122e-02
9.855210740421427307e-02
1.064728201988507789e-01
-2.754009989978963707e-02
-6.499470478887182934e-02
-2.720091287728080426e-02
-1.497791619170205785e-02
-2.757859912987007701e-03
1.179077891069616260e-02
1.079655428012301060e-03
-1.715875336881261988e-05
3.952429751461516289e-02
1.772290099202100330e-02
-1.256848545719354004e-01
-1.788738582783679643e-01
-3.030224123116818935e-02
8.495110373688684324e-02
8.175217853156270531e-02
1.269995147174453609e-01
2.117092421692272630e-01
2.227299514528197077e-01
1.845366571549217904e-01
1.472831822343156072e-01
1.450132051320605631e-01
2.088990385810948758e-01
2.527647304498175651e-01
2.036261474269314975e-01
1.620897147541483507e-01
1.826723711034951292e-01
1.312088485059576537e-01
-1.471600072252249036e-01
-5.641715721737591283e-01
-7.416543391113876726e-01
-5.179810949515646357e-01
-2.254001145180394849e-01
-1.264072327892467040e-01
-1.066470005836090695e-01
-5.325039729708336972e-02
-9.234299621818264914e-03
2.285747945263168213e-02
8.394018420386072099e-02
1.299256855319061432e-01
1.104513493063435242e-01
7.388960317542712930e-02
7.261179516104743215e-02
9.441152185927796647e-02
1.012347867172009863e-01
6.777383567648703755e-02
3.419152195261043053e-02
4.670557099173887339e-02
3.420332459080585585e-02
-5.449289020693379171e-02
-1.007915443812297390e-01
-5.227257536082989542e-02
-3.782725864597355492e-02
-8.208375661049725769e-02
-8.359670395647803010e-02
-4.763961824749317342e-02
-2.964309333161957438e-02
-1.513401023015068826e-02
1.446548898743185881e-02
4.063993603122230402e-02
6.040166543214206540e-02
8.975811820186911649e-02
9.511513991265817258e-02
4.425367879142058647e-02
-8.110398743263001059e-04
6.140439719727795731e-03
1.449247712610295460e-02
-2.709796512097833315e-04
-3.062508397234823404e-03
4.840693135951978920e-03
1.398196322410096004e-03
3.969041311762093113e-03
1.990660537087099446e-02
2.119599624675791438e-02
2.656856929143854712e-03
-1.594584986793428499e-02
-8.348597105215047748e-04
7.516309051542657826e-02
1.481774568616341936e-01
1.905637639947960482e-01
3.125965220166946335e-01
3.814042859078162206e-01
7.540286604361404188e-02
-3.861875857640140186e-01
-4.843628348821532592e-01
-2.853497438242896811e-01
-1.444369247350817398e-01
-6.365273639291967045e-02
3.166571748821542243e-02
6.582159784040393646e-02
3.957518626958848873e-02
1.306312938222370899e-02
1.412864457958067088e-03
8.333512319986965261e-03
1.373274746350569217e-02
1.230152420038696515e-02
3.082371282471038643e-02
3.623393057344838353e-02
-1.160520951875912768e-02
-5.601967381291042547e-02
-6.207905356757897897e-02
-7.941514797662803382e-02
-8.770278543611147171e-02
-4.869892293782474707e-02
-3.981905407273251402e-02
-6.915593069743479482e-02
-4.006119596327994276e-02
2.330656214912651611e-02
3.363324854904500838e-02
-1.070949609929722213e-02
-4.486540639714565321e-02
1.622053944935139894e-02
1.137151568636131510e-01
6.519307641409893828e-02
-6.776612899952501323e-02
-5.979020810316393320e-02
5.583370891353466731e-02
1.252478900203157774e-01
1.412578483554200737e-01
1.043236752661859945e-01
-9.596916122725297413e-03
-1.010759387113089602e-01
-4.374310622520711372e-02
8.534507748959041518e-02
7.743802700595026067e-02
-5.180797361539442314e-02
-5.969962675757183035e-02
6.402425399645002291e-02
8.098474766696946159e-02
-2.957652390336540371e-02
-1.060298975203071564e-01
-1.058274675026597555e-01
-8.936687235778284499e-03
1.819411182253499737e-01
2.932385838141631229e-01
2.735362464271594019e-01
3.216862772242053414e-01
3.086433135034063469e-01
-1.095900346810666226e-01
-5.411675886540121549e-01
-3.975027751392344877e-01
-5.906450663967686976e-02
-5.094960195657605162e-02
-1.424370108776220611e-01
-9.611634499244887941e-02
-4.120423921399812839e-02
-4.151999129494118174e-02
-6.749944658727816127e-02
-9.316601736539276146e-02
-5.696492070874528690e-02
3.203411323145615580e-02
1.045778327959037968e-01
1.346006476935359408e-01
1.052368151414389552e-01
3.311123712823321741e-02
-2.243658966290013393e-02
-2.295900493889146618e-02
5.063848506203866978e-02
1.159496821924778515e-01
2.453263532324554200e-02
-1.577852545225563174e-01
-2.016145873040467440e-01
-6.382940036586277899e-02
3.685725889995039584e-02
-6.914753847279669907e-02
-1.728743365375320917e-01
-2.707674472142046138e-02
1.694266483832137515e-01
1.933912887321888041e-01
1.481085780155526610e-01
1.074272956333175294e-01
4.858334519666279022e-02
5.339945188694791151e-03
-1.495056021004899025e-02
-2.757880373824154324e-02
-6.249271858520637213e-03
4.348402157613059232e-02
6.008728531648356574e-02
2.756533373898730280e-02
-1.567364082298962347e-02
-5.108630464260398296e-02
-6.317783267323108520e-02
-3.277700046379929122e-02
8.096803024598066278e-03
4.393454724970973641e-03
-4.141205701682202506e-02
-5.985652229519534268e-02
1.005346923831699005e-02
1.057772270161910777e-01
9.336243376672680172e-02
3.743971938591926507e-02
1.618355486532013499e-01
3.406383137216514867e-01
1.144873188699738475e-01
-4.174539951494830037e-01
-5.552014577580663968e-01
-2.264096116627364041e-01
-3.497514128462209104e-02
-9.766855866736430525e-02
-1.047548881415962529e-01
-4.892416182618620352e-02
-5.031147978116438935e-02
-3.936018825327938786e-02
3.783016942457510107e-02
1.020587917140982348e-01
1.236788405245464462e-01
1.444496376558153106e-01
1.597770505395564034e-01
1.718033104937037314e-01
1.895663574835221021e-01
1.677789249174874153e-01
1.346063777280548379e-01
1.686664642101383671e-01
1.915370684547076652e-01
8.838190905113597895e-02
-6.343138416007219893e-02
-1.061944334878267421e-01
-1.635577209724740216e-02
5.124783460927961193e-02
-4.456819298276420982e-02
-1.936472876854069269e-01
-2.274491817923292303e-01
-2.251409798456709688e-01
-2.846679055456138863e-01
-2.924612651882065872e-01
-1.849121765541396623e-01
-7.631899325412874746e-02
-2.582363492387748649e-02
1.199729890602990040e-02
3.155928006566063870e-02
1.095664418774235788e-02
9.294746123058465759e-03
6.369047630623111966e-02
1.156911100910401058e-01
1.243037400061096642e-01
1.170706305954415938e-01
1.132920234508797280e-01
9.602870439099228661e-02
5.761059900488197522e-02
2.586760127682238147e-02
1.449925283121081959e-02
6.414876188165819643e-03
2.521977866894234074e-02
9.240306159498130889e-02
1.641151724868181727e-01
2.453601578739325328e-01
3.411351596438868539e-01
2.433116551861583265e-01
-1.922785106038906178e-01
-5.754198569514337169e-01
-4.532591685015290306e-01
-9.304144839377258280e-02
1.980818046691290579e-02
-2.572597410597123740e-02
5.061356293122792893e-03
3.685120387788985707e-02
1.295474739125957939e-02
5.512845123248750340e-03
1.929059745872024889e-02
2.487906682683788118e-02
2.301478353736665511e-02
1.782640135747348697e-02
2.630770872062296317e-02
5.046725930526534121e-02
5.012820426748076236e-02
1.369103953554633157e-02
-1.286292193241100196e-02
-6.029746406613472817e-03
-1.411916056073644898e-02
-7.854587885248855150e-02
-1.366130379021658903e-01
-1.089462699846431015e-01
-2.927191206680472557e-02
2.606871190923074066e-02
2.647479521064597524e-02
-2.154540781154147544e-02
-6.788337920446245455e-02
-5.947610328459179002e-02
-1.224056330515993322e-02
2.944515928524626958e-02
6.354407660150707127e-02
1.003666539191264417e-01
1.181247222226328442e-01
8.698109982633292492e-02
1.617755186264356604e-02
-3.288100005811298715e-02
-2.654764422739574331e-02
-1.239463719953208531e-02
-9.457916287441423334e-03
1.505204993517658164e-02
3.173822010794175030e-02
1.949680513309070672e-03
-2.780498155541122340e-02
-1.131965168349916527e-02
3.516571324726961920e-03
-4.287019171462298078e-02
-3.838995752620782270e-02
1.457753988635897280e-01
3.038913322681631168e-01
2.439057601005815423e-01
2.017338311084710956e-01
2.577523703156048285e-01
7.654560853620726024e-02
-3.404112540531902820e-01
-5.369365122962208581e-01
-3.401874291844948495e-01
-5.557281894915112180e-02
4.190509254030662378e-02
1.210924713079201270e-02
5.842786009800791241e-03
2.547292632963961759e-02
3.200622581374921310e-02
2.581346047270266508e-02
-1.207408238223763725e-02
-6.556998515555610696e-02
-5.364940445772216349e-02
1.363988538202238684e-02
2.221390033592753749e-02
-2.771024658645022953e-02
-3.421291397411553581e-02
-1.994604625356725600e-02
-5.112868589356938526e-02
-5.443040635730663629e-02
-8.260710584987111804e-03
-2.019839889403470673e-02
-4.272978463599659549e-02
4.120928421657298057e-02
1.330168328136210054e-01
1.137584044577357179e-01
2.942687426781583071e-02
-4.255356215234282202e-02
-5.056407292923620345e-02
9.183384449570897168e-04
4.072272493572606095e-02
5.104691038477490034e-02
5.330759262390848130e-02
1.274290295460018055e-02
-5.138770359948700850e-02
-2.643622810284677882e-02
6.101511603281715296e-02
5.690928172671236296e-02
-3.110045710019389634e-02
-9.266464104968456794e-02
-1.052917766036608471e-01
-6.646523971492998561e-02
1.330217414244708879e-02
6.878576147472857671e-02
4.123028651767696867e-02
-6.104065056690264474e-02
-9.675874689107097359e-02
3.909395734643510145e-02
1.843145049745822106e-01
1.924752967455479746e-01
1.661241275579644350e-01
1.828503440635912969e-01
2.090833835280220265e-01
2.593015943309222582e-01
2.643811046618035898e-01
-3.217140002819271483e-02
-5.298042883810414327e-01
-6.010436034686283957e-01
-1.794640195707171149e-01
5.345105515661420503e-02
-5.270303870221182407e-02
-9.288170852010248224e-02
-2.139625286702011298e-02
9.037014221490266563e-03
1.521192998932449289e-02
1.349929832134812852e-02
1.231027570786454722e-02
4.140517664646085894e-02
4.866612017749276375e-02
2.116251844050013459e-02
3.026823564039082121e-02
4.336423119487320399e-02
4.491846579925840716e-03
-1.677701952674693839e-02
-8.125200423522960583e-03
-4.212856804823467832e-02
-6.541086112402202946e-02
-1.052077144217706053e-02
3.749902865880332115e-02
1.668481370034679764e-02
-2.581073425362769014e-02
-4.757644684329490753e-02
-2.780835860562917358e-02
1.817384916636136452e-02
2.521136672863580688e-02
-7.932557757145200505e-03
-2.081526474405345078e-03
4.636225350606547335e-02
4.408163155765031094e-02
-2.571709378302093965e-02
-5.460457815689264555e-02
4.540944137259125823e-03
4.718574259564720097e-02
1.016013694872496681e-02
-1.808922219943526200e-02
3.497402128780680713e-03
-3.730500100018036697e-03
-3.676051203445108995e-02
-3.223157615698117595e-02
-3.512622126475477280e-02
-8.355331635894555631e-02
-1.160704834821024989e-01
-9.746474150132952707e-02
-2.495597683322985094e-02
9.086569741456411442e-02
1.606795585935325843e-01
1.398277523413352652e-01
1.457867391787217581e-01
2.765741066808194426e-01
3.832981087778294937e-01
1.747787264062006518e-01
-2.639388317735192335e-01
-4.043453104352723870e-01
-1.165385322915030025e-01
1.449119608314312080e-01
1.772748049708478824e-01
1.579788934128283640e-01
1.538605448747072391e-01
1.209495396073989315e-01
7.725796691802391813e-02
7.159594916225818506e-02
6.430245099813185206e-02
-5.587851116755918057e-02
-2.191356250615749401e-01
-2.611350186466164791e-01
-2.524595135568303284e-01
-2.847697537487732800e-01
-2.615949034357924474e-01
-1.872856125133523786e-01
-1.744428077891766460e-01
-1.582837982132241084e-01
-3.002687418766406685e-02
9.338462981223030757e-02
6.309705600692885885e-02
-3.658440484741539572e-02
-5.314391430727861965e-02
7.154602721608102622e-03
5.234915588055957109e-02
5.793386816891606117e-02
6.108036286291687600e-02
7.379800255190330227e-02
7.767442274612343378e-02
8.582797018998038208e-02
1.263383608094697519e-01
1.561707136454211775e-01
1.135786195127832243e-01
3.834766729097120047e-02
9.523702537161518600e-03
3.140063581727847025e-02
5.224803896218048471e-02
3.594140948323275297e-02
9.394393665482909245e-03
2.234783312857171328e-02
4.577508101309871180e-02
2.590897355487431844e-02
2.036408321871754912e-03
-5.919429916524492075e-03
-3.322712860965643111e-02
3.449545764817717880e-03
1.102564499371219142e-01
7.165223983054144763e-02
-1.822156064485028898e-02
1.792087786080813483e-01
3.745692727839602387e-01
2.282676456802257281e-02
-5.358748054222419732e-01
-5.867504674458285940e-01
-2.320295670417323042e-01
-2.181886931313596623e-02
-4.989600931069027717e-02
-8.669261515496397286e-02
-2.671659824461856611e-02
7.029985152855401653e-02
9.882240736029820893e-02
5.853056172828278308e-02
4.290818848628952242e-02
5.880326067797540107e-02
5.960065554677064503e-02
6.502621501844542407e-02
7.938107091386349679e-02
6.009306246829416304e-02
2.595716132419408420e-02
2.310089326675733579e-02
2.644118804844904774e-02
1.360585572902177007e-02
4.859128966049371459e-03
-2.341013115794895322e-02
-7.090425577534034685e-02
-5.006860408719723821e-02
2.745656760336603538e-02
3.519420674009228478e-02
-2.037859661532144540e-02
-3.084051945563643163e-02
-1.398406766463941402e-03
5.210128220021173658e-03
4.907442061437752162e-04
1.533177447212623334e-02
2.631744189642142365e-02
4.473758542943326137e-04
-3.718689903948815823e-02
-5.923674201945065831e-02
-9.203798909997322475e-02
-1.128280988211294161e-01
-7.069237468979655548e-02
-2.571319721440952846e-02
-1.713104943575162464e-02
1.185839258373988341e-02
1.516872598024490530e-02
-5.472110264960829834e-02
-6.168966291471961877e-02
2.868279988741144482e-02
4.703739375497204001e-02
-9.041383244477764480e-04
6.127511851868737425e-02
2.068345791429129221e-01
2.925212620792962404e-01
3.523717236449728785e-01
4.255796865654742911e-01
3.290017790630567762e-01
-6.007080004293479519e-02
-4.682022843556069014e-01
-5.161773305327059802e-01
-2.675430068981331511e-01
-8.161035172155348127e-02
-4.710454501671204608e-02
-2.915878519292261148e-02
-1.490947458554308519e-03
2.360107458720853840e-02
4.733871750723137733e-02
1.599024471622507299e-02
-3.359586146769996673e-02
4.373724441320334284e-03
5.860400207671254136e-02
1.393440227457662384e-02
-2.931134984482737516e-02
3.076315248533758456e-02
8.521348751387855525e-02
3.960792569542694042e-02
-3.454816027413101787e-02
-4.077249298696738328e-02
2.417120963909277082e-03
-2.114082932701946693e-02
-1.171572718701100885e-01
-1.322745487132657438e-01
-3.688710369034691600e-02
3.181838236309159768e-02
2.914073614085025202e-02
2.141934701640904604e-02
2.796593646649709469e-02
1.471137866620085902e-02
3.310958031949973613e-03
6.480390117131379357e-02
1.191169744876468817e-01
-3.931982570537589927e-03
-1.811644522606774832e-01
-1.458482712008281612e-01
2.021075368751198628e-02
6.245152032667986713e-02
1.084671667772141995e-03
3.077437963594480477e-02
1.418382045802686342e-01
1.419566020915371263e-01
2.967062031950092049e-02
-2.441082942703356323e-02
-7.301689422433650656e-03
-8.246960284162448140e-04
-4.410499687692488041e-03
-1.485014725783794128e-02
-5.570934386604284652e-03
8.796073230017237288e-02
1.868217669890518684e-01
1.674747398253304265e-01
1.308338427454172059e-01
2.396137636346723776e-01
3.340867185809600626e-01
5.379679024337760684e-02
-4.754859466473577712e-01
-6.342639913911494176e-01
-3.192984698593445136e-01
-5.756058855172734023e-02
-4.868708814086534359e-02
-7.951534983156186009e-02
-5.418676697802675413e-02
-1.614479858725970801e-02
-2.809987094216293696e-02
-5.564375230628640367e-02
4.741595482531961447e-02
1.977320793730850124e-01
1.626180558787261032e-01
3.306613882969951235e-02
4.597097261216158588e-03
-1.070020130090692904e-02
-9.671572130265318479e-02
-1.223439952734876324e-01
-4.278330618731798762e-02
-8.679644209757676754e-03
-6.765811070274976857e-02
-9.314108227883573232e-02
-6.745536479963651355e-02
-8.089822430461941771e-02
-8.880227864468043242e-02
-2.681937851611425339e-02
2.762870537745487631e-02
6.079450301741450013e-02
1.580987476680980608e-01
2.368519231266928426e-01
1.755378196300282356e-01
1.457802157737934090e-01
2.968189955274923575e-01
4.143499808554312880e-01
3.514727271360419958e-01
2.544012733368585244e-01
1.790830884566386172e-01
4.546189793468431717e-02
-1.098899875813628135e-01
-1.943428867147828920e-01
-2.241548544627222916e-01
-2.712814297030278210e-01
-3.394027557425517427e-01
-3.699629568890147602e-01
-3.333560998265754360e-01
-2.639058433372697410e-01
-2.074038294725362164e-01
-1.416280925565020499e-01
-1.389168415299266157e-02
1.023500015800094531e-01
1.200405831870038909e-01
2.026272960579895699e-01
4.235887640397954512e-01
4.037076436897736875e-01
-1.617999546632405139e-02
-3.423676525373387514e-01
-2.726635556043563446e-01
-9.104952639483418486e-02
2.886565913419542051e-03
6.741445068574057620e-02
8.149919193855408028e-02
3.055735489189562865e-02
1.253511425976569504e-02
4.939890968621537398e-02
6.913246496335946623e-02
5.942185932966836254e-02
5.978255058593198029e-02
6.030357666476592049e-02
3.557538117387250981e-02
1.731805761582482298e-02
2.634403837343739924e-02
2.946776648064127618e-02
1.567166468633100773e-02
-1.282757564391471747e-03
-2.384046090049314962e-02
-5.539803483006468243e-02
-1.045449187882601105e-01
-1.495318922995717559e-01
-1.199499314950713824e-01
-4.268159467381787975e-02
-3.069534309631335306e-02
-5.851801987308767605e-02
-3.045471855690587079e-02
1.728239943168848741e-02
2.330116319137821856e-02
2.766657036326153341e-02
6.836437035771461557e-02
9.667940094234522830e-02
6.401909885534211309e-02
9.573136061132593230e-03
-5.437291692889376429e-03
1.258797048766635389e-02
1.879474663664620210e-02
1.470570066414507611e-03
-7.792322395259562023e-03
1.838155584667248293e-02
5.845335613425255844e-02
6.323596390918792554e-02
2.225617210675917904e-02
-3.679248645564298786e-02
-8.805615895570270690e-02
-8.549848292642217573e-02
7.902054310668676917e-03
1.224789823109845716e-01
1.608369213308313561e-01
1.813894633245161647e-01
2.863394993544518541e-01
3.088669174582915344e-01
-7.814809247615649157e-03
-4.228869875085828900e-01
-4.483461602975063465e-01
-2.262701943583203534e-01
-1.900372144182165268e-01
-1.854375925588001850e-01
1.545108949161259557e-02
1.556811942441851393e-01
1.032172811326672601e-01
2.556521278862015564e-02
-9.125807029346670596e-03
1.299401877142024667e-02
8.403356996461588957e-02
1.092887558306666201e-01
7.937978367793306622e-02
6.948017757427250862e-02
7.932661093463133639e-02
6.806391371618690511e-02
2.229769774405340743e-02
-3.321487304274603480e-02
-2.991864401091744868e-02
7.841482016659871712e-03
-5.156912090232753515e-02
-1.590281625259660769e-01
-1.394929593299845394e-01
-5.040767856388836399e-02
-4.507278602715829308e-02
-8.442648689073571633e-02
-8.922844936699231289e-02
-8.060660495415072901e-02
-6.561957289981451558e-02
-1.222541859698235422e-02
5.726805077137173128e-02
7.656679541829940205e-02
4.559928521425782311e-02
3.158863107293156253e-02
3.670378755084559991e-02
1.695390164587925672e-02
1.453301811605493994e-02
5.861919508475005314e-02
7.701640990576180679e-02
5.846902861911120602e-02
6.206952551211281088e-02
7.242818965218128513e-02
3.428549063175052869e-02
-4.031255601496894214e-02
-7.600844660750979975e-02
-4.728562397565546499e-02
-1.149557553598333851e-02
2.336424699551218481e-02
1.027873550008905762e-01
1.888178321252719227e-01
2.098048062770118960e-01
2.128255323313329450e-01
2.565021797506722434e-01
1.674145044770715129e-01
-2.018934469751026417e-01
-5.111108055790558602e-01
-3.813504397233796195e-01
-6.861126106294324067e-02
3.862866090227689425e-03
-9.076783732238040414e-02
-8.821027954174014141e-02
-7.019646780453039914e-03
1.519417635578543258e-03
-3.500094635944299426e-02
1.015954105560552823e-03
7.154784247110561324e-02
6.524240885864118766e-02
1.513209687429987668e-02
1.440170432637479132e-02
4.439734576295036733e-02
5.153417561990013968e-02
3.917664420144885418e-02
1.179991335924564060e-02
-2.574837742968549142e-02
-4.691003873544149355e-02
-5.027815066895711948e-02
-5.006860347491209201e-02
-4.735226355420230071e-02
-3.648648301612352624e-02
-1.401186853685789345e-02
-1.146583453250596234e-02
-4.558568831529469928e-02
-3.859888716230399502e-02
4.988365072739551348e-02
9.773301679429488575e-02
4.870442945618393138e-02
4.681016759395513482e-02
7.692044050342164430e-02
-4.014938328925150152e-02
-1.481977810192584566e-01
-2.100716727492812907e-02
1.193728119363379747e-01
7.478789024539173047e-02
3.016762371009787218e-03
-1.104344640676978295e-02
-1.132517280559569572e-02
2.237038857610525178e-02
5.509301079855999372e-02
2.760618492084755682e-02
-1.164985657781492795e-02
-2.640179064131455144e-02
-2.861428883597222361e-02
3.079392936598492059e-02
1.567902311633698476e-01
2.080083778135924100e-01
1.371895532937194018e-01
1.362817192515591858e-01
2.827594296847316113e-01
2.759867760568147088e-01
-1.335341313034847377e-01
-6.102839071220420575e-01
-6.048297355553550192e-01
-2.126423971647570244e-01
4.688810784098097068e-03
-7.096940263218595724e-02
-1.381847499214367836e-01
-4.891389516440965840e-02
1.185969992313499616e-01
1.810106411254229497e-01
7.575076655572610118e-02
-2.377994118987471206e-02
-4.699887056429073728e-02
-3.659229941573419187e-02
6.872424126354222118e-02
1.550999593393365128e-01
3.036449158451421521e-02
-1.099815632085504313e-01
-4.661259421255715268e-02
1.394989393555558753e-02
-1.081477870586363133e-01
-1.975390450136757237e-01
-8.586116739192591052e-02
1.905708361116066965e-02
-3.222871453740569492e-02
-4.613442858289895643e-02
8.388463281274824435e-02
1.870322071952164322e-01
1.884060664239815552e-01
1.840223761549766579e-01
1.971445518464630953e-01
2.076424349840900740e-01
2.499032430897394352e-01
2.919863024294315212e-01
2.095686599628609204e-01
-6.455306131095416705e-03
-1.480442255797433382e-01
-7.081956809195394387e-02
1.654500434108666096e-02
-1.112243990465997118e-01
-2.812794516402264966e-01
-2.846428162562921749e-01
-2.287074306914153865e-01
-2.180231108104536686e-01
-1.925269758313617463e-01
-1.478047077037983326e-01
-1.298314128969282333e-01
-1.029335338631542501e-01
-5.625548515586900611e-03
1.310085959201040540e-01
1.914882329949723627e-01
1.760081690302294222e-01
2.569402890427067154e-01
4.096839557278522670e-01
2.751358698696612093e-01
-2.190585507908907326e-01
-5.275836385924054239e-01
-3.105329992898121505e-01
3.177580911333555830e-02
1.162280406245225217e-01
5.811470163815898871e-02
1.859180258411631537e-02
5.962272098913904209e-03
2.039511744479027486e-02
2.618991690853823134e-02
-4.466784845965201221e-03
-1.112408771723109695e-02
2.260747496568579068e-02
4.294489052538531110e-02
6.252865019400342950e-02
8.684886020101785509e-02
5.397633996095876907e-02
1.023437780388014497e-03
9.510416397915732317e-03
9.038314568966880971e-03
-6.148391934278692877e-02
-9.530466237469459312e-02
-5.852454375027718592e-02
-5.895153273383293979e-02
-7.856293364242904198e-02
-3.879135054262723703e-02
-6.838224954844360215e-03
-1.910594331943906224e-02
-1.126483740573753188e-02
2.983581445049390476e-03
-3.447981844247357923e-03
2.721391081126710992e-02
1.018027055818347959e-01
1.370461808658944014e-01
1.017576362021240383e-01
4.584295106318080071e-02
4.433183518710609450e-03
-1.000566578364086787e-02
8.125920249886457031e-03
2.500768468883322188e-02
2.144823319629670169e-02
2.631572152811304660e-02
3.095374123722470158e-02
1.369815591318972875e-03
-3.641299707379570122e-02
-5.145989221457489271e-02
-7.240263303243860138e-02
-1.082801248051425413e-01
-1.012436047096688108e-01
-1.818058466114293864e-02
9.716496356247451838e-02
2.014479436821773883e-01
2.783079849057658040e-01
2.449191371344309198e-01
-1.034024343685679623e-02
-3.543117386133267654e-01
-4.431641231876127796e-01
-2.492020486762300258e-01
-7.728686086551830869e-02
-2.998854559982052498e-02
-1.266654383437961981e-02
1.786880541670440858e-02
6.821930562990280444e-02
8.751886478188945773e-02
6.143295515731726775e-02
5.873839812691926399e-02
4.661827210456084142e-02
2.499976453904659973e-02
1.149854157028616930e-01
2.067978445637726481e-01
1.110777596438724257e-01
-3.524772542639528772e-02
-8.556101167068336233e-02
-8.128244326654948670e-02
-1.411979973425590493e-02
3.595792385309382749e-02
-6.389582319700895519e-02
-1.572836106904612063e-01
-9.409766955693615875e-02
-2.106536060701794458e-02
-2.343561007400309440e-02
-1.674000935143694219e-02
2.199508210976391584e-02
3.634540712036216092e-02
-9.880429549251836321e-03
-4.725464762748968900e-02
2.354997581058030851e-03
4.161918292462760127e-02
-9.361474530759554200e-03
-2.660916726957761672e-02
3.099479607487476418e-02
4.492167813559966305e-02
3.485970236462478111e-02
7.318533378836661329e-02
6.981442335720187964e-02
-2.643192487051736119e-03
-7.012350769537824616e-03
6.766151066649679635e-02
7.357586443122020314e-02
-1.323835293095176370e-02
-5.595807227026187991e-02
-7.539399214094494317e-03
-7.217973649322265151e-04
-7.582323967303854217e-02
-4.132695527548593817e-02
1.544047237907164027e-01
2.676659164260661306e-01
2.170855844680810165e-01
2.301876187015537145e-01
3.344393113454646183e-01
1.817433805094999522e-01
-3.026192976580652783e-01
-6.168729673874463471e-01
-4.660717734442314519e-01
-1.682953696615802353e-01
-2.141850827754738368e-02
-9.716901462314103677e-03
-5.691458253672718182e-02
-7.988575463606867322e-02
-4.071207303762419683e-02
-1.455817105859565780e-02
-1.954624728477673268e-02
2.243852412717940031e-02
8.944092541111324512e-02
7.066120394740500743e-02
2.534559204882264744e-02
1.181906035451705389e-01
2.149781095717946955e-01
9.057714347438965141e-02
-5.988933323659804270e-02
-4.114248921396222725e-02
-5.197832270645143249e-02
-1.364002208117065240e-01
-1.166717305037048985e-01
-7.395207873359685435e-02
-1.134605488124394851e-01
-1.087727281362086684e-01
-3.404832640247746484e-02
-1.672266958691899508e-02
-7.353621828777912039e-02
-1.072093493316665369e-01
-6.405824685320234135e-02
1.454154884803641849e-02
6.504278261229391733e-02
8.388582603295108298e-02
1.143562134338343139e-01
1.674298411063844805e-01
2.043368636688560613e-01
2.156875052651534563e-01
2.399305254991581371e-01
2.755403071363783374e-01
2.729418885914212667e-01
2.211248447606141698e-01
1.588417985036718050e-01
1.054787172731548317e-01
3.541737989492560468e-02
-5.697304362980954578e-02
-1.299505146238517095e-01
-1.779983435122916569e-01
-2.171183907625406362e-01
-2.075621253881911599e-01
-1.620863611373587199e-01
-1.479599605067936086e-01
-8.708384062979335205e-02
7.839495229056296643e-02
9.674211773943118542e-02
-2.152451690838056153e-01
-5.281626554274133634e-01
-4.631757438719762421e-01
-1.595440448369638831e-01
4.374223753133615888e-02
8.373952416359904671e-02
8.239425740630137995e-02
9.723331439254255526e-02
9.706119555177372682e-02
8.392833326886431355e-02
1.099740994976961955e-01
1.530894753852269641e-01
1.402190157732117748e-01
8.959158633580631415e-02
7.208059973186341229e-02
7.808966123236164847e-02
4.459977108679899493e-02
-1.447744674344889071e-02
-2.127176157210193194e-02
1.427553641603825432e-02
7.317696721264903975e-03
-3.928642158278765339e-02
-6.371628040423127359e-02
-5.828013299135093722e-02
-2.383244827415777548e-02
1.689224797817172330e-02
-1.509462301846676083e-02
-8.308028078970838837e-02
-5.632999556745357794e-02
1.690129172939211499e-02
1.360280861589207441e-02
-3.812905971384793896e-03
4.272136940721910775e-02
7.786254954870157341e-02
4.622647876724375604e-02
-5.503232422668157681e-03
-3.582234382346216606e-02
-4.769257004638986774e-02
-5.243563818853171077e-02
-4.057098851610192736e-02
-5.195723849926845231e-03
2.607581681159220136e-02
3.230399119316845064e-02
3.065566216872328206e-02
3.770523893605472882e-02
4.073057248512386430e-02
1.228406089869983099e-02
-3.937435544075734012e-02
-3.845089752560530011e-02
5.377307313629465374e-02
1.513452359562389438e-01
2.161278177655289179e-01
3.144859795255200985e-01
3.377835452522593429e-01
9.128987135979638179e-02
-2.901644684456786694e-01
-4.961305029060538718e-01
-4.237206587698567617e-01
-1.626098723466562757e-01
7.662461893643306154e-02
1.112070055625045129e-01
2.922167527194204778e-02
6.894621211513844716e-03
2.138725092391568355e-02
7.159131656447447617e-03
5.831072016563455113e-03
2.624083975546433536e-02
3.260150214251282541e-02
4.579604941879209662e-02
6.265040772158857185e-02
4.261130280902859085e-02
1.808153022854842515e-02
-1.428592275090034749e-03
-7.460736146353923182e-02
-1.456984733344081351e-01
-1.260177580090527938e-01
-1.053612949964341933e-01
-1.567055779784896907e-01
-1.503035990326430926e-01
-1.940259744655184124e-02
8.103225015161141798e-02
5.678193217605394250e-02
4.056802159327837359e-03
-4.644373166912337501e-03
2.610718475116499335e-02
7.525445173209598104e-02
7.532996309550765712e-02
1.658580270840180615e-02
2.777999823111191799e-04
5.813652223857641854e-02
1.145906685727238611e-01
1.193277921426164206e-01
6.578423632430584200e-02
-1.416273340163728273e-02
-3.757168073724702351e-02
6.546988314645271756e-03
2.553921774507916451e-02
-1.964975331854032850e-03
-3.566720032189699824e-02
-7.373471172221013337e-02
-6.123431513117098823e-02
2.210589153653028799e-02
3.407817640654075414e-02
-2.234884496235159737e-02
4.841698980046904577e-02
2.120715757845375860e-01
2.911367932051359686e-01
2.645438835182506443e-01
1.921251309644284588e-01
1.232832009394736056e-01
-7.010172225302171989e-02
-4.506181096836193167e-01
-5.686973784293345435e-01
-2.286430466983541965e-01
2.940202422407989236e-02
-2.027933886315570755e-02
-5.837605898545662059e-02
-8.127854721965666399e-03
1.991716728344279652e-02
4.500968577923016023e-02
7.545870553381647805e-02
8.663599799983263960e-02
5.386715180216983950e-02
-4.066796810882183921e-02
-7.924020801708686612e-02
2.380603136704544098e-02
1.040571348843347954e-01
3.666040461079667773e-02
-5.039108345124267141e-02
-2.518003126523675472e-02
2.959482452194242899e-02
-3.512099984409114417e-02
-1.291333910080462721e-01
-7.629579511954243110e-02
1.410736493866853250e-02
7.422103556864942386e-03
3.102883052974531736e-03
2.264567571637386006e-02
5.767230837940099178e-03
8.436604366193641708e-03
1.922646917723845258e-02
-1.689676215505032941e-02
-1.691610010770540698e-02
4.598239209694046647e-02
7.275685397639426732e-02
4.701705616127555692e-02
1.419266537227401384e-02
-9.432032203260245357e-03
-3.193053992377195560e-03
1.818973322212507487e-02
1.031162608763634865e-02
-1.946369181265372381e-02
-3.611164894931506719e-02
-1.574924304880863032e-02
2.120470829866947030e-02
1.021988942395929238e-03
-5.268275572053027211e-02
-1.963431026307595889e-02
7.471987750282546581e-02
1.185824133583779777e-01
1.328595184985792155e-01
1.656280133841775970e-01
1.710298638386957559e-01
1.430465777735364097e-01
1.973597899080951346e-01
2.769729622400254332e-01
3.132660052501822640e-02
-4.631370238835954001e-01
-5.660850442557555651e-01
-2.251637912693268961e-01
-3.117653699061688488e-02
-1.026822701199308491e-01
-1.619919783025948468e-01
-1.495698311952286808e-01
-9.927830025582699836e-02
-3.194088896613253570e-02
-2.221051875786305557e-02
-5.920034256024002406e-02
-4.597421570156726145e-02
1.872375379145813437e-02
6.617766292686309837e-02
8.060029429112003374e-02
7.581557806299871194e-02
7.561437157829675737e-02
1.151118096113032119e-01
1.652260600142993474e-01
1.474652942434451497e-01
9.139022302917508556e-02
1.205363921458986881e-01
1.929881003045822996e-01
1.564005495542551416e-01
7.903838195328467819e-02
8.407722514506732470e-02
9.071127467463716010e-02
4.925725805553936298e-02
3.459065926482117470e-03
-4.179119080185771107e-02
-4.218133010150276058e-02
-3.339206020952562026e-02
-1.536240317971462599e-01
-2.978843775952887962e-01
-2.857221373387442420e-01
-2.209931815610359784e-01
-1.966045401708328977e-01
-1.374103970417497600e-01
-5.871390759278233284e-02
-1.898324156118078726e-02
9.324598793051315504e-03
4.041408139791131948e-02
5.420975700593382018e-02
5.356593147124535936e-02
4.573874255491226781e-02
3.386236261053896662e-02
3.473106617687513054e-02
6.480449759164429169e-02
1.243643187776059672e-01
1.886491240138848391e-01
2.228711222870712327e-01
2.306781072396522081e-01
2.399074548913049387e-01
1.805014294390897556e-01
-1.134791717075440964e-01
-5.107700755748265653e-01
-5.207626452494629188e-01
-1.159678976094779268e-01
1.371125415096935696e-01
6.754723876221643830e-02
-7.448003396264418763e-03
3.017533129540121012e-02
8.810430758179498001e-02
9.697869249697765870e-02
4.775007125260326279e-02
1.360910180820572475e-02
2.190821131156387921e-02
1.426417785881204867e-02
-3.578361788085357778e-03
2.977263668728070273e-03
7.176054128366539907e-03
-3.473407550426319511e-04
1.029972199578268327e-02
3.271669056795491887e-02
1.806764069988330002e-02
-5.200035808049938146e-02
-1.227824900877564768e-01
-1.338900259527653624e-01
-8.375080974732403150e-02
-2.071207205118302808e-02
-8.032352322901592165e-03
-4.111396892862616975e-02
-4.988067581853338622e-02
-2.378256797296791208e-02
-6.145826974770273246e-03
5.446888151457076471e-03
3.771178423476265196e-02
8.324228650230901250e-02
1.143598070971493519e-01
1.017978167280069873e-01
4.082610361715686281e-02
-1.659723512846178820e-02
-3.143264750557478449e-02
-2.861015162817619889e-02
-1.637297850172195895e-02
1.059104375496234922e-02
2.151399381953959106e-02
1.520927400490877830e-02
1.168911136572283946e-02
3.527371154823940626e-03
5.067106185803102111e-03
2.264069016646365340e-02
2.711025818329750384e-02
3.747444010317714513e-02
9.214878768256690167e-02
1.771744754323462678e-01
2.560516682475739714e-01
2.862688759374198977e-01
1.989309969006158585e-01
-8.775093500544911551e-02
-4.506688284244577125e-01
-4.991939610588033149e-01
-1.775827270317050233e-01
4.239449676857889177e-02
-4.456423435000839151e-02
-1.468250900795714242e-01
-9.166136313678666103e-02
-2.037920831638630886e-02
-5.651056529885436358e-02
-1.012655920990139374e-01
-4.328863868773807910e-02
1.801465075340035957e-02
3.541871764874857109e-02
1.457636438940680679e-01
2.807572109807998650e-01
2.187114154352753359e-01
4.197396118551886823e-02
-3.259432451702324457e-02
-4.815799596674896071e-03
3.405663449723011355e-02
1.314947078806450072e-02
-8.360685503820892983e-02
-1.221329011645183454e-01
-3.995518611667533970e-02
-7.723164805698623514e-03
-6.785265065756594660e-02
-5.179144132367059783e-02
2.431909022889103267e-02
1.507659867130663883e-02
-3.409255716938654202e-02
-2.008472371669892814e-02
3.143504649944379309e-02
6.948454157346024840e-02
7.146704507044888965e-02
3.787030055016908647e-02
2.156793423229425369e-02
2.685446170186928799e-02
-8.778072531960204664e-03
-5.869356402704031805e-02
-6.360688954114826488e-02
-4.318097234902976145e-02
-1.282598571693135611e-02
1.711597218148993432e-02
1.438052737063485326e-02
-1.559343606491629501e-02
-4.913140460317971803e-02
-5.888916349258943583e-02
-1.519958932205508519e-02
6.546895003030488158e-02
1.584380180497338975e-01
2.451200492104142481e-01
2.516209575789475350e-01
1.881443897074764060e-01
2.421433405830280827e-01
3.286556051169566284e-01
-4.971690688974307257e-03
-6.066085593642772666e-01
-6.936083596275629537e-01
-2.600144229632020410e-01
1.073585047094578922e-02
4.412277300078440434e-03
-1.016203427006624749e-02
4.269639537265071394e-03
3.751965670557876747e-02
8.278766506628559840e-02
7.350503537582134261e-02
3.384543266791933264e-02
3.217480146056175133e-02
5.447487649511318503e-02
5.633392918202742572e-02
3.788564589259139914e-02
2.831506105476108703e-02
1.954405195670196396e-02
-5.011701168802912103e-03
-1.544011385066202009e-02
-2.760610639177372982e-02
-6.687140210741543411e-02
-5.107204666868633142e-02
-3.135809253737837851e-03
-6.357227443283770818e-02
-1.266324178843011294e-01
-3.669245398850187745e-02
5.306026323828009345e-02
3.368388086905629158e-02
2.258369076154846666e-02
3.030707832015171188e-02
6.029139213141227957e-03
8.483873058743813048e-03
2.108577323924868199e-02
-2.860366527527774191e-02
-6.647820327267819907e-02
-1.943939065993949625e-02
2.465351786389587824e-02
2.474785408736561269e-03
-1.418659096367082782e-02
9.105463882257533795e-03
5.513482300277483539e-03
-4.237302067527473626e-02
-6.484753631131387475e-02
-2.685824410668091397e-02
1.288166866556264036e-02
-1.609216877578228955e-02
-8.017309136831028693e-02
-7.362565969259837750e-02
2.315944331409984513e-02
1.233110756596697555e-01
1.684106804356791665e-01
1.751441886103403400e-01
2.228366125091777450e-01
3.567697056304823255e-01
3.454532306317669166e-01
-3.526461135877503872e-02
-4.020099313766876126e-01
-2.932444432327058204e-01
1.579149308147044517e-02
1.078268936403797146e-01
6.507946510179450639e-02
4.858461101943337829e-02
6.006897709333332974e-02
9.017276864886462906e-02
9.944055273391877448e-02
7.517748851865223292e-02
3.982049096141331707e-02
-3.827350331763893637e-02
-1.419354870067871810e-01
-2.118110426191932016e-01
-2.591640275521780445e-01
-2.725139752611189237e-01
-2.082844859336710763e-01
-1.128360849462027860e-01
-8.703675793464604737e-02
-1.392004397167470597e-01
-1.391596431014223700e-01
-3.796470983684580025e-02
2.358974519223568794e-02
9.813381893161880754e-03
3.005619738623274001e-02
7.304743995174084459e-02
8.216205608483802270e-02
7.425611992455034838e-02
5.247834897198022652e-02
4.843427210046813425e-02
1.050221363819701659e-01
1.467481151727419442e-01
9.850096634585578381e-02
2.471865128479697193e-02
-2.744736867744956843e-04
4.852806590526774488e-03
3.292972212622317235e-03
-2.838383132820830601e-03
4.896423672764941420e-03
3.567709172011612750e-02
8.263597099799382950e-02
1.100005915971380976e-01
7.820193512773274125e-02
1.364419130917702075e-02
-2.628430157603812642e-02
-4.471115988135794528e-02
-4.575443003163695566e-02
1.529852847761312487e-02
1.093266959523913479e-01
1.590304457926143833e-01
2.129311303623218354e-01
2.900375579904260759e-01
1.764503082130418898e-01
-2.192657361289364337e-01
-5.245125129983471135e-01
-4.073180761435891695e-01
-1.249394967548243252e-01
-3.278676838800534399e-02
-5.650098282737820582e-02
-4.401186697395531588e-02
-8.789948947539375640e-03
3.078118110980649497e-02
4.717322662212807688e-02
1.616690568938033284e-02
-9.408591750379446950e-03
1.332410039637656890e-02
5.090524570713123031e-02
6.239939541139615659e-02
6.089299518370444586e-02
6.527472311593382481e-02
3.319054684199979760e-02
-3.981051901512566715e-02
-4.932313485227636518e-02
-1.105741655156765660e-02
-7.901966318522689325e-02
-1.615409533346007231e-01
-4.992686812158608767e-02
1.092891913034327867e-01
8.387528876806114864e-02
-2.855984982039458039e-02
-6.787853895366609269e-02
-4.882071512755209453e-02
-1.548732899793126352e-02
1.561954708281344285e-02
2.601630478120341150e-02
2.888637059393985712e-02
4.459522149168806265e-02
6.216113235741392573e-02
6.277962822873645043e-02
3.707654133797886470e-02
3.139553155653883668e-03
-4.170496590958257255e-03
6.442654614534758933e-03
1.167486739262590945e-03
-6.917510068347397165e-03
1.181232793753825457e-02
3.138213549392336599e-02
1.887174028654968125e-02
7.161375323498454792e-03
1.836982620043457748e-02
2.416636682304450223e-02
4.400547110306826659e-02
9.564632914804693797e-02
1.204127805661615036e-01
1.545263090199478218e-01
2.802450039954392791e-01
3.245645321171103381e-01
9.087228746787598399e-02
-2.705200989539974787e-01
-5.074525892660757265e-01
-4.842260566671786060e-01
-2.075505510998545966e-01
3.851523637821144264e-02
1.722799582903328242e-02
-9.989380523488969321e-02
-1.094057476283971375e-01
-5.905375498106814336e-02
-2.631217090843966655e-02
-1.822016838459679378e-02
-1.655573979249781724e-02
1.307465240893164113e-02
5.824148485754347682e-02
6.192669881109652552e-02
7.716863987712692385e-02
2.119237549439106361e-01
3.094473477886038326e-01
1.356185023370764520e-01
-1.121034032618199172e-01
-1.249895497063978067e-01
-2.609330098574306339e-02
-2.670102863321661274e-02
-4.778668290372310723e-02
-1.006087644769528694e-03
2.033599000854958289e-02
-5.148752635870997019e-02
-1.152711447086818830e-01
-4.614619952468568265e-02
4.004000863891400697e-02
-6.795232991879202045e-02
-1.862280112386743292e-01
-3.152098848743305204e-02
1.330771964785407713e-01
5.882109522614055452e-02
3.129152898307656361e-02
1.296656769810052567e-01
8.983368842434252821e-02
-4.290023050647288894e-03
4.307062728186236006e-02
7.930003490126440180e-02
1.869897308530880670e-03
-5.116475738336068169e-02
-3.821021130643871555e-02
-2.359269080566206780e-02
-1.962059405847194071e-02
-8.438510897806875480e-03
1.813542587399188943e-02
1.393111506026609159e-02
-2.625969560716554310e-02
2.181337142279400967e-02
1.662408642301108630e-01
2.306928494208206892e-01
1.981132389345666434e-01
2.501312647833444647e-01
3.116005721033688336e-01
1.067744747041590898e-02
-5.347560661652435154e-01
-6.511785313291622579e-01
-2.769723542571141395e-01
-1.775620881230192266e-02
-1.593990674734890867e-02
-2.950220818518218407e-02
-5.514881350835039442e-02
-6.023828526898161728e-02
6.400668707647183542e-02
1.689358562477746295e-01
1.242885890511805369e-01
5.343765742980285949e-02
3.887879138587641004e-02
4.702899203661101146e-02
7.390367697004815439e-02
7.520365520522445668e-02
-2.404878159049560031e-03
-4.165041139163921241e-02
2.063119074718732654e-02
-9.800465445440385490e-03
-1.445394334954357152e-01
-1.226381096568431167e-01
1.451137156104152087e-02
1.749869901275499795e-02
-4.832340014061954625e-02
-2.801066848256701658e-02
-7.175362630071878585e-03
-5.340745641841737612e-02
-7.009855104587976726e-02
-1.969619873850168845e-02
2.383099372793032189e-02
3.263127816264120573e-02
3.839116541137987948e-02
3.679089748560857021e-02
8.648436783166152386e-03
-2.272221195380190462e-02
-2.124266442843512209e-02
3.118961658409315912e-02
1.041045001868689535e-01
9.984640690839746702e-02
-1.538771094363494511e-02
-1.100496134480182242e-01
-7.646254531692661671e-02
-1.135434808659710818e-02
-3.439252390217345523e-02
-8.520180479889134795e-02
-8.980970102994970117e-02
-9.486044233014943872e-02
-7.781883378792658901e-02
4.311252091720823437e-02
1.807372912237875107e-01
2.222391221019516527e-01
2.721219146787025589e-01
4.381529332080831285e-01
5.088590788625183547e-01
1.886866994337087211e-01
-2.932928991016111042e-01
-3.656593443373793995e-01
-4.944906148116563760e-02
1.178037581090424779e-01
2.329137452134561609e-02
-4.230881672024836698e-02
-7.314371400887510755e-03
9.582196379453783788e-03
-1.409471264398868759e-02
-4.187836332802145900e-02
-8.304933132400943441e-02
-1.473924631344259439e-01
-2.002979079871209378e-01
-2.095840596948332635e-01
-1.886632884632761520e-01
-1.732883588485397697e-01
-1.433801786844336457e-01
-4.957087440915732002e-02
1.553705905473746346e-02
-6.257884734086641143e-02
-1.386525521349419310e-01
-7.502599902936664400e-02
5.761851586536911179e-03
5.263157361270096035e-02
1.154840978224036252e-01
1.223708147602023399e-01
6.907111245770825025e-02
5.296992261578774980e-02
5.867727519183705415e-02
4.424331767479541822e-02
4.538975461641441694e-02
7.014941801337339078e-02
8.964653446343334720e-02
9.643005781220818917e-02
6.965906760170047229e-02
3.397687050433157580e-03
-2.820081716077952119e-02
1.698315068342620693e-02
6.207837807831807775e-02
5.874199492001178774e-02
5.781234808914954837e-02
6.340425713058883694e-02
2.116305385260663918e-02
-3.093432637900752138e-02
-2.526094511943047238e-02
-1.996711214689893960e-02
-6.210363039471129137e-02
-5.012742688640500766e-02
6.391443181179456978e-02
1.454148628868514315e-01
1.519473478858770765e-01
2.608732210481749525e-01
3.778443489939339872e-01
5.799038034376668288e-02
-5.471809833110070631e-01
-6.781268837783080983e-01
-2.935765338725413454e-01
-3.552577161728293076e-02
-3.740119961879793259e-02
-2.402587365224784222e-02
2.757716925075386766e-02
3.627603471410340008e-02
3.202294761161667697e-02
4.383808862869897904e-02
5.909501813420519473e-02
6.783931812809977646e-02
6.362181977358913332e-02
3.757641466926746332e-02
1.799424844863228151e-02
5.035323948135846106e-02
8.959342921357371647e-02
4.274354462890424255e-02
-4.786815470922552163e-02
-5.415245341184291017e-02
-1.735224434939956414e-02
-7.637193064585304225e-02
-1.492762789730898432e-01
-7.339027826330046800e-02
5.443436916877185394e-02
6.586171343214036744e-02
1.819010094827714502e-03
-2.411195508403553983e-02
3.298456015966330646e-03
3.322124085101264834e-02
3.015976513731713493e-02
7.562989140961171551e-03
5.874931286133654000e-03
3.974684275144357848e-02
7.103611713113225368e-02
6.490813715282288399e-02
3.830021992665196690e-02
7.525120760009168172e-03
-3.190042975799503577e-02
-4.682598696354830364e-02
-1.044953889965000160e-02
1.718851240644783673e-02
-1.298731800841418371e-03
-6.033234456155244819e-03
1.083064753366702951e-02
-8.527828700007823726e-03
-4.074348963312466460e-02
-3.568130754729526011e-02
-5.513583197808003336e-03
4.819771084778269599e-02
1.281504217872905527e-01
1.956678410778330823e-01
2.351848077592353925e-01
2.292332942592334721e-01
7.578170582555576740e-02
-2.368913439978537483e-01
-4.317543746982014374e-01
-2.933824620226557212e-01
-6.218035592626646596e-02
-2.798914419101478437e-02
-9.440989209292535711e-02
-7.768345802789332344e-02
1.222395896982909208e-02
8.991702373899124190e-02
9.791484910942097053e-02
3.065757177292649516e-02
-3.228789305908744134e-02
1.779572564178687373e-03
9.171381222410644740e-02
1.178965399977940920e-01
7.511721429995893429e-02
3.330218383528694287e-02
-4.726685410767698936e-03
-4.192625718632865539e-02
-3.030266078126510332e-02
2.797137994096959152e-03
-3.440759555960892779e-02
-1.058535890040669808e-01
-1.026543248891824550e-01
-3.339013118196002688e-02
1.908443548107310525e-02
1.241404073215876362e-02
-3.550938893617471004e-02
-7.161277391355871935e-02
-4.677544481330111331e-02
2.828453391800465552e-02
6.312026085306791934e-02
2.832375409075887918e-02
1.696961886692396025e-03
-2.874133549671632759e-02
-7.752775035407176440e-02
-1.492107182107515681e-02
1.151493140310852342e-01
1.235041267092333445e-01
5.388870619319555827e-02
-2.697259275612012841e-03
-3.670142536671568839e-02
3.312522521228891681e-03
2.540564527241236797e-02
-3.450655792464585314e-02
1.411548269592084390e-02
1.315870657814118827e-01
5.486398612678342057e-02
-1.000000350504243879e-01
-6.461525576480067756e-02
8.593700973488940797e-02
1.674922742922510255e-01
1.839808077187274349e-01
2.182746129433543181e-01
2.881102033476769519e-01
2.903098807198978282e-01
3.511547330256382937e-02
-4.103697283480612912e-01
-5.875021111707374732e-01
-3.200434560910767612e-01
-2.777282431268016105e-02
-3.806902112272934902e-03
-8.358662456918142247e-02
-8.371840505342013905e-02
-2.703647280442085521e-02
6.625225299390510858e-03
3.680363524470039310e-02
9.209609636726306947e-02
9.357812180229169163e-02
3.295315624525331499e-02
1.152885903160345143e-02
2.821718428479351795e-02
1.502309692155973271e-02
-1.560686887338139095e-02
-1.782579312039821173e-02
7.781482516898925728e-03
2.133298546405842933e-02
-7.909332128334521650e-03
-5.924580426200392463e-02
-8.855567931692859274e-02
-1.069533383927355891e-01
-1.424739850621997705e-01
-1.213977794114684400e-01
1.911148471371660121e-02
1.434945747581550801e-01
1.199885125242753370e-01
3.211257534421647214e-02
-2.176725937725081106e-02
-1.842915920513051378e-02
5.032044329374486813e-02
7.732750583836536795e-02
-1.706720689549494005e-02
-7.695504375085747417e-02
4.152618147846436764e-03
5.966308207612032455e-02
-2.435212686274139046e-02
-9.669246441326291575e-02
-4.213943409469232682e-02
3.024097067638650826e-02
2.029053821538739921e-02
-1.654497830497836733e-02
-9.966379604179415735e-03
2.069548482552506508e-02
4.050902739781938461e-02
7.990894715776873658e-02
1.724112460239530797e-01
2.685657719316333902e-01
3.026345079242577785e-01
2.965856475950888194e-01
3.320357535785919967e-01
3.885791268900654072e-01
2.406913508292024551e-01
-1.974305457724528923e-01
-5.307448028629531134e-01
-4.350229075928420119e-01
-1.851224796240478754e-01
-1.233456312960412443e-01
-1.901574907343748511e-01
-2.115346428776893606e-01
-1.655737687105522660e-01
-1.343934207101619149e-01
-1.524812438282208416e-01
-1.478784849512816968e-01
-7.957130364548871404e-02
-4.235774084072101153e-03
3.763336098457355228e-02
6.689446070182383797e-02
9.227337828442118417e-02
8.425919272378722125e-02
5.986865427382641325e-02
7.370389897078236108e-02
7.269542797317937732e-02
6.352030620182594345e-03
-7.002809489420888829e-03
4.392010907097203959e-02
-5.639654227688837423e-03
-8.432477776062516361e-02
-2.019477413542170724e-02
4.344636636813652142e-02
-1.258995313995262162e-02
-2.247463095487770707e-02
4.569415276752585714e-02
5.952338382379242926e-02
5.322325387753244763e-02
8.307001313009007570e-02
7.884783688021126946e-02
3.394619519403066499e-02
-1.555395041917255472e-03
-4.181249370651825975e-02
-7.255566657497615479e-02
-3.637787735295468228e-02
3.185296526758568669e-02
5.230238488378021605e-02
3.143218563955715167e-02
1.384981237276408823e-02
8.714361658910646860e-03
1.028022100416092419e-02
9.563401623629057269e-03
-4.259367358768221742e-03
-1.904127788952447720e-02
3.952955733909869693e-03
8.020298242837267666e-02
1.716793835507272603e-01
2.175586854544704352e-01
1.928981078164379026e-01
1.187718984543194300e-01
-3.768681994263824164e-02
-2.889816659861970671e-01
-4.510318487073240457e-01
-3.547943759474118108e-01
-9.684656680469028167e-02
8.651291101013661167e-02
8.859165994332196536e-02
3.508329279338066875e-02
3.881616098965660205e-02
4.629750696620457684e-02
3.374303108559950637e-02
3.351610142772841472e-02
2.784617716293483203e-02
2.100093451370011952e-02
4.573647413756947583e-02
7.366306668202866892e-02
6.384301615366502758e-02
3.555984517617900853e-02
2.421547093221144368e-03
-4.724729207498258587e-02
-7.199652305892653703e-02
-6.703035605946112974e-02
-1.189744433657629608e-01
-1.725440378535163244e-01
-8.951025174040258547e-02
7.529479810633165140e-03
-3.959608011877511352e-02
-8.509215443684135793e-02
-3.337776220362966700e-02
-3.603393205459092669e-02
-7.788708541594208112e-02
1.312244387868618904e-02
1.510423190915211877e-01
1.405955952038617229e-01
3.882573152681585010e-02
2.621114015080894602e-02
1.207285998170954666e-01
1.667893207352698637e-01
7.579269897286866620e-02
-3.125330345146436206e-02
-4.068598476870188135e-02
-7.073776505386712016e-03
8.789183487839986181e-03
1.009045880805168466e-03
-4.026323057410383099e-02
-6.355536178378294598e-02
-2.443713605083810275e-02
5.125718542449964749e-03
3.238579931229492934e-03
3.779331404539469641e-02
9.053632791836002669e-02
1.155398610293699446e-01
1.324001420168836596e-01
1.536678950288478673e-01
2.105338059688918739e-01
2.669904239809456348e-01
6.809304622259132467e-02
-3.843642951070728175e-01
-5.457632105108346510e-01
-2.321143683022557913e-01
1.468163287345281183e-02
-8.257302848644101911e-02
-1.698729373153586852e-01
9.567605594662406633e-04
1.705485204644513475e-01
8.097985542183380736e-02
-6.049100732727802354e-02
-3.232226409628945890e-02
1.814055245656644513e-02
-5.638085386868059434e-04
2.888739419225874738e-02
8.812104935032293029e-02
7.203353635742205940e-02
2.134540037168131815e-02
1.340740814633179130e-02
3.074456976573772260e-02
1.154418009207278106e-02
-5.452075623704234764e-02
-8.656802254702865296e-02
-6.063567133696785155e-02
-6.097587397142654325e-02
-5.791167743963986092e-02
1.472753183376700192e-02
4.216099144510888214e-02
-1.980532736821331852e-02
-3.345800286987053035e-02
1.785499531589309491e-02
3.612611544139206210e-02
3.137592295113386665e-02
6.850352322050888565e-02
1.056675993138401354e-01
5.421982781744005830e-02
-3.500163641932943492e-02
-4.915121927422119036e-02
-1.723054697707261662e-03
4.606963070398311516e-02
7.151359082208216811e-02
5.262693060493923297e-02
1.599748627329101221e-03
-3.101988607694197014e-02
-2.253086897325072904e-02
-1.055672423627965380e-02
-4.126901154830751178e-02
-5.899316617042009436e-02
-7.379565350506007287e-04
2.676713876006024673e-02
-3.157859701832102517e-02
-3.378829724786105559e-03
1.296371302188055186e-01
1.508640797967201741e-01
1.287756442422483272e-01
2.324628280574788097e-01
1.180221187689167034e-01
-3.735041550127162213e-01
-5.932243894834713371e-01
-2.843360505125730464e-01
-3.136599529901373112e-02
-4.878963220987710819e-02
-7.065056888955863201e-02
-5.543617970436461040e-02
-2.739517257418167678e-02
5.061532248858920113e-02
8.050835182290748404e-02
4.248628327513211123e-02
9.053307865073581540e-02
2.175626024229609379e-01
2.537621176871071027e-01
2.088779829420859269e-01
2.180524834663713774e-01
2.424906629669665581e-01
1.915542673572105392e-01
1.276688717106144455e-01
5.842297768936722396e-02
-4.873853458021276674e-02
-6.058117019843162199e-02
-1.786227748745292804e-02
-1.399355175710830790e-01
-2.766725780071861984e-01
-2.237734824584921289e-01
-1.919899205084260319e-01
-2.906397953792068112e-01
-3.143994752731609776e-01
-2.158114103758421720e-01
-1.084193308302074665e-01
-1.009620457018082368e-02
7.269145321004152893e-02
9.772842181378843529e-02
7.449611319100363227e-02
4.358941076950816063e-02
3.833219101022451031e-02
6.455242058174799624e-02
8.608720654501508807e-02
8.485155638973469749e-02
8.327284792887974796e-02
8.816289101554027063e-02
9.265715292490392385e-02
9.147224613404215943e-02
6.288295108090459495e-02
1.152514283227164260e-02
-1.742436664657918965e-02
-1.171814880731173597e-02
1.124997502171602021e-02
7.395236519824628652e-02
1.884783691737078881e-01
2.406214557027329670e-01
1.628003952957321476e-01
1.079400600161591756e-01
2.943478333223344470e-02
-2.958502605448785072e-01
-5.459992656940040323e-01
-3.430395435449175023e-01
-5.320783343101193053e-02
-3.770517796907811581e-03
-5.427499583705676367e-03
1.412762087017611738e-02
1.310938709210007769e-04
3.029208998965505703e-02
7.882392747258443189e-02
4.978899098501553960e-02
-2.085936475623439978e-03
-1.253060618828498972e-02
6.773487027669196706e-04
4.594790918905566901e-02
1.073254603232591947e-01
1.066576708216333130e-01
3.610204330623391356e-02
-1.850394783156738415e-02
2.342140840887962927e-03
3.608720112319396822e-02
-2.365125146652308913e-02
-1.159703361251072928e-01
-9.859996286760314144e-02
-2.372292642382371405e-02
-1.646001622472823347e-02
-4.870366104995617340e-02
-5.728177353892854873e-02
-4.359401721082114406e-02
-1.365314341145246017e-02
1.069180199278629666e-02
1.251492532574152196e-02
2.933863955307187965e-02
6.579338805507660426e-02
7.260868103059134326e-02
6.252399462071719927e-02
7.298610621803086618e-02
7.134967325953260608e-02
3.995861572586188043e-02
2.001758962383396595e-02
1.992647591882184405e-02
9.912205971672092067e-03
-1.005813755635302439e-02
-1.889023901583753579e-02
-2.133649362404855393e-02
-2.695825015471606939e-02
-2.590876023468525330e-02
-3.386511425806653514e-02
-5.616280125123818828e-02
-2.186870443662035715e-02
8.223480828647217189e-02
1.592983309956621518e-01
2.018786375918095732e-01
2.242251126606287226e-01
4.628377422211926717e-02
-3.455024778111146500e-01
-5.120087116199706356e-01
-2.512435294778728734e-01
1.636296866496583791e-02
1.079655062082511552e-02
-5.072922008724876225e-02
1.056132716549573400e-02
9.877761126484937981e-02
9.915297653322212301e-02
4.250143178238475344e-02
2.262031294938696840e-02
6.196636486786536585e-02
9.842617712471281310e-02
8.152015500308883167e-02
4.812997944849353033e-02
6.544179255074132617e-02
1.111152195018425826e-01
7.850979909325234152e-02
-4.337243417869437317e-02
-9.509738434158229725e-02
-3.139409462435083231e-02
-2.771480280073130437e-02
-9.494329210633188632e-02
-9.522926206659644566e-02
-1.055641272974875006e-01
-1.716529578965559633e-01
-1.268605235198214665e-01
-8.047625256296134580e-03
-1.492394617672535007e-02
-6.308116626382419267e-02
1.068768226713138168e-02
7.030144596558653147e-02
3.274505191787727143e-02
8.067125778753622689e-02
1.740025562182294094e-01
1.047425384696444584e-01
-4.459596537533336985e-04
1.420582363585936800e-02
1.572397446921387082e-02
-2.831322307776897723e-02
-2.127356505653353949e-02
-8.731143196923082245e-03
-5.966699663775372996e-03
2.333855192076069243e-02
5.013259526575865321e-03
-2.853756950662502540e-02
2.301673284278759127e-02
4.429072042626668732e-02
-2.384281436709944149e-02
-2.322293452927236962e-02
8.374983396087422316e-02
1.888074308353213659e-01
2.214918384564117937e-01
2.039523959404775377e-01
2.719651287664358041e-01
3.483986915578370924e-01
4.120608008951593543e-02
-5.366828015893648773e-01
-6.717959191143447750e-01
-2.706403173233150605e-01
4.385982932948091079e-02
4.141310584214018264e-02
-1.803422000994557572e-02
-4.820890881084474028e-03
-1.593232995168674532e-02
-9.160006061425450541e-02
-1.068634637254187864e-01
2.499227848158916063e-03
1.127157146934035792e-01
9.839127016331773723e-02
2.596864460121348084e-03
-2.730835249320098801e-02
2.777738751150971019e-02
4.310837493150364297e-02
1.732978201769477117e-02
3.442100100819494440e-02
1.102585753360860177e-02
-9.827895799547137212e-02
-1.255741885818958403e-01
-7.323136814550268436e-02
-1.032016855457943277e-01
-1.259167962951563691e-01
-8.199931765450627075e-02
-8.801975824151925254e-02
5.712640657988298995e-03
2.171200894888365152e-01
1.347015899828625241e-01
-1.527215143513962203e-01
-1.281686564539123441e-01
8.550235636889050306e-02
8.734476570952616481e-02
-1.641327628073268804e-02
3.744589053920052008e-03
8.105843024521498796e-02
9.247474566991402412e-02
6.580206033278548916e-02
6.674033674253601611e-02
1.021244666421819436e-01
1.675011873154512443e-01
2.256991509961820130e-01
2.131778337075617979e-01
1.726596937830164324e-01
1.703182798988253921e-01
1.433059081113813860e-01
7.345573647106388993e-02
6.515857260515844906e-02
1.069770910205707498e-01
6.722323675973157497e-02
-4.290683102545607419e-02
-4.935798471373992191e-02
4.428882545002643667e-02
-9.502880844303336627e-02
-5.531139559113120718e-01
-8.155140919564668467e-01
-5.858496636523852219e-01
-2.425646208847904994e-01
-8.470799483715997502e-02
-2.162205682397838613e-02
1.476279161079502300e-02
3.795203811040386011e-02
1.017463620869250296e-01
1.591909661505956919e-01
1.380332364250794475e-01
1.063702418005850470e-01
1.262156054260785143e-01
1.391881877650612831e-01
1.188990867298194004e-01
1.016990018494110387e-01
7.836952486970340248e-02
4.952983512360136648e-02
5.389669239478772633e-02
4.284309393981085290e-02
-3.778726326926028223e-02
-8.610083252533401454e-02
-5.200081297541429143e-02
-5.256062018413225345e-02
-8.761931283270968374e-02
-6.614477621589366640e-02
-3.193210973895180271e-02
-1.442924406485244018e-02
1.337471325411068897e-02
8.116899069732903815e-03
-7.176444036884247965e-03
4.989260498537069488e-02
1.130098490973492353e-01
8.164510182536775795e-02
1.277445129428945308e-02
-7.857660277247820874e-03
-1.666839569314885680e-02
-5.579138433568161387e-02
-5.370455372716514963e-02
1.664057547505724821e-02
3.655262206346704401e-02
-2.802522955218299944e-02
-4.596146753097055809e-02
1.786994016916256672e-02
5.785650918817626664e-02
4.820758385632430837e-02
3.664404887732797961e-02
2.204470509969011505e-02
2.403744341538165477e-02
9.294651488588902277e-02
1.891437218913085971e-01
2.595316920705872943e-01
3.203215244792592675e-01
2.484416720381298627e-01
-1.192926004476668189e-01
-5.053421816848374659e-01
-5.062784961373008041e-01
-2.804432637021921360e-01
-1.432313135621838263e-01
-4.780457824569914194e-02
4.415625426461487757e-02
5.300011691413461512e-02
3.997914135022368615e-02
5.489986451274472129e-02
5.325110912116739342e-02
4.855281951450449857e-02
5.699938182659808339e-02
5.788288154074679170e-02
5.431903207706716141e-02
3.977019082191529664e-02
2.310931711871470201e-02
3.397551152485803888e-02
1.121539246956573983e-02
-5.949983359749735218e-02
-2.398619149559782365e-02
6.070065628775311861e-02
-6.202740339443676976e-02
-2.352933287679813135e-01
-1.428430526786051979e-01
9.111003382028810826e-03
-5.749332416171651361e-02
-1.489923643608442594e-01
-8.521784238755326923e-02
4.236572198436288315e-03
4.478214139951230965e-02
8.876860495749198943e-02
1.201443474582404025e-01
9.527723289515467597e-02
6.272152303450041766e-02
9.723561151959930760e-02
1.269338980893939539e-01
4.955531245836412857e-02
-2.731206062731616341e-02
7.770624222672162240e-05
2.448782118783066064e-02
-1.008980623532249217e-02
-2.322110655093203788e-02
6.027278627297565083e-04
1.933070263310002201e-02
-2.108477816466254942e-03
-6.988991889198882534e-02
-1.037990490135831112e-01
-5.744477545084120118e-02
4.393170497385504372e-03
6.430085362860281373e-02
1.399857726260612667e-01
1.767582576531476490e-01
1.959190503594651911e-01
3.104126479503085401e-01
3.558540416661776229e-01
-5.838628162880077702e-03
-5.123414349813150137e-01
-5.342116319788046130e-01
-1.892904326930819892e-01
-2.102645720184007777e-02
-5.865051663938010418e-02
-1.083987141094708284e-01
-7.927168659432128062e-02
8.792366056216534276e-02
2.057943295863428057e-01
8.056639158009060164e-02
-6.737967379065874785e-02
-1.107780181949452949e-02
8.031116868832134659e-02
1.726114513201343695e-02
-5.570152909630139704e-02
2.559423981824353322e-02
9.959756435363602278e-02
2.798270524709201706e-02
-1.617531680204602196e-02
1.019613635682617772e-02
-6.119664751149359733e-02
-1.295234239046966218e-01
-6.648239159785122865e-02
-7.656575553345162932e-02
-1.549145585469003106e-01
-2.809032353458297548e-02
1.582814145910121650e-01
1.012266037256055740e-01
-5.848197480839055495e-02
-9.455365898654052859e-02
-1.816179801679705663e-02
8.064415791175581771e-02
7.938484166234199835e-02
2.147414386521943191e-03
4.855549601651228814e-02
1.588548848257139434e-01
1.222534989533902716e-01
4.043354082426210000e-02
4.798566209290031082e-02
5.602148661106021166e-02
4.715172518092063808e-02
2.290465476719331928e-02
-9.509189637714818288e-02
-1.750215201952150523e-01
-7.905121522270827650e-02
1.106332917685942663e-04
-5.792026392229768228e-02
-1.073007271182680328e-01
-7.766700111745541979e-02
2.139326858810034274e-02
1.699523596179253471e-01
2.355567367234233933e-01
1.986069611036975491e-01
2.344489181292046254e-01
2.582162776742689125e-01
-1.674220457014564609e-02
-4.160892204836088015e-01
-4.929392010313751182e-01
-2.775440695278500458e-01
-1.070426854070472833e-01
-6.854088799729196602e-02
-6.393698517902182688e-02
-4.639111783235930903e-02
-3.264840384323296207e-02
-3.371927196808206101e-02
-1.712928197520949963e-03
9.142329258854546559e-02
1.665237512546651477e-01
1.573492475402080704e-01
1.295640428601486926e-01
1.570924584072143915e-01
1.797703113387867924e-01
1.216384962462459113e-01
5.943518081596746438e-02
9.382218992314544925e-02
1.396710809702936262e-01
7.379856199734528832e-02
-2.054981152491965751e-02
-3.773558676674108880e-02
-7.526983596879241456e-02
-1.803665076542038670e-01
-1.810443195843902675e-01
-2.284090200815193025e-02
6.180453853627731337e-02
-6.473760227082711594e-02
-2.155812570197857270e-01
-2.154757467248172853e-01
-1.347990029626634778e-01
-8.305629175986441182e-02
-5.846898563612587529e-02
-3.025738884736830711e-02
-5.602350965117387782e-03
-2.941927573580221944e-04
2.607100994958647805e-03
3.622834682399021095e-02
8.808453999705487258e-02
1.046329590248436525e-01
8.866324715517326371e-02
8.824847272482792826e-02
8.497764704789208257e-02
4.786824565405311399e-02
1.270824441285083387e-02
-6.895389198064930808e-03
-1.906120871653296800e-02
1.403900923245995566e-02
9.248564066814370099e-02
1.568195800339787227e-01
2.016888535141173611e-01
2.737679658262553439e-01
2.848949520337748509e-01
1.156988860950605019e-02
-4.318933664645283610e-01
-5.438161259237699330e-01
-2.378830916192960498e-01
1.689998901367819467e-02
-1.079217292748287788e-02
-1.003713579693600311e-01
-4.432695856212878066e-02
8.935303181779542803e-02
1.187357020810982378e-01
3.162727191150232348e-02
-2.546952747461001670e-02
1.273195439921578041e-02
6.739575549429079049e-02
7.225577079132031177e-02
6.067611750430839529e-02
6.208134735744902377e-02
4.444585591826828719e-02
6.667125390239432223e-03
-6.301432613471220912e-03
5.520040026384284010e-03
-6.327533199164776453e-04
-2.824685144895623667e-02
-4.219791965903738062e-02
-3.239545001589674844e-02
-1.612557775474196542e-02
-1.404774798898496616e-02
-3.939112625440658461e-02
-6.505178739937562959e-02
-5.691318287671207760e-02
-4.275579606217671386e-02
-5.481927654629102642e-02
-6.141613371914635133e-02
-3.926340165225577356e-02
-1.800088368024917868e-02
7.144786120891807174e-03
5.626798480368876143e-02
5.942799941732977709e-02
-1.420406854024861172e-02
-4.656784003812713263e-02
2.470145214500235262e-03
2.335752843729511224e-02
9.660368109583150620e-03
3.331090801361946685e-02
4.953270559286518382e-02
1.744967709654193441e-02
-1.932727831271034008e-02
-3.532229661356010852e-02
-9.374085045551955320e-03
4.727612856859045309e-02
8.187773001482809287e-02
1.307700116793452938e-01
2.347546457648020946e-01
3.138709040277982143e-01
3.184520377548827330e-01
2.170564541252650304e-01
-7.759083612878237002e-02
-3.860213594793379110e-01
-3.742275248176006874e-01
-1.761575102075016996e-01
-1.290024617197207402e-01
-1.677961558196864600e-01
-1.200500842221032816e-01
-3.708700608341974903e-02
1.415550009776417317e-03
-5.054358357522981821e-03
-1.450589226625038919e-02
-4.049139498272263937e-03
-1.266535349900544186e-02
1.895214456609051884e-02
1.907667662776028616e-01
2.908599265434940739e-01
8.705308919603493845e-02
-1.384941932107359441e-01
-6.764585084048982400e-02
9.265880999984195399e-02
8.267107938777823462e-02
-7.812748134058380284e-03
-7.017398925284754063e-02
-1.427690767447359343e-01
-1.739392539348916522e-01
-6.620413303870575916e-02
5.938907101580554598e-02
3.022967439570964365e-02
-6.671957861678023960e-02
-7.255492754622620832e-02
-2.231401682082225987e-02
1.023622111555682647e-02
4.138090885550027576e-02
6.098677576688293217e-02
4.988579538094582017e-02
3.894180616281896906e-02
2.510574467904942014e-02
5.381180538248896139e-03
1.412337626398237414e-02
1.741582500075684187e-02
4.783433326000590367e-03
5.100793406304836991e-02
8.693095447402819642e-02
2.151325221312643497e-03
-6.123023789448575616e-02
1.441433688645566216e-02
6.803413870110124051e-02
2.310167191783929139e-03
-5.733513087036449379e-02
-2.554134950097584206e-02
5.625369817059864413e-02
1.346668861753821389e-01
1.930194622399549476e-01
2.216840838241081191e-01
2.390546337655129194e-01
2.491050291220553436e-01
6.297797231955935826e-02
-3.801125294496355833e-01
-6.163510974935375586e-01
-3.675744635743031230e-01
-5.468234435606232624e-02
-6.091930313206997405e-03
-7.614039680027018253e-02
-1.158578313805762039e-01
-9.876939899314668425e-02
-3.759632079821483008e-02
6.016141497472218824e-04
2.675555697749999740e-03
3.056092583362390175e-02
8.100718079301533203e-02
7.513769103023593132e-02
3.612952640438967661e-02
7.764603417916163264e-02
1.074406729958892609e-01
-2.976805360714994408e-02
-1.372427661002260380e-01
-5.360810373811521895e-02
-1.082640251011019600e-02
-5.787753145435048374e-02
3.181314512126063102e-03
9.389576323947766701e-02
1.068836352098972570e-01
1.447499261753852073e-01
1.964950770972133942e-01
1.998950486910805180e-01
2.177461060555491434e-01
2.018520438099714598e-01
4.953015844142308333e-02
-5.850857486568347698e-02
4.639333837123119780e-02
1.299462498070111660e-01
8.404583114793997417e-03
-1.320141038006443224e-01
-1.657072212186528615e-01
-1.777071198311206690e-01
-1.939644146297250238e-01
-1.712370896228752604e-01
-1.339781438702311311e-01
-1.345860746958171816e-01
-1.458364884638474190e-01
-1.081284909889763529e-01
-5.992406348139771299e-02
-6.946735228371950233e-02
-8.813740940347414288e-02
-3.817489378125908661e-02
5.717416296787115187e-02
1.407197261304670710e-01
1.963726637543881937e-01
2.336902496893948911e-01
3.085243905513279650e-01
4.035878922181007633e-01
2.256396902208296085e-01
-2.994521235631910638e-01
-5.506094156031924314e-01
-2.158696755701274839e-01
9.830264634138408120e-02
5.546694312412603356e-02
-2.497067701803153822e-02
-1.635163524068145025e-02
-6.140618291142215836e-03
1.566294814550236308e-02
2.581726899770649813e-02
1.073234226956892162e-02
2.215556673031564283e-02
3.925873443229680598e-02
2.955787070734462035e-02
3.951054941000752690e-02
6.794357271143559862e-02
5.012519815663388223e-02
-2.372225719377979436e-03
-2.956910825090040482e-02
-3.376193239525335232e-02
-4.881326943292868537e-02
-7.581297991597266139e-02
-9.125732056480129195e-02
-7.096303250615496050e-02
-2.698399518221037893e-02
-2.059239726741279169e-02
-5.556925938302416379e-02
-4.750809679307527178e-02
1.180318042792095554e-02
4.368278144419893844e-02
3.830367180550812989e-02
3.888821578429845632e-02
4.949790046001528721e-02
5.444020910947445363e-02
5.827122265868180107e-02
6.206985094278436033e-02
4.484060657572834507e-02
1.008492302327505807e-02
-1.070673002999291551e-02
-1.007122713940367814e-02
3.960727329808122477e-04
1.740761546237459129e-02
4.742908940880084107e-02
7.403437802528463341e-02
5.103917949498827655e-02
-7.140965900113858435e-03
-2.972678450174755238e-02
-2.605691456774698878e-02
-4.227670340673103655e-02
-6.588645803675789725e-04
1.627336730264300479e-01
2.490868190452011355e-01
1.084152041340989137e-01
-1.990095532405516260e-03
4.764089494194156948e-03
-2.032039541509053915e-01
-5.006762921353420381e-01
-4.327178190252385370e-01
-1.746494496208854108e-01
-7.605736472767371525e-02
-2.385216487467766572e-02
6.546429457790854667e-02
1.123944968973563802e-01
1.559572258273143885e-01
1.794482139762710315e-01
1.111947475449141798e-01
3.971026644210496476e-02
3.698714764086107748e-02
2.847936844094925077e-02
-2.125170916168739842e-04
2.844087969746367933e-02
8.821705698891704750e-02
7.545094721964210049e-02
6.662206997143683973e-03
-2.145206313807149906e-02
-1.285166486643629993e-02
-4.324667731785271363e-02
-1.179815123936269472e-01
-1.489910811107839073e-01
-6.275196274908471927e-02
4.923663593494485152e-02
2.274044101651905708e-02
-5.318893752253391755e-02
5.038297887579872708e-02
2.206296947735023883e-01
1.604193572900019515e-01
-5.700763910903375309e-02
-1.631733771880345685e-01
-1.602369641844532955e-01
-1.421182083157640774e-01
-7.551454509302966966e-02
2.649067636508014786e-02
1.114164241877599187e-01
1.580323859973833955e-01
1.038285514892925143e-01
-2.099959748712532104e-02
-4.239005269401235898e-02
4.657983723654066793e-02
4.394609768249468223e-02
-7.420426238728126955e-02
-1.188432469946805597e-01
-4.743475458446835130e-02
2.361001519006875396e-02
5.124594819826949754e-02
5.560900916067760408e-02
7.627842938642823145e-02
1.695696938221039618e-01
2.382875470778681448e-01
1.620140294664494107e-01
1.602835340016066645e-01
3.057318318333587248e-01
9.258206507317388867e-02
-5.027282793939439332e-01
-6.569405743754890281e-01
-2.016305347920082647e-01
1.075313162165908720e-01
-1.160064528403365047e-04
-1.239966615943118022e-01
-7.054936763094372953e-02
3.381551015335999832e-02
6.365046176655710097e-02
-1.309616141194908795e-02
-6.419947121924791944e-02
3.323732521779138027e-02
1.075886109963452020e-01
6.035194659743078893e-02
1.101221005800597785e-01
2.035620887347085461e-01
6.559088662099388234e-02
-1.221163522569401472e-01
-7.866892164391521558e-02
4.831029911633935581e-04
-7.855389400915503695e-02
-1.409319835733671700e-01
-1.103636373293671868e-01
-1.238116874663912209e-01
-1.245495370254346007e-01
-2.482515641767202644e-02
2.677927336001727221e-02
-2.747996266100239879e-02
-6.370902200613512423e-02
-3.340935666546545474e-02
2.820768616448283972e-02
6.946560045764113567e-02
5.013021381852793279e-02
-5.288342302625239667e-03
-3.260058513467123387e-02
4.866061441207153795e-03
6.659085076753978871e-02
7.571898816622524286e-02
4.331223120251082720e-02
4.444211779912807941e-02
8.238161583034635249e-02
1.192015298301217774e-01
1.639221062132545093e-01
2.052291783859248042e-01
1.866291071092388842e-01
1.241207074244239233e-01
1.136048057678045731e-01
1.909712911645932432e-01
2.746770371241288866e-01
2.731667996126377895e-01
1.646105976196630405e-01
-2.219162192136830969e-03
-6.650293505355503454e-02
6.245573762133499462e-05
-1.558493308371902142e-01
-6.181577395248227802e-01
-8.315438500504728214e-01
-5.972745381536563869e-01
-3.450529640546676213e-01
-1.975125819216200229e-01
-7.900686560789432766e-03
1.108283986495316870e-01
9.459467251648605302e-02
7.600248725874660105e-02
7.963731326955046652e-02
6.933204645349869133e-02
8.395204682493334625e-02
1.267227732417312569e-01
1.445653191679690530e-01
1.306314512985738974e-01
1.145925844694158369e-01
9.997654918919379741e-02
8.213568256073922047e-02
6.169606162982163577e-02
2.378381374078691185e-02
-8.958947836664246656e-03
1.737545339817539100e-02
2.539195543346211767e-02
-8.379624173125585496e-02
-1.435564959788682982e-01
-2.885448974368259173e-02
4.263004494542082384e-02
-1.535438514225702378e-02
-3.052750347345405818e-02
-8.754770105274013725e-04
1.070060960474184322e-02
3.782574676272817960e-02
2.580414851792166980e-02
-2.668663385052952655e-02
-4.410752599282951811e-03
4.158824882355888902e-02
3.815800198382265744e-03
-4.846879652347904632e-02
