-4.157121469963913352e-02
-3.219004630663507144e-02
1.557233605437025048e-03
-1.005057219252566622e-02
-1.067929162254085095e-02
-4.767059022814405106e-02
-1.307108873206081212e-01
-7.372374517962378138e-02
9.019015401291152756e-02
1.205111774646204503e-01
6.608063380472911641e-02
8.391130812203104195e-02
1.063966202482476420e-01
7.747990284938051364e-02
6.179899686754302540e-02
8.631987618693923170e-02
1.364017886098938814e-01
1.707635701361621960e-01
1.532859645779600655e-01
1.569003659685998808e-01
2.002908703832489423e-01
1.386858330251742599e-01
-1.385130930720835860e-02
-1.056575048300595898e-01
-1.577740395789048733e-01
-1.767738592107869489e-01
-1.156092779049223973e-01
-9.869263224032218118e-02
-1.206164939275259501e-01
-4.004907814042181144e-03
8.409013831618168677e-02
-1.014628848152076129e-01
-3.155010504895113810e-01
-2.886597038854281649e-01
-1.719105859540466519e-01
-1.070085840742049932e-01
-3.013922822703433285e-02
5.752778201459664981e-02
8.712477527928488841e-02
7.053959381351188052e-02
5.802209552335602094e-02
4.028052956250741112e-02
-1.047544957205743393e-02
-2.056708802767215349e-02
7.820192848895446414e-02
1.481875376355939466e-01
6.805514897075448655e-02
-4.011788428444348215e-02
-6.940365476009653645e-02
-4.231528967438780153e-02
1.444532043253996326e-02
3.451061645311764847e-02
-8.322130575935202806e-04
1.522143484720757563e-03
3.549971354325422157e-02
3.178496119301764400e-02
4.528773750456852043e-02
8.026727220472916480e-02
4.054692633419737513e-02
9.868297148892382631e-03
1.054934106535570515e-01
1.703329260632171771e-01
6.226989410616001058e-02
-7.728519490964796956e-02
-1.018777324263479972e-01
-6.838145443223909992e-02
-6.237934440457939406e-02
-5.960393768168126272e-02
-2.920534726298205236e-02
-1.163437506763204989e-03
6.239672155454252696e-04
-1.112970752708498934e-02
-8.819034245792218077e-03
2.931622284632799582e-03
-1.321442082949407341e-02
-2.838502552967590159e-02
5.631590464856245197e-03
1.508838808257269119e-02
-4.077904869688356998e-02
-4.053057029398499794e-02
4.214274427001443724e-02
8.140296926625890939e-02
6.264987634230735625e-02
5.356173550597129879e-02
5.979384824995707948e-02
8.364042667291771149e-02
7.754031224707069736e-02
-3.862349955033723969e-02
-1.431794068950029974e-01
-8.002305419454888713e-02
2.049207330219596224e-02
1.845377833190323807e-02
4.527861077029658038e-03
3.021302090138760707e-02
2.782766992391117605e-02
-9.410292269268514392e-03
-4.171278482337085342e-02
-6.196782759433390464e-02
-7.215120671914902750e-02
-7.683518499326787154e-02
-1.014414601995099890e-01
-1.467171757729015813e-01
-1.582457202498845639e-01
-1.120221670129984692e-01
-2.835615250047999331e-02
9.258979469942252294e-02
1.737797231853911994e-01
1.092141542042450730e-01
1.715335102514470994e-02
5.643202671689038358e-02
1.135909282613986326e-01
7.027427023199112055e-02
5.058824605280316800e-02
1.003238562848658560e-01
3.852323457716799043e-02
-1.244802965724012556e-01
-1.222956423932014536e-01
4.179396427860542634e-02
1.151424664965919331e-01
8.897513711470400599e-02
5.908485601787454022e-02
-3.805603161310241317e-02
-1.314131832278390144e-01
-5.062821321161669469e-02
7.117013090502394279e-02
2.934567575841209169e-02
-6.892690186495474547e-02
-7.101981402582772940e-02
-5.235865259056227822e-02
-9.150547650642332220e-02
-8.697613703561500598e-02
3.617302147787215816e-02
1.561647617633248331e-01
1.206526587496321024e-01
-4.193547894589552683e-02
-1.264843920287560819e-01
-7.471293137370448728e-03
1.529968761424555790e-01
1.507583732776693608e-01
2.904533310388953543e-02
-5.220819675523245829e-02
-3.438620265624626332e-02
9.326162976362037046e-03
8.332954278202147139e-03
4.609788137812117700e-03
2.390839001633992406e-02
-5.741747880976513698e-04
-5.501821790919175087e-02
-3.798711907700548507e-02
2.399262149292316279e-02
-1.303298151408355948e-03
-1.009385134791528638e-01
-1.219747768075254424e-01
-5.040949081560998357e-02
-6.496897706827530275e-03
8.603093290135331583e-03
3.872409588866742441e-02
2.725673958031777505e-02
-1.439927798787606072e-02
-5.339739153591434306e-03
1.889970275243236381e-02
8.782552089824757768e-03
3.843660821834724017e-04
-5.101934400911898107e-03
-3.646717673911546720e-02
-6.794052406789592713e-02
-5.674604979235724905e-02
-2.297152209568224454e-02
-1.359515622830459805e-02
1.172100575640035690e-02
4.935798956114766101e-02
-2.361717322911700834e-02
-9.957113906064209152e-02
4.941980611685953956e-02
2.198011949516411601e-01
1.069034611286118069e-01
-9.968588255809769649e-02
-1.190449160359981773e-01
-4.851464440796152133e-02
-4.519384793945103312e-02
-4.905791840111704133e-02
7.810170698465937825e-03
6.802172881491463929e-02
7.972090385096078369e-02
6.851980229637658071e-02
8.048667203111808943e-02
1.321315601765406800e-01
2.070702992664300024e-01
2.751686047081848829e-01
2.814456523242119257e-01
1.711938841832876257e-01
5.557484404552497093e-03
-8.788319585640529119e-02
-1.036738093694543478e-01
-1.243770100044583049e-01
-1.744965828767575666e-01
-2.002166595179269426e-01
-1.606843767668597323e-01
-1.113374088621805064e-01
-1.049863308759946962e-01
-1.110861542240811628e-01
-1.159541483253533900e-01
-1.230898590004519677e-01
-9.970503198966577940e-02
-4.315971597880280397e-02
9.016764741079832945e-03
3.800394447595069336e-02
5.079620665478820629e-02
5.699222633840112656e-02
5.641686184163186013e-02
6.014355709000929195e-02
6.814191542181287364e-02
3.841976556888032635e-02
-1.055276248839124784e-02
7.985061581180534149e-04
3.918934542707046276e-02
1.439720497826030635e-02
-4.042923385132586589e-02
-4.851716552339176147e-02
-2.366922139988715534e-02
-1.399600741047315328e-02
-7.485088344654080433e-03
3.501585387835158547e-02
8.205259505585053847e-02
8.435864322217481726e-02
8.918487136253368253e-02
1.081728626467049065e-01
4.425877980388213256e-02
-5.148131208181780383e-02
-2.194406333932853032e-02
5.261659300287713226e-02
1.766763404791631478e-02
-4.980675967111532210e-02
-5.377601978988681003e-02
-5.198310420174679508e-02
-7.347069955048715628e-02
-6.316414251670249280e-02
-2.491277441745745960e-02
-2.588257085357708459e-02
-2.395740166841038923e-02
7.817151462911545168e-02
1.620462745539445193e-01
6.455640471795662250e-02
-7.654299404252196126e-02
-5.411889132696201532e-02
6.217872507222442502e-02
5.437008807854969150e-02
-8.677663678422363469e-02
-1.303366830757778927e-01
-1.693642010432414025e-02
7.396693309435610486e-02
8.934076277088028040e-02
4.218674419723691948e-02
-9.885717041157322804e-02
-1.677430259833556092e-01
-3.061000177743646716e-02
8.788302954398628797e-02
1.317539216273476421e-02
-1.028918859041192263e-01
-7.778035428837894172e-02
8.482869232974268869e-02
1.983780700852876833e-01
1.323895615215173183e-01
2.274198919605660563e-02
2.984885182254561758e-03
2.451261028842100301e-03
-2.549161008169584242e-02
-2.651205695270536858e-02
5.580298972934744084e-03
2.558412402106616246e-02
2.444071857581539553e-02
2.354056193159925064e-02
1.281574189561339970e-02
-1.881699432378983530e-02
-3.460251625336367709e-02
-4.488476545388324357e-02
-1.116690309282766247e-01
-1.821956986916443144e-01
-1.512127360462748871e-01
-6.436643859378454735e-02
-6.867496013519894249e-03
5.377918187116364351e-02
9.839876705329167472e-02
4.847306503110584974e-02
1.624181977626701356e-02
1.072830618718940837e-01
1.423570967601200665e-01
9.293482704611204931e-03
-1.122802718496815066e-01
-1.066483322418182722e-01
-4.913614126642940061e-02
1.243787556891493354e-02
6.202841854446884684e-02
6.650273807880290045e-02
6.257023102488244726e-02
7.746190294744448313e-02
4.844579309865979649e-02
-1.848365385620279536e-02
-4.723768616764736222e-02
-7.300165855843272766e-02
-1.234609986626380163e-01
-7.131068436795778842e-02
7.155626030080793065e-02
7.742453210178143475e-02
-1.775881661644307385e-02
3.400938034048748421e-02
1.379981980397555763e-01
8.831382448329544443e-02
4.134236932767085260e-03
7.815473837736241353e-03
3.937600405261473813e-02
4.448551855996205062e-02
-1.453889314689130879e-02
-6.109203979505229559e-02
1.527821872321432489e-02
1.318003867489968631e-02
-2.214534109094664083e-01
-3.341048471514279639e-01
-1.130362046073472571e-01
7.424487606107993409e-02
2.779734283349222235e-02
-2.906153418715261977e-03
8.784740661566861619e-02
1.657958250733729266e-01
1.637565950013163407e-01
8.706456540042142866e-02
-1.470212039478710486e-02
-5.769352912996154881e-02
-3.856870433200673687e-02
1.029798953313752936e-02
5.923493404135266732e-02
9.139167557499983802e-03
-1.312784525598109930e-01
-1.683509446447595814e-01
-5.819228578027250964e-02
2.546084997088684382e-02
2.127751297628787536e-02
2.633097135849441287e-02
5.686873240419307307e-02
4.161963566572111223e-02
3.395257855949636305e-03
3.533380080136833135e-02
1.148864143069954075e-01
1.272392479233192542e-01
5.904308122299391226e-02
-1.273289700049577526e-02
-5.141052923025844767e-02
-5.837029467769675600e-02
-5.537956907823370079e-02
-5.242741044032719899e-02
-1.697038517467434199e-02
9.249442636383276017e-03
-5.185907972580177522e-02
-1.183182668139702159e-01
-1.161248083809479081e-01
-1.323588868795781970e-01
-1.314283851707044315e-01
-1.328778137957100508e-02
6.233276592422222484e-02
-2.000717524158367872e-02
-7.911306636706004480e-02
-4.441652836170877083e-02
-4.053831837967532964e-02
-1.641476242836168928e-02
1.293736060809327348e-01
2.275611184098285666e-01
1.509918320480625464e-01
8.829793308052874545e-02
1.314152283027376633e-01
1.198474871046123214e-01
3.698441061814999875e-02
2.876859175024081353e-02
1.116903262421914400e-01
1.849296731784081382e-01
1.859322091127803556e-01
1.313374021297372130e-01
6.975310898573779117e-02
1.491640932556327973e-02
-5.259035895569819791e-02
-1.274916454142086542e-01
-1.789180707610625032e-01
-2.032665757976908349e-01
-2.164539121011301581e-01
-2.100686854524467517e-01
-1.683693209654737455e-01
-1.122955054849129330e-01
-9.521915550645906889e-02
-1.277340062642839391e-01
-1.406990645655386563e-01
-7.856010041858503545e-02
3.311371658267136392e-02
1.251203569959674078e-01
1.367063161439946439e-01
9.725094536960365854e-02
1.134552797953710390e-01
1.622641376496126442e-01
1.043552189461939839e-01
-7.814011129456158514e-03
3.566902589621813446e-03
7.876682487846484171e-02
4.508683960891085585e-02
-3.256965244032144352e-02
-2.075768941351974206e-02
-5.313437767158098179e-03
-7.623947078755599627e-02
-1.170419199913932118e-01
-5.053539521871294737e-02
2.120137941517156663e-02
2.399972591074107237e-02
-3.865873289988407992e-03
-1.026092538507911676e-02
3.498914067093976746e-04
-1.100058142974039838e-02
3.310016393996160176e-03
7.573783704783779158e-02
4.815405536401146797e-02
-7.887236237808727124e-02
-3.059720129471099614e-02
1.420563731742637836e-01
1.231746143151761785e-01
-1.997244223646801528e-02
-4.016623050113056481e-02
1.062886454758876428e-02
7.043887455111259854e-03
2.047807382259541308e-03
1.168141946385461982e-02
-4.316861721325519069e-02
-7.847072201088427235e-02
1.384803465593097138e-02
6.969051458765243567e-02
-1.983182044923014267e-02
-8.691825987305092094e-02
-5.895249914345167264e-02
-1.802368908086421015e-02
-8.031344682957790304e-03
-5.840658706129277927e-02
-7.982592356421239210e-02
5.018300048946602865e-02
1.575713198765581191e-01
7.551112294650851042e-02
-1.113380762388111768e-02
5.042495799015073860e-03
-2.549594928471244845e-03
-3.845957885320263475e-02
-3.963955026715945684e-02
-4.020946741512834710e-02
-3.645891301582205452e-02
9.984827109421114469e-03
5.853242715128421231e-02
8.052998609102333949e-02
1.147293205881410871e-01
1.160011148338857406e-01
4.375628197859221524e-03
-7.726273617894713341e-02
4.013638104917305327e-02
1.626528079088444267e-01
5.432493689307417439e-02
-1.135005151660412048e-01
-1.131064212666728908e-01
-4.957314681888277952e-02
-7.944534688564555691e-02
-1.513802656912965616e-01
-1.602913694539484790e-01
-9.167232703426862750e-02
-9.748104890037972634e-03
1.639020301963394627e-02
-5.373003067224157991e-04
1.710827693273072464e-03
3.482748220430073594e-02
6.042369286087566349e-02
2.711727880425318302e-02
-7.761208113035684975e-02
-1.316183504461007625e-01
-2.135656234671624160e-02
1.157072387649304840e-01
1.241151615571943895e-01
8.899367326937239475e-02
8.200738582622749129e-02
5.950459165335685724e-02
6.498537482264837850e-02
1.313510365690003512e-01
1.272320893086304472e-01
-1.536023520480667322e-02
-1.323263684060710099e-01
-8.247655382615187714e-02
2.948148692672008728e-02
2.885016795078509597e-02
-6.397983257340089658e-02
-9.218476584824264464e-02
-5.071040594875330515e-02
-6.176950772649159038e-02
-6.992073703156921616e-02
2.767481490146318432e-02
7.962806770106148346e-02
-9.885501499671080217e-03
-4.582869534881662404e-02
2.550064049193436627e-02
3.177982386937912296e-02
-1.139076707290944540e-02
-6.459920003871989606e-03
-3.798140687280944505e-02
-9.932027434729408244e-02
-3.196670875640058446e-02
1.046320356749218805e-01
1.269600053496158232e-01
7.753228966235820030e-02
7.308206939426328819e-02
6.418347098851483190e-02
-9.744108803038314254e-03
-5.570586836335982006e-02
6.000546130111597543e-03
5.862667423557922641e-02
-1.711575626808494940e-02
-1.169522264680410706e-01
-1.132262495856840995e-01
-7.139836251753808871e-02
-5.791278601194908143e-02
-1.850857119371725201e-02
7.818727068992659818e-03
-6.468382486975797485e-02
-1.200542863958554141e-01
-4.256476543713817035e-02
5.211270955511945052e-02
6.270905283321827339e-02
6.135120391141190427e-02
1.068209962930514179e-01
1.300504571361305040e-01
4.246943844167942739e-02
-9.014076555307047600e-02
-7.422958016831512906e-02
1.051116016725564400e-01
2.001529534324254234e-01
9.783780997519000988e-02
-1.325110622666704312e-02
-9.756486291169125247e-03
1.405124620558520152e-02
-1.447603821731889562e-02
-6.621950934759478213e-02
-9.008465175081487031e-02
-4.866512414626619071e-02
-9.607033186370163291e-04
-5.173667633967408974e-02
-1.353856718232641643e-01
-1.203994773451177863e-01
-7.540281032667420225e-02
-1.052013840462709959e-01
-1.050692899333993402e-01
1.397458212378624443e-02
9.449631345772045721e-02
2.196137310063420861e-02
-5.469103648859964528e-02
-3.100749057121068505e-02
1.330570533175171738e-02
4.623357029940410035e-02
7.999516695146846601e-02
8.493168979146691056e-02
8.806851373486401791e-02
1.308050236620364182e-01
1.826723617905817720e-01
2.185773874218017998e-01
2.209868120667913549e-01
1.627924658068883590e-01
1.055672241943743234e-01
1.083053365829432235e-01
6.048562280714067652e-02
-1.049169025816089618e-01
-2.301582307349829826e-01
-2.172003595449488178e-01
-1.783220570026328999e-01
-2.082152503836870172e-01
-2.702305071069827647e-01
-2.447408366299266003e-01
-7.400496891817369416e-02
7.488409504995456600e-02
4.999276330449026889e-02
-2.370987239467094165e-02
-1.799537092096051630e-02
2.081560226730267207e-02
5.266898294621910614e-02
6.327985293441185100e-02
2.768449594905195155e-02
6.257707189757259758e-03
5.595016168867658624e-02
6.864163659500464865e-02
-2.147765703904613160e-02
-6.130053358785392953e-02
1.188988399839379165e-02
5.513788365136415570e-02
3.684849306711079908e-02
3.596322801943411390e-02
3.720612993532223384e-02
3.288650098826908369e-02
6.380249364893070263e-02
7.459955034549198283e-02
1.076231568099549757e-02
-4.518537652642931612e-02
-3.740810741622080382e-02
-2.320106243842720573e-02
-1.973350316470896815e-02
4.808315219986654399e-03
2.767639665694918497e-02
2.630428678850789403e-02
2.400840240501938075e-02
1.187930645581998165e-02
-2.900504470621864672e-02
-5.055162583581195718e-02
-2.746094552756247337e-02
-1.766195327894300518e-02
-3.657535521344552898e-02
-3.448600992411704480e-02
-9.924599764898007007e-03
5.491814624280607487e-03
1.680956951667964862e-03
-3.512042583038997579e-02
-8.059146534701593090e-02
-5.349502201390944622e-02
3.523671907406387971e-02
7.614745264941630287e-02
8.171965369273667679e-02
1.144105708512326014e-01
6.334651653471196076e-02
-8.028691189028877573e-02
-7.002158500087306281e-02
7.591463772329870574e-02
6.303598633622735370e-02
-5.334845298992789420e-02
-5.518221392945684561e-02
-6.889226657820830824e-02
-1.650459895240127539e-01
-9.925063604680124663e-02
1.203614019422453718e-01
1.859359943298449225e-01
9.439757963370512539e-02
3.273637399893902095e-02
-5.448929951459099280e-02
-1.532952321250838357e-01
-9.559982560529854678e-02
2.798054462232892059e-03
9.899640028387977214e-03
6.897716778865788101e-02
1.292410542002563056e-01
1.946758766706858240e-02
-7.448827766468230083e-02
1.631561454472497952e-02
1.108006931545897633e-01
8.298986951460154970e-02
3.490340870821688479e-02
6.247636169616035962e-02
9.983660427305589280e-02
1.647751175789984382e-02
-1.148930229297397965e-01
-1.137323426056409958e-01
-1.707467978318869331e-02
3.773048665575533256e-02
3.394354087737339043e-02
-4.607563257140063866e-03
-5.509734282505818204e-02
-7.782998765694722210e-02
-1.047287478578304148e-01
-1.662234736609079500e-01
-1.519898821966895464e-01
-2.774066113903914110e-02
4.243396161673286537e-02
1.800864922323176798e-02
2.166535541119460687e-02
4.650788913121894907e-02
3.189793069917884472e-02
2.337591135640570278e-02
1.315384528511619536e-02
-5.204266250034968178e-02
-7.964404003128221221e-02
1.283212607010632625e-02
9.654721503807382754e-02
6.758070951874071974e-02
4.858538875685926295e-02
1.083062957438016422e-01
8.169526430931192684e-02
-5.431737183597559748e-02
-4.809613861043694760e-02
1.195301774984442872e-01
1.541506060399191191e-01
-5.058340064152174603e-03
-1.283472215478911327e-01
-1.209195415505490423e-01
-8.026261899509443132e-02
-7.213770459960798520e-02
-6.961023936640460541e-02
-2.573705322903353104e-02
3.895984362407240581e-02
5.701249815405633192e-02
5.091887077293859309e-02
6.634874081566044524e-02
2.877976869227627868e-02
-4.903928548369751450e-02
-1.021410481193547534e-02
7.855270439987852016e-02
3.896765731863467697e-02
-1.537865601940220130e-02
3.012540224234028230e-02
4.097158673941276447e-02
-4.963617843420688354e-03
3.801149121447392268e-03
3.782059973608713904e-02
4.217436518721623395e-02
5.407277619922627732e-02
6.624647543285842877e-02
2.422871693895940325e-03
-1.349810757356872948e-01
-1.917385579297002374e-01
-6.084939574537610862e-02
9.193663221869513569e-02
6.515114461211543584e-02
-3.411754486442287321e-02
-1.521290776192140912e-02
4.238630624739493646e-02
-1.533075185288248696e-02
-1.043081089873921508e-01
-9.760582704871717530e-02
-7.585205563735505918e-02
-7.359473062189976489e-02
1.731550529756131426e-02
9.268222455631580647e-02
-1.357592342794520374e-02
-1.161939515807234452e-01
-3.410111943364775577e-02
4.877687404857249109e-02
-8.844891525088646733e-03
-5.832730586207685031e-02
1.684842684816634586e-02
1.192556306401529181e-01
1.303364614350548956e-01
9.733552458499364346e-02
8.502691334800308032e-02
1.267636526244939055e-03
-1.397785643520933208e-01
-1.251074316417038756e-01
2.106551805060490751e-02
4.745003841717823634e-02
-3.360544112697880920e-02
-2.627272721882112361e-02
4.786671905014383555e-02
4.515414730849053732e-02
-1.701246272284011318e-02
-2.055564530883216556e-02
1.001947557536163151e-02
-5.079596867693360329e-02
-1.341452009046907312e-01
-6.413728846338043188e-02
8.726421637256502606e-02
1.420203463184314396e-01
1.412053281444071717e-01
1.758558103479289925e-01
1.797163942854333729e-01
1.275050375488799015e-01
9.005962983059012661e-02
5.460247269409165827e-02
1.492764485064573821e-02
2.210649386898756383e-02
2.140727717490145329e-02
-4.266219347159738023e-02
-9.542221620281168826e-02
-9.710376536622154775e-02
-1.102929797814364565e-01
-1.738889085474238372e-01
-2.510789395605129148e-01
-2.740746040555611662e-01
-2.112978441548607200e-01
-1.136966339201704174e-01
-5.603575551202261834e-02
-2.014174622586952651e-02
5.153667561987330947e-02
1.120302185112746485e-01
1.062058553467805644e-01
7.580621308132859393e-02
3.943933693685065800e-02
2.676495060802862661e-02
1.057266890114647861e-01
1.590524047782623795e-01
4.931668004525949917e-02
-5.954747393041787129e-02
-3.830108072535119701e-02
-3.272993076430474879e-02
-5.423549045464479829e-02
4.271126656363944535e-02
1.497613697871450489e-01
9.328071912197499760e-02
-1.027265139955163380e-02
-4.798838277537860464e-04
6.455505536522508636e-02
5.232302706792345964e-02
-1.999486375605707966e-02
-1.675264815391582646e-02
4.934639285202302439e-02
3.389589214039141762e-02
-4.710291263495040848e-02
-7.368062770437487641e-02
-5.272324034152668648e-02
-4.277806113795361992e-02
-3.427624983243189594e-02
-1.757836386154092503e-02
-1.373156378844666431e-02
-2.255872483553060526e-02
-2.594135776675760702e-02
-1.760998981226517476e-02
-2.057337500488756049e-02
-4.687329082127060509e-02
-4.723781160357683542e-03
1.316598760199205465e-01
1.348095703553310598e-01
-5.426570386664927859e-02
-1.217434405304859829e-01
8.777510181293905756e-03
7.678433802788137141e-02
2.418503178294980835e-02
-3.330368567399557417e-02
-3.941125330830434759e-02
4.711777293382726772e-02
9.758874577326975830e-02
-8.313613521175020060e-02
-2.449789438334641911e-01
-6.365222622767155447e-02
1.569198322358638931e-01
7.655306118899803114e-02
-7.780121862232095009e-02
-5.694462777117936803e-02
7.321119931392260083e-02
1.467618023698055996e-01
7.316960437818240126e-02
-4.656899282831035436e-02
-8.123882572155019521e-02
-6.092054245019470904e-02
-3.419493615957491101e-02
-2.195610123595675284e-02
-6.186098249457434861e-02
-5.805119564103216473e-02
9.036589245456670694e-02
1.873740035968366469e-01
6.413832238692068755e-02
-7.789963169655182706e-02
-6.878657515707824188e-02
-1.931700897193373151e-03
4.650460041238757558e-02
7.546068752205876973e-02
9.482004631509599601e-02
1.269751646760205466e-01
9.730103231126428776e-02
-3.013400096705047201e-02
-6.163538082441442911e-02
5.522810834490415877e-02
6.805918163316213021e-02
-5.216922859556453324e-02
-8.998559710639050802e-02
-9.231130735742429372e-02
-1.709816307908758881e-01
-1.668170978846619246e-01
-4.081265223944685605e-02
-2.919625827814326113e-03
-7.784480171876625998e-02
-1.112847948601465992e-01
-5.554308393901166013e-02
5.448562005445817258e-02
1.280973879405110372e-01
6.916354391935705670e-02
-2.216185595585749499e-02
-4.564272694587347134e-03
3.072310510651240709e-02
-7.454013424240556532e-03
-2.311247640570603112e-02
2.868955034843901492e-02
6.859163779864609067e-02
6.760649591669963543e-02
6.323635620815488967e-02
5.485916994342731473e-02
3.088776037737447563e-02
3.467900430671479184e-02
6.499885741823220597e-02
3.059253105256378932e-02
-7.060172307809430003e-02
-1.173624243382700161e-01
-7.578955554707426934e-02
-1.584239317232456756e-02
3.520265910918832925e-02
5.203970470176098873e-02
-3.237669188673251812e-03
-4.598587189270208347e-02
2.506904510490124555e-02
9.900558326829712874e-02
2.621574289073831665e-02
-8.433983544889009365e-02
-6.477647303570419068e-02
5.742058584578182273e-03
3.014508257269340324e-02
7.546964515651866101e-02
8.323237804856591093e-02
-4.655168034278207856e-02
-1.246359206885457732e-01
-1.021963822718251202e-02
9.786322964608989983e-02
4.272386201438720804e-02
-7.638458446646463618e-02
-1.006703491852952020e-01
-2.961009368227809913e-02
-2.519198270471443429e-02
-6.061079271743345653e-02
4.175532424055140857e-02
1.078268280993242012e-01
-3.886400854969369878e-02
-9.691967754402502910e-02
4.199847667659603601e-02
6.848760289071352536e-02
-1.866687876891112707e-02
-6.670079863730729933e-03
4.834802254963124768e-02
5.480436548386938278e-02
2.745271634100390074e-02
-3.976876397861558998e-02
-8.289004614005340832e-02
-3.652613493651742094e-02
2.475399525302821035e-02
5.353564331479759852e-02
5.950235998790170261e-02
3.974938375856039777e-03
-6.358258819973108822e-02
-4.895338378087212006e-02
-6.187637887594040105e-03
1.080242604962907381e-03
1.483997432769237380e-02
5.953447192121656684e-02
6.679035198312802124e-02
-3.355899473821197243e-02
-1.203624049499582155e-01
-3.850014766375001174e-02
4.111647982658749728e-02
-5.792628873693490138e-02
-1.312699060781521987e-01
-5.299282374053624484e-02
-2.336662393047148067e-02
-9.560477819004545297e-02
-9.872283737854159469e-02
-4.141881767149861032e-02
-5.035389014285420600e-02
-2.302771903705471898e-02
1.447306751856030083e-01
2.447457481234638077e-01
1.665226254876228107e-01
1.288271902482273357e-01
2.082676438624748161e-01
2.603310370657084261e-01
2.533239423726859063e-01
2.179190519750971722e-01
1.353018644604800091e-01
1.930346092134344396e-02
-8.894523368096075855e-02
-1.530276567048395320e-01
-1.644221469376268563e-01
-1.671744630026235356e-01
-1.652638119792268767e-01
-1.338480039886921769e-01
-1.430724779830269133e-01
-2.104056880712406874e-01
-2.050072284925522070e-01
-1.172528910742273583e-01
-8.372358108040550695e-02
-9.945318740277236946e-02
-5.506423470236383733e-02
3.047358917503488474e-02
6.422767318627503608e-02
4.918238821858508802e-02
4.635185173673218861e-02
6.525492519846030903e-02
8.341980350655917031e-02
8.664468978691036716e-02
6.684674214620887900e-02
3.797113936845314397e-02
2.427051206672361724e-02
3.663224974548944662e-02
4.715793179185168160e-02
-1.757307752929110345e-02
-1.295920829377294747e-01
-1.215240200826697703e-01
2.246455666964994671e-02
1.273361568610343886e-01
1.501661196279141797e-01
1.484014462870467954e-01
9.498941911506691982e-02
2.689821308785335721e-02
3.442041406198370623e-02
6.014913138640033685e-02
1.903240751094393765e-02
-3.254095416700580889e-02
-3.809893816324913529e-02
-6.164757906036455459e-02
-1.053475476647588172e-01
-5.024351644632081559e-02
2.651041221291850630e-02
-7.867620131832823993e-02
-2.072985817524488905e-01
-1.209027131774847164e-01
-2.384681010234327575e-02
-5.150694133101534067e-02
2.869843744274351224e-02
1.534440972035587269e-01
5.089950670062100280e-02
-7.074121102373348569e-02
5.866093012247541177e-02
1.816279497267721532e-01
6.282202400102809836e-02
-1.034671641217551757e-01
-1.320967164620799883e-01
-5.021711289127078759e-02
4.757819298155640392e-02
5.813399947437013215e-02
1.987623778265510885e-02
5.514121802956235829e-02
6.956895277192343130e-02
-4.294582959412122924e-02
-8.509486204421096156e-02
4.449206147085853214e-02
1.002831441421336844e-01
-8.813814155724065263e-03
-8.100256762218523143e-02
-6.044501736846497747e-02
-4.681514048169310716e-02
-2.704956611731814883e-02
1.959913783278243588e-02
2.171583361190542946e-02
-1.042210152702373327e-02
-3.248970970698419978e-03
2.354811163572691560e-02
3.711168458452326901e-02
4.509152280162886939e-02
2.666415613899828993e-02
8.893038734737374051e-03
5.939326150576493268e-02
9.898142976784349290e-02
1.581584101955695737e-02
-5.735139841150094231e-02
3.224443856857263369e-02
1.033946440374420433e-01
-3.666905879967841120e-02
-1.774216288874753966e-01
-8.686978972021969225e-02
6.872465824278996271e-02
7.616279920141184878e-02
-6.290099784377264913e-03
-6.044454624495385064e-02
-6.745419027210942942e-02
-6.309450358406099024e-02
-7.322302044590303649e-02
-6.994397625606792179e-02
-4.829460405223207076e-02
-5.310950826902965244e-02
-5.305257782871947853e-02
7.730361448114987655e-03
6.931666101297101479e-02
5.338584934389113690e-02
8.961764280302729480e-04
6.931354022573309355e-03
3.142030209396005913e-02
-3.207805231088363407e-02
-6.204009942956999202e-02
6.748494008743154138e-02
1.355090839920959078e-01
2.035215796620580206e-02
-1.866443511270214628e-02
1.056683800171415166e-01
1.628517321704278653e-01
6.744904898080962552e-02
-3.053079584980546851e-02
-1.747891096577789891e-02
2.319377832054147701e-02
-1.554842170859997708e-02
-1.733069841044442005e-02
9.953532506843856820e-02
1.041101605248949818e-01
-1.234611313088169876e-01
-2.931805305665436956e-01
-2.048295308293289207e-01
-4.493933586623901494e-02
2.658275052936481461e-02
6.827270248936272157e-02
9.943750485300617559e-02
5.290746786947238267e-02
-4.917519126576840038e-02
-8.946712932203366997e-02
-4.509085498990710039e-02
-1.982534547923155838e-02
-8.608062165776737482e-03
8.185172672853857634e-02
1.400460510770182299e-01
1.197468127851467057e-02
-1.336304338231519007e-01
-6.541487645196517042e-02
9.550239593067361143e-02
1.175172001983459669e-01
5.644733726837317112e-02
5.716446519781290952e-02
5.628579958261745175e-02
3.764458594227524865e-03
-2.221645916101885540e-02
-3.615884005438033122e-02
-4.355571953086642689e-02
1.358863568458667549e-02
3.694779249574314112e-02
-2.054714368465365357e-02
-1.933493321317280092e-02
2.126686165432282311e-02
-2.616498431018735374e-02
-1.009608165275470842e-01
-7.894113758435838957e-02
1.980876500650611063e-02
6.968840497420562830e-02
2.890659123942218231e-02
-9.306003418534214422e-03
-1.632859481401274446e-02
-4.384817143739764417e-02
-4.551254202810786631e-02
8.530283051311258677e-03
1.386885820426944811e-02
-4.304826422585291551e-02
-6.371920859736168730e-02
-5.821281668950923499e-02
-4.958491466104244377e-02
3.529028913840743121e-03
3.737154829242852333e-02
1.253620161460989105e-02
4.033906495064863013e-02
9.117037406688356660e-02
1.654454916790515720e-02
-1.022564933497570883e-01
-1.204051228073969304e-01
-1.067886421178182027e-01
-1.233183691425344813e-01
-1.025695368709392818e-01
-1.121181681547310169e-02
1.125509659765824150e-01
1.646323518879093117e-01
1.014473099440076215e-01
6.973164770590324635e-02
1.298070533882547117e-01
1.523940448278871262e-01
1.160621301078550993e-01
1.046650651177604835e-01
1.428201860818300584e-01
2.073735972777222825e-01
2.248715758998523218e-01
1.339274120114838096e-01
-6.729932758498223533e-04
-8.422880529221810075e-02
-1.170664770377255193e-01
-1.226092613157348660e-01
-1.167368254698456509e-01
-1.371039582651465971e-01
-1.806767236812165389e-01
-2.131474667747102203e-01
-2.033634808966252316e-01
-1.331857090395651699e-01
-8.150072587723108941e-02
-1.188180537305164319e-01
-1.376570539653570457e-01
-4.843696953991098730e-02
5.041847222781868643e-02
7.495100808462502873e-02
7.352707629140235734e-02
9.288034686512661176e-02
1.124468227532653825e-01
1.011569300725726483e-01
6.961742851795495179e-02
5.043974912015249806e-02
3.529644794683070574e-02
-1.562144127922406294e-03
-4.929763942521044051e-02
-8.429248581279691344e-02
-7.655223662515121819e-02
-2.373335873240603466e-02
-7.076651270509460960e-03
-3.544004473591966242e-02
1.401180477016705263e-02
1.108163571021544280e-01
1.003208152129212993e-01
3.422724974817933918e-02
5.461206844664979326e-02
1.120771799132142116e-01
7.153776263586893169e-02
-2.840614741776836816e-02
-1.268694542387647714e-02
1.020246494109629531e-01
1.164466226214545264e-01
1.999097161709519066e-02
-7.425059956837024022e-02
-1.749443901508653809e-01
-2.272145097238589539e-01
-1.226063916654762109e-01
1.675367590128912232e-02
3.690184516464947717e-02
6.208138274147512181e-03
3.187756637692588761e-03
3.833999264958662043e-03
5.062674572665517084e-03
1.458149267476771885e-02
1.932696995174061627e-02
3.776111365867981795e-02
7.352782161961614327e-02
5.166986428592517527e-02
-4.360596393370135687e-02
-6.555195043238741526e-02
4.862767318069155520e-02
9.292030381874680223e-02
-6.097679061437611542e-02
-1.732311339361782276e-01
-4.768261165727420703e-02
1.103151383801450475e-01
9.357997876952293959e-02
4.680471205967505488e-04
-4.504077370236870409e-02
-4.673242177917955736e-02
-2.407290972998274436e-02
9.393662983198790718e-04
1.581977214457915351e-02
4.034319033053501702e-02
5.592048323759510331e-02
3.831864843034220314e-02
3.337756919192581134e-02
4.604062948731620086e-02
1.579724338613390511e-02
-2.068156891960043139e-02
1.130715309065557020e-02
4.992398763419608754e-02
5.833151168847919114e-03
-7.318552027257711756e-02
-7.826956429240349011e-02
-2.559469580182421530e-02
-6.184985220584739846e-02
-1.643222951183114233e-01
-9.457315074885265516e-02
1.203458261142187902e-01
1.460095753500914584e-01
-6.249522169803162219e-02
-1.724460892932199452e-01
-5.489066116115036420e-02
3.612719385448584508e-02
-4.464803057260591929e-03
3.481554762332327024e-02
1.530021303895794105e-01
1.152156602632713189e-01
-3.987034552276782357e-02
-8.720250084304947968e-02
-4.242021442895912986e-03
5.548282483905902368e-02
-1.432246106884380553e-03
-8.226816764749625421e-02
-6.971480143905167681e-02
-1.218298302085198473e-02
3.584231613884864692e-02
1.010526663148618165e-01
1.225244511787891011e-01
4.472536459521245233e-02
-1.316307044269929977e-02
2.016869337879486496e-02
2.999220337103572151e-02
-3.412602990842757145e-02
-7.270612652837496470e-02
-1.140156257352573088e-03
1.241993081741056271e-01
1.183456103109969126e-01
-1.950417666496680191e-02
-4.293480442449706252e-02
4.725037302532768962e-02
2.006884809503368255e-02
-6.078707110534680574e-02
-9.807542523256121414e-03
1.099580417247629158e-02
-1.616252961033084468e-01
-2.484177595447533415e-01
-5.381219719331363505e-02
1.349377401104115137e-01
1.183052246899478632e-01
2.898739850673203583e-02
-2.208907408075368867e-02
-1.960244638865915948e-02
-6.898735654759707847e-03
-4.154817576282750918e-02
-7.102366486047141658e-02
-4.720805770595350864e-02
-2.411448040277017549e-02
-1.951754187254844258e-02
1.000267819068759861e-02
5.763274637150789248e-02
5.555884437149583022e-02
-1.185059355100860287e-02
-5.344017113916454953e-02
-5.520897440687963856e-03
5.634942749990883015e-02
4.905734556969109511e-02
3.972918107092716922e-02
8.943224865497853560e-02
8.208051226221796393e-02
3.850923694647074257e-03
4.137287422544858734e-02
1.357113210666665848e-01
4.553046661764077740e-02
-1.413298661839900994e-01
-1.842887282266730820e-01
-9.816726582797666301e-02
-2.993019560286762706e-02
-2.875762001154155700e-02
-2.902603804255233025e-02
1.442200275495979234e-02
1.494722365339216583e-02
-8.028771740139062363e-02
-1.344655616264983644e-01
-5.902918345281157886e-02
1.143671104613124857e-02
7.165268700991191120e-03
2.736267137591048837e-02
4.019751992120476625e-02
-3.476732634526632365e-02
-7.358175779496387015e-02
1.537410646695946265e-03
7.617738979347210559e-02
1.064099494961273651e-01
1.427551822618126076e-01
1.687794412746601858e-01
2.049384261962089726e-01
3.044842953441491695e-01
2.491294093245504659e-01
-9.164993084266873091e-02
-2.453219312497198212e-01
-1.998936783934146533e-03
1.301584592478081670e-01
1.766161781356094876e-02
-3.016274856741854235e-02
-4.330948485266922915e-02
-1.271232508127765892e-01
-1.855072852877099610e-01
-1.791643766062716026e-01
-1.420629091067042715e-01
-1.161247206034186769e-01
-1.267334880148670573e-01
-1.205430851274483101e-01
-6.081909063980060759e-02
-1.993223117603200312e-03
2.129178084375214081e-02
3.292963965540452592e-02
2.868515528122187602e-02
-1.347743489038384299e-02
-4.829478862093036784e-02
-6.817033833170480644e-03
8.294166106487040058e-02
1.226846875709434459e-01
1.069513605314630078e-01
1.252400649865016702e-01
1.462111819852569550e-01
5.593508577117158043e-02
-5.124284056307713831e-02
-1.442697694683678367e-02
6.634690981613321215e-02
3.821927402394002804e-02
-3.692439814920675523e-02
-5.134093542947862354e-02
-1.990128957577907629e-02
-1.817933935009887619e-02
-4.083383576192323172e-02
2.343975667081808073e-03
4.317352938045754956e-02
-7.884412773001701902e-02
-1.992468801155565794e-01
-8.275748464047562314e-02
6.715001731802192064e-02
3.069512417757130907e-02
-4.266790458971644884e-03
6.266957492305265387e-02
2.666015628230199164e-02
-7.629408649556955468e-02
-2.530943243605116022e-03
1.194809805924347546e-01
7.643569124537590020e-02
1.939025457796947349e-02
3.707237773141548731e-02
1.663279888295353393e-02
-5.883851794618732631e-03
2.300565975164751975e-02
2.574924670558842443e-02
-8.379860069899937661e-03
-3.100080889785091637e-02
-4.576932910989409131e-02
-5.143635458191025966e-02
-3.465152812001921073e-02
-1.135495239126422563e-02
3.254486459629698028e-03
9.978197043881024964e-03
1.041661522751485824e-02
-8.594595337135402940e-04
-2.097721128774091351e-02
-1.842575819232669665e-02
1.413022492449387060e-02
2.541140036403213148e-02
2.928651418641984791e-03
4.632383892593122145e-04
2.520490431512954418e-02
4.304939928390507514e-02
4.867699569505812285e-02
2.579584009243439044e-02
-1.828939908400608466e-02
-5.241999641528974699e-03
5.490888333657538423e-02
4.972276166706469935e-02
-1.437106875853220653e-02
-8.705725727911484135e-02
-1.999720662658648618e-01
-2.340117423825890386e-01
-3.899242820626423051e-02
1.517045933026423266e-01
6.235629044353375311e-02
-1.207659167151336338e-01
-1.254900204046744128e-01
-1.347999810859249262e-02
7.755224977793510888e-02
1.298159051420402221e-01
1.155520100520314869e-01
4.654351520299095102e-02
2.553622637152946906e-02
4.547767270106595205e-02
2.397335126088152163e-02
1.262210741970255616e-02
3.750024206580161723e-02
2.339880720259678026e-02
2.878781372786173159e-02
5.613812492555461664e-02
-7.638733327239069504e-02
-2.400250210213253632e-01
-1.497790989962428099e-01
3.334095613396079183e-02
1.035234606207231373e-01
1.501414972071870302e-01
1.339838990255650952e-01
5.807844559090440117e-04
-5.275088421735427135e-02
8.770613937884096795e-03
-1.464152158685903468e-02
-9.528123388705904417e-02
-6.899551462594183393e-02
2.866422016300568948e-03
1.926788583784509040e-02
3.053686131321584063e-02
4.489941634665918502e-02
1.225856308848178623e-02
-2.581786410817894784e-02
-9.946834323220335797e-03
3.342895980208555884e-02
4.069893563489505872e-02
-1.649888848365597960e-02
-7.931000465629767238e-02
-7.229201790252921811e-02
-3.489371324509242533e-02
-1.100023586448761921e-02
3.121976755457179370e-02
4.025080585361595631e-02
-2.889861753540666489e-02
-7.385494405861543765e-02
-6.886780735432311562e-02
-7.212118597629216254e-02
-1.063853078064050384e-02
1.370420441118884169e-01
2.024893926566704305e-01
1.050121881924465372e-01
-1.001469920108340877e-02
1.633532018241425424e-02
9.541703057223963058e-02
1.913540554999102611e-02
-1.167759029562800005e-01
-8.882756680439150843e-02
-1.273842667284401028e-02
-4.179684352497407829e-02
-4.683094486387968935e-02
2.399246298538540434e-02
3.717785642505370969e-02
-1.406415452712461885e-02
-3.905304066818963971e-02
-4.908321094348200991e-02
-5.586980915465492720e-02
-2.436255569951610578e-02
7.253955079807170503e-04
7.649430690562392457e-03
4.352562842344863403e-02
1.835651489609915407e-02
-8.952898299213109257e-02
-1.018411085550919304e-01
-3.819943091909720756e-02
-7.000222766082229986e-02
-9.762164377148936645e-02
1.934174407688860758e-02
1.123952502552346411e-01
5.271675026886973175e-02
3.340200439490498274e-02
1.455583787262085260e-01
1.547504132155579637e-01
-3.648070174812508004e-04
-6.763426241906844716e-02
1.763280709900790638e-02
1.009002350335901077e-01
1.476976619543193259e-01
1.750419715744891691e-01
1.580543532563501719e-01
1.445904525354823333e-01
1.579387374758405016e-01
1.068852004717023157e-01
-1.413223377110718604e-02
-9.484360922497600543e-02
-1.258040662673357568e-01
-1.739044960803189099e-01
-2.226618953868726991e-01
-2.300815762567205436e-01
-2.215274373617536208e-01
-2.243937697020817190e-01
-2.110113465668022881e-01
-1.505023853735902584e-01
-5.656475791463672076e-02
2.090515450644932910e-02
5.495102296071160963e-02
8.456429995833295021e-02
1.077967559518304141e-01
6.750103517111560869e-02
4.224701167906243920e-02
1.064987250523155710e-01
1.056442085624793026e-01
1.696002256898904853e-02
6.219827621892531910e-02
1.740551469808573892e-01
9.937539337754366930e-02
-5.312196628106266583e-02
-6.881036757373401591e-02
-1.309477465039159821e-02
3.718463810633855157e-03
-1.086695395840772682e-02
-3.012523428248935209e-02
-2.627134169618426662e-02
3.988368336853776591e-03
2.360642901494144907e-02
2.787028353590508337e-02
3.657797015722354106e-02
3.152543302343932541e-02
-1.557520958675810002e-02
-7.774140175283206222e-02
-5.455264871808236660e-02
8.432184941441307757e-02
1.373482234895430365e-01
-3.346208910407609538e-02
-1.638287960959116107e-01
-3.564030872730881983e-02
1.108290513443975223e-01
7.003667080413988888e-02
-1.515908973261605522e-02
-2.972732087655128447e-02
-1.787586727702393519e-02
-8.848390128178623346e-03
-1.803062630161174351e-02
-3.152657530366070882e-02
1.661775745336081453e-02
5.307640479232327707e-02
-5.803015485423010378e-02
-1.743823645370163322e-01
-1.101163187427550427e-01
7.884029627159385920e-03
3.658404747976467392e-02
2.030888697546413824e-02
-3.136272774121422191e-03
-2.405968759136750679e-02
-9.407348167132390665e-03
2.986898212056712798e-02
3.042433362256682233e-02
-2.786374648067836690e-02
-5.558100274216266901e-02
1.206195600540367098e-02
7.040185958521809340e-02
5.046621288099931851e-02
6.289259566237895283e-02
9.067758092558002303e-02
1.503407208649741936e-02
-4.810922542221107018e-03
1.379531858231892172e-01
1.779776229931470943e-01
3.458287914022467602e-02
-4.668083692661569029e-02
-2.593166688970965222e-02
-3.768857594487876744e-02
-4.575197394356553260e-02
1.410785563310779436e-02
4.324426992483164367e-02
-1.714066106115989807e-02
-6.448683999817737822e-02
-4.798806454546204747e-02
-6.022313291112817157e-02
-1.315972719959931647e-01
-1.481635908616969477e-01
-6.110109117542721763e-02
3.465450602440128119e-02
6.162121655071817194e-02
-9.436434527352023649e-03
-1.400491234810362084e-01
-1.519241123112050618e-01
5.912087653599610096e-03
1.143219735319202790e-01
7.481179637032056573e-02
2.888507690076844853e-02
5.890249196845964708e-02
1.169218759138937330e-01
1.282548706363584312e-01
5.693752917282406123e-02
-4.481942248485656921e-02
-9.212661212469229477e-02
-7.111187779995606362e-02
-2.484530852212108246e-02
2.477946910378464596e-02
5.831139461990388767e-02
1.692320776802730062e-02
-7.311665661943467232e-02
-6.031328748764402947e-02
5.386802323873565723e-02
7.375177752855692492e-02
-9.128887970346451219e-03
-1.472108153219904916e-02
3.906988143926430623e-02
1.885016201402095817e-02
-6.450216919369493665e-03
3.013677317973387226e-02
-2.763013989099239939e-03
-7.950093972816038579e-02
-1.170751735029451970e-02
8.483572240495507177e-02
2.024504588487600204e-02
-4.287891264990967982e-02
2.510421661887463768e-03
5.761787522415186616e-03
-7.381769660707847638e-03
6.806088510408267456e-02
1.027866029180115326e-01
3.454953412303016225e-02
-8.131121957384739030e-03
-2.083553919889257616e-02
-6.882723212075012031e-02
-9.826133581974244580e-02
-6.853878349601535969e-02
-3.880647866378210582e-03
5.285974325422376774e-02
1.558747854182260251e-02
-9.863982292061522494e-02
-1.258354990039552423e-01
-5.437427221611479400e-02
-2.871081580026975388e-02
-3.780763231168650373e-02
-7.722416550120906470e-03
2.004747309717905268e-02
4.121204500053964742e-02
7.400964299868570406e-02
6.809963574104629935e-02
3.902910706272312569e-02
3.947367123037036352e-02
3.023891006695027250e-02
-1.308132432313640486e-02
-2.033319720110930706e-02
5.404170577020959987e-02
1.529690072247769372e-01
1.769946359927795365e-01
7.806852552583837257e-02
-8.353221715209541154e-02
-1.668718650108774737e-01
-1.106724293058612418e-01
-1.100432394488124604e-02
5.067556902945957037e-02
6.083427175324516989e-02
-8.654469235692567597e-03
-1.065031058313646584e-01
-1.401280219175070618e-01
-1.319468777925203451e-01
-8.992587988962112699e-02
2.324140469524200309e-02
9.285205236494589731e-02
1.024189741106300983e-02
-9.065414274370350856e-02
-8.419147314685684891e-02
-6.088154805508334821e-02
-8.793274627667453658e-02
-8.533024736740331406e-02
-2.325466515139225018e-02
3.562009932436079745e-02
8.005413443657763417e-02
1.280697234710419796e-01
1.527393547587811984e-01
1.536250470448501937e-01
1.513660290020847066e-01
1.291442250763467636e-01
1.295616599399929680e-01
2.076390189646587503e-01
2.585978558074693012e-01
1.838651157798956992e-01
6.880424353405616145e-02
-4.490990480423069642e-03
-6.277971839227006190e-02
-1.142270033822617437e-01
-1.401620323558731007e-01
-1.728362677696042016e-01
-2.262397459115844667e-01
-2.457431984310895490e-01
-2.188019006131480815e-01
-1.859345991168133705e-01
-1.569150484065267581e-01
-1.404621722541710416e-01
-1.144802759002783304e-01
-1.675039824036003711e-02
7.570895869052637894e-02
4.750056517886534768e-02
1.003276060646927231e-02
7.674707390604400270e-02
1.313514174323550943e-01
9.521467271523186005e-02
6.313643278239688961e-02
8.161210277222233356e-02
9.340221800077959380e-02
8.066025944693178129e-02
6.578018733331002232e-02
2.104178750337602072e-02
-7.254607686762085117e-02
-9.938346018669266813e-02
3.431372433299778590e-02
1.509589838766134118e-01
8.034320476562353819e-02
-2.116603264762339023e-02
-1.351707012433474991e-02
7.064266770136058693e-03
-7.815100729937025925e-03
-1.221484625254332275e-02
-1.040462346163791192e-02
-6.849106235793815667e-03
5.614803555677268763e-03
-1.514807062310245638e-02
-6.612960089789399198e-02
-4.773293600634784251e-02
3.173803548596960608e-03
-8.885836540638063219e-02
-2.023728601666181237e-01
-6.951238786549947257e-02
1.375185880635864666e-01
1.321456589404815252e-01
4.072467184044724353e-02
5.697993193088937008e-02
9.900791034024844506e-02
2.055198597633727670e-02
-9.133462644614691317e-02
-2.663956486980255389e-02
1.165075484195223221e-01
6.642371782760983501e-02
-7.569052618816354827e-02
-4.862791026319134013e-02
1.485325172370043773e-02
-1.107956656833970904e-01
-2.286199985298111859e-01
-1.105352673118430301e-01
5.537770027871858486e-02
6.032410752479406418e-02
2.522154368235451222e-03
1.833354286797985247e-02
6.866844330974797295e-02
5.572275181044157588e-02
-1.578741777821815462e-03
7.161147671478642306e-04
4.602663654714172353e-02
3.313075307086097831e-03
-9.236293086188024359e-02
-5.930133285688339584e-02
6.620552366443230308e-02
9.557475266590693963e-02
4.882900744340930299e-02
3.555536462931871422e-02
4.157857194982798182e-02
6.193208630894037753e-02
9.240232618116563101e-02
4.979511332969354526e-02
-4.271745489283104019e-02
-6.334166118586281868e-02
-2.597425307454551829e-02
-7.432493326624566889e-03
8.982991950992903415e-03
3.115535795027454119e-02
1.844817789055988935e-02
-9.172201219219831142e-03
-6.901699444951423651e-03
4.663942886791920192e-03
1.537438410234718070e-04
-1.037236997232987047e-02
-3.072362042069715776e-02
-4.615945942601490382e-02
-2.206919253676144915e-02
-8.269763413872109614e-03
-6.559679129911970275e-02
-1.359154046066338162e-01
-1.607129604470351469e-01
-1.460960393710576399e-01
-7.698366599829643830e-02
2.284262784641486257e-02
7.672570574324771853e-02
9.942731621750197646e-02
1.278352177451281269e-01
7.051804433935414396e-02
-8.192768601429194220e-02
-1.284646706998767707e-01
-1.609207925351373997e-02
6.291315365482548494e-02
4.877284638220096002e-02
5.625831015191913587e-02
8.778521494554707150e-02
5.362009515137816651e-02
-6.757312686585413217e-03
4.070231182806551690e-03
3.390634866188549368e-02
-4.422270289870869342e-03
-4.938296251745775967e-02
-2.276716984782569536e-02
2.579361885221965675e-02
2.546751992911450505e-02
1.613395179252885558e-02
6.298771665231191197e-02
1.023809628273751882e-01
5.812201950409571355e-02
3.663867535583409558e-03
-8.386264657194476835e-04
3.179372267058300575e-03
2.898477962053117377e-02
6.521904840997085062e-02
5.490436036869988413e-03
-8.950174965796041382e-02
-5.761999692270541873e-02
3.688920204358435428e-02
6.534404845222704927e-02
1.302886479941590438e-02
-1.384275828207691406e-01
-2.801948440306027410e-01
-2.046189371586302208e-01
9.094707963937109438e-03
9.425357177623322480e-02
3.120746027201719980e-02
5.828124278566573085e-03
5.266996084919670085e-02
5.495145663667588831e-02
2.760773201572471955e-02
4.221730581798480153e-02
2.811248979648900762e-02
-3.025133332100665359e-02
-3.343937048815565777e-02
-2.864933878916519489e-03
-2.483341362155789753e-03
-7.387992851578033260e-03
-3.082940456641210941e-02
-8.180060544876693873e-02
-8.077973193066065316e-02
-1.505529521025275250e-02
1.260537484591434110e-02
-2.336552781534629100e-02
1.917968122166277198e-02
1.736564507747916652e-01
2.117422443426668077e-01
7.570661851665866360e-02
-1.149716284813608741e-04
1.181427416490628615e-02
-2.978598107129543787e-02
-5.416167848308234278e-02
-1.801104700526676150e-04
1.183454034809639996e-02
-2.942928952573235779e-02
-3.543405222042157049e-02
-3.221911639281296175e-02
-5.216150789183108399e-02
-5.564747272601312800e-02
-4.674520568352849570e-02
-5.515433210684627524e-02
-7.349377671306438209e-02
-7.339283584360438428e-02
-8.048921584342078744e-03
8.540140350499902944e-02
6.489423219633627671e-02
-4.229744755972850850e-02
-6.062632223373893431e-02
-1.680545072827936692e-02
-1.528008565932134286e-02
1.738484705570660788e-02
9.451398664416767181e-02
8.488216267176905416e-02
3.671033930748095198e-02
9.746815337698397363e-02
1.123870907432555494e-01
-7.596691024901942868e-02
-1.657389643586006656e-01
2.401233363501734802e-02
1.530580093450478740e-01
1.213765465202573390e-01
2.064461037566200641e-01
3.192810448259771894e-01
2.004439437760724141e-01
-5.992680828572823429e-03
-1.015072810196823438e-01
-1.376280533555969687e-01
-1.604319591537920198e-01
-1.673485561171411673e-01
-1.625346800306770589e-01
-1.081954158132713839e-01
-6.805250016731659302e-02
-1.600705764164307432e-01
-2.604613582994776966e-01
-2.002737503021687349e-01
-8.859805316436368539e-02
-4.215686759010635332e-02
1.801510191965778607e-02
1.093208690320358056e-01
1.341504931637162445e-01
1.154636402086124530e-01
1.491511866964452260e-01
1.613558913304409259e-01
5.580787048929274768e-02
-3.383540196582013326e-02
9.725140629251532998e-03
4.733960572600272310e-02
-1.692946335495047402e-02
-4.333697658391900270e-02
5.480165298236531340e-03
-1.690657490051360526e-02
-5.211657242546350460e-02
5.223336720414804846e-02
1.411685296737485995e-01
5.533626623470344619e-02
-5.053112171808073899e-02
-5.094067564254813052e-02
-1.242700007887008115e-02
1.538377768099068350e-02
3.814281151159149008e-02
4.762363909442977189e-02
-3.115063429733595877e-04
-1.109731649282048455e-01
-1.469426243034945012e-01
-2.018727893449578231e-02
9.287087008146281686e-02
4.919169865930078656e-02
-7.744104928965298701e-03
2.488295156795009358e-02
4.295520847929901881e-02
2.088359195298777199e-02
3.195118844827594257e-02
4.251863034511899758e-02
1.144806665421395885e-03
-3.439778847857887650e-02
-3.000579629707222223e-02
-3.352704278046134134e-02
-4.012080585846319880e-02
-1.525221885249881427e-02
-8.867579251475188329e-03
-4.375309142604811435e-02
-5.492648673379427193e-02
-3.978904382376961812e-02
-3.051915750045758324e-02
-1.348314421878616873e-02
-2.048177380435498712e-02
-3.307810592461285504e-02
5.549127348266039844e-02
1.498256405871718211e-01
7.788237094095948332e-02
-5.382010537203427147e-02
-9.546216238236338025e-02
-7.144574542050283195e-02
-1.160767458149926552e-02
4.075174811482160098e-02
2.459660157591301438e-02
1.724677878188433933e-02
8.640813856075990618e-02
9.169103488769698995e-02
-2.808726746350378306e-02
-6.330745073086063712e-02
5.284342457701727419e-02
9.160967280560548820e-02
-1.483976495019244564e-02
-1.017195411056859566e-01
-1.203957524734232953e-01
-7.214315695272305318e-02
8.337714985966755699e-02
1.754965062520861263e-01
5.218783637436195944e-02
-4.874241570503347332e-02
8.094587780192213228e-03
-1.124625632153462319e-02
-7.104608418965695227e-02
6.489780734458906741e-02
1.691894481476094447e-01
2.513898277527477909e-02
-6.849875786511490372e-02
-1.605676857361777732e-02
-6.945927117154671038e-02
-1.457660881755699633e-01
-2.627935587285988930e-02
1.433869284621243911e-01
1.260328415788918854e-01
-8.991758856774466346e-03
-2.886596680964680084e-02
3.635678490723995987e-02
-2.139031579557944263e-02
-1.423163713460033619e-01
-1.801029357636906303e-01
-1.934723840178222964e-01
-1.613147165623897150e-01
-6.424959260725854153e-03
1.204883662260697458e-01
1.014068060682820072e-01
4.912460843244442765e-02
3.990129132240791132e-02
1.897932152797113942e-02
-2.115282886679716035e-02
-1.767192166109936985e-02
3.299276198674637450e-02
9.098415680836899333e-02
1.149861268057618818e-01
2.817998376710282096e-02
-1.052987358789243544e-01
-7.391447231695727482e-02
7.531554853075406175e-02
9.659501061559037927e-02
-1.899345007525580359e-02
-1.010392173239478275e-01
-4.251956052438132100e-02
9.519800671961511918e-02
1.154738130650912881e-01
2.443670822372094598e-02
6.623045985661895133e-03
-4.762084550219976981e-03
-8.128116292450700275e-02
-1.705807656768216010e-02
1.411326301223929935e-01
7.704896531202026777e-02
-1.252269057386843909e-01
-1.362658034106033200e-01
1.967696627832852749e-02
9.899776109093527676e-02
4.506232394910220096e-02
-1.263539886878925489e-02
-1.846909029941896062e-03
-6.850077861213253044e-03
-5.728376458744127708e-02
-4.514906390320181512e-02
6.917083760299093734e-03
-2.517729987636389832e-02
-7.630617880487981786e-02
-5.481606177605030661e-02
-6.558475607091274195e-02
-1.238603025971658500e-01
-4.771792156117438122e-02
1.283994680696684265e-01
1.409695686441697071e-01
1.320493876243797327e-02
1.794407173390578578e-02
1.238825283228621593e-01
6.335296392215233885e-02
-1.006932226278048487e-01
-5.271196369480373595e-02
1.652959913092819921e-01
1.981653188430927137e-01
1.112132853991775958e-02
-1.171689888726237250e-01
-1.158832452931024548e-01
-9.986870292227249812e-02
-7.850096365053765846e-02
-2.927521876754420049e-02
-1.479078621010983079e-02
-5.187692868117625006e-02
-4.698161090043298516e-02
1.146059765862581133e-02
2.054637672657988814e-02
-1.522845024441738145e-02
-2.037398537921143379e-02
-2.948258427372606877e-02
-7.009363137151666812e-02
-6.080764680558242014e-02
-3.132200798970860740e-03
-1.354940822610476922e-03
-2.326770924796728313e-02
3.225581939312389956e-02
1.014557955055030436e-01
8.932006453639775023e-02
5.983630611374032154e-02
8.031293908093774248e-02
7.015715882624720678e-02
8.403275797162105404e-03
5.413910824151110801e-02
1.771798666530714772e-01
1.206052498624981262e-01
-3.640259825541816707e-02
9.362906584453961623e-03
1.721037186474770886e-01
1.824785626433263752e-01
6.136529006144478271e-02
-2.935151627630414387e-02
-5.887152440727311253e-02
-9.710960760073324149e-02
-1.714755921035728825e-01
-2.204588717081170657e-01
-2.169670125770151170e-01
-2.257269588515976311e-01
-1.995641235877018138e-01
-2.567292982213479832e-02
1.163937074572813507e-01
9.098801451657326234e-03
-1.455426158900449407e-01
-1.080533275340682248e-01
2.592225056658933185e-02
1.149620148256963875e-01
1.421859703374128703e-01
1.148103152858507003e-01
7.249285956516152152e-02
8.734045683627145173e-02
1.230324256096119451e-01
6.946233598568708756e-02
-1.903783677499768651e-02
-2.125420019114904538e-02
-4.066634832565581975e-03
-5.736057635063167293e-02
-1.015948168663779877e-01
-6.512576910017976728e-02
-2.873069719750796780e-02
-7.611251146598577155e-02
-1.013043754630860022e-01
3.327090262524547148e-02
1.756168451631094640e-01
1.175773197047327578e-01
-1.752487987232272115e-03
2.498582314739851429e-03
3.514369824314400592e-02
5.925064269482392849e-03
-1.823466554864589667e-02
-2.673219541787954373e-02
-7.434983356218628769e-02
-8.638510790856775146e-02
4.074738142596268098e-02
1.670710973136321775e-01
1.162430584179051096e-01
2.422168339648837765e-02
5.265641581507762847e-02
5.135844151780784295e-02
-7.376324514889347206e-02
-8.932229003459470074e-02
4.665340355021344032e-02
2.616999937121609540e-02
-1.400321717908303010e-01
-1.440639433986150575e-01
-1.830460012561571648e-02
2.668457583407900929e-02
1.299812602887907148e-03
5.870329705728622761e-03
6.388406955191033854e-02
7.335987868770407760e-02
-6.224626023170870548e-02
-1.807783641758043958e-01
-9.184092077927705211e-02
4.962676673079316481e-02
3.349761989185445765e-02
-1.686359566226360365e-02
5.579616135171430735e-02
7.924097831424629923e-02
-6.199424187872483449e-02
-1.156053814974465355e-01
1.230611884906801859e-02
8.192072819589803212e-02
4.290858709228549672e-02
3.078816867931515044e-02
4.878481884501015275e-02
6.116551477373413648e-02
6.165948997905296158e-02
2.133675249129041857e-02
-2.786455760963173212e-02
-2.942849455225505020e-02
-1.331537120809259643e-02
-8.387914821280692546e-03
3.883509867204915783e-03
6.768746198615278702e-03
-1.167954020949084001e-02
-1.821056368147537866e-02
-1.138444393096801205e-02
-7.760076233932534234e-03
4.833596783801025719e-03
1.077337335150452442e-02
-8.586708354042314750e-03
-1.223475089368968212e-02
-9.042610411432588924e-03
-5.740472712511650311e-02
-5.241561945275367146e-02
1.091402344057833401e-01
1.858044001173665694e-01
3.475937533065021068e-03
-1.128461339007070935e-01
9.980171214510565048e-03
2.604698267588134372e-02
-1.171281910774272100e-01
-6.530772739896475998e-02
7.196073144020265211e-02
-2.758323539472856689e-02
-1.257414761519310975e-01
2.748433336881822564e-02
1.537040419388307766e-01
4.243507212167235698e-02
-1.105875776804106370e-01
-9.496337977941993191e-02
2.584131585911433882e-02
5.158698118282188660e-02
-2.317214263045435513e-02
-3.230410015176143901e-02
2.077267109418088828e-02
1.308650676446159941e-02
-3.775104442514928133e-02
-6.078999519397589729e-02
-5.991659725687267790e-02
-2.927308728329392970e-02
5.407078824469593870e-02
1.033629525585613440e-01
2.942983374703601884e-02
-3.022928222209380136e-02
4.894249158404220812e-02
1.040423369697192901e-01
1.845351638764050964e-02
-4.511945865591510813e-02
1.655456060828167444e-02
5.331964473645973979e-02
-1.765133510795832000e-02
-3.697539493595337901e-02
5.538973512819531791e-02
8.433295912185553855e-02
-9.848186835470031791e-03
-7.034417929210837195e-02
-2.779948158091796392e-02
8.386404684995572498e-03
-5.534168293992214153e-03
-2.726406534766660436e-03
-1.243885095601661266e-03
-4.091062657425682120e-02
-5.421582095450630523e-02
2.370148623452810084e-03
7.920512861429074292e-02
9.287387238905021880e-02
-1.694507419578330024e-03
-9.795792784643486684e-02
-5.656281725224208967e-02
2.529708784411612704e-02
-2.475719141704171844e-02
-9.956064850599535831e-02
-1.871621253334337931e-02
9.467255471219736263e-02
7.051241705529878723e-02
1.107499972897659987e-02
1.525813953546877738e-02
-6.675097380505096460e-04
-5.373507871284891740e-02
-6.864664724661981299e-02
-5.042966620646421871e-02
-1.679208026090359433e-03
1.036172558172092084e-01
1.611693117653501817e-01
7.916452386095289284e-02
-3.062960434617117630e-02
-7.995489539445879701e-02
-1.135687302867730980e-01
-1.117180385913975893e-01
-4.084145390451261737e-02
1.935565537358656038e-02
-1.148749441345208420e-02
-1.036358281018881777e-01
-1.256778714997916213e-01
-1.764443543699927702e-02
1.009935859061508040e-01
1.322970578556564303e-01
8.449381727983421020e-02
-1.193625119584373027e-02
-6.883103815376429013e-02
-4.582809690229408539e-02
-3.517817633309405084e-02
-4.458383863458031948e-02
-4.457404022199493859e-03
3.540742058412368887e-02
2.516489901243487703e-02
1.539666675559200719e-02
3.547146940680741961e-02
5.570043217943970726e-02
3.443586572030905846e-02
-1.862546242247307970e-02
-2.939612160040539629e-02
3.560764009573874622e-02
1.296527037796579851e-01
1.950512391783629784e-01
2.011645657727094139e-01
1.632522833780269411e-01
1.337130408437419704e-01
1.182617624519270855e-01
6.026782337608853346e-02
-4.101209540011080401e-02
-1.132815011059283006e-01
-1.321583665012703579e-01
-1.279016774693745861e-01
-1.167396957898678839e-01
-1.241381684431104304e-01
-1.733742003179537805e-01
-2.237507424115166288e-01
-2.304294801190887310e-01
-2.005881384890967067e-01
-1.362045814970841151e-01
-4.896194937321918239e-02
3.650695810992934942e-03
3.592872130002053299e-02
1.283641523938194862e-01
1.968917663828051445e-01
1.126070713281670799e-01
3.242562861964806697e-02
1.143952978166587059e-01
1.703589043897107136e-01
7.940730822906091890e-02
3.490791508168317181e-02
6.076419093830838503e-02
-4.652171338112202903e-02
-1.920845575728864496e-01
-1.348677361840616429e-01
1.152363789974805708e-02
4.108197499232699862e-02
7.554807438463151392e-03
6.887329348812855530e-03
1.511773813506886791e-02
4.894240148664743065e-03
1.086681598422373045e-02
5.684310828191030396e-02
8.919552810483831473e-02
5.702360993979575798e-02
-1.238606010434255625e-02
-5.754236483070063191e-02
-2.884690176322017921e-02
3.916088774638740166e-02
4.741765162087575175e-02
3.709719480028470309e-03
-2.064227558709200508e-03
3.307187724762471193e-02
3.952950957017786066e-02
-1.508690967676714831e-03
-3.206736436455049494e-02
-2.965367865116261964e-02
-4.232184933456373255e-02
-6.851837090948577347e-02
-5.743576428976934073e-02
-1.688357828906240921e-02
2.399758963674510949e-03
-2.221806209061675044e-02
-5.886841139231183129e-02
-4.501771454522918159e-02
1.216300806828639683e-02
2.303167084524841007e-02
-2.228715716975758487e-02
-3.082889645452466243e-02
1.110938250187593242e-02
2.596855819167956381e-02
2.515176641108458899e-03
-1.038428188941573592e-02
-1.252098175527874280e-02
-2.154691738772502793e-02
-1.262396653681585774e-02
2.499618469943051119e-02
5.280157616472049009e-02
5.275022329736787918e-02
6.795148255677692373e-02
8.628084956472950595e-02
7.485872392473679610e-03
-8.873162603329559639e-02
-1.182196017158614748e-03
1.358462104980605045e-01
6.930024952902344437e-02
-5.918456042050976307e-02
-4.035244135384816189e-02
1.372502302909223149e-02
-5.040760503120612912e-03
-3.002234163057568642e-03
5.285970092846502960e-02
6.544612480959755008e-02
1.598839088332760713e-02
-5.819260431922964986e-03
2.056470528573983714e-02
2.079353514673431408e-02
-2.475177939099643121e-02
-4.634589203490600828e-02
-1.899312006213490361e-02
-3.793854507321972602e-02
-1.463990212512351896e-01
-1.931147621174026385e-01
-7.639471648015450089e-02
4.052410704335650260e-02
1.625204393535660541e-03
-7.213901932953369067e-02
-3.350999156757455966e-02
2.473018294952266521e-02
8.420678804083214092e-03
1.661308002621366547e-02
8.828063968300581266e-02
9.672714694051469386e-02
7.106128030534956258e-03
-6.033111064732804563e-02
-4.171260902876031129e-02
1.184006363545439186e-02
6.174730616393987737e-02
9.786200337473838218e-02
7.308877519511337850e-02
-7.850368722577336436e-03
-3.249575578090516809e-02
3.108534263217900204e-02
5.043913752107807846e-02
-3.459301614449190182e-02
-9.012791563372295200e-02
-3.714483475948378299e-02
2.309229344726195995e-02
1.822744727804049072e-02
-2.231666560250763001e-02
-4.861220515013951055e-02
-9.939041989463113028e-03
6.979402050299242377e-02
1.035196053196244803e-01
7.677957076594747743e-02
4.951968850140939932e-02
5.628657765037025501e-02
1.765307799477005071e-02
-1.261950056636321482e-01
-1.665404176598139774e-01
3.760314238713740459e-02
1.629678882824424357e-01
5.870371219488308701e-03
-1.018879747675067171e-01
1.610483175337881767e-02
8.164198637666139624e-02
-2.061299139933039579e-02
-8.748165440002368676e-02
-4.821297400087993373e-02
-3.278859392180202836e-02
-8.871323539027589633e-02
-1.113327878146607025e-01
-1.945347699105304598e-02
8.505470881659327187e-02
8.759521563515751397e-02
7.247355816033040909e-02
6.151837002243750602e-02
-5.637956668532877885e-02
-1.716534202999870085e-01
-1.302079114573258256e-01
-5.333509784749736193e-02
-5.055232035524639261e-02
-4.648006576029209413e-02
2.549638946908754089e-02
1.584364018478850722e-01
2.375173302678219855e-01
1.044610651005438984e-01
-7.898424785109783852e-02
1.928847293705128821e-02
2.204504894759921341e-01
1.478617347078896860e-01
-2.459964411456463246e-02
-2.527011388467962499e-02
2.597425256181514278e-02
1.550735319623633250e-02
-2.824096411039093285e-02
-8.916162564299578985e-02
-1.084038353569183460e-01
-8.276012138042473931e-02
-1.034291409880463836e-01
-1.320467286562050369e-01
-9.039364296483047567e-02
-6.119111867002222094e-02
-7.203416667142473195e-02
-3.053498143557447850e-02
6.286593386768728198e-03
-5.812620005181193261e-02
-1.095208392277883247e-01
-6.130190998068840019e-02
-1.837555947695387534e-02
2.052979053768022588e-02
1.448191596775494361e-01
2.299478879773147466e-01
1.659245475200678832e-01
7.682763049344674966e-02
3.468728143437915801e-02
2.387060004672608704e-02
8.451411076897556718e-02
1.626265798006708563e-01
1.572795225229361715e-01
1.418252597225323208e-01
1.770042103228649244e-01
1.368439330339181748e-01
1.305321234906004282e-03
-7.247630249542877379e-02
-8.931060015233645288e-02
-1.635945223614633515e-01
-2.324923432012016289e-01
-2.120730251217568807e-01
-1.680055701784217426e-01
-1.412149899312439005e-01
-9.823523006580267558e-02
-6.164486624370493772e-02
-8.079432763756992653e-02
-1.121722224835106640e-01
-7.460744837670092722e-02
7.850208243044415335e-03
6.442472669432527943e-02
9.394403064323930685e-02
1.121662965587915395e-01
1.129108470325042302e-01
1.081682059196679840e-01
1.217931743621259583e-01
1.373750341570350586e-01
9.845533185337596027e-02
1.162676073768824370e-02
-4.664475896149794520e-02
-6.865394064137428365e-02
-9.246421380577596327e-02
-8.755837889874409918e-02
-4.020829990378895630e-02
-1.759412985745718166e-02
-3.430928572984124486e-02
-3.223146056118631614e-02
-8.241375041515990735e-03
1.047626083359103066e-02
3.462883266517208930e-02
4.918966408652421241e-02
2.691100440742234812e-02
8.503306358939224235e-04
2.137247674621718836e-03
1.260331719075618098e-02
6.466325114574744855e-03
-2.840153765120763049e-02
-5.396173733899368996e-02
-7.469118871283720804e-03
6.117215395351867369e-02
4.272118067283470905e-02
-2.808694306609280968e-03
4.089437148926355903e-02
6.267014979205873249e-02
-3.337060967239915965e-02
-5.835923131116523693e-02
5.246522274121331875e-02
7.035215677024043990e-02
-3.527216976382687580e-02
-6.667550236088526372e-02
-2.333640525837851754e-02
-2.384519658840702355e-02
-3.876277658509793417e-02
-1.606476712330499185e-02
6.220122581700880844e-03
8.531668985766460711e-03
-1.351164701724902762e-03
-2.722572692375800282e-02
-3.592140110330398206e-02
-5.441397687084906926e-03
8.933981205649763405e-03
9.839325235704268063e-03
6.498264364017176942e-02
7.242181744997101822e-02
-6.727341636115324874e-02
-1.427013242905406931e-01
-2.185535371410186889e-02
8.205288264633696371e-02
6.513150712216118909e-02
4.940802350729421588e-02
6.859462548367571688e-02
7.860528392584130442e-02
8.013212192343044382e-02
6.414502060859440802e-02
1.454704203591444117e-02
-2.343014768050782903e-02
-1.440164431700345291e-02
-1.161521697387322624e-02
-4.297954943703774511e-02
-4.971826404345520978e-02
-2.021792315813459098e-02
-1.102755088136152944e-02
-2.554358397495239477e-02
-2.652318672685320677e-02
-2.187836169338829018e-02
-3.932285750000071717e-02
-7.659739446619619196e-02
-1.050442730154763082e-01
-8.365367298927653406e-02
-2.429023062580631248e-02
-4.738654262259155495e-03
-2.397594685486440294e-02
-3.189620861894875564e-03
3.311357511577225909e-02
1.153979193093980851e-02
-1.959956009358449630e-02
-1.336639422561869753e-03
2.700962243873058014e-02
8.093408659547407513e-02
1.686182605277362356e-01
1.262474694054636082e-01
-4.233408283041326103e-02
-5.612359388501047402e-02
8.329085138009550970e-02
1.000965894035242693e-01
-2.595320873890333280e-05
-4.440200972852621775e-02
-5.583432859670876824e-02
-1.055372708214662031e-01
-1.506361077274104843e-01
-1.200961886713120680e-01
7.321152180946812263e-03
1.233837608352754411e-01
7.258146637608764440e-02
-5.888041546520672576e-02
-4.686568178222885739e-02
6.723649009303948876e-02
1.078143734788729879e-01
9.056831624906898359e-02
4.687440239451144686e-02
-5.742735471563405886e-02
-1.177519303544159596e-01
-5.232141409689890221e-02
3.935169643972474818e-02
8.369998483581048143e-02
7.171625548694891827e-02
2.774061445357453581e-02
5.670246061950549865e-02
1.253337914241710871e-01
5.028197968179938526e-02
-1.126200572221737889e-01
-1.313840731500626746e-01
-1.820931835696146944e-02
3.442276128289267073e-02
1.012166339223507898e-02
2.144342637135299851e-02
2.670810507904377434e-02
-5.203111243149395604e-02
-1.010191027178602569e-01
-4.334751650889298591e-02
-1.308521382852977609e-02
-8.388630426227962344e-02
-1.231036141595158034e-01
-4.528318862064564798e-02
2.449134695956640961e-02
-2.493657095825555642e-03
-1.078437576231839820e-02
5.914751782207535585e-02
9.608111007239021617e-02
4.673518894172137839e-02
-2.516332895557222768e-02
-3.800774733322453969e-02
4.126676318749047251e-02
1.008504974056587955e-01
2.304722659217628422e-02
-6.601331493144300955e-02
-4.511002624630044977e-02
-4.112742372462604989e-02
-6.409043219620494392e-02
4.104413483329416579e-02
1.557362727255914570e-01
7.052727256053861749e-02
-9.873340926092975811e-02
-1.530729150083027235e-01
-1.045399288957115647e-01
-4.035926044704881560e-02
3.094243330791569477e-03
-3.227473852524423252e-03
-4.902305858963838109e-02
-4.775417848914297742e-02
1.793180151352260707e-02
4.978488428275024830e-02
1.868063181344529686e-02
1.081494363817812887e-02
7.850268734669499371e-02
1.534298102065836389e-01
1.411472454948162203e-01
8.773762192016662520e-02
9.793755523581060274e-02
1.376112758237973688e-01
1.372986289809650928e-01
1.260844466003372411e-01
1.264322974663314725e-01
1.023403600937884822e-01
3.370204548600583966e-02
-5.031700517660465943e-02
-1.104517635388205798e-01
-1.528633205062237266e-01
-2.082881568188332810e-01
-2.539231249575494842e-01
-2.329238237300294001e-01
-1.546162592025203952e-01
-7.817120366506181972e-02
-3.376995879992946564e-02
-3.443371723645935467e-02
-6.136061108690273741e-02
-5.099846611339310665e-02
3.991921575308733650e-04
3.377519111713239708e-02
4.163693808209972813e-02
5.188371338874964850e-02
6.580905581722261422e-02
7.581727333401577784e-02
6.851565225967154449e-02
3.581656452251066880e-02
4.007271132008333701e-03
-1.470215160198682855e-02
-3.179733655836221307e-02
-2.118000636411528775e-02
2.104633896364046033e-02
3.664236683321268201e-02
3.786345138257483228e-02
7.298968842574206362e-02
5.934757142130462487e-02
-2.996212027254527635e-02
-2.928600977642959596e-02
6.863525944017988267e-02
7.577924693226215092e-02
1.149616655111023421e-02
2.026285034127925030e-02
4.473363190150650426e-02
-9.502396980638195406e-03
-4.795494582745877393e-02
-1.877963528200028709e-04
1.685241661765376348e-02
-3.458564563741300252e-02
-1.480698705198533506e-02
3.034257080742336354e-02
-8.178555226888030438e-02
-1.879306532228606774e-01
-5.148390792872026972e-02
1.145436895609933808e-01
6.268829169958256564e-02
-7.823619161210301765e-02
-1.270307770146339998e-01
-6.900624507354978510e-02
1.650460486527910095e-02
4.064580501770730103e-02
2.237160267572901526e-02
3.881874682327726006e-02
8.087508008673491289e-02
9.407674961589440610e-02
5.736091867168627290e-02
-1.167495615528598221e-02
-6.020149047376085333e-02
-5.211110974149582575e-02
-1.365888729210401088e-02
1.547994513936856893e-02
3.885293744538530908e-02
7.389525203164470923e-02
9.266487063093443999e-02
5.368594028219739189e-02
-7.375405255062949736e-03
-1.534100561106483025e-02
1.473438100739692634e-02
1.710775411004197485e-02
3.548328801930659146e-04
2.061195055103405387e-03
1.834616247027384336e-02
2.161593189877275903e-02
-1.475008550591296735e-02
-5.673252144558640214e-02
-6.833878513032673463e-02
-1.168030456125824235e-01
-1.886648911300726483e-01
-1.480675708950243141e-01
-4.330348989516602520e-02
-2.967398877422013082e-03
3.811730769427042892e-02
7.249665280232092668e-02
-2.112850949551837651e-02
-9.427818460145470647e-02
2.599579908941811873e-02
1.403400260922416931e-01
7.272463036930201796e-02
-1.076271581363219022e-02
3.413784870739983157e-02
1.033898500312280394e-01
8.613754895947410561e-02
2.580192323545378585e-02
-5.165489973361780604e-03
-1.548585359756451951e-02
-4.243041575970891988e-02
-7.330115387685252892e-02
-5.901247059020624242e-02
-1.888158327343026147e-02
-1.937986596087841809e-02
4.326256662192490623e-03
9.070504888148168965e-02
6.548584132202196761e-02
-4.351285582730056445e-02
1.015124043024293911e-02
1.184498945573106282e-01
6.978980372873545834e-02
-6.332366776853043562e-03
-9.439181870079886225e-03
4.570042971541923155e-03
5.119086061443902519e-02
8.270154233341249495e-02
-4.700391500414314964e-03
-1.572259942506763208e-01
-2.265992974738388899e-01
-1.181558582232275223e-01
6.846062048540237088e-02
1.042468474263099631e-01
1.137966954579441511e-02
6.377302159453202002e-04
6.579657088769207129e-02
6.956379754528704829e-02
-1.158273211384601604e-02
-9.110222176111745784e-02
-5.177775693941049501e-02
6.995698978673273172e-02
7.758197990974610714e-02
-3.546853137452636584e-02
-6.936520403554034819e-02
-1.392720243870999158e-02
-1.937134109619274500e-02
-8.026412360873259877e-02
-1.105925516141403331e-01
-9.885083968302345314e-02
-2.856245239277581047e-02
9.179700691163392157e-02
1.499184170348012990e-01
1.075578729469118811e-01
6.871025920660810138e-02
3.988933654001779877e-02
-2.177093534405292671e-02
-6.758708093977938702e-03
8.601105010970665210e-02
6.274179671612385711e-02
-6.352334335008992527e-02
-1.173661419850302728e-01
-1.003464475976846848e-01
-6.690140529851479334e-02
-9.263030218279833666e-03
4.094927455430868307e-03
-5.878096442266894650e-02
-7.951419671831963520e-02
-1.623353228477592697e-02
1.349426875475183765e-02
-4.306549765155711501e-02
-9.061218427474249104e-02
-4.430825156945791821e-02
2.889597610090872265e-02
1.451419191731267294e-02
-2.487686017732072818e-02
1.925560820822009439e-02
7.347844361208889785e-02
8.202377575603382598e-02
1.057041433242271455e-01
1.413880676458312280e-01
1.743971966278836661e-01
2.216662102819741686e-01
2.090775085359626029e-01
9.130974356490956234e-02
2.302921725004887857e-02
9.765715680592307324e-02
1.140291715113845861e-01
-3.352636097178890440e-02
-1.417825409180211715e-01
-1.327969578459654021e-01
-1.336228787072773205e-01
-1.595069904657137050e-01
-1.663078229030137689e-01
-1.679168201459356469e-01
-1.565504049189233027e-01
-1.291025243003013356e-01
-1.086649266225366284e-01
-7.876997141479734343e-02
-2.863425064230419592e-02
9.283189183952135493e-03
2.436288949790871294e-02
2.922647142481325788e-02
2.559515288531057087e-02
2.251612365027167578e-02
3.729144357365708068e-02
6.856993373300590555e-02
8.978605335516254282e-02
7.755562907352508972e-02
5.734999076307811805e-02
5.695632629432667571e-02
2.896406926219690856e-02
-2.569363611449091561e-02
-6.599084211426804736e-03
5.843198876267757802e-02
4.840171031389592371e-02
-4.993786768495951829e-03
-2.763436741134029512e-02
-3.680075702988382103e-02
-3.118617216129176972e-02
-6.592784213152734149e-03
2.324477554671067030e-03
4.736464250310538915e-03
1.160764323156593739e-02
-4.029028941336641051e-03
-1.750642149876554046e-02
7.710644875151466057e-03
3.971660888631014380e-02
4.804919538911265470e-02
3.132854452817115248e-02
-2.588818666111883035e-02
-1.023105249291647034e-01
-1.079508342903438139e-01
-7.578760080070554711e-03
9.264686194907834071e-02
8.652903211964013686e-02
2.018793654346532490e-02
-5.919024135878961888e-03
1.565563682854997918e-02
3.486773528885225848e-02
2.388974893518682960e-02
-1.076981150474863591e-02
-4.088437164773016386e-02
-5.130167389899026320e-02
-5.328302704106221976e-02
-4.615239105205560383e-02
-2.324686141868664499e-02
-7.145730427144923042e-03
-1.247011604310935620e-02
-1.918569983490822639e-02
-1.844401425411077919e-02
-2.008425916048669352e-02
-8.142847254523553208e-03
3.297467110878442298e-02
5.171152137678976940e-02
4.586804138134763925e-03
-3.380873182020977669e-02
3.179829169800545488e-03
3.994509200009530719e-02
1.370593378465954394e-02
-1.266028382015449601e-02
6.087374356491281370e-03
3.905379717196537370e-02
5.832574479278673785e-02
5.415024251916691206e-02
6.094259185438487963e-02
1.032145272703135774e-01
7.214953127410239642e-02
-5.797792056814144585e-02
-7.946224260057355160e-02
4.384869139662705972e-02
8.492511793984221236e-02
-2.447554843504076705e-03
-7.289524214360146304e-02
-9.454907539427906404e-02
-1.121612325807719440e-01
-9.594224811520854490e-02
-1.134317871708290758e-02
6.463491040024176015e-02
4.141088383911595977e-02
-1.758761051428744254e-02
-1.581004789448765130e-02
-3.527734409050302389e-02
-1.463320671517469862e-01
-2.115342854484255908e-01
-1.485312782595845094e-01
-2.639944483817642518e-02
1.020838079195589831e-01
1.553606808537406347e-01
9.622461014757473230e-02
3.970867183300061387e-02
4.052606648719629667e-02
4.180928979065599849e-02
4.281509910374024785e-02
6.858209899700599965e-02
8.249078861157307929e-02
4.618727945000051377e-02
-1.483348324535412391e-02
-4.852754399098024862e-02
-3.344579620933121888e-02
7.050024837409303580e-03
1.408132553544415300e-02
-2.861736870123375923e-02
-2.517244023627229765e-02
6.276759452617219903e-02
8.584181154433129235e-02
-1.239197237314748276e-02
-7.445147166554963447e-02
-5.101988325298631444e-02
-3.108447421228456575e-02
8.961570548861037648e-04
5.517488093546338984e-02
2.655665654619304011e-02
-5.281554324240860659e-02
-3.372411824646526224e-02
1.752449934522651645e-02
-2.143558017720512132e-02
-5.198658241524019979e-02
-1.085764387001138601e-02
3.073361033953013466e-02
6.870381726715495130e-02
8.582735022161633309e-02
3.254093216191481647e-02
-2.934084455333231534e-02
-4.517257636963759038e-02
-4.207287301690907505e-02
-3.690305613446144203e-03
7.615310885196829860e-02
9.133800025800606348e-02
-2.092660701961173569e-02
-1.252916570019997899e-01
-7.560135915995462585e-02
4.866469656865643478e-02
7.736516434673991471e-02
-1.077037898212845901e-02
-1.030470282375312019e-01
