-2.621298169266479336e-02
-3.418773443657619274e-03
2.197700583400969375e-03
1.409074488668007712e-02
1.878785681817187261e-02
2.212498248526980835e-02
3.282918572354119602e-02
2.440151968446856862e-02
5.286809040544179078e-03
2.038619496874929937e-02
4.560615711899856928e-02
2.849798244713004983e-02
8.647957045234550000e-04
6.266685477959221817e-03
2.932322614858459686e-02
5.894392155290634205e-02
7.556864464482215826e-02
4.319068385414068234e-02
2.634502779222761340e-03
1.889129591980750339e-02
6.403696377870603251e-02
8.908075871968824944e-02
9.089681777529586004e-02
7.224842612039532319e-02
5.089460422784642529e-02
4.411581824398162766e-02
2.261105079938328932e-02
-3.726272325591837437e-02
-1.187389115721577959e-01
-2.005536614133212603e-01
-2.431885773347515767e-01
-1.978361845870128255e-01
-9.983485587838761277e-02
-5.231859329716728735e-02
-6.795272874932507812e-02
-5.721133282845864559e-02
-6.022917865633296841e-04
2.705240342791648267e-02
9.340722770354095705e-03
5.388951812087851290e-04
1.181001251095041560e-02
2.499810858766825586e-02
4.814678327836464933e-02
6.638591159546050613e-02
5.403644958764176887e-02
4.652415723002843034e-02
6.455647497264555001e-02
5.631080395658472765e-02
1.796324499058520388e-02
1.138487695426043493e-02
2.998767549196920679e-02
1.443739580429478225e-02
-1.901061574439920354e-02
-1.631796837776830489e-02
2.632075398468415595e-03
-2.761201674417471975e-03
-2.090265200466032147e-02
-1.716363269422135907e-02
1.764607585509825327e-02
3.201145998560994688e-02
-2.653339885455195061e-04
-1.870458860593867539e-02
-2.342610143760710112e-04
1.431199012539436516e-02
8.655556325632966785e-03
1.036014742050656197e-03
1.028009165911110412e-02
1.934510566523323788e-02
8.363814265770182568e-03
5.960872592144922377e-04
4.410584551121319967e-03
-9.708903800473163946e-04
-6.658411497788297925e-03
3.099233800055038561e-03
8.826663765300250472e-03
-7.313032733914676120e-03
-2.586983567685218269e-02
-2.619649685789067484e-02
-1.822178863686195471e-02
-1.006265148893629134e-02
-8.124609614007004613e-04
1.425963858291858736e-03
1.327415172960729264e-03
5.243392915794934175e-03
1.242519757232048855e-03
3.527710349888910253e-03
3.201179015029408104e-02
4.500596407595135878e-02
1.853500388675478200e-02
-4.272625532558240943e-03
-3.302704550678291218e-02
-9.093857502295657480e-02
-9.624904630517042148e-02
-2.504137223269711082e-02
1.054939869409812422e-02
-9.865985378350837498e-03
-7.141943484780375120e-03
1.561302938535710783e-02
1.954748597401900073e-02
4.259729933382382094e-04
-2.506438505091156468e-02
-1.042153283099733589e-02
3.062209495561969350e-02
2.911219661284738733e-02
1.759104278655121423e-02
5.017476472786926156e-02
7.118783027736798330e-02
3.946478847021765712e-02
-1.623713299582987043e-03
-1.296987677957129638e-02
7.045114313538351422e-03
2.978983029543490202e-02
1.581722328696929386e-02
-2.764856960956905627e-02
-5.811048200475187747e-02
-4.784434674501476803e-02
5.427508516834077430e-03
4.143604239287220631e-02
8.514914625168493525e-03
-2.647897607102069756e-02
-1.881218582843143666e-02
-2.480234742188494601e-02
-4.718034871276768905e-02
-3.661055355410019335e-02
-2.100613171742935284e-03
2.225741428244326983e-02
3.058269052062433796e-02
2.355600865897440957e-02
3.784624055405703784e-03
-2.176014463837209947e-04
3.017902951586576288e-02
5.718966174069715913e-02
4.661754478504540750e-02
2.472212173915613181e-02
2.441031985855425870e-02
3.356174908002632767e-02
1.441400275307188651e-02
-4.238592491458038208e-02
-9.424725689767365910e-02
-9.902187808376967937e-02
-6.783841512320484823e-02
-4.389609193184067920e-02
-4.344977940174906544e-02
-2.910016809378879882e-02
2.973804432479256604e-02
8.150124262738626946e-02
7.211727413978719081e-02
5.452996884828267832e-02
7.685956270894347964e-02
8.182579224898446635e-02
3.310691461768887345e-02
-2.946989902710812556e-02
-7.531805774597070957e-02
-8.393075017336520949e-02
-4.268144476046119296e-02
2.561111608565448498e-03
-3.167510688128084145e-03
-4.142813873209681697e-02
-5.018670028071352957e-02
-1.000410593961810306e-02
2.755559324959498679e-02
9.150484988780627216e-03
-3.940983930354527431e-02
-3.961194024861326712e-02
1.937246483253816237e-02
3.770339123207196164e-02
-2.212847421734687875e-02
-3.567032924008968486e-02
5.126547093197156985e-02
1.197790298076583104e-01
9.858737765672342945e-02
3.638853279677609770e-02
-7.362082034956347540e-03
-3.286013906059707945e-02
-7.982223977378193058e-02
-9.977197736663159788e-02
-2.347187698085088925e-02
6.025885961046546085e-02
6.803128522418919188e-02
5.176071942740482351e-02
4.243252757625438909e-02
2.621816050591387059e-02
9.185230628510574272e-03
-9.726371334674313585e-03
-4.035263047160997374e-02
-6.183818659328577105e-02
-3.348588633214900218e-02
2.124120433527720841e-02
1.975864987378258414e-02
-3.695186727533791154e-02
-5.595526032447241394e-02
-2.046718386560313768e-02
3.044464148950984991e-03
5.438888431353070679e-03
1.236015019474129978e-02
1.777369158437371033e-02
2.000996188598832756e-02
1.667765158436314982e-02
-1.000580005718192111e-02
-6.637370917631427170e-02
-1.074738681059556888e-01
-5.092979708476236267e-02
4.970339757530875535e-02
2.952891026720364312e-02
-4.147738348907537009e-02
2.985155744094629762e-02
1.233176464335742212e-01
5.861064742425971946e-02
-3.245644194892662038e-02
-3.289056420147865034e-02
-2.316656720848266071e-02
-3.447129048283020109e-02
-4.120650196997253933e-02
-5.231277254716182323e-02
-5.283084418205368643e-02
9.848284512197371873e-03
1.273667882444744215e-01
1.747509215473463662e-01
1.102467899857068612e-01
7.195155728846927556e-02
9.784641287513613783e-02
8.117207407545179443e-02
1.706487550805838027e-02
-1.250695171422706170e-02
-4.519366792682763534e-03
-3.159026433785069865e-02
-8.942977392505550849e-02
-8.186098203314062793e-02
-2.848924125933152696e-02
-5.408683533998366599e-02
-1.279037969360014571e-01
-9.629678041926414966e-02
9.578322011882628786e-03
-3.052750852548000854e-03
-1.043204038338989142e-01
-8.272277896783401807e-02
6.577929838273275168e-03
-2.477824083788524728e-02
-7.747580116612030887e-02
-9.181752956565342183e-04
9.213054448131552387e-02
7.821444894256207592e-02
1.974159536285651287e-02
-1.437205978963094176e-02
-2.590074452664353766e-02
-5.339507087015787218e-03
3.294656858210322919e-02
4.163911263535288731e-02
2.988825009787288850e-02
3.758201462917302310e-02
5.017127432187048347e-02
4.953539323444906828e-02
7.096314985168142297e-02
8.168512340612452127e-02
2.528792759710583697e-03
-6.842872017385628891e-02
-2.027982315434229479e-02
2.714369266454328550e-02
-3.984556581713262838e-03
-2.412692516427682177e-02
-1.996003111043929967e-02
-2.558755619196052475e-02
-8.453963666312392516e-03
2.515685788047051022e-02
2.386473839206463762e-02
-6.199297096046328323e-03
-1.952675882145276515e-02
9.034363394176793752e-04
2.545696764218397315e-02
1.951534062261536806e-02
4.707576715091994074e-03
-6.055668037578857722e-03
-6.024488740220376726e-02
-1.112357430721088725e-01
-5.408605114891919252e-02
2.393356497643227623e-02
-2.005029672807398522e-03
-3.881399847880908499e-02
1.373480371792066591e-03
4.371219988307398219e-02
4.032456732877919003e-02
1.594744645355522863e-02
-8.653664498024448218e-03
-1.040288621109235548e-02
6.186685055454898413e-03
1.076005697462884686e-02
8.694581222982833424e-03
1.017560902581193631e-02
5.024325446806389255e-03
6.946001815857051013e-04
-7.659060413655414262e-03
-3.416294163323124050e-02
-3.782414782288177207e-02
4.239639111065381626e-03
2.784833027917619358e-02
-3.304176884527647122e-03
-4.013525240324399695e-02
-2.909956306383333635e-02
2.649563413792952252e-02
6.071181973985659286e-02
4.612884407637892620e-02
3.393434789190457462e-02
2.457720864022395688e-02
-4.442872102701865729e-03
-2.063487528900423071e-02
-2.397977150013275854e-02
-2.511367415422637375e-02
-3.951590210152529543e-03
8.720106915626376839e-03
-1.566623377248441834e-02
-2.273060245724134454e-02
1.558725844086982643e-02
3.780399544889861962e-02
1.113700568451878557e-02
-1.147148720105199606e-03
3.696627495893466814e-02
4.101561038904225770e-02
-2.649786224934767148e-02
-4.356312404661073778e-02
3.004887923185468185e-02
4.641511401436999862e-02
-3.203003777872829444e-02
-4.803147567847351057e-02
3.699000110139970265e-02
7.546077272976380035e-02
8.088358373390908823e-03
-6.447013109936323982e-02
-5.157657011210327325e-02
2.818769553785838849e-02
7.146602627699734367e-02
2.696984919173503817e-02
-9.563286154410009787e-03
1.847567600506164892e-02
-3.881620857226556354e-03
-1.061421461216855711e-01
-1.283587995364232903e-01
-2.830882424061323746e-02
3.145279347593032265e-02
-3.959765499501334551e-02
-1.194970991248780340e-01
-6.797163292681508706e-02
2.816184936524663077e-02
9.156637790144906558e-03
-2.727298090405662692e-02
6.912487962871212421e-02
1.497846219453786709e-01
6.267860173698981685e-02
-3.205689572240567886e-02
7.752711610765950639e-03
6.113681926122405824e-02
1.750013830827198968e-02
-3.983498193116667002e-02
-3.164209693763235520e-04
7.955612070016800097e-02
3.836725501585478565e-02
-9.758455738864561801e-02
-1.066417879182310624e-01
3.287667263442569515e-02
1.064660479444624053e-01
5.117020592428297987e-02
-2.908246612744773939e-03
-1.277416684824919657e-02
-4.698213798941724972e-02
-9.297050301464167277e-02
-7.528844889718173949e-02
-1.174381403568738706e-02
1.523739518592174408e-02
-2.895434683511097576e-02
-8.671566856255277789e-02
-6.366628606581641037e-02
3.257694968342621233e-02
1.047063555734768781e-01
1.306176937195031584e-01
1.446503047632845818e-01
1.086030640820752902e-01
2.299041502872614662e-02
-1.340944176442632543e-02
-9.303549229989282326e-03
-2.527737825815171840e-02
-3.260079867442434998e-02
-5.884684789010767580e-02
-8.789366544444056351e-02
4.758763860023313905e-03
1.015803214855739295e-01
2.542343397990492679e-02
-5.334428417439568415e-02
-9.362847794404577373e-03
1.264543623607688842e-02
-4.911367758718795939e-03
1.627154904006018407e-02
7.945896456571083927e-03
-5.626194845778815373e-02
-7.749734044143943845e-02
-5.485260316932337454e-02
-6.753640179926810594e-02
-6.930920461599930638e-02
1.857091346921851613e-02
1.034442165842459904e-01
6.042996806405499105e-02
-4.881556580719668970e-02
-9.368900029277410502e-02
-6.636102553187765707e-02
-3.682196269163157815e-02
-3.433694906816283504e-02
-2.602728203553702352e-02
1.250440425153692345e-02
3.695283248754339944e-02
1.066016994219616196e-02
-1.865779122917976193e-02
-5.494547956348806370e-03
2.849591753827015322e-02
5.818024216883906086e-02
7.890521796838517732e-02
8.492664046192219263e-02
8.855723118204947286e-02
9.647061907855114526e-02
8.365447099081155247e-02
7.297676939943500973e-02
1.160535150520712322e-01
1.461429642223375236e-01
7.815426892412825899e-02
3.309855485686272886e-03
4.997832532293768754e-03
-1.451433437385487440e-02
-1.014759925789303491e-01
-1.606274087335724798e-01
-1.581156666252206411e-01
-1.423213874838628323e-01
-1.388468930473823193e-01
-1.411891573279125400e-01
-1.213420214028426286e-01
-6.051622210184107870e-02
-5.863679476198015161e-03
-4.046530131077349934e-03
9.996795089775786791e-03
7.065455137217485637e-02
7.284982434700502940e-02
1.633025567725592681e-02
2.637297374604236425e-02
7.976744717993526634e-02
8.068463904305608891e-02
4.602509355986925121e-02
1.593516211390605744e-02
-7.031297206849780948e-04
5.567061194837413449e-03
1.950330086155499520e-02
2.199635060398947434e-02
1.584688887971553301e-02
1.191645037057359642e-03
-7.598955147564763479e-03
9.290390969580342162e-03
2.791856068222301618e-02
7.591482880993250665e-03
-5.463201581023955505e-02
-1.064350736274839032e-01
-8.802999616008924666e-02
-3.420807127001435077e-02
-2.474787605715190325e-02
-2.718171847168409511e-02
2.571712346317830966e-02
7.436077358169632112e-02
4.767490519444787800e-02
-1.466415547391759083e-03
-1.445114350820685296e-02
-4.047574610238649506e-03
2.205627047993118442e-02
5.348153693708111028e-02
5.039051647427996578e-02
1.537668785249805131e-02
-7.342934349752534839e-03
-4.906428072715407485e-03
1.190489238290884377e-02
3.134008195820325859e-02
3.640320080277973519e-02
3.004466336416388231e-02
3.638892086246905272e-02
5.332128038062647346e-02
3.713170343835472953e-02
-2.540670530814081660e-02
-8.875006317113402765e-02
-1.324278505969760933e-01
-1.429371576604439587e-01
-8.489349039851215584e-02
-9.512005479995297441e-03
1.017816775506440868e-02
1.547045510201960558e-02
4.096578781013129888e-02
4.468251990817589947e-02
2.208819060513197985e-02
7.421711275321955445e-04
-4.683345692924609401e-03
2.649116242080092748e-02
4.479532177672821552e-02
-2.477001456078184796e-02
-9.001164986352688802e-02
-3.448238590214496718e-02
6.703438697853121575e-02
1.127201057796306805e-01
8.659846036805235459e-02
2.281858577351116892e-03
-5.868597927003978837e-02
-2.506424471936984436e-02
3.245971951139715872e-02
3.510502684432590531e-02
2.381405812574704031e-02
2.925936706671031229e-02
1.784959284796965376e-02
3.089367046636759865e-04
-2.041281658456756826e-03
-2.084692139743457226e-03
1.882782260819084591e-02
4.198849228982153708e-02
9.202789104110757623e-03
-3.695484743896090135e-02
-8.388551707956969083e-02
-1.986982755024295499e-01
-2.429455134138112926e-01
-5.154569522310899904e-02
1.565866023456730094e-01
1.337013789607260916e-01
2.567157656087390438e-02
4.849899067113399437e-03
-2.022589955096238193e-02
-9.534780311123831897e-02
-9.655276298432582949e-02
-1.333398951624398601e-03
5.813001689798370786e-02
2.215785835735969295e-02
-1.312197986907889455e-02
2.267243770585307405e-02
4.622507689243256224e-02
6.536798145140987684e-03
-3.474271097244769659e-03
4.173108311652975327e-02
7.869288462173690268e-02
1.178012814104499734e-01
1.362989016274831766e-01
4.167876685457178737e-02
-9.478956621039079378e-02
-9.097085989845285492e-02
2.771346099138568761e-02
5.503367452419982708e-02
-5.868200327624532864e-02
-9.985756755501254411e-02
6.813315269702480137e-02
1.742058190377800686e-01
-3.878294168575752154e-02
-2.538273390647476369e-01
-1.379015981727348406e-01
5.311862716886108643e-02
6.944229805870197336e-02
5.070232017085686549e-02
5.247338583240699489e-02
-2.469836367160400600e-03
-3.647239534140050282e-02
-2.394237955903235487e-03
4.045598715800982799e-03
-1.924595519944228769e-02
-8.495970995036411164e-03
7.696773021084146217e-03
5.698687310381677848e-04
-1.551774344255505388e-02
-4.547540400491814627e-02
-6.419929806657459492e-02
-2.694070141111843189e-02
3.992468078273760795e-02
7.699334825911710589e-02
5.873203735450237273e-02
1.057523757951377499e-02
-3.250656156680334277e-03
1.237949994049409447e-02
-2.136841301785507435e-02
-9.180753842299947676e-02
-1.115347075321708736e-01
-7.088604213641377938e-02
-2.771607074526467873e-02
-1.995347624438099238e-02
-1.901538831695887694e-02
2.282598872794713504e-02
6.548790153503741829e-02
5.124992242194341407e-02
2.476392573506993808e-02
3.215537893070859882e-02
4.492705857095664196e-02
5.109716480709920738e-02
7.236117692324758877e-02
1.091425867609950445e-01
1.412365230873063593e-01
1.402086393113466944e-01
9.763617017635810302e-02
4.734555541900907494e-02
6.311376382499383347e-03
-4.170968311980864651e-02
-8.577824396083076619e-02
-1.053535181201862153e-01
-1.047777940409352071e-01
-1.064953421875951961e-01
-1.236456317432566565e-01
-1.042216084389645803e-01
-3.417003893699228911e-02
-2.689951974518479255e-02
-9.315233590530755392e-02
-7.569301292875399434e-02
3.817508584118025489e-02
7.697839568139458466e-02
6.080407316626762482e-03
-3.570486736215616741e-02
-4.921985100220828413e-03
1.640502958226326691e-02
8.714033968985145095e-03
2.680327839361579950e-02
4.350570663240597297e-02
-1.561094642429901487e-02
-7.869716253850719823e-02
-4.251416069410370036e-02
3.674672682800442930e-02
9.132842027545541586e-02
1.145228994059269145e-01
8.408623243151683302e-02
2.760529365208826830e-02
4.107228052768151921e-03
6.642316358318035505e-03
1.267391172281957974e-02
2.063713663546957316e-02
1.032780144279701016e-02
-1.772759792237851156e-02
-1.495479928959882361e-02
1.517188053270433941e-02
7.176207727107743357e-03
-2.293179650660969252e-02
-4.842391336956804182e-04
3.837773779119152406e-02
1.776687731700353143e-02
-7.983838538366419199e-03
-5.085019447805858017e-03
-6.632962863778479878e-02
-1.411184427559682153e-01
-7.641787015233722502e-02
2.672101907944051530e-02
1.097509900727385024e-02
-2.091227557544118182e-02
2.738921985885113194e-02
5.842548962791654921e-02
1.663412309627169960e-02
-2.637860702942798619e-02
-2.797251043852532620e-02
-1.433046025142443308e-02
-7.977312303209842942e-03
-1.448915096136760283e-03
1.753690231498044455e-02
2.711261454201179324e-02
5.529073669116949148e-03
-1.329971058303184434e-02
-1.168643286714313341e-03
2.109403929977939074e-02
3.377056390537618719e-02
3.078517465195147740e-02
2.292317085178838254e-02
2.510990174800960609e-02
3.952439850867769770e-03
-3.908550970383186524e-02
-1.952414237723146262e-02
4.033363823886894350e-02
3.078567367132700044e-02
-2.061671030288099449e-02
-4.333325490486568399e-02
-5.283650671024518741e-02
-3.979303147851829398e-02
5.734035838533425161e-03
1.838673338645820457e-02
-1.555959950289137646e-02
-2.086858979592637331e-02
1.124798335134376097e-02
1.161361960115124894e-02
-1.115546097374841075e-02
1.081634844041854532e-02
4.989317215732855249e-02
4.258366519922354015e-02
1.545951593863202633e-02
1.884881055535162116e-03
-1.472774352999170824e-02
-3.085960827855509930e-02
-2.228277368125254621e-02
1.822626822104801703e-03
1.327847920335588610e-03
-1.338172753306233510e-02
2.090594393234609938e-02
7.037102525325480973e-02
3.704769372211785816e-02
-3.567021670554815227e-02
-3.701378787421681638e-02
1.568067842991837865e-02
3.941547089074032978e-02
1.904768291539037095e-02
2.889544340513156701e-03
6.627844262342559925e-03
-1.535982442603709038e-02
-4.977110225486580664e-02
-3.566506105784640612e-02
-5.840589368112879785e-03
-8.021371622849767652e-03
-1.105351623283971907e-02
-1.044441094338430069e-02
-4.178692744177053137e-02
-7.814458243566932416e-02
-5.546035726723801129e-02
1.988888254566101299e-02
7.470134010232162836e-02
6.971596640242301579e-02
4.144452620574288343e-02
3.219956930471291889e-02
2.709162551097729285e-02
4.956286193129197382e-03
-1.899661390887818699e-02
-4.006369447601876299e-02
-5.357152259820553708e-02
-2.875406877080441403e-02
9.689992676761235296e-03
1.015223244438596961e-03
-2.347375109308392702e-02
-1.338188878169091663e-02
5.675144034252135872e-03
2.157173193012143150e-02
2.520814459691099810e-02
-2.233354533577044942e-02
-6.635619133286106697e-02
-1.882367314665043395e-02
3.294933053078837742e-02
-3.810702284436023185e-02
-1.056236721671817563e-01
1.774286795792427707e-02
1.830970350037254557e-01
1.439756357341458182e-01
1.299819299941588728e-02
3.540790928173005725e-03
3.664146881913037807e-02
-7.639629374485334447e-03
-3.703202794878013293e-02
1.945770222304537764e-02
6.565053700848880180e-02
3.523098395210391698e-02
-1.550020892162213941e-02
-2.785753784349019949e-02
-1.103029190895234678e-02
-1.497202302574799672e-02
-1.267193571646749867e-02
7.630364197150109329e-02
1.156280719220422887e-01
-5.661211966901431858e-02
-2.040043773251888071e-01
-1.059497916308432680e-01
2.637553357858636247e-02
2.062001925885400405e-02
-1.591121209090464589e-02
-1.680395483718259697e-02
-2.037975557592653503e-02
-4.693526130849212663e-02
-7.796166650406538556e-02
-7.438831058663393503e-02
-4.394546899936959544e-02
2.347000199385135266e-03
8.639542511521616786e-02
1.152366302547345733e-01
1.334105235587087351e-02
-7.258062108267797352e-02
-5.503055460002229116e-02
-2.915056208896453505e-02
-1.439655895944354572e-02
1.706083347819857543e-02
2.385892896509558825e-02
1.019683244058555704e-02
1.658835072504149036e-02
1.080077445198628951e-02
-2.810476527615357947e-02
-2.999347265973760501e-02
2.296731674686863442e-02
4.631263705014496829e-02
4.490802500751808063e-02
7.798313777238245759e-02
7.074158928347115682e-02
1.925367559007696086e-02
7.533187963502696594e-02
1.707749440879554881e-01
1.257859137433940122e-01
5.226050150284583529e-02
7.651264506108558516e-02
8.944577708640982783e-02
4.330576999147500716e-02
-7.918116599608612111e-03
-5.064626747246155081e-02
-5.221471100264478415e-02
-7.495487161070170379e-02
-2.278474916556944008e-01
-3.277110922657595071e-01
-1.966612671434469217e-01
-4.566027100563058855e-02
-2.610116956887489903e-02
-1.408472072424645644e-02
2.524522145592622210e-02
2.785642117165912368e-02
3.291020810344932185e-03
6.179530238000045805e-04
5.141554523255384423e-02
7.919663664556579608e-02
-1.655095246245343737e-02
-1.060481424281740775e-01
-2.626649378638041404e-02
8.282741966014059432e-02
5.905558354487940725e-02
4.027672554527166743e-03
2.015824309823076310e-02
6.725553814173192146e-02
9.845525792188189462e-02
7.111776208630057883e-02
6.172401588864508907e-04
-2.163354093640739578e-02
-1.839369606843329827e-02
-5.810135957766937587e-02
-6.604807809367585492e-02
-1.028980452416395838e-02
1.174393409719320068e-02
4.170599890048988165e-04
1.861106189538278347e-02
2.864416705832322635e-02
7.100709318564386863e-03
-3.944514338718113113e-03
-9.544362374868151089e-03
-1.800886464777061088e-02
-8.248167111268144697e-04
1.902481636426885808e-02
8.238564638182333671e-03
-5.801305602530914575e-03
-2.694217591286678960e-03
9.456910777964414039e-03
2.471369619302124163e-02
3.537202528325338741e-02
4.124016188953580353e-02
3.778344840567960522e-02
2.056539258818574495e-02
1.617777412596798498e-02
2.968900963057942780e-02
1.551556258486172860e-02
-5.178196415727451957e-02
-1.279582235063523865e-01
-1.292899802295545408e-01
-5.558710538120257422e-02
-9.965965572704609671e-03
-1.702335432748295491e-02
-7.737149719919546309e-03
2.388757272234141513e-02
3.411375072063632663e-02
1.775560760861965778e-02
1.231351093456656449e-02
3.439712072634010243e-02
3.915269353976624789e-02
1.916855593444945216e-02
2.610247035934156606e-02
4.420327098325249615e-02
3.731696642617023107e-02
3.126059328657098541e-02
1.996307350393537738e-02
-1.995623409698437517e-02
-4.485637730260628314e-02
-3.191317382880037856e-02
-2.691958210057205508e-02
-4.124705533660578266e-02
-2.600144661639686855e-02
2.752068129573482375e-02
5.394224002445298372e-02
2.065018850732872752e-02
-2.491511370392256869e-02
-4.171429882002555822e-02
-1.648754385142960077e-02
4.567550370805175536e-02
7.503939817754179398e-02
2.591442854150555891e-02
-3.648215557992209868e-02
-7.268320941398109802e-02
-9.637066269233421356e-02
-7.017755518293172790e-02
-4.996694882237290476e-03
1.206632345407993023e-02
-2.248143812309963407e-03
2.588756325052170987e-02
4.935468814894224815e-02
4.056068245049792437e-03
-4.024767016822546756e-02
-8.286461374834044186e-03
4.647656645121852476e-02
4.339759535934333001e-02
-7.695209686256381312e-04
-1.518392744543141035e-02
5.969957255479152285e-03
6.599638612630226615e-03
-1.926998612167205721e-02
-2.811106081106276230e-02
-1.565105307311277436e-02
4.905801158628757264e-03
3.619352316271425701e-02
3.932828298160667008e-02
-1.988603936461018698e-02
-7.432009309034789957e-02
-5.977904770536722479e-02
-2.274669545349731342e-02
1.682063187214926508e-02
1.084183356391783398e-01
1.654151285745472100e-01
7.369367353481673377e-02
-3.804597780492535025e-02
-4.144199152852223733e-02
-8.336238546608670807e-03
1.327764146011691133e-02
2.193777619853330002e-02
-5.382548362433113055e-03
-2.135884434429428935e-02
8.339159855045375283e-03
1.900496472872604398e-02
-6.794888847642096066e-03
-4.485979917747721750e-03
2.937602858284958304e-02
3.404746615598044923e-02
5.295849886236283187e-03
-9.879287560865030252e-03
-1.153739161124901075e-02
-3.663974181945916370e-02
-7.659651381281848415e-02
-9.028150873311220626e-02
-8.221429436688638959e-02
-8.657463264616743759e-02
-7.100953373506441180e-02
8.543860500678051445e-03
6.772056006859129840e-02
3.801987660599785712e-02
2.321911158644130238e-02
6.901105420166915583e-02
7.286215041162612260e-02
3.125492423937983877e-02
2.095368779645989665e-02
8.636720759701115024e-03
-5.555049722506184146e-02
-1.130067699779010587e-01
-8.606866772454149772e-02
1.158908387308888940e-02
7.615824192967343698e-02
4.250230551680028723e-02
-1.213097784729019225e-02
5.790889415110460348e-03
5.921283412895875925e-02
6.048851492135975949e-02
1.442397817650586944e-02
-5.629538528348142050e-03
9.479808944849617974e-03
1.491328455679015105e-02
-6.411145334764750681e-03
-5.122994421393308601e-02
-7.470913284500500795e-02
-4.524197386334757875e-02
-1.400259663631691666e-02
1.028325651450433600e-03
2.109547719618286993e-02
3.387120248166834019e-02
3.170272808634848338e-02
3.470140628745865949e-04
-3.027995865612795323e-02
-8.110139769961393838e-03
-2.175112450769697489e-03
-6.359987957852196103e-03
8.568166290812406771e-02
1.368594054164600227e-01
2.418069745759957381e-02
-5.916365005827217693e-02
-2.029154977211093322e-02
1.573670547572530998e-02
7.562636128848528386e-03
-2.940158116450883666e-02
-6.563250901903097678e-02
-3.080577547258542617e-02
1.596639202314318468e-02
-3.819115918674863969e-02
-9.966585922053436408e-02
-3.611612322737058761e-02
6.421233532056842830e-02
6.710453514545505760e-02
1.961800169032151472e-02
1.802028237489235185e-02
2.534401322709101470e-02
8.641688127457629320e-03
4.239087333752533659e-02
9.820056516866719487e-02
5.731145481470033970e-02
-3.259865295440733668e-02
-5.904149802100305128e-02
-4.014190301166116470e-02
-2.710484516852247269e-02
-2.905260666097729538e-02
-4.750438925252878364e-02
-6.951475558133830834e-02
-6.119984331964697238e-02
-1.337027399683642440e-02
3.671307415194789529e-03
-6.287603978216627088e-02
-1.043682292637597570e-01
-2.324453261436782575e-02
5.820530609591008375e-02
2.496917136249362720e-02
-2.515208554761844822e-02
-1.801043623057464044e-02
-2.367431893116224775e-02
-3.104103058498025591e-02
1.221176776028322017e-02
3.768868502493669809e-02
7.277988233307187971e-02
1.782446745319734571e-01
1.507702287325677903e-01
-5.918560424602267722e-02
-1.101715622680903561e-01
6.988322684634949711e-02
1.656222934294370730e-01
1.030806272065264290e-01
6.675190639105212098e-02
7.573378099003706676e-02
5.070254815294636397e-02
2.106040712826685521e-02
1.228611210910525442e-02
-7.194055072689126834e-03
-3.720823517983173900e-02
-5.615248768331955465e-02
-6.269951861200569188e-02
-6.960422656254548757e-02
-8.262656480855251617e-02
-1.007268757285302990e-01
-1.216754696722761042e-01
-1.252778312253830240e-01
-1.018534910948402789e-01
-8.127999013887154955e-02
-7.035227649648642667e-02
-3.250133987132353131e-02
2.697304387363134298e-02
5.490977641180696395e-02
4.386451166736931445e-02
3.850616083991343502e-02
5.673692191176142596e-02
6.470345096695284681e-02
3.919515372547034693e-02
1.789050143657985176e-02
3.200008773177767663e-02
4.657498146903928798e-02
3.893110555519210814e-02
3.438682714564132714e-02
2.793484318259225468e-02
1.851124247652509609e-03
-1.362358635408587697e-02
-2.572217646301843547e-03
1.520126302967068389e-02
2.679312596314300382e-02
1.934681175925789115e-02
1.504955606208287049e-02
2.940105339627402392e-02
-1.915978916068743904e-02
-1.232540104922792146e-01
-1.064338903241892897e-01
2.567407838909215381e-02
4.943064617898049184e-02
-4.458002810107503100e-02
-5.034163572329273389e-02
5.081955883342318542e-02
7.825967267013354822e-02
-2.078008270412393457e-02
-9.208930344197489848e-02
-3.728428218407790068e-02
3.377478257970047137e-02
5.746433500354896848e-03
-5.528359434572941572e-02
-3.068096545215911325e-02
4.532754535011425390e-02
5.206496350604429557e-02
2.827889829166293015e-03
-1.822488906402145326e-03
3.444593876404069416e-02
3.957137777344098967e-02
-3.490889696050285609e-03
-1.872691260283274040e-02
5.089686953833458261e-02
8.032792189390412785e-02
-1.592865971414343662e-02
-6.916503401195739364e-02
-1.438416452868063536e-02
-4.236026200202353334e-03
-3.930594138761685924e-02
-1.795174367917705405e-02
8.283511365083906161e-03
-1.073449750089856825e-02
-3.026532294465821699e-03
3.581116474218253021e-02
3.087783533132899133e-02
6.186987880726193059e-04
-5.676641695465687275e-03
-6.620172694185230688e-04
1.694397756167750554e-02
4.980306728832336466e-02
5.830491043740605728e-02
3.235689014116052697e-02
1.795804370854562140e-02
3.892249417945912310e-02
3.995359652610182277e-02
-2.666759657756907070e-02
-9.475343737390966303e-02
-8.645523620221391703e-02
-3.047601530586215718e-02
-7.580446709135136261e-03
-6.690463011247836655e-02
-1.288331597767608805e-01
-5.524763668249641629e-02
7.047727867853638417e-02
6.427455054250102995e-02
5.359741062997282202e-03
5.358089588341537896e-02
1.176897316991768055e-01
3.294428413631186880e-02
-1.300595633619177349e-01
-1.416746394381657448e-01
1.098422079018991984e-02
5.035214971304347031e-02
-9.643692641045624458e-02
-1.233676550007342665e-01
5.393417145632584120e-02
1.257192096580247720e-01
1.077645102462785470e-02
-6.168884488136154587e-02
-4.163650003006000300e-02
2.002669012054422021e-02
1.391579506378377296e-01
1.368900339006174915e-01
-6.377645014976694726e-02
-8.201727290763469180e-02
1.640329801873930404e-01
1.803954237646284153e-01
-7.732552096574331346e-02
-1.214852269264228152e-01
4.414137055567909917e-02
2.573687825281401054e-02
-9.314044326001180707e-02
3.974401892741782211e-03
1.537263616613241124e-01
8.098575639452301744e-02
-5.163059037259926792e-02
-4.384657393358612487e-02
1.062684853371318426e-02
-3.025078253459075397e-03
-5.904387154987252029e-02
-7.797333618059200389e-02
-4.127854637687847217e-02
-1.506449496956090497e-02
-4.899357532098884416e-02
-9.540411959499904559e-02
-6.913378773736859884e-02
-5.779600082730432936e-03
-1.592254148929765287e-02
-5.908867165540487854e-02
-4.194903954520740746e-02
-2.726102569671848622e-02
-2.868290418005167014e-02
6.911655829883961433e-02
1.650785430178367263e-01
6.659266403887038888e-02
-4.015145564690987545e-02
7.227914632909293591e-02
1.581327963516778179e-01
2.873566877905523592e-02
-2.922044787765420287e-02
4.891852892606204928e-02
-3.314655058715744451e-02
-1.623361305715789460e-01
-5.902348263142865453e-02
6.647006299948605978e-02
1.944803426231497823e-02
-4.587699548817906689e-03
6.102735348040171787e-02
7.340544896109615913e-02
3.473283301814197865e-02
1.509462880383657252e-02
1.944105543255286728e-02
6.813130101234204927e-02
1.274727809846910864e-01
9.971993288791679289e-02
1.086735851952690471e-02
-3.699192862836229306e-02
-5.139356678457836919e-02
-8.196308668421495303e-02
-1.062295734862630792e-01
-9.507916765357526945e-02
-7.949831920114096284e-02
-9.533733864824635307e-02
-1.112442187860333970e-01
-9.080671967180635462e-02
-6.749072203120462521e-02
-4.963132108775626661e-02
-4.523022077603886665e-03
3.011801997292710628e-02
3.043604318627875921e-02
4.722925804469313427e-02
5.550212125508506567e-02
1.045762280389194929e-02
-2.852045353305876843e-03
6.461457369336247314e-02
9.774325899210026258e-02
1.510661974614143852e-02
-6.646294566180109553e-02
-2.116494909011584422e-02
4.784148165950973669e-02
2.833948745483473586e-02
9.601154073623805602e-03
2.422825614878439116e-02
-3.240657078693687937e-03
-3.527197482282736635e-02
-1.171316193654174317e-02
2.106155176158550774e-02
1.888044846942120436e-02
8.858057236049626804e-03
2.812687077567627147e-02
5.433689787053370968e-02
4.628437483623368959e-02
2.430263808396958963e-02
3.052876109286132775e-02
6.603253256926833181e-02
7.266220036718240571e-02
-4.403045507632735722e-03
-8.557934060021485378e-02
-8.330635481432371869e-02
-6.600228160949381251e-02
-5.317214193657016086e-02
2.137460933005501038e-02
7.671220486212267098e-02
8.014562193759171282e-03
-9.308334861024300522e-02
-9.105955412524585624e-02
1.747796976330628568e-03
7.195674200889955185e-02
5.188731013497874245e-02
-1.096040591740971709e-02
-6.368269618575493618e-02
-1.054376439384711595e-01
-9.247664602077468321e-02
-1.948614754152800874e-02
2.308390297672958252e-02
2.359317462712357677e-02
2.962980478790416122e-02
2.502879555270726489e-02
9.243907898847311677e-03
1.783735307532345257e-02
2.920689349637045976e-02
6.653515826926371599e-03
-1.325014225793724916e-02
3.546106621398780780e-03
1.880271939237139478e-02
1.496513302796518077e-02
2.186768348759257630e-02
3.974615175260260563e-02
4.613463024438732574e-02
2.844031452176994795e-02
9.876619320652070544e-04
7.984431026088176925e-03
3.565818265668560527e-02
1.055321205399721400e-02
-6.087384076490982843e-02
-8.637826768923326237e-02
-2.246110623185790245e-02
5.099125023417638153e-02
3.937852091597932036e-02
-1.503920555045277357e-02
-2.749275815735806316e-02
-1.035739935037843958e-02
4.444402112102535662e-03
2.059658254829198343e-02
7.132568784211404736e-03
-4.983077112667102376e-02
-7.050057907439058469e-02
-4.779287280204726207e-02
-5.663846214159137110e-02
-2.951241812697176156e-02
6.777551675912010798e-02
8.392593826654928812e-02
2.531023894351992071e-02
3.457642731561980792e-02
4.271401989658620696e-02
-3.399509334083047202e-02
-6.114696938801025827e-02
1.600543022225540263e-02
4.229491704433247651e-02
-2.647523066700614713e-02
-4.029866336276317212e-02
2.656048312350169083e-02
3.383275903630413028e-02
-1.353392659610004600e-02
-2.742071721502830142e-04
3.153404895154922338e-02
4.774781157078739416e-03
-8.233676713178943521e-03
4.246655284145438997e-02
7.025894450665748359e-02
1.411425776597902138e-02
-5.627352614737488046e-02
-5.576774639281882606e-02
-2.884235226733241481e-02
-4.448735800920097794e-02
-3.292265251734730752e-02
4.012468376529838843e-02
6.594917061282012938e-02
2.876136774962940665e-02
1.126378202232552160e-02
3.023706071912522948e-03
-1.832398598845798657e-02
-8.493969107199916130e-03
1.752915825952874179e-02
-3.463865302983711036e-03
-4.568891467388715849e-02
-4.375619435494797899e-02
-2.271635635821882618e-02
-3.485331917728243245e-02
-4.851181707234837603e-02
-1.357107671172293369e-02
3.988517025857016979e-02
4.132775366404067841e-02
5.030798472278311465e-03
1.089582379987873856e-02
2.815365938976840954e-02
-1.065789898775745120e-02
-4.059903212027075881e-02
-1.658904263731306172e-02
1.098544027518762352e-02
1.240684357415392999e-02
-2.097308299158004430e-02
-5.844068049089211347e-02
-4.886421902110199555e-02
-2.396487866954134793e-02
-3.491748223627887809e-02
-2.576874954510404228e-02
8.469056831663941687e-02
2.021800701453291826e-01
1.685519323762076360e-01
4.942715247012992308e-02
-1.078039804071084448e-02
-1.930918181703719302e-02
1.406132557179955861e-03
5.890535415095861371e-02
6.066558325388619888e-02
-6.542965948735451898e-02
-1.724336313033163481e-01
-1.105886314586928681e-01
-6.373544369426801734e-03
-4.121451386032783798e-03
-1.847756587995053046e-02
9.753213143437940505e-03
-5.800303809917789662e-03
-3.589806364795185278e-02
4.221880616287706361e-02
1.325244723441734163e-01
8.138376591163148932e-02
-2.517912870670725375e-03
-8.870302060061136668e-03
-1.726930623450905963e-02
-5.700677107827251122e-02
-8.460986139190737609e-02
-8.896361134063032750e-02
-5.739536225713701145e-02
-2.126305311838702292e-02
-3.043021358978208538e-02
-3.570403252494200319e-02
-8.752394887009467758e-04
1.481148374696520872e-02
7.815106253913945908e-03
2.626766810408467934e-02
4.474082801891073047e-02
6.770763038025262581e-03
-5.124780394238307585e-02
1.248705272287288330e-02
2.044336696815478027e-01
2.774483718727951409e-01
1.164529335142973354e-01
-6.537271953135491420e-02
-1.150220403544827130e-01
-1.038283087851160219e-01
-6.524600576813535668e-02
-2.300680198531808440e-03
-1.661240740849059469e-02
-7.278869215483550759e-02
-5.893178341338147636e-03
8.960020580905912746e-02
4.251214836712557954e-02
-2.088312217453145575e-02
-7.144629694631920991e-03
-3.609756805985634559e-02
-8.518512118992344062e-02
-7.321054324752163112e-02
-8.364007575182354215e-02
-1.131699542523440377e-01
-7.183837961068116618e-02
-1.889202930691087981e-02
-5.735129014100143197e-03
2.352751378411178929e-02
6.173957711570586537e-02
5.492356652451431398e-02
2.285822128686707672e-02
1.837678328297778080e-02
4.709042958125231326e-02
8.273207117870931548e-02
9.818112915036479593e-02
7.617107021126535982e-02
4.266341120267390374e-02
4.134379068240753158e-02
6.843941361509017773e-02
9.392943627635635950e-02
9.948742939313649780e-02
7.665507769402939153e-02
4.976676597437260097e-02
5.357121089784791512e-02
5.753120594191728915e-02
2.221465379214800084e-02
-1.984806916261696447e-02
-4.713946938299846956e-02
-7.655886051108010126e-02
-1.124746825699129149e-01
-1.777297646981655377e-01
-2.467243433007096087e-01
-2.187488363635255451e-01
-1.293423844906475273e-01
-1.040640353785605710e-01
-1.020340175340715277e-01
-5.676495534101022589e-02
-2.611436499506047254e-02
-4.085951723570048488e-03
4.882288627135026454e-02
6.352955299473926620e-02
3.779808770209304447e-02
4.544809801595252330e-02
4.041726336549426174e-02
3.963224300406545386e-02
1.605291430092199434e-01
2.562019992224621179e-01
1.331120955414971385e-01
-3.289564122605120877e-02
-4.211909420072142141e-02
1.698823435419338085e-02
1.445467773080585071e-02
-2.278702136724607488e-02
-1.009578965501573347e-02
9.056728544084409471e-03
-4.356339799797508822e-02
-6.876795364621082762e-02
7.833811261570677864e-03
4.683857845569015799e-02
-8.529543571410988512e-03
-2.545850109115565391e-02
1.653647597389042850e-02
2.018479055202717504e-02
-8.931658640307557281e-03
-1.554271807784715111e-02
-1.222159268521496277e-03
1.034518991102271503e-02
-2.520772608482209180e-04
-2.329371082704375512e-02
-2.058788555919622426e-02
1.549996826287713438e-02
5.059919745052354756e-02
4.978034755138760481e-02
1.807451817950850304e-02
-1.147889928194042140e-02
-3.197218571772995899e-02
-4.794760668311214696e-02
-5.082664128544857329e-02
-4.737653908249292445e-02
-3.300413702876679733e-02
1.093720316679506685e-02
4.160294761870657332e-02
1.996559078576865681e-02
3.195672873883295684e-03
2.045720232938835065e-02
3.010544285731967321e-02
3.191819752840632796e-02
2.760428520029549818e-02
5.613796502302583098e-03
-2.470695398036731796e-03
-2.168641261770895209e-02
-8.819073919194130029e-02
-1.046140358365772877e-01
-3.205015681833806029e-02
1.510784750512730000e-02
1.088641765874148737e-02
1.755583394778914563e-02
1.780162189806161130e-02
-1.678155134177593266e-02
-3.625803916842568198e-02
-6.123028555996135394e-03
1.887540861603820286e-02
6.465136504601929485e-03
1.286765254509292938e-02
5.306015190035218154e-02
5.707144495839148318e-02
7.692686691582172401e-03
-6.763542759421139680e-03
4.016631416651629538e-02
2.841997843754163339e-02
-5.968722351010228439e-02
-5.995009622197010335e-02
2.794857220044572738e-02
1.511326817198259745e-02
-7.910107312063585638e-02
-5.503124401057977316e-02
6.914313917928838205e-02
9.124283307421236777e-02
7.156252469376858660e-03
-9.127488031789456058e-03
4.397410181103290905e-02
3.610462845722799130e-02
-2.467085391987908216e-02
-4.926925931135374415e-02
-1.699745230279733552e-02
2.575516239076085234e-02
2.157272610321126285e-02
-1.524253233532392796e-02
-3.174540787983629042e-02
-2.852443696201250461e-02
-1.937430221054807153e-02
-5.780099405781484283e-03
-1.894841951032272872e-03
-8.596305460158090717e-03
-8.690129247691764230e-03
1.093734177515503711e-02
3.363050507527391708e-02
2.412155629581508309e-02
-6.968631071629051085e-03
-1.944262398354654892e-02
2.175289260667633267e-03
4.023035676341158579e-02
4.037632338979972590e-02
-6.201060256898423100e-03
-2.178391750893717352e-02
9.679206492498192496e-03
1.794515091596822834e-02
-6.368134514770132024e-03
-1.979170524643689144e-02
-5.688302948295303509e-03
1.371554096941946660e-02
-1.452100571126159999e-02
-5.833165314323120187e-02
-2.335944982466829981e-02
2.300086133489326681e-02
-1.396661077007580777e-02
-4.378566026320455246e-02
-6.221595393582789527e-03
3.205489328662902010e-02
2.372225106495325433e-02
-2.433908505417279461e-02
-3.281580779061132880e-02
3.834475237066396064e-02
6.621971671340065591e-02
2.638868325763453482e-03
-1.239724885977475793e-02
4.847483895773413431e-02
2.405927640933668010e-02
-1.109363979569793490e-01
-1.403963082144297492e-01
1.368982045413874582e-02
1.214975043246045716e-01
5.993101982686530743e-02
-4.614703072265458755e-03
2.381494862076670438e-02
1.764665219500567012e-02
-6.608252848481620256e-02
-6.723139842637707031e-02
2.720645001069776914e-02
3.845060061819264435e-02
-2.929392475578546096e-02
-4.789366672684941539e-02
-2.365893317972490167e-02
1.185957638478157350e-03
2.664108342280866251e-02
3.597402386731220203e-02
2.319976104564956676e-02
1.708000178127508720e-02
2.506680599006298055e-02
1.016601079420892395e-02
-2.114542001192857429e-02
-1.550716068023478070e-02
7.514769106260251602e-03
1.312675256354702003e-02
2.677100548531969465e-02
2.780333551567725631e-02
-1.138908202359018018e-02
-2.967076290232966568e-02
-1.886477985366929663e-03
9.661678910734322959e-03
-6.126501562809192822e-03
8.884012407902479314e-03
4.191811176814314033e-02
2.434426217030991046e-02
-1.013326308730824049e-02
-3.774715423225920991e-05
2.086012583904536810e-02
3.995269472212535644e-02
6.235259364712393559e-02
4.013641678923270117e-02
-1.167018874535590695e-02
-6.141006744689699037e-02
-1.305086478504126624e-01
-1.542193129460054379e-01
-1.035913875500230202e-01
-8.917562927327907230e-02
-8.154077991049693552e-02
1.788373519421403157e-02
1.012263347034143557e-01
8.277079555047725523e-02
5.642744277991228186e-02
6.660996032710581050e-02
5.787262853453427336e-02
1.662980342187141136e-02
-5.451263387965751134e-03
3.149856605920030653e-03
-1.730496675164234360e-02
-4.504820349245051980e-02
1.105719058070701866e-02
7.739833872983226115e-02
3.407727050696370691e-02
-1.050477973039564555e-02
5.132393830738732343e-02
8.647983502329668892e-02
-2.998747278692584159e-03
-1.024585384182967879e-01
-1.330801824009628098e-01
-1.465772337833044225e-01
-1.139516580811638369e-01
8.785997715290601306e-03
8.969190227208184707e-02
3.884662229883663331e-02
-4.606913812574252309e-02
-5.363221020824275598e-02
4.445516000771691789e-02
1.467653183263041838e-01
1.236913435003628992e-01
2.936934493141620667e-02
-1.673258960677232940e-02
-1.168126229367436389e-02
8.807894660400652706e-03
1.435635416312389286e-02
-1.182130165179364270e-02
-1.558976983618513140e-02
3.553493614417407853e-02
5.775942841060781319e-02
4.311695424368112636e-03
-3.672831848850702241e-02
-2.117764711400002900e-02
-5.086648346680955682e-03
3.029422448833997677e-03
7.749096304256175398e-03
-2.643063175898384062e-02
-4.860477610002631593e-02
-5.934425267379080798e-04
1.791404170845654550e-02
-4.343121807507120680e-02
-5.243152513792116026e-02
1.614353173299581251e-02
2.903732599725331737e-02
-1.619503449941937095e-02
-4.291925254337858320e-02
-6.131822056388714498e-02
-1.215223533227582746e-02
1.186220544241463754e-01
1.062148749388451274e-01
-5.275276672824577573e-02
-6.839518725019924639e-02
2.342558620108208325e-02
9.446124955427376291e-03
-4.623910448840404946e-02
-6.222928592240900558e-02
-6.361527563698268772e-02
-1.484784493027052794e-02
3.470753556515084048e-02
-7.633849391219941702e-03
-2.610669511870572501e-02
5.836955184883410586e-02
8.168162878874887789e-02
-8.161076225787097099e-03
-5.290026488915765962e-02
-6.502885510534048980e-03
4.362240088588688336e-02
5.667024394827047118e-02
3.079266190318630594e-02
-1.979835162779629634e-02
-3.754640740887828232e-02
-7.092101385929583390e-04
2.350996191281196079e-02
1.199896496930306228e-02
4.417872090032916310e-02
1.123934380458976451e-01
9.323762968771483195e-02
5.916581669396757392e-04
-3.241753637320332615e-02
-2.239351898538190222e-02
-5.300188362418294108e-02
-5.728767757183382547e-02
1.240831121319371788e-02
4.388667605062456650e-02
-6.928982074038090092e-03
-4.266843120088598118e-02
-3.186779585789716734e-02
-2.681904035663693064e-02
-2.837483887453431247e-02
-1.537858211018102578e-02
-9.258898136922062011e-03
-1.861124594767897891e-02
-2.335180257268800255e-02
-2.405243089578783244e-02
-3.435098094013976783e-02
-4.466867168280860834e-02
-2.363194955171237649e-02
3.235446776903178057e-02
6.978326432132056500e-02
5.574650588420189401e-02
4.076408603656159202e-02
6.484342098660310361e-02
7.799855815577977358e-02
3.623465410951876020e-02
-1.564847433632737123e-02
-3.348476559383629925e-02
-5.570549240722113410e-02
-9.802320472014550146e-02
-8.110649235335136431e-02
-1.027263923959331055e-02
-7.556539038751348622e-03
-4.980816939522558773e-02
-2.008869035745686898e-02
3.145633487192434075e-02
1.652690062228353435e-02
-9.338248819390909672e-03
1.148422202489563990e-02
3.510149982140991359e-02
3.209578287543243119e-02
3.684004439345544418e-02
4.117002502727637459e-02
1.324706720413176830e-02
-1.800841522123332924e-03
1.523444334212668144e-02
8.972470235938811642e-03
-1.890646473769860315e-03
2.714389719755503499e-02
3.781408122360670893e-02
-1.226808319584410216e-02
-5.847577847235829740e-02
-4.918986169728019331e-02
-2.974622146952998758e-02
-3.167196209566412735e-02
-4.890537088845918826e-03
3.898282402911940753e-02
2.941396388748020521e-02
-3.396358371990594940e-03
-1.059386684376029467e-02
-1.739063129709898098e-02
-1.327299371015041793e-02
2.713431705019273346e-02
5.276841670025400610e-02
3.457740012082310271e-02
1.480524111060947320e-02
3.023825712920514240e-03
-1.619858987251084070e-02
-2.050350348627585917e-02
-7.628572014888104769e-04
1.378358816616308963e-02
8.580489160175524058e-03
5.842834928338836234e-04
-1.044563056894728600e-03
-1.359758857986790442e-02
-2.829759871806079505e-02
-1.267281668851173021e-02
8.729736014458108415e-03
3.705848252336590293e-03
4.790068536646170834e-03
1.026189252174372797e-02
-2.387360704355602839e-02
-5.641248438393129533e-02
-3.446357518478933291e-02
-6.329060322059048768e-03
-3.638712784089602817e-03
1.399157933887209930e-02
4.518565205631888682e-02
4.022185437521978713e-02
-9.533903000658039417e-03
-5.263466063505729126e-02
-4.528209373683225042e-02
-1.696937899683825801e-02
-1.075065615430862570e-02
-6.263539050451905066e-03
1.375453832049756443e-02
2.250728566150261845e-02
1.938728576391525460e-02
2.406231525452858303e-02
2.063179185060174184e-02
3.683768893655557132e-03
1.945808554449903350e-03
1.038375727168875350e-02
7.458147071650591750e-03
6.574505443799260815e-03
1.783331037335548694e-02
3.565968032311379876e-02
4.896608414535248699e-02
3.746511695800291974e-02
1.773952526846621705e-02
2.445697151605575465e-02
3.959393749676867746e-02
4.161252619535041331e-02
3.010887467227132616e-02
-3.235927144756799850e-02
-1.339480115537727556e-01
-1.500240249866010844e-01
-4.399902758248901841e-02
4.302446139565380828e-02
2.553951552371901829e-02
-2.274085948892874340e-02
-4.041725514148195725e-02
-4.184214030717670063e-02
-3.758356926305007201e-02
-4.699544938774116026e-02
-9.211751094022981035e-02
-1.111327947225853041e-01
-3.482366671419084847e-02
7.772454136004669500e-02
1.387608911088340502e-01
1.513121410571597325e-01
1.298599940326945479e-01
6.933910365007654730e-02
8.508108016103209381e-03
-1.579431166802355846e-02
-1.653266618832647042e-02
-7.183334161894949256e-03
-1.540061619097511658e-04
-9.236351158547300572e-03
8.539232472099141796e-03
7.326421084957898677e-02
7.742759440817176264e-02
-2.987487524720539370e-02
-1.230962867637645369e-01
-1.228863879282275640e-01
-7.437900384863500858e-02
-2.802362310305620344e-02
-1.997450610503648943e-02
-2.713023672256956523e-02
-6.490034767027696994e-04
5.204131422554166865e-03
-3.958103421732308419e-02
-2.105821069946568411e-02
8.330585726695499682e-02
1.169697947321365061e-01
4.478820035890115903e-02
1.057233847668731172e-02
4.502077823525275913e-02
4.099220501702151992e-02
-1.592202499199651261e-02
-4.284742696245188998e-02
-1.711062664379223164e-02
1.745498581283370931e-02
3.479507834233751262e-02
3.529999510898920723e-02
3.834595414953666237e-02
7.321358110210469949e-02
7.292383734356537583e-02
-6.386080887833379960e-02
-1.969572245886487272e-01
-1.417402279499402895e-01
-6.194333959690571934e-02
-1.126405927225893749e-01
-9.802841091039495025e-02
4.003086941485402978e-02
6.282001282476049053e-02
2.158196315959088479e-02
1.367418709473745830e-01
2.121554913384415542e-01
7.257648367058561201e-02
-5.584340773831921595e-02
-7.401268504238472934e-02
-6.508418264678103582e-02
-2.389701349868880026e-02
7.141026636595694532e-04
-4.272128616423319369e-02
-6.702106834779784916e-02
-2.770282562273473220e-02
-6.085872017323289487e-03
-3.339405712569193385e-02
-3.432376348060681842e-02
2.565458092524498454e-02
6.324889797188916474e-02
-8.208132106170343278e-04
-5.854992774379418757e-02
4.296797098592736175e-02
1.512754752786898416e-01
5.151169488192126888e-02
-8.683889291285033785e-02
-4.070693029399582302e-02
7.185371975092716412e-02
8.794209981568193446e-02
6.484972311640448128e-02
8.409559238470917797e-02
1.075726193284962801e-01
1.210901484305541703e-01
1.581673026128615767e-01
1.570559422905807578e-01
6.137217866173137054e-02
-4.814463218889168672e-02
-1.216742761083622615e-01
-1.918793304044027481e-01
-2.144430327538304759e-01
-1.590289616052427135e-01
-1.247166390328729862e-01
-1.404415888764605769e-01
-1.151047152881008312e-01
-4.960160039046296321e-02
-2.857457092905184987e-02
-6.154886371981532767e-02
-8.693288275972982371e-02
-5.219389052890822944e-02
2.954377400848409718e-02
8.219784528430741644e-02
7.795904007116881418e-02
7.178453105072521434e-02
8.653877600332872400e-02
9.232398639715529154e-02
7.717307668840714396e-02
5.572568855726472287e-02
5.105635829254229902e-02
5.089048421778204906e-02
2.071867654356755045e-02
-1.197255550611576146e-02
-1.843218055544755193e-02
-2.837883155468625893e-02
-4.276462412935722740e-02
-2.345503489130753433e-02
3.288219925389994358e-02
5.927994182895801600e-02
1.177084718577814382e-02
-3.787373570075953239e-02
-3.935046813193712745e-02
-3.241442334913507972e-02
-2.790706256490436618e-02
-1.493116050094598496e-02
-6.994035422659288653e-03
1.413651553654633351e-03
2.119628815909200756e-02
2.970498091770060883e-02
2.181358890173884513e-02
2.461204004629137174e-02
2.549469852391006777e-02
9.472843797565889956e-03
1.306576684279011843e-02
3.115303848283355187e-02
1.517878694267496206e-02
-1.755599783968227537e-02
-2.608508706121873133e-02
-2.434392250780814670e-02
-2.018391467629936098e-02
6.739338323177070274e-03
2.598691191360321881e-02
-7.893194637890177390e-03
-4.510658608675768844e-02
-1.538311324700268080e-02
3.551535080206795481e-02
2.611415332299241165e-02
-1.814986401499221400e-02
-2.562370844124459146e-02
-2.569383432588412744e-02
-8.362191075193943501e-02
-1.262348047283192165e-01
-6.522435071959301056e-02
1.269658415767311102e-02
2.870199206914286413e-02
4.176597658015836212e-02
5.928763977096594695e-02
2.849803591584133128e-02
-6.700311103592942845e-03
9.785392386399537762e-03
3.217632297576534378e-02
1.811074302927498381e-02
6.683554247423353044e-03
3.412614202257487073e-02
6.361969370308082072e-02
4.693028262756731434e-02
8.957061193837861229e-03
-4.260228788165228847e-03
-3.959056223566936525e-03
-3.824181465465205723e-03
1.219045068450359121e-02
3.209182177412780307e-02
3.675992638742688751e-02
3.887572206904682526e-02
2.795699469201794879e-02
-3.433136550850486579e-02
-1.120912887683711001e-01
-9.746834902660744815e-02
4.672986388203322419e-03
5.018587373225939091e-02
-6.051362149953866398e-03
-5.405271184009564911e-02
-2.410835143469013120e-02
2.630491054590068309e-02
1.066503000275756917e-02
-5.434445931522748074e-02
-8.765533583244340676e-02
-8.762226104937516358e-02
-8.698044504084175010e-02
-5.933797406230623128e-02
2.045686289099298005e-02
1.236580843978555277e-01
1.762433510677229032e-01
1.234714330816522321e-01
1.952948204800332779e-02
-3.618591546727018687e-02
-3.459999662355509042e-02
-6.283055172489265816e-02
-1.642631937557610944e-01
-1.804681430982460755e-01
4.148802410486269326e-02
2.582911931124916016e-01
1.679973164199544122e-01
-5.136586226333048066e-03
2.543007404535622962e-02
5.585634381066792442e-02
-2.850926308229964623e-02
7.280841817464012850e-04
8.039784365193702875e-02
6.340928239295636273e-03
-8.229742291481065286e-02
-8.709211451463932940e-02
-6.824431000850519902e-02
1.257949916869780319e-02
6.308402908584199997e-02
-3.305828429850583144e-02
-8.477720712395450664e-02
2.070036365195128056e-02
9.548338929217961568e-02
3.719148101799485406e-02
-5.406927883641464427e-02
-3.511843965323933892e-02
1.037630540990114314e-01
1.447530027595581303e-01
1.785739882793243791e-02
-3.802775357621690500e-02
-1.758630448697773643e-02
-1.087700441870844414e-01
-1.682474181169051342e-01
-6.369455390366790537e-02
1.520587372886038346e-02
3.062356853166595116e-03
-1.180709136530918094e-02
-3.894368189225631827e-02
-4.137691965218035645e-02
-3.056621649133881447e-03
-3.904364384330095972e-02
-7.732496451411514926e-02
5.142076499978561616e-02
1.748326762471710261e-01
7.606826840371483378e-02
-7.783806347154689775e-02
-9.000765976582425498e-02
-4.538493553181798673e-02
-4.713706890370544106e-02
-4.355340355049075463e-02
1.349781689356808860e-02
6.672438949053434432e-02
5.164986838527942103e-02
-3.127989187375403678e-03
-1.909766141588356905e-02
2.245017601477993646e-02
6.106143285486238109e-02
6.609538387558268335e-02
8.297837217629618067e-02
1.093740558762759107e-01
8.483694405442819553e-02
4.041759958676541947e-02
5.572697977422770566e-02
1.183710366083317450e-01
1.562142082893180350e-01
1.240824597809514485e-01
4.942410385354097796e-02
-7.341418001471231719e-03
-5.153412662300091429e-02
-9.929435118417660744e-02
-1.081864093475660704e-01
-9.501780994136597991e-02
-1.183047106200603577e-01
-1.397595055891389382e-01
-1.456158940996954143e-01
-1.892124818316445189e-01
-1.955587936820401274e-01
-9.712065289620303021e-02
-2.490120920550374650e-02
-4.056875660903398045e-02
-3.173795595008370440e-02
1.956851490155755643e-02
3.907912756913375918e-02
3.278240539417109911e-02
3.064270722717972462e-02
3.570096272402760451e-02
6.983993652351327963e-02
1.172261267730051043e-01
1.174938089472886693e-01
7.557328688334269406e-02
3.885558527810655666e-02
2.820877359107190965e-02
4.756769433340286152e-02
6.263742970686238254e-02
5.443413148432454246e-02
5.730804990786565745e-02
4.657567515295870514e-02
2.146928141321673145e-02
6.831300119836596074e-02
6.934765092758611582e-02
-1.338466711023864331e-01
-2.859855672910004420e-01
-1.585633616165132986e-01
3.327243754727557401e-02
9.955485194586150000e-02
5.000447303491093592e-02
-6.833065786952258192e-02
-1.118010385434088233e-01
-3.017984975674321141e-02
1.709929335859311159e-02
-2.307792023092689049e-02
-4.386108550374968190e-02
-1.476624575068383009e-02
2.155047819331746065e-02
5.017768587144403464e-02
6.610185277306607210e-02
6.854660328512736378e-02
7.015359855992803206e-02
5.993757642683079923e-02
1.950944962611857181e-02
-1.845976658180430857e-02
-1.843217888524464193e-02
-2.206858828311180840e-03
3.080526258161873920e-03
-3.722567049507905998e-03
-1.272348220662333773e-02
-1.070688676345550941e-02
-3.054477876124644942e-03
-3.038017657848573420e-03
-1.371370686788303365e-02
-2.495493766064874053e-02
-1.034493422963897458e-02
2.214056814492509212e-02
3.151407704652918473e-02
1.071795541534769844e-02
-3.685141144048646733e-02
-9.346563320430074928e-02
-9.339709770873133587e-02
-3.387015494620213008e-02
4.616049919900375165e-03
1.268411083696941236e-02
3.221712043512248852e-02
4.251572316430732301e-02
2.466986069509796708e-02
5.104787730501522507e-03
-9.650283472935023560e-03
-1.684682361869441897e-02
-4.003002204636466055e-06
3.157179733223425266e-02
5.380788282374452530e-02
4.073810223998160923e-02
3.222829426471557693e-03
6.822713003871351371e-03
3.826285857003989405e-02
1.428917796036834227e-02
-2.706623386785864116e-02
-8.107122050194032550e-03
1.678638720051550681e-02
-8.766047178134908635e-03
-5.076167785843202496e-02
-6.700389949910176557e-02
-2.970276196977150035e-02
1.681764803137864028e-02
5.793811230828684565e-03
-2.146212109017974976e-03
2.231820532233209226e-02
-3.903044617120115904e-03
-5.480981215772060683e-02
-4.717644456249879548e-02
-1.045880731156321325e-02
8.556161851458372186e-03
1.913035293238892626e-02
2.914417739567885454e-02
1.949570842358757175e-02
-9.305573260487604720e-03
-6.611215005111573638e-03
3.557879893465563936e-02
5.456055740991681141e-02
3.680718515818431208e-02
1.786980531783408099e-02
4.542981403238610660e-03
-4.314472603170353693e-03
-1.673972467265930943e-03
6.360406567518257087e-03
9.497595837238515665e-03
1.334681644033010664e-02
2.612352767509357881e-02
2.762507877663437569e-02
5.673057278892900106e-04
-2.272439774391813230e-02
-7.143175649192133082e-03
3.135707726261856287e-02
4.619549715022279457e-02
2.203227456475987181e-02
1.467630120045985021e-03
-1.011134177341911286e-02
-6.035142041989230433e-02
-1.063136075930486146e-01
-8.626372477965607577e-02
-6.595236714469790429e-02
-8.030836355116645342e-02
-6.418416953659303315e-02
-2.454227166561721851e-02
-8.201393044512877289e-03
1.205408172659322083e-02
4.880922097347954736e-02
7.033954543620871136e-02
8.010007190022096213e-02
7.148738996553553882e-02
1.553945049524996236e-02
-4.274355825426703892e-02
-5.070067041239140898e-02
-3.675613512399496935e-02
-1.584711623529595076e-02
2.129845927231006561e-02
3.591903021325229539e-02
1.435764395474912677e-02
6.672967663124895407e-03
1.073576382277549590e-02
-3.048481771897181350e-02
-7.146331882867258678e-02
-4.415672977963292639e-03
1.112816267816204574e-01
1.205001469568310613e-01
4.454203649829803491e-02
4.260207130284824825e-03
5.378950757897068419e-03
4.226941622585272951e-04
-2.061053064248206251e-02
-5.101960481324694513e-02
-6.284985792328237619e-02
-3.642606686049842252e-02
9.789933375424601791e-03
4.762513803722379785e-02
4.464464653042423542e-02
-3.653795094089713931e-03
-4.021662351196678142e-02
-2.072018775662161361e-02
2.752272975406319308e-02
5.567848019689615457e-02
4.860603732865628746e-02
2.375595385714569449e-02
1.271899102015806686e-02
2.141875051551387840e-02
-3.190447770442740322e-03
-5.601218631778726725e-02
-2.474742675158575142e-02
3.995857516826996358e-02
-4.279800336212592760e-02
-1.516011681774344366e-01
-7.234969830479213992e-02
4.256244326019652940e-02
3.240120805821877087e-02
2.471610556024834635e-02
6.841457407214765474e-02
2.310391991154354605e-02
-1.242590200246985604e-01
-1.777391898293336769e-01
-7.756158678385005611e-02
-1.045365714638050655e-02
3.991350688972210292e-03
1.007745319568154746e-01
1.713796684759903433e-01
9.723579637087613470e-02
1.863399507355798998e-02
-7.328948742134123312e-03
-7.178851212200318410e-02
-1.181866365444881328e-01
-7.452605516643448502e-02
-5.291110384600835465e-03
6.984116499612276485e-02
1.142084585471453556e-01
4.651869221768950569e-02
-3.632079055406173262e-02
-2.105119120861884130e-02
1.963660247725346891e-02
2.514598511199038142e-02
2.534611062827679326e-02
2.078758200664183528e-02
-2.075948148379057681e-02
-7.782566241363228499e-02
-7.241752152329905545e-02
-7.698325856215462032e-03
2.313239528971025583e-02
1.801227711720043353e-02
2.853383467469970680e-02
1.216329476463345535e-02
-2.684611349374407124e-02
1.974446329675843409e-02
8.913632932429481348e-02
1.102337811570729652e-02
-1.011970518350351483e-01
-4.616030950285383849e-02
7.895180361091584664e-02
1.355201187542348640e-01
1.491525304780894623e-01
1.178751546835312969e-01
3.990985060963550546e-02
-8.394319656307972291e-03
-1.210941755525260163e-02
-1.704441135102028465e-02
-2.651455261877445901e-02
-4.192111059088368674e-02
-7.851160918876581851e-02
-1.242996823493665998e-01
-1.569235754547704531e-01
-1.394988762800875859e-01
-6.149701360986928322e-02
-1.804191715878721014e-03
-3.350072949913844578e-03
5.523890552043865532e-03
5.005869605720493498e-02
7.238133649757041987e-02
5.929042689031570335e-02
3.644769408891474632e-02
1.079873855506362224e-02
-3.068733484497417757e-02
-8.290096885457437503e-02
-8.027741357590446880e-02
-1.121361991431731042e-02
1.793090810957213149e-02
-1.385169857594688303e-02
-8.796420521037500578e-03
3.317821271654772253e-02
3.774468319743515266e-02
1.644577717374327147e-02
8.075978429570661310e-03
3.055287009694281682e-03
1.081436628957361916e-02
4.893589833331746242e-02
6.712798886055865166e-02
2.860358097598961202e-02
-2.589784599796206115e-03
1.395013449179953978e-02
2.142968286712332998e-02
5.027203759607207917e-03
2.255266248742160418e-02
6.008431347193792654e-02
2.799020787778803282e-02
-6.589069986708406823e-02
-8.731262517209585627e-02
-1.742406974494726049e-02
-1.089412534546734500e-02
-6.405094476157385808e-02
-1.459930844209283811e-02
7.035844808882997514e-02
3.924513196538995108e-02
-1.257983533469729173e-02
1.673629067574329207e-03
8.255551501383793719e-03
9.982809892135026050e-04
5.882093867862144693e-03
-1.544080942321305987e-02
-4.367297548019500458e-02
-2.709153269387327978e-02
3.113484019172883897e-03
9.468318835869668493e-03
1.537598863567718813e-02
2.338574147466939215e-02
1.372120831987607217e-02
9.662361750750464787e-03
1.926007103638011086e-02
1.492557777787536892e-02
2.016470930516425872e-03
-1.229169665561482758e-02
-2.753590782858424471e-02
-1.413915308256066643e-02
1.339026841322069755e-02
1.033364714838348394e-02
-1.285418656494803809e-03
-2.163353816423419125e-03
-1.987452512186242345e-02
-2.990160310700481008e-02
1.285031350570604164e-02
5.728412371545679033e-02
3.779047676296905245e-02
-6.004812955148833287e-04
-1.025540762732193509e-02
-2.928765717871414931e-02
-5.661769697901836151e-02
-4.667739553142025849e-02
-2.171166725533968042e-02
-8.159488351937025860e-03
1.088305011579060802e-02
1.991559728443276570e-02
4.341774098416859365e-03
-7.168391524643629407e-03
-1.038795421203213450e-02
-1.772802140381980057e-02
-1.437226729839452891e-02
1.176010210103415905e-03
1.363666537295375042e-02
1.771558106213194650e-02
3.601690844345876042e-03
-2.158807869450818373e-02
-2.156138836074117382e-02
7.901155318595393107e-03
3.349836477294641096e-02
4.559477479353415963e-02
4.031103987360025454e-02
-1.206903947994376631e-03
-4.934918127207233579e-02
-2.972970779769627467e-02
6.108617176947255673e-02
1.007862243802344765e-01
2.348127587892347157e-02
-4.372909458850546272e-02
-2.619780530723186604e-02
-1.658556863367530859e-02
-4.090771748220519560e-02
-4.188088787644486666e-02
-1.947422681089386320e-02
-4.371403281664692705e-03
-7.184901734638596965e-03
-1.161239003352514641e-02
3.191422646072624401e-03
2.043151038435571387e-02
2.421951760139658474e-02
3.352483363065628108e-02
4.064577043850396004e-02
2.094997550650988874e-02
4.876803847184980022e-03
1.989870028988856288e-02
2.403854592893707801e-02
-7.501923745102176758e-03
-3.418039468578568801e-02
-2.961903114698243716e-02
-5.829916484194337493e-03
1.975105076495188572e-02
2.991346885508696513e-02
1.958519950255787137e-02
-8.849560198382490361e-03
-3.813230612873735187e-02
-1.931341970651308595e-02
3.741442155472538694e-02
4.878252332848358186e-02
2.006781324542138145e-02
1.480051386521190511e-02
-3.206855495518546109e-03
-5.735456917830907692e-02
-6.570044703624067228e-02
-2.529187287427043379e-02
-1.800283946198176152e-02
-2.971483312143948993e-02
-2.315099888037768297e-02
-4.164238913476064896e-02
-8.620150338528702327e-02
-7.369564735262597310e-02
1.849101838764345349e-02
9.785130635859720649e-02
9.958481414142142385e-02
6.757446030900714218e-02
4.189471750235007619e-02
1.528309056155999560e-02
-8.061836673929121885e-03
-3.154114111830846889e-02
-6.133521560167966291e-02
-6.701311446496820146e-02
-3.213904656712940344e-02
5.497961445698532762e-03
4.820878227330000973e-03
-1.700561838950973362e-02
-1.768835188239385736e-02
-7.825377814807726179e-03
-1.059927586438678786e-02
-1.063391369509875291e-02
1.223354006460805957e-02
6.804257458019422056e-02
9.963112098340730360e-02
2.961415732715278262e-02
-5.236220408235397333e-02
-3.391992923213901778e-02
-8.324914778996279907e-03
-2.116500656723673685e-02
5.537776409110395370e-02
1.542249703920072212e-01
7.954507336175098420e-02
-6.212909093385703130e-02
-7.065268550092389244e-02
1.560270757089463056e-02
8.452952599656718413e-02
7.243078977039658917e-02
-4.490533345884896790e-03
-3.047098128589317834e-02
3.522217336260759918e-03
-1.868630213472755042e-02
-6.645243383730954634e-02
-2.906722557548622674e-02
1.529679138732488973e-02
-3.459048462853042682e-02
-7.392412053852798204e-02
-2.662573101925850769e-02
1.416390581299888790e-02
1.452847667697520009e-02
1.806241606273307349e-02
1.451075941100776583e-02
5.545316711574065083e-03
4.752492861423008967e-03
-1.656724643745851461e-02
-4.669107000523867873e-02
-4.124311720805711595e-02
-1.264236516138286109e-02
3.254499763153094645e-03
8.559984097395936450e-03
1.182315109898436113e-02
-1.017493859762870836e-02
-4.341855503936019323e-02
-2.753024671077769492e-02
1.433481271635203037e-02
2.029996552406461083e-02
1.549399608803289988e-02
1.849839225282038507e-02
1.635921144716474471e-02
3.177046380097647837e-02
3.458858473136470352e-02
-2.375366323249782780e-02
-1.053444738835606354e-01
-1.338011684355770725e-01
-3.839382088360471235e-02
9.352927301613546407e-02
6.625159920947056025e-02
-4.250423474945803914e-02
-3.800011103166925364e-02
2.040339889239829729e-02
2.213724661208793174e-02
-1.776385955189695859e-02
-4.088183096337777434e-02
6.262593993487230309e-04
4.945097474041681984e-02
2.138010062185949356e-02
-2.246039714827717873e-02
-1.479788307987216570e-03
5.932187740996254510e-02
1.237061119665486680e-01
1.578383829258082904e-01
1.264735443959913719e-01
8.829627235980920530e-02
1.147037523609185511e-01
1.317494491527005374e-01
5.852420624910708441e-02
-2.364733135952691578e-02
-4.062645082061374507e-02
-5.254416255478258635e-02
-8.332306213871457090e-02
-9.772217566631437313e-02
-1.264386771428598899e-01
-1.637305251320075872e-01
-1.457958801371821156e-01
-1.057571386796430646e-01
-8.393150156802653417e-02
-4.842530967313209145e-02
-2.351692007092320152e-02
-1.894472732727838643e-02
4.403386543766592276e-02
1.162406979199210877e-01
4.751770459267033730e-02
-7.491378778873211686e-02
-3.967691618839423728e-02
6.373500051969799296e-02
8.872992028391535335e-03
-1.049017993130424431e-01
-5.282029450958577316e-02
6.110906218436630566e-02
4.077648929666184696e-02
-1.972173948336514160e-02
1.349273643326884611e-02
6.516159548645243660e-02
6.161664026644646242e-02
4.365320595910639895e-02
3.338739032136497920e-02
1.527336005692680326e-02
4.154817131625338986e-03
1.378863499659696741e-02
2.874871995461088237e-02
4.010948770665664909e-02
3.746832381725059835e-02
1.144315681890135245e-02
-1.047031689554077036e-02
-2.754694500515558059e-03
1.698937655947662523e-02
1.181191744427302279e-02
-2.512419728330159141e-02
-4.110152001362094021e-02
-1.541386197865290963e-02
-1.251105862833241239e-03
-2.075480694307024841e-03
-1.183069964597511549e-02
-7.546205743822076428e-02
-1.179908489166087426e-01
-3.050041292694334952e-02
7.421898215926260589e-02
5.443297615463085770e-02
-9.430805080990369363e-03
-6.533953588480983024e-03
1.247331659768677672e-02
-1.689992996435044428e-02
-3.437529516194572088e-02
1.031338438424184503e-02
4.555950162813038329e-02
2.699224342046156050e-02
2.375145157946853547e-02
5.634097176343564467e-02
5.014830007568425729e-02
-8.034821652972293574e-04
-1.868872835867500110e-02
5.094209739652447513e-03
-2.088872949174382185e-03
-4.917660689852306616e-02
-4.907899109598133636e-02
2.861607475995276220e-02
7.492248310349590434e-02
7.338772606434215695e-03
-6.654053700719550490e-02
-3.246725508906087715e-02
2.238870913315852557e-02
1.664158412534988071e-02
1.362782343575381049e-02
2.183747557663898164e-02
-1.613405572602688402e-03
-3.079485293839399548e-02
-5.932608030918339048e-02
-8.453950686666467096e-02
-5.198397093145266240e-02
6.865707515753088214e-03
6.446290426759754624e-03
-1.819975772130729558e-02
5.818456100585771111e-04
2.952461932539160450e-02
1.598753052799499128e-02
-2.713485462690446229e-02
-4.422753060716110018e-02
-6.308350619978656849e-03
3.404020999297609207e-02
1.800294496711488113e-02
-6.739516803140600115e-03
2.214974383742768227e-02
4.206759087852339485e-02
-8.399473617904679862e-04
-1.075591634065800085e-02
5.687166616135833075e-02
7.856600320871556797e-02
9.923500207615648661e-03
-1.375242770422304035e-02
5.770058441730060994e-02
5.702076643244628068e-02
-7.026579906538150955e-02
-1.082867019900799893e-01
2.235968016513004142e-03
6.462927658373097961e-02
1.573964734706118085e-02
-4.972542413745297679e-02
-4.847011323035869956e-02
3.339530250425019886e-02
7.886171882539175226e-02
1.848696703227609844e-02
-2.032246944019971968e-02
2.940606683960901233e-02
7.416479346832817454e-02
6.340866952195352291e-02
-9.773453850115468994e-03
-9.903322075715900730e-02
-5.903822416233023285e-02
5.003466336623050431e-02
2.098597793772713146e-03
-1.073876557239928087e-01
-7.672765810746820514e-02
-2.843448987596751409e-02
-8.303236368578251203e-02
-1.108010694439810068e-01
-1.301389973472474870e-02
1.096763850638944465e-01
1.030928824869330740e-01
3.402258282955084728e-03
-1.025667053635968828e-02
5.481762187219495208e-02
5.445796671888670365e-02
9.959361696409763098e-03
1.039341919771064049e-02
3.273861409810033263e-02
2.769828242055984505e-02
-2.321386058409263126e-02
-1.001534493693116146e-01
-1.255977596596910550e-01
-4.079813371862814342e-02
8.819043145313355814e-02
8.680245206104764133e-02
-6.458573966321536075e-02
-1.211032466738014846e-01
-8.718062540084826201e-03
4.108865411826025105e-02
-2.620241340484682005e-02
-4.303098042227632841e-02
2.587425389128186065e-02
8.141173994186087781e-02
6.234916082150016026e-02
1.889395334953113820e-02
3.797530959382230259e-02
9.429723117792268572e-02
1.094726347664970317e-01
8.415965585344645228e-02
3.472480893504413524e-02
-3.324324926346518272e-02
-5.748492968241520479e-02
-5.288392381998298364e-02
-1.311365408746033578e-01
-2.049974088596347166e-01
-1.163738828656178392e-01
9.608288503629842242e-03
5.264121572687622402e-02
1.179339644029771816e-01
1.843013548239346433e-01
1.198708673219452125e-01
-2.356529017034062964e-03
-5.663397828353239349e-02
-7.824899177781410864e-02
-1.084675939813100620e-01
-8.968127363389577500e-02
-1.721240703071586636e-02
3.598740806751687255e-02
8.477312733272077128e-02
1.562734456836561980e-01
1.451064619250732046e-01
4.425094951065765281e-03
-1.226816344346134957e-01
-1.212484736881337538e-01
-4.726501472482109306e-02
-1.779354766135001712e-03
-1.675219982473526159e-02
-3.623302377231098215e-02
4.169107695029705034e-04
4.308627201849589416e-02
5.964746802068297132e-02
6.455740306384870342e-02
-2.868783226679188017e-02
-1.683316972231210240e-01
-1.467345486791598042e-01
-2.966982991920247975e-02
-1.658873081738550595e-02
-6.855530433689226155e-02
-3.821487041881475172e-02
7.903942655313123122e-02
1.216250226799002188e-01
1.998425778171007347e-02
-7.122682734229718315e-02
-6.139809425682859340e-02
-1.352902565617331195e-02
3.854589905879714229e-02
6.782162527456818413e-02
5.353840890542767295e-02
4.566623759201797472e-02
8.442265576763581525e-02
1.440316710490744945e-01
1.458384633945574993e-01
8.933485124135417954e-02
9.904615830883248262e-02
1.485250360891189336e-01
9.075063431999241814e-02
-5.405200690066879268e-03
-1.751325769625169948e-02
-2.741842576265489384e-02
-9.885745299327136637e-02
-1.366402264892213059e-01
-1.048388408640891084e-01
-1.129899076445870926e-01
-1.908988483230547317e-01
-2.029342605757894213e-01
-1.046981061520831230e-01
-2.151725308216769980e-02
-1.568417250822233544e-02
-2.844827817494724118e-02
-7.389620341690637112e-03
2.982658920720885135e-02
3.652321192762281177e-02
2.217173269416345543e-02
2.659688733226683865e-02
4.053791548824119129e-02
3.071784278132628013e-02
8.493290944644495133e-03
1.448981091544451760e-02
3.555474946414706461e-02
3.274476713104199077e-02
2.126352753317682295e-02
2.037682377200504547e-02
3.078776223744338070e-02
6.458874653550270017e-02
8.942257399942769858e-02
5.243557236650760872e-02
-1.384843570340840366e-02
-3.812643932012324544e-02
-2.402670726481215616e-02
-2.520970297137619873e-02
-4.243406572668259602e-02
-2.797463439207514835e-02
1.353122597028996212e-02
3.059626619941805195e-02
2.228332731624813393e-02
1.294780909658062827e-02
-6.763866803617708291e-03
-1.560891121327493726e-02
4.322501847594433302e-03
-2.156116436545967713e-02
-8.350505144666607593e-02
-4.124009355087479567e-02
6.390060779416209535e-02
5.429234420736590155e-02
-3.706481736360005275e-02
-5.319189902195529951e-02
1.158028280052200189e-02
4.334176825724614379e-02
2.646751985818009828e-03
-3.168392903877343542e-02
-1.910686961973503267e-02
-1.190462587150405843e-02
-2.357596220286375249e-02
-8.300842410558104123e-03
3.719593621830978580e-02
5.801504773081339605e-02
2.830857957947190487e-02
-6.644051798134676182e-03
-1.910722091792619107e-02
-2.662454917406253257e-02
-9.359813900931903546e-03
3.843861214171033491e-02
4.993927025574269873e-02
1.512290790704786704e-02
4.533496799633095556e-03
7.680381541159774991e-03
-4.318297122562606699e-02
-9.056630058574063891e-02
-5.056934218135054893e-02
-2.430006196854614386e-03
-7.398317855177105953e-03
2.216378160586820502e-03
1.550809606133131922e-02
-2.068591135671859343e-02
-4.216799948820964400e-02
1.886461367417002072e-04
4.878709134424642074e-02
6.025124518840158788e-02
4.294582696520511667e-02
7.508938902994860033e-03
-2.138667861665341507e-02
-1.130163265436742726e-02
3.175336594452106420e-02
6.342961161885070365e-02
4.746262209897707252e-02
5.424988706196428104e-03
-9.493296156701464331e-03
4.596948025713675987e-03
1.450706056033119681e-02
1.017621315630679382e-02
-8.520223818751126305e-03
-1.767934818217392623e-02
1.111190162688584573e-02
3.760240182702380418e-02
2.293476970347083088e-02
-1.021151802747384887e-02
-3.387739822079091634e-02
-1.371774437017979006e-02
3.511022333943963902e-02
1.754913024278405287e-02
-6.482550444240259280e-02
-1.123684714673778562e-01
-1.170983541435455522e-01
-1.137186520873379875e-01
-8.432471752170836443e-02
-3.037195142061206374e-02
3.126753036755283016e-02
9.037401505816396174e-02
9.206329893267918563e-02
2.138237030077760892e-02
-2.447280235302476056e-02
1.176242754788198175e-03
1.622692681088440392e-02
-1.213075575433032738e-02
-6.154810155539862382e-03
4.631611715674711915e-02
5.733608265721726327e-02
1.861257380945113490e-02
-1.525514982869360589e-02
-6.959637964109531560e-02
-9.568394729925301656e-02
3.577072698933876638e-02
1.752847406506989614e-01
8.977327659822416372e-02
-6.186579003200049637e-02
-5.394841499386514305e-02
1.855046140597178816e-02
3.882366546676610519e-02
3.139646142455233824e-02
-1.555048586207738621e-02
-7.764186508209033888e-02
-2.026536294500398336e-02
1.254784369277087974e-01
1.309419982523050696e-01
-1.343301955532488073e-02
-9.756197396109819731e-02
-9.692329065815086242e-02
-9.098992165744215765e-02
-3.705883103885562052e-02
4.694905987242784656e-02
5.674163377453939061e-02
1.858791704840337053e-02
1.468468983688330474e-02
2.151995613044389508e-02
1.301555895100018657e-02
2.983787321902616613e-02
5.694944353278755256e-02
2.525354900564114047e-02
-4.485606502810410290e-02
-7.238285844939966462e-02
-5.452271105481441837e-02
-3.318578102645442646e-02
-7.227265062513823189e-03
2.469798802863013010e-02
3.535249852253686403e-02
1.785316317861800756e-02
-3.799720281760753104e-04
-1.183833404481105097e-03
-8.105189256835804851e-03
-3.950366076731504777e-02
-5.824074529493306063e-02
-3.532031986942640867e-02
-1.256363044021600352e-02
-2.338925354593410222e-02
-2.407203290464406814e-02
1.287212397528464565e-02
3.242197035727800714e-02
1.334840633906176147e-03
-3.476991231464665599e-02
-4.422329234228345590e-02
-3.538954140977341317e-02
-7.320757568035712003e-03
2.895478461566446463e-02
6.489530478304296468e-02
1.082374289736071915e-01
9.094714868909065109e-02
-3.141731467327251587e-02
-1.088080019666035209e-01
-3.534005779144336334e-02
5.524370436460345618e-02
5.733204555326793656e-02
3.890162536512442593e-02
7.193912363341170568e-02
1.323801642269782086e-01
1.463702774356599734e-01
8.736217950126264065e-02
8.565183835475945889e-03
-3.661261999395580558e-02
-6.872142949534980338e-02
-1.230616024528914110e-01
-1.381434242815032520e-01
-8.149846393550366774e-02
-7.727243268006897536e-02
-1.210095731753766946e-01
-4.871387973643612201e-02
5.289835626690544967e-02
1.265213416148911613e-02
-6.040738495061057090e-02
-4.515889218504660213e-02
7.002446894394578208e-03
3.713196590397647989e-02
2.324021274490527256e-02
7.125054626824257886e-04
4.311293197461380650e-02
1.148212714127452433e-01
9.943349505991298798e-02
4.239373424009618488e-03
-4.710694259593131705e-02
-1.724532814080956267e-02
3.625488681735380275e-02
6.413875859009893210e-02
2.140613339536095311e-02
-4.542143043450626305e-02
-1.807440667779262183e-02
3.624787427276899426e-02
-1.391651167244596643e-02
-6.922715915457178237e-02
-2.472093976229010337e-02
2.578363615753275287e-02
2.325307125977333148e-02
2.029737073854461990e-02
2.969112198272227596e-02
1.178345456827446791e-02
-5.213498808183329725e-02
-1.025144906486081808e-01
-6.669193029485316615e-02
