6.058506927379403439e-02
8.664417690618425594e-02
6.919036440098083607e-02
6.465116556334203624e-02
8.071606847293269493e-02
8.439211800326369695e-02
3.521917712249061916e-02
-6.698498452077836229e-02
-1.664003924218286357e-01
-2.031694240355666758e-01
-1.569332543600507335e-01
-6.574594363877450665e-02
-9.146900158234511774e-04
3.260791005883000027e-02
1.101441077087468995e-01
2.163323437690210516e-01
1.790491071171108894e-01
-3.067261920887589394e-02
-1.576313398891787676e-01
-9.005943461547735729e-02
7.595220262317570192e-03
6.265319396553140074e-02
7.235262587575325144e-02
-5.548536753294173313e-03
-8.403033126113844398e-02
-6.415385765561282261e-02
9.271106181183149525e-03
7.608470118986032649e-02
8.355172521445154710e-02
1.167899758982091953e-02
-3.771033687296779235e-02
-8.072994756267156541e-03
2.229963033496887986e-02
2.347440677844270587e-02
1.804668922115117147e-02
-1.969033851793871789e-02
-6.831627841147178137e-02
-4.499798571889038201e-02
2.712058153188019738e-02
5.567925280908229968e-02
6.819448319802341729e-02
1.163228472486827342e-01
8.212551690046256125e-02
-1.043911311092067806e-01
-2.058026179279311141e-01
-5.637039298814297550e-02
8.039353364329963891e-02
-3.513183045188755099e-03
-8.401070200371675567e-02
1.291126531601951080e-02
1.044834144682262600e-01
6.503151689961600423e-02
3.011485078255563344e-02
4.825180880473411982e-02
-3.730187955773389512e-03
-1.062642428826093138e-01
-1.126965117705408248e-01
-2.940594552379092314e-02
2.470009500497904673e-02
2.070955219286067794e-02
1.499122070368113721e-02
3.882524763025999720e-02
5.646232669719371267e-02
2.353458583171375365e-02
-2.641020054919236693e-02
-3.267985545896579663e-02
-2.299963456336115777e-02
-3.648080212813521045e-02
-3.066212120594296806e-02
-8.745895980977056589e-03
-3.406664982898504473e-02
-5.973132285305377681e-02
-1.015724170868520862e-02
2.246903434340360994e-02
-4.858487559513589155e-02
-6.687688756430057446e-02
8.809549868835316044e-02
1.806864943571606374e-01
-2.637672202782784248e-03
-2.408713643398880666e-01
-2.466676897110093303e-01
-8.311099228035512265e-02
5.979675968438875194e-02
1.264982980793545042e-01
1.138385469444930520e-01
5.415691898460514575e-02
5.039721823942618778e-02
1.114753812727684174e-01
1.348352007369147676e-01
1.292462591024763907e-01
1.833751364756533719e-01
2.440843858095726460e-01
1.964532281499030697e-01
7.838207093477082832e-02
-1.015715092620161214e-02
-7.394398431895479740e-02
-1.368524704551334903e-01
-1.725892461873921591e-01
-1.860741516666653272e-01
-1.904085153051258139e-01
-1.628720765933294179e-01
-1.304863341349277728e-01
-1.223170517113122274e-01
-8.154111420577746239e-02
-3.211800217894490717e-02
-6.215061040122836500e-02
-8.699512535274975256e-02
-1.524080698832729758e-02
5.690374410136723321e-02
7.007280882135592803e-02
7.658179871929603200e-02
7.986398880055040062e-02
7.696586003004980692e-02
1.055101050408062124e-01
1.205258100520095049e-01
5.319348279783341071e-02
-2.964465311475235343e-02
-4.183812628182498328e-02
-1.740269363557250815e-02
-4.608088015267476287e-03
5.271143778960614597e-03
5.511932051790728593e-03
-2.049333665152014775e-02
-3.462572499170449292e-02
-1.557605161320457093e-03
4.256859042920690256e-02
5.843188080917509353e-02
5.387404615303641869e-02
4.262226780071314697e-02
2.910284765758957420e-02
1.417210403526442813e-02
-2.108839860628660551e-02
-7.538488533638211531e-02
-7.117063141340494725e-02
7.343709579985377781e-03
2.754855494034087748e-02
-1.303034308880072698e-02
3.621364319574436191e-02
8.561814989730240355e-02
-4.981516938658853144e-02
-2.171773270614233142e-01
-1.975293663556144386e-01
-6.182586322472334583e-02
5.571689769505235729e-02
1.039603832369519476e-01
6.614800664903590366e-02
2.375761168550780469e-02
3.905978102105460426e-02
4.809332367986168116e-02
2.656732012047544056e-02
1.220151128354931419e-02
-1.401817135111048732e-04
-1.650454964532985236e-02
-1.509641097501308177e-02
4.019250574076004001e-04
1.096721479090989257e-03
-1.095835249246382946e-02
-7.101646452840194683e-03
1.119770624078360310e-02
2.501476243004730274e-02
3.395027196510991274e-02
4.187299623968922940e-02
5.975222610286873987e-02
9.399953984535669438e-02
7.564866556819892229e-02
-7.874557919268659889e-02
-2.453983316219908728e-01
-1.895219096860574215e-01
1.461778142074492831e-02
7.718188761341658599e-02
-5.223695100542054270e-03
-9.339903698694024606e-03
9.108626460550628412e-02
1.069576011030842627e-01
-1.928752711238399323e-02
-8.990004236726545361e-02
-1.908539641900422815e-02
1.846487551161257040e-02
-2.776013676093129490e-02
-3.235197498844617769e-02
9.960270139289854191e-03
3.304991995119022086e-02
3.966896521860847902e-02
3.946420371008586836e-02
2.551637125565259928e-02
6.569941618830762824e-03
5.662485123873015232e-04
1.053439574720730146e-02
1.059369119401977997e-02
-1.190992013123648614e-02
-2.447454764177953851e-02
-7.494877608204062250e-03
1.253058659799241538e-03
-2.998351872989430539e-02
-4.008113758248451480e-02
2.203393064178787303e-02
5.295028431649457384e-02
1.387939096261542674e-02
3.883533996525959098e-02
7.240083854346826553e-02
-4.745423795591278970e-02
-1.798653452280715437e-01
-1.562848138216650362e-01
-5.740713433474460559e-02
3.797076266718278637e-02
8.605936262953228777e-02
4.735921121327171801e-02
1.033283137623825301e-02
2.555749024526115382e-02
1.433521271641376507e-02
-1.873013450884160672e-02
-9.529142229902811193e-03
8.152563193321110679e-03
-5.764680104754692225e-03
-9.861671608458471780e-03
1.696572325599965403e-02
2.477848991085564861e-02
-3.937667615764928360e-03
-7.441844639792059152e-03
3.895921524325682284e-02
7.879579364602608271e-02
8.374975679837241838e-02
6.635685087978336616e-02
2.564211621378088835e-02
-3.677109677672121130e-04
2.465413576763684361e-02
-7.210653881049283037e-04
-1.274039724043729838e-01
-1.701643299587830560e-01
-7.287855692477152036e-02
-2.403880591707465222e-02
-2.759251704980397388e-02
3.454932174448720889e-02
9.213858628021873165e-02
8.642024763616200367e-02
9.913055245242205493e-02
1.180751601593153649e-01
3.932937813552247336e-02
-9.730865118789165658e-02
-1.681853009074156802e-01
-1.560515460605550742e-01
-1.025159389606695587e-01
-5.454185391598787708e-02
-5.478279075992689706e-02
-4.834775245231349994e-02
2.885175334524558988e-02
9.482343658914087203e-02
8.379803488056492000e-02
7.656691240650148611e-02
1.050323892791834163e-01
8.708152472080173123e-02
7.518069633277713743e-03
-6.059574227982114647e-02
-7.011724988432257999e-02
-1.195267362892336177e-02
6.524599174901050957e-02
4.779642529169844667e-02
-3.778223067764859000e-02
1.227918079420575737e-02
1.718275333892537171e-01
1.314464126335984917e-01
-1.367952665605751683e-01
-2.882365451805084522e-01
-1.843807671061121756e-01
-2.825769834456420479e-02
5.557931183592643154e-02
9.934887633210053026e-02
8.157468823262448154e-02
2.284130402610443783e-03
-3.481574461562703116e-02
6.894373890424243534e-03
5.477375921985540297e-02
5.349596264865245920e-02
1.045788493750193782e-02
-1.563116277526810372e-02
1.523144985265827492e-02
4.727365570969101205e-02
2.925648242185674430e-02
8.683369392002407774e-03
1.572884432439444410e-02
1.341596622689293639e-02
-2.744093810231102229e-03
-6.273882924966040116e-03
1.433999011718129976e-03
2.118136125381495788e-02
6.441553092279538040e-02
4.706529544500680923e-02
-1.175878540718223175e-01
-2.332735966850424947e-01
-1.024269572753737367e-01
3.062546376359880432e-02
-4.559315002079016022e-02
-1.011020986226287693e-01
-5.555451635973939623e-03
5.673568687591570847e-02
3.900539909445523146e-02
4.894502506327809421e-02
5.584797556256446138e-02
-5.643250229811840393e-03
-7.140567604921996270e-02
-7.371383562304020809e-02
-3.359648460346986026e-02
1.312521202293171971e-02
4.641198881206468757e-02
3.674785519910467313e-02
-1.775521323488233119e-03
-1.038380085607582513e-02
-8.108482009845150926e-03
-3.123901149712777700e-02
-7.313149352014838844e-03
7.120012154534921534e-02
7.373434319187396890e-02
-5.212376272080185974e-03
-2.588083783033108543e-02
3.222791674836762016e-02
8.328828630560802804e-02
1.032549932998139131e-01
7.105663916973259386e-02
1.603770999938835748e-03
7.171682699113349213e-02
2.886009329943572399e-01
3.137962826013045992e-01
6.084166693894193373e-02
-1.288664764889276004e-01
-1.125178516932201223e-01
-5.156634176622142823e-02
-2.592538175592425109e-02
-5.308305913114885061e-02
-1.476648491149159803e-01
-2.081068484817477915e-01
-1.824715555581178650e-01
-1.632121970769161434e-01
-1.637705393999839554e-01
-1.247562637127715146e-01
-6.431409259320995664e-02
-1.666701843673679129e-02
9.330892045628869091e-03
3.407429188683593763e-02
9.649296665998408074e-02
1.157623195820645101e-01
1.303613241464974398e-02
-5.437486015912351006e-02
1.836742114968418702e-02
8.112415708671716352e-02
6.077063351059594498e-02
3.751211313699161914e-02
4.093940329790962673e-02
2.726625947386332113e-02
-4.086912026717431229e-02
-8.120693685462944400e-02
-1.149803258754156232e-02
4.880232589697854756e-02
1.916533937420991651e-02
1.357907300398292390e-02
6.288388010587021848e-02
7.947159498264924626e-02
6.805209664716879714e-02
6.994668268253960430e-02
4.591412323608154433e-02
-1.986493182643611632e-02
-6.755951787899264205e-02
-6.198677650767384084e-02
-1.183552786134390092e-02
4.244405462567076015e-02
3.108814824393674181e-02
-2.201583007853891161e-02
-2.031302854990535423e-02
-1.147959053747253655e-03
-2.973814467400804837e-02
-1.262397380387748382e-02
7.526175081029885805e-02
9.176707478122636541e-02
1.898636394302768288e-02
-2.497297431490821951e-02
-3.203156884619093314e-02
-4.908837655146335716e-02
-3.165162297412815046e-02
1.167498908553885918e-02
-3.023990194943617510e-02
-9.251573964942080841e-02
-1.823671106950711107e-03
1.150546982376847022e-01
1.209123383134054833e-02
-1.920039976242852720e-01
-2.170632330767835738e-01
-9.072979692772084603e-02
3.870973662505109575e-03
4.233645352843783821e-02
5.009629009821381374e-02
3.446995574649022731e-02
4.462086737982873252e-02
6.705274162309853014e-02
4.538095210713365135e-02
1.373969800552452339e-02
2.394679373046937343e-02
4.798635622707556753e-02
3.694964275940645915e-02
-8.956776188620389767e-06
-1.150340147075092946e-02
5.562200733374357553e-03
8.325526941709945894e-03
2.735305255382232230e-03
1.610508063706563020e-02
3.499216945527686834e-02
3.944175842306248125e-02
2.699117439788351405e-02
3.438084165203075804e-02
7.470343765716518092e-02
1.838128538328431469e-02
-1.647757614010577076e-01
-2.035342019190295171e-01
-1.456206387402154273e-02
9.132326852194835864e-02
1.169328618057698110e-02
-3.167026985104751807e-02
1.067106774391318735e-02
1.991052456737412574e-02
2.094788276255283785e-02
6.678145155872229621e-02
5.282151251100339340e-02
-4.887006724511347433e-02
-8.412560825125481312e-02
-2.877135233366793360e-02
-8.371342236542280921e-03
-2.496577943740211497e-02
-1.577408786847446162e-02
-3.493355274854652998e-03
-1.094922373313950495e-02
-1.319358307731777376e-02
-6.439081842390093589e-04
1.237053524964125406e-02
1.990931732318075922e-02
1.373038286069457395e-02
-1.187805780853293247e-02
-1.003342136046857236e-02
1.955647391766370674e-02
-3.414172987902432121e-02
-9.161592511188616783e-02
5.964482993916359055e-02
2.144812284263909463e-01
9.907079876840965693e-02
-2.589108530772446515e-03
9.292055240067464972e-02
5.802455030261294278e-02
-1.586489874763040708e-01
-2.211277877181163642e-01
-7.578098465689594998e-02
6.211761008299276909e-02
9.759586698822422801e-02
6.811164504930575236e-02
3.011983884183710991e-02
2.937899118697671549e-02
5.347833202759451343e-02
2.092861383194924429e-02
-8.852838857319139665e-02
-1.583634647100267412e-01
-1.143164755909132635e-01
-3.880965548048174313e-02
-4.055056799583565616e-03
1.406190650807216669e-02
1.648366869057802525e-02
-2.588839762003448258e-02
-4.929010737732379688e-02
2.834640627968810014e-02
1.119971884298270048e-01
5.798763904875608305e-02
-5.184215128011625262e-02
-1.765236228112031236e-02
1.306888868826360239e-01
1.049753816950946966e-01
-1.278897175317339208e-01
-1.694696468385133714e-01
3.637547258651310095e-02
7.234775641079346786e-02
-5.415871299865997190e-02
-3.054722896118916911e-02
3.896445330608265534e-02
-1.353611550749657562e-02
-2.441530201359183583e-02
5.063265213542920973e-02
1.003612625830432870e-02
-9.167554231695196343e-02
-1.106727635628013129e-02
1.321906953561507170e-01
9.094126244786465696e-02
-7.491232478161920227e-03
-3.137415980367999624e-03
3.289914915318799607e-03
-2.204990229574068164e-02
-2.501475624143852453e-03
3.618325275156952098e-02
5.185410565908279285e-02
5.227609954728059533e-02
2.517239792780291696e-02
-9.438462746392463354e-03
-9.830188054704955963e-03
-3.765574033493380643e-03
1.216292297069661299e-03
4.281330752554549091e-02
4.954317897370775353e-02
-4.745327988256637514e-02
-9.621752237093519899e-02
2.306752114646845250e-02
1.053998103864166036e-01
-3.778672200506703882e-02
-2.222015199427548604e-01
-2.205962580239245185e-01
-9.722040411931734405e-02
8.834818635634469897e-03
6.647176097066104239e-02
8.165977811809364828e-02
8.248800279608278774e-02
7.621768489961733284e-02
2.839351181646520422e-02
-2.705604944005283313e-02
-2.863529470948349143e-02
-9.949256791552769583e-03
-1.513521826588347559e-02
-1.085617075692495159e-02
2.369341483454639671e-02
3.917011748344478850e-02
-4.334284761749341436e-04
-3.939527888021795987e-02
-1.617258524690427454e-02
9.604535714769163110e-03
-2.782401542071111580e-02
-5.379375361341579703e-02
-6.084311143345278589e-03
2.485860841861519885e-02
-3.108527228349815263e-02
-6.916710559175709427e-02
8.506378727120029321e-04
6.200109877227059918e-02
-4.230966660227673815e-03
-8.903639170839011685e-02
-5.083025973239529982e-02
2.574142757268413351e-02
9.212219763591343591e-03
-1.326665735765911354e-02
5.659160591783943955e-02
1.087218292356504218e-01
5.331145294568220838e-02
-3.568752494312482648e-02
-7.310684819604126861e-02
-3.137515761327820674e-02
6.275143341271972874e-02
1.253392545885313458e-01
1.321383965682778883e-01
1.527878131594228306e-01
1.915150168335502667e-01
2.084194495437325101e-01
2.304549003382611594e-01
2.035147420664028817e-01
3.931508700945207657e-02
-1.072347202516607256e-01
-8.870069109119595174e-02
-6.602475241808786199e-02
-1.571822818042448444e-01
-2.539406416037499059e-01
-2.739842766427353915e-01
-2.264165837701650474e-01
-1.909936157654802125e-01
-2.070079982706333477e-01
-1.262707012432675024e-01
6.362520196610729761e-02
7.911375530565459280e-02
-1.238999953793137321e-01
-2.253167345171294966e-01
-9.148201093963505282e-02
9.628819641924390993e-02
1.799538546442708276e-01
1.576831982673165822e-01
1.035478186770862619e-01
6.858556208457464165e-02
4.981825232368230355e-02
3.913993859148508225e-02
3.054968411820246574e-02
1.478567650296181216e-02
4.784306578921510011e-03
1.475443766941905016e-02
3.658400141801160937e-02
4.992327389566687812e-02
3.561351394104236845e-02
1.195920575185907726e-02
2.705590513194684396e-02
6.785476979456350755e-02
5.777345746460953169e-02
5.750951164950283273e-03
1.239607665700272546e-02
4.399277666815989279e-02
-1.360847355712763510e-02
-7.981621269000653551e-02
-7.523878899723451807e-02
-1.024131990693177147e-01
-1.345814681484007458e-01
-6.662082855980930307e-02
1.425614894878923268e-02
3.934025820475728352e-02
5.716812814473803267e-02
7.310837718273013874e-02
8.916993398073580490e-02
1.007074827930280192e-01
5.277084959818162391e-02
-3.090011828788243389e-02
-6.580792654257373864e-02
-5.351397130528338930e-02
-2.523282640719999928e-02
1.818181862175785590e-02
2.931763078347478582e-02
-1.355721103129919371e-02
-2.702239807159813323e-02
5.717176793172277019e-04
-7.592613597739464489e-03
-1.507045562666247535e-02
2.872491421869246067e-02
5.017710843273836402e-02
2.059322990556545357e-02
-1.985247745825080828e-03
-6.790371535513397422e-03
-1.715930683422583342e-02
-3.259368772790426083e-02
-2.112265762542678282e-02
3.380266404558571885e-02
4.888543452118553762e-02
-2.651339356253327312e-02
-7.735325161707246044e-02
-7.642725979325298846e-02
-1.261067975062125091e-01
-1.521560898705827947e-01
-5.934511777519342612e-02
4.067238855871042197e-02
7.586706217704564104e-02
8.596494766523832265e-02
7.262914714727335130e-02
3.645059883059269257e-02
1.170299316287269110e-02
1.516221062746774158e-02
2.229223279717839484e-02
1.316467266498751870e-03
-1.925153232023641553e-02
4.231803883570535441e-04
1.759254093886942344e-02
-3.620051756930775435e-03
-1.692189656459382185e-02
-5.062799858756782470e-03
-1.681919972710407482e-04
1.006575430506694360e-02
4.648588569957583239e-02
6.686952525634827504e-02
3.727981066178573388e-02
2.082865001676104111e-02
6.024794037883451914e-02
2.986434215415369881e-02
-1.239374135836295299e-01
-1.769752232404615822e-01
-3.845543312989426615e-02
6.298585419900729065e-02
4.161371604822033249e-02
2.309553252752744729e-02
2.466842041663694016e-02
1.316729335803356118e-02
3.012820148974519260e-02
6.810885812347365620e-02
5.107426479273945857e-02
-1.886601859609006449e-02
-5.979081237378310737e-02
-4.514428871562295442e-02
-1.179012861961954532e-02
1.594769390055414057e-02
1.735425875703183046e-02
-2.657375763146324621e-02
-7.930119520870446137e-02
-7.664035742578731436e-02
-1.267155070363043534e-02
4.770859227877827236e-02
4.730924566075807303e-02
2.565147027861887016e-02
5.011209126566296135e-02
7.286003263719081913e-02
2.209213753634116026e-02
-3.173845102079562303e-02
1.243812378877043150e-02
7.641958169447470028e-02
1.668083366876996557e-02
-8.337318638007885918e-02
-6.232281759320543180e-02
-2.357761230196164098e-02
-1.201902995592009499e-01
-2.313154600830499841e-01
-1.918307665517595684e-01
-6.406292772833503679e-02
3.549389907017259926e-02
9.990141023068646597e-02
1.229626539943085434e-01
9.756381391455470897e-02
5.827259988259578249e-02
1.481289316250565882e-02
1.323984544925436860e-03
4.923417743115425516e-02
7.542289779236779901e-02
3.550390627736343258e-02
7.607058367089267713e-03
7.948852807437380152e-03
-3.381910158460952817e-03
-2.216925520946835815e-03
1.776509141835313360e-02
1.694825493990826520e-02
1.110027912184442453e-02
2.155742644772910138e-02
-2.884437406570478785e-03
-6.232980828602351087e-02
-3.691097687318455056e-02
8.818715775466601237e-02
9.550856329545082124e-02
-1.001762005134268635e-01
-2.092467971164489460e-01
-5.462061533984116646e-02
1.050766204977024165e-01
7.684467267830689952e-02
7.860462936972009013e-03
2.807828000070326617e-03
2.162596589533240243e-02
6.746868080960521930e-02
9.070051636120783634e-02
3.788084324998842664e-03
-9.565865273883730757e-02
-8.096140571559090615e-02
-3.748632204203436458e-02
-5.738319820482796346e-02
-5.874570621478020921e-02
1.256158653418650538e-02
7.529957221433997150e-02
7.547964541638230163e-02
4.457055617843566631e-02
1.881537096410611232e-02
8.688521095967637747e-03
5.482558739786546481e-03
-2.164398823461134019e-03
-1.375619055165989979e-02
-3.168123681834900812e-02
-6.634024113200862049e-02
-8.379093165548344435e-02
-1.169392762827730498e-02
8.055996443393048656e-02
1.358279485329925290e-02
-1.091114190089725045e-01
-1.432223422899215129e-02
1.431008768583032220e-01
1.423941054780830662e-02
-2.517735242746608759e-01
-2.872855979108732694e-01
-1.309551454853775665e-01
-1.809885572718798394e-02
2.944400937565966672e-02
6.533871247397184112e-02
6.393815116449350078e-02
4.558656641756823197e-02
7.104919748082288988e-02
1.187068632384627731e-01
1.278405068611821183e-01
1.071535202574795259e-01
1.044038172956124749e-01
1.224812611928861039e-01
1.419661477995831367e-01
1.587730556205143306e-01
1.562281719798417345e-01
1.221962864420955835e-01
8.552915768231969529e-02
5.816667261047016313e-02
5.527391629798067418e-04
-8.074849927844821029e-02
-1.199879644850611327e-01
-1.540470248873389014e-01
-2.602905943658473942e-01
-3.305757310242622982e-01
-2.693793145672483957e-01
-1.911417353990810808e-01
-1.419443156094608027e-01
-6.299492083747043614e-02
2.258622939666117546e-03
2.943994224238143109e-02
7.074243326211511473e-02
1.189134350140216012e-01
1.484517027258509536e-01
1.580248791748963821e-01
1.238459232605550048e-01
5.265668199416118772e-02
3.603763494433165479e-04
-1.566300944669824641e-02
-2.409581549468703746e-02
-2.839046528451574791e-02
-8.698545716975867800e-03
1.820600833049075898e-02
1.259964109489205772e-02
-1.157557903180041550e-02
-5.101578284587571233e-04
4.227276394102979368e-02
6.442493715839976709e-02
5.329458051596114992e-02
3.337117494998526057e-02
1.587532551233037520e-02
-9.440488132919679087e-03
-3.755339156211460333e-02
-2.997072138435161182e-02
-8.887314925565008641e-03
-3.424951894892741544e-02
-3.738260293680909646e-03
1.416070481059866770e-01
1.310164523566416661e-01
-1.298811648083444126e-01
-2.760743228139647121e-01
-1.669581465155723921e-01
-3.759620613977291553e-02
3.113879479503607606e-02
7.017306496502581648e-02
5.002531549071541350e-02
1.659465532904545737e-02
4.664342609552557875e-03
-2.139459518433775576e-02
-2.252137730562584275e-02
3.314917947944880094e-02
5.949675383444671256e-02
1.756363764679510012e-02
-1.438075169918677856e-02
-1.694001256325324348e-03
1.309933715911443773e-02
1.218589364806379159e-02
6.282698424630096465e-03
1.447995490425169757e-03
9.239052269403573436e-03
2.484837013514880691e-02
2.628516574153296620e-02
3.221746599924573545e-02
5.489707829107418058e-02
2.406263970676983041e-02
-8.222227293206033072e-02
-1.336902102492366906e-01
-4.922413572893587219e-02
4.602023544648919245e-02
3.996854260872808456e-02
1.484534804366657509e-02
4.387107200986037348e-02
6.237287164146797236e-02
4.682187170540911408e-02
4.908374161780249684e-02
4.381061225017143096e-02
-1.567940028571259206e-02
-6.655356247785298995e-02
-5.100584070827787059e-02
-2.848863610607387659e-02
-4.638234458661055770e-02
-4.784264552228389283e-02
2.042989505411559222e-03
3.776460086444156233e-02
1.494088852746874342e-02
-1.473280428207847902e-02
-6.159757798005815153e-03
9.354280127967617813e-04
-2.921241552259982305e-02
-4.613722571987951410e-02
-1.723320515665302879e-02
1.068869153370718104e-04
-1.302084456989127323e-02
4.660763485135096217e-03
3.903805655672980268e-02
1.275643367862006050e-02
-6.820208542601281093e-03
7.567617537824831986e-02
1.106061398787129973e-01
-4.453836461189487894e-02
-2.171285226856489170e-01
-2.073349432594563113e-01
-5.786093829097292696e-02
8.497949904435367352e-02
1.184349342183091403e-01
6.599566691634355109e-02
4.870244281599808017e-02
7.868623363560096895e-02
6.815348312473894221e-02
1.659859894342291531e-02
-2.238248409619300952e-02
-2.808049384121761444e-02
-5.679100447853017986e-03
1.045292262157810834e-02
2.663834711999190415e-03
-6.043481952133193322e-03
-1.168584453999248901e-02
-1.086229530490049125e-02
3.008329428589881158e-02
8.461513356175068279e-02
7.002230710099664746e-02
1.205788901542087510e-02
1.731690528911875027e-02
6.762734420553881409e-02
5.682041226579682969e-02
-3.652405508673047668e-02
-1.356983818625023819e-01
-1.285215757897945066e-01
-2.644704513024546261e-02
-5.049311821305953706e-03
-8.647666238058454580e-02
-9.770751342014752372e-02
-3.805285135539235308e-02
-4.811788306684903344e-02
-9.142934175506617356e-02
-4.580142017468139676e-02
1.894909489538490824e-02
-2.901727950382093288e-02
-6.485015087447573712e-02
9.691316901377625137e-02
2.635810046923772743e-01
1.604193728119923945e-01
-2.568805773194985514e-02
-1.552267288866451128e-02
4.365562947785331382e-02
-4.477904757692917348e-02
-1.221549089219506057e-01
-1.894108562801669060e-02
1.068272441008812496e-01
7.301950519184789712e-02
-8.576127955931260594e-03
-1.003948999936272665e-02
-1.112079967486719230e-02
-1.269372313525756954e-02
8.129657251088212577e-02
1.551157010818422499e-01
9.653627929302655009e-02
6.509408213409945132e-02
1.060646950080437745e-01
2.020937889047036418e-02
-1.773155481080375406e-01
-2.423844481662100481e-01
-1.181881072901400098e-01
-3.461956661042276881e-03
-5.490326043976573311e-02
-1.461461329187588865e-01
-8.588359853485295903e-02
4.029763757724266066e-02
6.680547834302730248e-02
2.558759949910702908e-02
5.123068686784445006e-03
1.417368225881884304e-02
2.876344410413797514e-02
2.531744753386703378e-02
-6.654739807802352580e-03
-3.551391776312256415e-02
-1.052366003840850793e-02
5.026723803091658754e-02
6.161685396499203687e-02
7.371127047594674617e-03
-1.934181650132678690e-02
2.177426333395444599e-02
5.051405208479440440e-02
3.856083319998649533e-02
3.674511281461690509e-02
-1.131288939128166117e-03
-1.053496448935424129e-01
-1.241770167149786053e-01
-2.219481357968361782e-02
2.134309959829538278e-02
-8.431168545031975450e-03
6.130952973561094865e-03
3.701696965756821889e-02
3.556225189810621745e-02
4.196654277207356037e-02
6.309898242830162818e-02
5.300151151704587255e-02
-6.646706204959179024e-04
-6.008146022691110422e-02
-8.429682126825707722e-02
-4.715610915080952620e-02
2.764283476175097634e-02
4.420958505812222494e-02
-2.636121115944647236e-02
-7.146109769620624663e-02
-2.896335389914867983e-02
2.209495511497837003e-02
2.517042325712101625e-02
3.362529392989952598e-03
-1.966025824043401288e-02
-1.862472391324116947e-02
6.137849693146195731e-03
2.087583088302289152e-03
-1.994507695021663883e-03
6.530811046626136540e-02
9.843863076450427851e-02
8.015064684218574723e-03
-2.466576232336888108e-02
9.973173132479137837e-02
1.666857042225874108e-01
5.128284806545962277e-02
-7.723957044995651000e-02
-6.278160177082922622e-02
5.353645471417234347e-02
1.703454965351107186e-01
1.871761814411987412e-01
4.003252616210815906e-02
-1.156856379003280560e-01
-1.031730056454197991e-01
-5.687813165843012830e-02
-1.168819415145151835e-01
-1.801117434637544423e-01
-1.836193253517930113e-01
-1.824847489529792810e-01
-1.856333843689472463e-01
-1.611102122500423228e-01
-1.023786087781140275e-01
-2.958647506853401277e-02
3.208468541623613057e-02
7.326971863094072779e-02
1.011003912876300981e-01
1.249989168957352514e-01
1.510774921891305245e-01
1.513102669594292848e-01
9.007337953476635128e-02
3.823600015219164039e-02
7.164522831382706680e-02
9.689295272700272632e-02
3.641848049846015123e-02
-2.493006500648945606e-02
-3.426836012671809206e-02
-2.648373052817934448e-02
-9.421847779487738800e-03
9.583422910181643023e-03
1.157486502451332208e-02
1.928668116563582446e-02
3.775394700282778959e-02
1.749147295581760311e-02
-4.227628273439751339e-02
-7.147142346018950376e-02
-5.417555443273700672e-02
-3.784763097404976462e-02
-2.717564363968368729e-02
-9.195481997313246017e-03
-6.325121334658590291e-03
-2.334334424231675545e-02
-3.151076085051505299e-02
-8.129183314462603421e-03
3.352837112895257904e-02
5.179927464059225217e-02
3.971705344886840988e-02
2.529302507541724213e-02
1.112791377573594913e-02
-1.399618091521145566e-02
-3.869801130114415566e-02
-2.464507197177892572e-02
3.134588993982240918e-02
5.742934375259729773e-02
5.282600521559235873e-02
7.304787050275468596e-02
2.777776707382325488e-02
-1.137754264915946667e-01
-1.736604756857218768e-01
-1.214073876852488354e-01
-6.221121489099513957e-02
2.779979099102394130e-02
1.094934870273531480e-01
7.145907995485703545e-02
6.955914971653459622e-06
1.739424650842207043e-02
5.698291914465431623e-02
2.829310843925256919e-02
-2.483233467913226536e-02
-2.562268378361930166e-02
-1.618067760937674793e-03
-1.631673699867202537e-02
-3.634434116195404962e-02
-1.442166093671511454e-02
4.250209005465254569e-03
-1.102922808586108590e-02
-1.644617137654614744e-02
5.306651883445113842e-03
2.489381421933807917e-02
2.180056635245391020e-02
-3.485675553660480021e-03
-8.672368288922414816e-04
6.157801989163461109e-02
5.024227899187398705e-02
-1.035013943607198533e-01
-1.573348003255234939e-01
-1.225638468874827580e-02
6.398985042341709395e-02
-1.830158593425546681e-03
-1.276148029081658475e-02
4.173041376548118631e-02
5.275764322173365217e-02
5.108102652599404159e-02
7.602021123321162088e-02
5.423090043733826832e-02
-3.243802132101532287e-02
-7.268831624157771898e-02
-2.895845009430246531e-02
4.792665097333221116e-03
1.401159512463334700e-03
1.954377136190356412e-02
4.983324962203023595e-02
3.741043474749834036e-02
4.658159246478813312e-05
-5.004498517967284101e-03
1.370843590679723251e-02
6.432517403930217842e-03
-2.321660506848487182e-02
-2.873178541637661301e-02
-7.425954042362132267e-03
-1.328264284735378511e-02
-4.584252701234321770e-02
-2.293360917449889860e-02
3.145039799111780388e-02
1.363647029832149721e-04
-3.547030685097075919e-02
7.022136677229404156e-02
1.519117305438233423e-01
1.306886992688856275e-02
-1.629594175296107395e-01
-1.456927585726540131e-01
-3.022015836103733935e-02
7.464798083176476043e-03
-2.945150071872024850e-02
-4.602277714774830053e-02
-1.593765463676383165e-02
1.233636268160110197e-04
1.592204508806966887e-03
5.928990447349612170e-02
1.291761073424688155e-01
1.112884479956924577e-01
5.106875861176091158e-02
1.382632452762959895e-02
-5.260238447559589803e-02
-1.230080769546448988e-01
-8.450757872810998883e-02
1.808462885278448035e-02
6.999742151605251039e-02
7.692733314900636332e-02
4.768057343911692725e-02
-3.318079161138216132e-02
-6.381195901359829059e-02
2.432012784653571347e-02
4.807904861057474277e-02
-1.380839334260565709e-01
-2.842231545478210997e-01
-1.249098451906912877e-01
1.176799968162380722e-01
1.387704477592662522e-01
6.467324545896982468e-02
7.671111278534391287e-02
7.529078344034717540e-02
2.439493272995932327e-02
4.854057259901573690e-02
9.297217392310132278e-02
-4.478839094766606972e-04
-1.399178588666691037e-01
-1.334242030417001901e-01
-3.307964436174691547e-02
2.701549468979730188e-03
-2.030938369149523290e-02
-1.499100151227474031e-02
3.938103021159003458e-02
1.082677798600085034e-01
1.298827554134060758e-01
8.257196963635604625e-02
3.328964777342119374e-02
2.369823790345714637e-02
1.153980406028285062e-02
-2.845454526012520385e-02
-7.448409610867934294e-02
-9.462374693166017425e-02
-6.064372650604379911e-02
1.055834177115574056e-02
5.027735511386758477e-02
1.500769404207830809e-02
-2.291429056794331773e-02
5.743066011399802079e-02
1.712388530765638350e-01
7.900016246626997973e-02
-1.757002229136492844e-01
-2.767832652456050369e-01
-1.401715732336705766e-01
2.663364528668312262e-02
8.039021591477094053e-02
3.617072530519097051e-02
-2.535848959024529850e-02
-2.566564884650533382e-02
2.363675303857021293e-02
3.861966007532269263e-02
-9.107793790455002980e-04
-2.542519355226958641e-02
-4.516282255075783347e-03
9.633908866388218167e-03
-6.648219829902864662e-03
-1.836743037171407328e-02
-1.635199335549160707e-02
-1.825641711776809784e-02
-1.198972515259816990e-02
2.178036047534850136e-03
-6.702718215037717538e-03
-1.924655436778010750e-02
-1.849427706635761726e-02
-2.900101796707339752e-02
-1.042673333781415565e-02
6.616378156760731148e-03
-8.849962063584485006e-02
-1.417452298466559124e-01
4.740554377532860131e-03
1.177803116430045927e-01
6.279059809493420241e-02
3.884427939608827568e-02
9.675364759314329655e-02
1.207035464988957807e-01
1.308218902268614425e-01
1.686218413182866693e-01
1.678044334333799736e-01
1.087289956316537104e-01
6.041167588287722073e-02
5.244228059414123705e-02
5.861481760970276705e-02
5.085963440374524636e-02
8.798879777150832304e-03
-4.432639617869742199e-02
-6.095965221891973262e-02
-8.894951129612636842e-02
-1.907887195456648421e-01
-2.339341903011879220e-01
-1.070726817160798372e-01
-1.319860234227955564e-02
-1.007879942581903637e-01
-1.804762607613477343e-01
-1.430979408779042283e-01
-1.013032428231890048e-01
-6.296416885077861514e-02
2.856840105147444991e-02
7.728064502855286344e-02
2.129062636948214626e-02
3.586666292030008668e-02
1.941269025741859111e-01
2.178269386578280953e-01
-1.095952133754533181e-02
-1.801402758608640908e-01
-1.187186455411791547e-01
-1.038812480539221678e-02
2.804626748013886242e-02
4.037506575882310322e-02
4.356693544847313471e-02
3.243084751516890629e-02
2.273246749268694952e-02
2.309184763147481903e-02
2.622137397288841487e-02
1.674651497599151037e-02
-2.866298029373347267e-03
3.410874138201498360e-03
3.434191689564656397e-02
3.395482584601224735e-02
1.188897349422484741e-02
2.103277897131711899e-02
3.054377261915519962e-02
6.996823168312030217e-03
-2.459700431511830168e-03
2.906493263466137372e-02
5.769262060430142142e-02
4.504761613720546093e-02
2.378115010420347661e-02
6.609387562742530947e-03
-5.033516230735610164e-02
-6.884754821751937204e-02
-2.117283147851211494e-03
-3.462174660889374284e-02
-1.556284436965455209e-01
-1.148760924943118267e-01
2.973664666348103947e-02
7.026779563541529772e-02
6.515608430947920915e-02
8.777571740134906819e-02
5.518514341430753867e-02
-2.616970269180454722e-02
-6.639250958147716042e-02
-6.730637264695163435e-02
-4.937771771128283971e-02
7.384014951419576745e-04
3.646809767159314014e-02
8.570442434066861612e-03
-2.490298475753217541e-02
-7.224443193115673290e-03
1.196620235581322654e-02
1.095942072739495773e-03
8.530860025498031990e-03
3.679335739689088697e-02
2.844819292134010552e-02
-1.279338941483703848e-02
-1.681023800895560874e-02
5.079547253300846672e-03
-3.202642624715342640e-02
-3.633564014713419610e-02
1.155486444642881277e-01
1.966669883089360582e-01
5.698139452883405065e-02
-1.210229677407247129e-02
4.139844923318533598e-02
-6.775830045117134381e-02
-2.440911081534684057e-01
-2.189429499973664928e-01
-6.889721552518979220e-02
3.967526819981669756e-02
6.502226426601206977e-02
3.074114235984198515e-02
2.429370246345057341e-02
5.808757207992874816e-02
4.126550582124003524e-02
-1.755879630344620718e-02
-3.525499136173545350e-02
-1.538959440294231963e-02
-4.948747806847092479e-03
-1.084758733681384993e-02
-2.093069555998906470e-02
-1.989380134245694390e-02
5.698266821701575280e-03
4.014582264189944100e-02
4.647036389010228419e-02
2.252273572815258196e-02
5.745942360233017437e-03
-4.925363787183648437e-03
-1.768578827455750957e-02
3.585619998349308390e-02
1.098674736952104242e-01
-4.369899543676703489e-03
-1.945502763926221512e-01
-9.468516124714898563e-02
1.424318647042316921e-01
1.084163928614118311e-01
-4.109196191891972133e-02
-9.146232100067652748e-03
6.195352694468203580e-02
2.819280380965306226e-02
2.292777722696354159e-02
8.722186759612121643e-02
7.723831584374794834e-02
-1.961148612837872868e-02
-7.401566184678831650e-02
-6.160354856538689805e-02
-4.710797696311174593e-02
-4.164849632913155547e-02
-1.375795836105833496e-02
1.096806930435797675e-02
-3.420650740379301696e-02
-9.202478408560263445e-02
-4.442227087529686258e-02
5.037993827125671759e-02
7.665164598672860596e-02
6.564867085585526785e-02
6.152318344870652544e-02
2.502355270526600284e-02
-3.448631722654395965e-02
-2.304430555589510182e-02
7.370659220539987899e-02
1.012330365808248867e-01
-2.871872867966108675e-02
-1.215168962341307557e-01
-2.680920895519548972e-02
8.503974320382636301e-03
-2.077477242636424359e-01
-3.566626356116389673e-01
-1.837228624309071856e-01
4.183932971518804916e-02
8.960436720896100549e-02
8.299727758363417696e-02
1.206406538325997674e-01
1.361312031090140817e-01
8.014261187222330995e-02
1.232653380144653477e-02
1.613678132464564305e-02
6.002139520060885414e-02
4.804449761062920543e-02
-1.528626419072190781e-02
-4.450841723785823462e-02
-1.373884865544269807e-02
1.885785745000139596e-02
1.524180559222229961e-02
2.303883193391317516e-02
7.530287716842551382e-02
9.407519571462814867e-02
1.656731109077914932e-02
-5.619935283811825638e-02
-1.197358390940556766e-03
9.513080501291189262e-02
6.163843962303230256e-02
-9.048623572071942678e-02
-2.070930426454917483e-01
-1.636447079540102045e-01
-2.206209628519913840e-03
8.118385085214072094e-02
3.797117692695465424e-02
3.026551004209293225e-02
9.642012945176978156e-02
1.100388431767171521e-01
6.035210264378865208e-02
5.107134815063641559e-02
3.229743215107432758e-02
-1.132021554707469124e-01
-2.309666213632383946e-01
-1.321912967178086873e-01
1.599887635558496293e-02
2.949820751309313246e-02
1.212108712774873781e-02
4.613609368850486725e-02
4.978069551296765427e-02
6.903298744942408527e-04
-2.039777753136166882e-02
4.860601386877058151e-03
1.526416888684345441e-02
2.270454309857753913e-03
-5.298905111448024875e-03
-3.387819291649725451e-02
-7.800921419395931422e-02
-4.887615901630330828e-02
4.961984310861681374e-02
6.148478329066339731e-02
-6.943507809728158287e-02
-1.295426905866537970e-01
3.945967236383121635e-02
1.804626272756884864e-01
2.414265568386283339e-02
-2.039264463282469408e-01
-1.960065126971520522e-01
-5.282034388909739864e-02
1.070504523001436677e-02
-7.020614844664926218e-03
-9.153776368230243793e-03
4.335145637076011360e-02
1.013353444334140485e-01
1.016608841684983194e-01
7.524996575231068796e-02
8.200559145204583400e-02
9.052921783231010489e-02
5.685374904830492460e-02
2.955830243627844203e-02
6.861292428199067261e-02
1.367248586278836664e-01
1.533954111746584081e-01
1.252720174955835875e-01
1.192245385586453155e-01
1.091259048132138115e-01
2.841068343042030958e-02
-5.567863154461261121e-02
-7.701857021828016625e-02
-1.293406239906897681e-01
-2.272667642912517827e-01
-2.476124650658201864e-01
-2.135878618382636984e-01
-2.009084871131282812e-01
-1.639592863360633812e-01
-1.166240607258388073e-01
-9.259300134696762941e-02
-2.361588011337158177e-02
6.946886155211270952e-02
9.757649501425677552e-02
1.156742169405968884e-01
1.796356163510979265e-01
1.789035193835704918e-01
5.362945097629909230e-02
-5.240433143494163670e-02
-2.723979198439736155e-02
2.652083301099440391e-02
8.935034049001445815e-04
-2.938305107877356784e-02
2.670780861899381062e-03
1.682391724314206277e-02
-2.086196068433190942e-02
-1.907315853559320845e-02
4.995756381635355070e-02
9.028446437370943323e-02
5.063036928617078991e-02
9.817097629222407140e-03
2.565140103974488522e-02
2.391970768190978397e-02
-4.051116570540433393e-02
-5.784021866720726046e-02
1.971435958304074837e-02
4.035101648616470221e-02
-2.340876946698321887e-02
2.167868282655215084e-02
1.196321152468165228e-01
-6.523969365757983918e-03
-2.483347104317335796e-01
-2.617322040980792908e-01
-8.320363708768796496e-02
4.644858619300180902e-02
8.991151526904175850e-02
8.290743122242501262e-02
3.470344993285934265e-02
2.656258323497109192e-03
1.401942079504666858e-02
3.604551591130238791e-02
4.729917731699068845e-02
3.739674709768782412e-02
8.379541837586030814e-03
-1.259494096367654720e-02
-1.849015552235983365e-02
-2.420862851318703740e-02
-2.326402934961641078e-02
-1.206367631474034377e-02
1.703762873221741601e-04
1.995112281779690133e-02
3.464028510874687244e-02
2.855545871121978677e-02
4.006936247243293725e-02
6.728540171976017670e-02
3.809360559839714694e-02
-3.421057315632323320e-02
-5.770402825006125391e-02
-2.944796973345262248e-02
-4.558408953749372439e-02
-1.169843735746055047e-01
-1.087854880718872458e-01
4.055733576869745283e-03
6.177135487389746882e-02
3.539939940758936310e-02
5.662394289578842610e-02
1.016925790384196476e-01
3.889302996384976646e-02
-6.539056052874669955e-02
-5.401265205539304559e-02
2.436189460152910630e-02
3.167275843828652043e-02
-1.170065566634678582e-02
-1.595535826177119088e-02
6.004281823533239200e-03
2.775224282042442099e-03
-6.147998864398030588e-03
1.001313079171376082e-02
2.456678521193896708e-02
9.117356110439137074e-03
-1.606443648179842892e-02
-1.673916999652191179e-02
-3.875883644852113653e-03
-2.330014991586186121e-02
-6.072864576133527037e-02
-3.036514906219795612e-02
6.358856121454817267e-02
8.242413275504589798e-02
1.167437830493242221e-02
3.225197748212866450e-02
1.331136000833171296e-01
4.651283740359520025e-02
-2.011250314341342937e-01
-2.529824664408101276e-01
-8.045228960125500040e-02
3.278871098797175865e-02
4.376560783613197420e-02
6.001343705856611310e-02
7.046155018771162182e-02
6.233040295742983683e-02
5.391295267976835975e-02
3.216822907742142301e-02
1.800040162251185724e-03
-1.015492252832087688e-02
-2.887266197797090650e-03
-4.005727721377345604e-03
-2.057580028496013014e-02
-1.979695058340319447e-02
-4.758144707726006881e-03
-1.969905122056076277e-02
-4.702788579928404711e-02
-3.999597225952347679e-02
-1.358195399796874488e-02
4.603380160274518282e-03
1.448626873442527413e-02
7.714968060218170727e-03
-5.493310797488958064e-03
2.258383702279609384e-02
5.326154157219552265e-02
-1.458993278524164244e-02
-9.407990253849424223e-02
-3.335982585824950886e-02
8.135717123524315031e-02
1.220553434820326882e-01
1.047847141655600389e-01
5.271294475564364951e-02
1.383034343538107162e-02
4.063758755678645307e-02
4.000388290121549562e-02
-7.680159347314256812e-02
-2.092475084013991349e-01
-2.232930201356135569e-01
-1.311284004644888701e-01
-4.514181795010066556e-02
-1.656344457948832199e-02
2.274901164170483811e-02
1.105104251398974502e-01
1.637820129443756378e-01
1.238673146146100912e-01
5.931598237159250997e-02
4.486801526324488837e-02
3.569267971775983567e-02
-3.070857060292166846e-02
-9.682660304888690561e-02
-9.602447742688344223e-02
-6.192853185461842658e-02
1.146487988189179644e-03
9.694099663069183359e-02
7.575068041225932469e-02
-6.661494836130052444e-02
-1.001468812883642145e-02
2.053241605110641133e-01
8.261558800821695858e-02
-2.733125510617820386e-01
-2.580842839967357194e-01
3.086230181106581344e-02
1.167536597554243993e-01
6.953017411174289286e-02
7.588968111750041268e-02
5.764186090721177408e-02
1.892148329201613632e-02
2.221994937193884009e-02
2.532450874019358603e-02
-2.806147587687988706e-03
-2.918265885634519635e-02
-1.838774327404493064e-02
6.345783876877363061e-03
-3.226664286647043956e-03
-3.588284323606275028e-02
-5.192859577242536773e-02
-3.192407518607223021e-02
1.211224900011563001e-02
3.086369112593245409e-02
1.854332661054901646e-02
2.136009576448191435e-02
3.102204003965959578e-02
2.434224768858096744e-02
1.850929850248695871e-02
-2.705766131118407872e-02
-1.451922973237708137e-01
-2.083019253522010172e-01
-1.396589430280826272e-01
-6.308048264550837614e-02
-2.794771775920503604e-02
1.763565081210693997e-02
3.675666096514169923e-02
2.719739390357450021e-02
5.009785018728185602e-02
6.525803315240059910e-02
1.339456829181998737e-02
-6.056026755433731312e-02
-9.244712139044632127e-02
-6.919141767630408724e-02
-9.881593467799230923e-04
8.167809742980013110e-02
1.352376218396005580e-01
1.581272278464458947e-01
1.722760018790572556e-01
1.552484971760152987e-01
9.086719180913514771e-02
3.873427621623674183e-02
5.364408660137207074e-02
9.575739751791917387e-02
9.751746045254844342e-02
6.928781468097174046e-02
6.165414792615907247e-02
6.255935597930925574e-02
4.057751723524775228e-02
2.360094744551471599e-02
-6.886500067384945106e-03
-1.076972992495797282e-01
-1.555182751060140700e-01
-5.178068202509651663e-02
-4.944377999384768491e-02
-2.948543181884609177e-01
-4.674922496020315066e-01
-3.632879837576056814e-01
-1.763485345926678882e-01
-4.755271539426811356e-02
4.194381030061790361e-02
8.635474127976934533e-02
1.031970369098231255e-01
1.213651839484012340e-01
1.147665185621855599e-01
8.877451150978547811e-02
7.856420048140953794e-02
6.556979073896028465e-02
2.645223438264993759e-02
-1.363405824748357628e-02
-2.204046586171970815e-02
-2.986678844779898367e-04
8.108466832588038381e-03
-1.328798149780968663e-02
-1.737372522884989695e-03
6.233442731535097925e-02
9.329983904442200326e-02
4.961973239169598093e-02
2.450490672967150368e-02
1.013477338720282089e-01
1.205307946505660699e-01
-8.318469159191420326e-02
-2.257500178602124818e-01
-6.194253852437689445e-02
8.275829537594031615e-02
2.641862473133502892e-03
-5.419304259934004664e-02
-6.498380952231961466e-03
2.465010858245545583e-02
5.839460542291781409e-02
1.062330651553468758e-01
8.766865486348017489e-02
1.337869836278018920e-02
-4.422382458913232117e-02
-6.036851098781857022e-02
-2.793497791090283205e-02
2.506996781868694665e-02
3.597252647426502775e-02
8.835259911791511905e-03
-1.260089277213217486e-02
-3.221809207073686454e-02
-4.505270394166573794e-02
-2.745142458319177470e-02
-4.149680481512394402e-03
4.728612395512054624e-03
7.497849985053691400e-03
-8.205899167009736775e-03
-2.919175584171927046e-02
-2.809460250349357993e-02
-3.165108837467230790e-02
-3.184647708473806876e-02
1.353363289408837829e-02
5.045706381458855277e-02
5.381304935655734090e-02
7.951678418640792390e-02
4.553939844481064841e-02
-1.079148420611073245e-01
-1.960816750243267736e-01
-1.280669378460703167e-01
-3.288544604978404368e-02
3.723821324199047544e-02
7.820216419541997643e-02
5.144363548719568802e-02
1.867119244455751545e-02
4.310570433799199713e-02
6.240798146249832562e-02
3.031204055538507663e-02
-1.617596149993600491e-02
-3.927196078677290536e-02
-2.246338569574467953e-02
1.789605311442645993e-02
2.166148598877329010e-02
-1.962123750740989506e-02
-2.772046731840972084e-02
1.507852473794546976e-02
3.289322304992332163e-02
1.151030598398525458e-02
2.636834326585737413e-03
1.751809798221317868e-02
4.171912060196864003e-02
4.865354428773846496e-02
2.583774679762512044e-02
4.681697672469043413e-03
-5.158737397410127073e-02
-1.527798415493633322e-01
-1.376326337217309570e-01
-1.633041178844035074e-03
5.014070655765417994e-02
2.255578285508939851e-02
2.772624400761404193e-02
3.207720121460703316e-02
4.040636700169678019e-02
7.739564081382790950e-02
5.932638817637215373e-02
-1.270833278789697610e-02
-3.177904155755702925e-02
7.722944770082791621e-03
2.967493476528046056e-02
7.077305121931392815e-03
-1.554579257575176843e-02
8.361463164456642283e-03
4.686680875270384655e-02
4.662964032452687757e-02
2.971433921846944326e-02
2.848706284825622270e-02
1.457209218107721402e-02
-3.034209354870887748e-02
-6.984860593705775889e-02
-8.294533033518781961e-02
-8.633254752279860555e-02
-5.448558957602300801e-02
3.819225671059640892e-02
1.040866351175860210e-01
7.675837137503260799e-02
2.362969309236456761e-02
-2.089319042376054994e-02
-8.054816423218073840e-02
-1.233533021222578685e-01
-1.359720010985938088e-01
-1.412728635883246653e-01
-9.286602995358841928e-02
1.103585070666900092e-02
3.357273804872898393e-02
-3.687224458052130310e-02
-3.090578918270776160e-02
6.047049233749861308e-02
1.043477911961194216e-01
1.022531118293335400e-01
1.010087961486784841e-01
6.815324287435646500e-02
1.103393676246169734e-02
-8.186293890715944446e-03
1.847720562629105723e-02
3.621258901299820310e-02
2.864123284509502432e-05
-6.205672028503729509e-02
-6.714646182632219573e-02
6.437415014117479906e-03
6.672108342112759161e-02
4.952432793569938596e-02
2.628480390666765310e-02
5.512028434490410383e-02
6.248911332956429143e-02
-1.952642195708378589e-02
-1.172131866839711961e-01
-9.751561186657869973e-02
1.769316376676448657e-02
6.673323945930979828e-02
2.356474038612918834e-02
-4.353941806744364082e-03
1.125448616617604966e-02
4.832399028367342225e-02
8.997809259528968817e-02
9.476827203759916052e-02
5.969116067238990769e-02
-1.264306515513885683e-02
-1.460383045430520832e-01
-2.348505940924091040e-01
-1.584846071135662671e-01
-2.159496148024550588e-02
5.226479322418559059e-02
8.706086453513556256e-02
9.051902666265770891e-02
5.181764192065496655e-02
2.311741748804910235e-02
3.016147987872080591e-02
1.856346476576582749e-02
-4.218076516288000316e-02
-7.567884065453824027e-02
-3.685037821332094038e-02
-1.363579852207385049e-02
-1.426460586471127272e-02
3.454233026390744060e-02
2.397789709336117792e-02
-7.860976073063627445e-02
-2.678377387975667753e-02
1.327761348058990043e-01
5.247462468138788805e-02
-1.548411356320398558e-01
-1.368590177541346986e-01
-1.110956479268869479e-02
-1.223318805848419219e-02
-4.682555491878889753e-02
-3.085184701213548181e-02
-2.457903299478916143e-02
-2.078215101686329072e-02
5.167117180709553809e-03
2.846514555880805264e-02
3.846435236807581315e-02
1.745327559166763229e-02
-2.781867062433672835e-02
-2.622767884933909638e-02
1.507974877615846608e-02
3.673794152365638960e-03
-3.308762160749047221e-02
2.589490676384328602e-03
7.269498870422914927e-02
9.415685975782178696e-02
9.517649757379817443e-02
1.121727184279251721e-01
1.224668903017575861e-01
1.398834773550836075e-01
1.755362417160599431e-01
1.646584891663108174e-01
1.013253540833991828e-01
7.495575044722971314e-02
8.297512345696275715e-02
3.532697737393731413e-02
-7.090258246830893896e-02
-1.648445416186624379e-01
-2.064657785303971316e-01
-2.109245409510635549e-01
-2.086430594034184016e-01
-1.791910097404211533e-01
-1.099776402447058821e-01
-8.049340155054260371e-02
-1.167828035731196534e-01
-1.144392890328414791e-01
-4.794896887951403952e-02
-9.529346477147461469e-03
-1.201893484855311167e-03
4.396274502715629556e-02
9.630463579325476697e-02
1.054681330199572498e-01
1.044758429512532838e-01
1.147056853930188969e-01
1.068398901618549668e-01
7.319684673537281416e-02
3.766917172238190559e-02
2.005693760068484599e-02
-7.497502073904888792e-04
-4.909627743896817498e-02
-5.467057310207934506e-02
2.346482484796061016e-02
4.644810857617652500e-02
-1.972530187882485034e-02
1.448333913766680289e-02
1.024827130465272296e-01
-1.176261656617378325e-02
-2.232774482862596999e-01
-2.384656091255846211e-01
-1.000582093220237501e-01
1.845473663142703502e-02
9.622288779139741288e-02
1.085543272466306802e-01
5.271471772466419792e-02
2.751530924290980507e-02
4.615859243760424974e-02
4.132532269478467885e-02
6.078563612889970914e-03
-3.546201390048295266e-02
-3.232352170788408557e-02
3.796050644655137724e-02
6.596322409587256075e-02
-6.971674383727601530e-03
-5.020576411715561155e-02
1.538811780060420076e-03
3.028569010627546118e-02
-1.614603719963265960e-02
-3.622186921777551666e-02
1.415275353243303225e-02
4.409822810842826263e-02
1.534085527279493121e-02
4.845261778373521899e-03
9.479385467842152066e-03
-5.083419510526193674e-02
-1.035661389173815478e-01
-3.596910118785817678e-02
4.918171682601713002e-02
3.220929401904387007e-02
-5.606055252665427188e-03
5.979986911932100649e-03
2.719652432020111879e-02
5.751615513977937494e-02
8.552037543760911131e-02
4.829834906208064355e-02
-2.229823556712490912e-02
-4.992132421611346349e-02
-4.763979166291992806e-02
-4.138278986247241609e-02
-1.882240608233357385e-02
9.876405426930105411e-03
1.552068718722619811e-02
-8.197837877086815855e-03
-3.317259758613865656e-02
-1.846788941632480918e-02
2.853745240231813848e-02
4.805576090484237756e-02
2.151571920807894903e-02
-6.715947881438549642e-03
-7.193995990816737587e-03
-4.147754550749891897e-03
-3.682275893416443735e-02
-6.554799547409427551e-02
-1.603325721194805153e-02
4.454033094382226637e-02
3.851701085584191553e-02
5.884392051086205500e-02
9.955565135064826932e-02
-3.134315882369622178e-03
-1.846056916255549296e-01
-2.140531493187382561e-01
-8.263465021534635579e-02
4.671902963824191984e-02
8.304510386876719219e-02
5.178700326859856512e-02
2.933833403604297826e-02
3.050989079143751753e-02
7.925845734743371118e-03
-1.809298140277038752e-02
-6.521649138960959949e-03
9.162980929451468304e-03
1.537530636448833365e-02
2.254270839682474131e-02
-3.970762722100167064e-03
-4.835789988910680487e-02
-3.357406701365461127e-02
2.455102030065212451e-02
3.217247433962908826e-02
2.125967727594131954e-03
3.263688777595214613e-02
1.023972613594401615e-01
1.077044773621842616e-01
6.693708156520805641e-02
6.449174558760814580e-02
4.122298283352174297e-02
-7.848744666531495828e-02
-1.352540137514622320e-01
-2.080116286313264673e-02
6.698082880803328532e-02
2.625186800169236612e-02
-2.192240449418845702e-02
-6.592552463452254485e-02
-1.248060342156243341e-01
-1.005582630339712513e-01
-1.664476548978754619e-03
4.280898119834604387e-02
1.191849886734922329e-02
-2.574214493434721918e-02
-2.405660139605068568e-02
2.955451416967007708e-02
7.086956330182608843e-02
2.455774952203776396e-02
-3.909036979525207234e-02
-1.922438769972404163e-02
2.260279969250034854e-02
5.558183535896727562e-04
-4.156053297215571429e-02
-6.444626747828549607e-02
-1.079944958719866177e-01
-1.482639103468877395e-01
-7.364276107266706783e-02
9.466122152659024735e-02
1.756884403492230962e-01
1.469168380607371871e-01
1.276075898145028475e-01
9.122473322496005288e-02
4.368913152600761851e-02
9.047640276648503954e-02
9.212619869366633907e-02
-1.062682902008380281e-01
-2.868742046718981697e-01
-2.495263799171585917e-01
-9.963837313949311381e-02
4.216471711929659777e-02
1.121844670357975415e-01
5.944960945021433851e-02
-4.376897287516529067e-03
4.224715395330696371e-02
8.908241969742393407e-02
4.659961874262288917e-02
2.874598534848360476e-02
6.077567698861570389e-02
2.532617431763096658e-02
-5.392139962384331908e-02
-7.004044722937424750e-02
-4.458584419572508839e-02
-2.158542016891289161e-02
6.526557082983984806e-03
2.209502775062048563e-02
3.804745690185021983e-02
6.660135900649950813e-02
3.752695040497303763e-02
-3.060004034337821324e-02
-1.500709773518808798e-02
5.564652121157839110e-02
3.054063814435879071e-02
-9.215114568682879204e-02
-1.407002539093678839e-01
-4.498125656207691003e-02
4.361198962085434394e-02
1.290843118484155672e-02
-4.241687877331444534e-02
-9.932439726504141073e-03
6.087189773246176605e-02
5.836805356174110809e-02
-2.690832011715471248e-03
-2.990189545318213890e-02
-2.046171722742054500e-02
-2.812687797221086888e-02
-4.306807030463095931e-02
-1.326198398966298847e-02
4.626498891946346365e-02
4.177085122664057903e-02
-4.033913153950210995e-02
-7.289793372912557745e-02
-8.771475844149036194e-03
3.284424894964502878e-02
-1.968400872246894862e-04
-2.749455322423417433e-02
-1.851219687181023324e-02
-2.557475182303706185e-02
-6.630066649182393690e-02
-6.735481626452585746e-02
1.711997490576561143e-02
5.067095008987234500e-02
-5.423037471120856906e-02
-6.947738722203407324e-02
1.316296440424363778e-01
2.421925944118130114e-01
6.591413445435298502e-02
-1.277019020221761558e-01
-1.024973644375967996e-01
2.281130778061123132e-02
1.109625391900204150e-01
1.843239924251918183e-01
2.302514620986187699e-01
2.173168199917417387e-01
1.868249634054926500e-01
1.384553184675103854e-01
4.772447624135769256e-02
-3.774457707180611798e-02
-9.124177536647014308e-02
-1.550275269632794273e-01
-2.277923943957813058e-01
-2.508443486697125024e-01
-2.294091768699432765e-01
-2.216492852193191476e-01
-2.136458861460574787e-01
-1.599169696460260304e-01
-8.983242185089547471e-02
-4.688275383005822278e-02
-1.952423217340728406e-02
2.766066900289981118e-02
1.248114089186849185e-01
2.065732450157113653e-01
1.452352395574828536e-01
3.042059396178775632e-02
4.261430459706970486e-02
7.109077481832801193e-02
-7.510949512093228336e-03
-4.101041808879254957e-02
1.880041433714359916e-02
3.477922835564891541e-02
3.665943929783811034e-02
1.043644221288657636e-01
1.261501579341333945e-01
3.763042047855520017e-02
-3.666745203545326154e-02
-3.242720476957052650e-02
-2.234145611779205648e-02
-2.841351494540387407e-02
-1.298307891289384591e-03
3.924448255221477805e-02
2.940500056874084320e-02
-1.025153315532715929e-02
-1.753267263711505430e-02
1.732025220774010069e-03
2.113532957153537589e-02
4.583289000877097813e-02
5.656588865099674429e-02
3.144910360880392303e-02
-5.460106763109443852e-03
-3.268890896102614324e-02
-3.560486749884382573e-02
-2.369536082930394361e-02
-7.237265663430035578e-02
-1.463059861929487948e-01
-6.347231040857329032e-02
1.109551502204399187e-01
7.109577729878413521e-02
-1.506827218112489486e-01
-2.286329353828976119e-01
-1.300510269211195835e-01
-1.806671002931213230e-02
8.381546381101544207e-02
1.310994694790639237e-01
7.955266597214545599e-02
3.611747828420693723e-02
3.917401589185369459e-02
1.146892738277589460e-02
-3.222976537731230690e-02
-3.042419913395415926e-02
-2.799523812650459020e-03
1.218751723512053950e-02
2.778397765261102909e-02
5.161192258037852754e-02
4.662054072307339481e-02
5.579406587002444344e-03
-1.268128498273931280e-02
2.609499653203324609e-02
6.425891739928377144e-02
3.558770994108004931e-02
-1.767630808515154722e-02
-1.286309636444275817e-02
2.987805542550828891e-02
4.395287649309543437e-02
2.782951835443935908e-03
-8.192347882558652372e-02
-1.116320141306661878e-01
-3.473233006833197078e-02
2.038082866396354054e-02
-2.554878907900806628e-03
-1.187121537871368981e-02
4.416771449619303486e-03
2.324430110297852348e-02
7.293891472784218288e-02
9.096502852421317620e-02
-4.003939868909669672e-03
-9.152936173371151174e-02
-4.295650098380020959e-02
1.852078926578934470e-02
-2.249572702873917779e-02
-5.325444964622076671e-02
-5.324537195328741743e-03
2.783896575699616044e-02
1.870051605910669212e-02
9.036503848147758172e-03
-1.963113154051533086e-03
6.937275905549328790e-03
4.001311439295114625e-02
3.504361276026438099e-02
-9.311702041157974424e-04
-1.801074385538077582e-02
-4.275695633732837925e-02
-5.856156526592649209e-02
2.730236474600638771e-03
5.502524298526415697e-02
3.549266057881009587e-03
-4.897240098645291341e-03
9.230187456160432458e-02
4.592001934249091005e-02
-1.808011012647030291e-01
-2.547314368125886963e-01
-9.667288012770011707e-02
5.334852924897994647e-02
1.025167433404786110e-01
9.473832278703399334e-02
7.005449090126998624e-02
7.004800992468170062e-02
6.596737540298118485e-02
2.670119553292297360e-02
1.508277593853690757e-03
9.945557642511272320e-03
9.346111213755690927e-03
-1.708182556741152935e-02
-3.343809514359172286e-02
-1.120978310303341260e-02
1.134399910128582045e-02
-4.039093789509613612e-03
-1.335897259335481167e-02
4.354822055459104703e-03
-9.920016407877853271e-03
-4.568713649043863040e-02
-3.120938774560116924e-02
1.430375362830148094e-02
2.117444613319888203e-02
-5.022895274004129246e-02
-1.511038832639733376e-01
-1.174386153243028863e-01
5.542687771001686414e-02
1.388404713608315244e-01
9.013042268682083802e-02
5.426432585970275557e-02
2.188846192181176376e-02
-1.808188608512575901e-03
1.001814850571304816e-01
1.948257638889974996e-01
6.307186457043142958e-02
-1.433614780692899771e-01
-2.001407437891886409e-01
-1.698925839407887939e-01
-1.457112449982524705e-01
-9.930654236224242815e-02
-1.947045786142323140e-02
6.069681139187563246e-02
1.074323419823712822e-01
1.169041859882263973e-01
1.159948985184908188e-01
9.783133776962041339e-02
3.484015224105698610e-02
-3.355173510320543645e-02
-5.303584438144774704e-02
-4.865713664687071338e-02
-5.594067970392573724e-02
-6.874676201830154376e-02
-6.386584983980293784e-02
1.391016672328245288e-02
1.275842778316578219e-01
1.400303418107455566e-01
9.960287739102680060e-02
9.677201494039791574e-02
1.103369818753270268e-02
-1.471786686291246815e-01
-1.858389098143988782e-01
-9.944164855851664320e-02
1.785950194318472461e-03
6.719575568690516754e-02
6.733586863989725335e-02
1.909306056673354401e-02
-2.394121257822877727e-02
-4.186941129116369953e-02
-3.482352237627579089e-02
-3.096690226186177026e-03
2.609952324691997005e-02
1.924330024559427199e-02
2.256046009688733589e-03
1.663698185635400367e-02
2.755774920694721575e-02
-1.965002933475337374e-03
-2.911473850319095877e-02
-2.298720240493207917e-02
-1.089565293305604782e-02
2.922113191089083413e-03
3.965025877373435509e-02
6.040990770013916072e-02
1.867444767099616515e-02
-1.272535784705074863e-02
4.105187682711080102e-03
-5.061614623437335481e-02
-1.438488261723367689e-01
-9.576409036953276166e-02
7.466024161747936150e-03
-1.787007946878867160e-03
-2.928158966957181836e-02
4.678009388472540928e-03
1.662515715243934045e-02
1.204420235532766351e-02
4.113773087138792445e-02
2.667337236476188117e-02
-6.284290955411235557e-02
-1.169186357816155153e-01
-8.280048992818643538e-02
-1.540846295165290182e-02
3.843219097014940328e-02
6.702788145937081665e-02
8.012127226228346610e-02
9.239129112868135763e-02
1.029930577136268510e-01
1.002023577675688892e-01
7.781526730629650945e-02
6.178808726641414617e-02
7.819500477005275618e-02
8.750274730834511905e-02
4.298737845504276706e-02
-9.253521886852852235e-03
2.395212519522289460e-02
1.256248484070099369e-01
1.514558114525912658e-01
8.897509117539244283e-02
1.101486392682531762e-01
1.462762583327067989e-01
-8.265222974909490483e-02
-4.034424987847898270e-01
-3.832330184835115450e-01
-1.567770894860028019e-01
-1.053729561600662001e-01
-1.553767801734407539e-01
-1.281443912362558724e-01
-9.940528974381088179e-02
-1.124937268200601748e-01
-9.827370380102734559e-02
-5.136634476892780465e-02
-9.021017978641535096e-03
2.914506643881308728e-02
7.075352573587112559e-02
1.019863537318402152e-01
1.131636985114815724e-01
1.070018100456792687e-01
8.759748558118640727e-02
6.026551428730388821e-02
2.958597055948043730e-02
8.381902763354645222e-03
1.620445822770289618e-02
3.303662862457634047e-02
2.042366021495412021e-02
2.744379157871239261e-02
8.253878342324053041e-02
5.240264985066486747e-02
-6.739129510179714400e-02
-6.732998698174258445e-02
4.137840936434257488e-02
5.608434107294686666e-02
-1.419336732098896124e-02
-2.907275486608858900e-02
1.873773885914179968e-02
4.756377412810256639e-02
3.912232952576629591e-02
2.891289807511906659e-02
1.623402504874086466e-02
-1.208811857026015346e-02
-2.189136274798730505e-02
1.237872058436972900e-02
3.978567185005711659e-02
8.499098718902996230e-03
-3.635028669524278944e-02
-3.884296811135967004e-02
-3.284624978446008814e-02
-4.297458784950376753e-02
-3.225963010471998016e-02
3.035791860908465100e-04
2.369062402956209623e-02
2.293489671629179646e-02
-3.969063138421598941e-03
-2.091358557612540275e-02
-1.646049490101970936e-02
-2.995056631295113167e-02
-1.826983166769806724e-02
4.726301119024665931e-02
6.926895148442326067e-02
6.236843567821316603e-02
6.003418254564975992e-02
-8.495871747170087585e-02
-2.815515269316658520e-01
-2.457396152763852426e-01
-6.648416752607527735e-02
4.993388151765873473e-02
1.106569537174916101e-01
1.029893479317722238e-01
4.574604477930868662e-02
4.254298728972752408e-02
5.378607220617574736e-02
1.671535167416799209e-03
-4.014132346913918542e-02
-5.628409313603571079e-03
3.763662390202833496e-02
2.408358844661936254e-02
-5.536545039570005614e-03
-3.189287311404194816e-03
3.664365877796746905e-03
-6.072620443505150067e-03
-4.681684403721032492e-03
1.877378537270660633e-02
4.302718151868405172e-02
3.617261650815396801e-02
5.252926109329618051e-03
2.252748105141778867e-02
6.638640526290945365e-02
1.291394844484593935e-02
-8.879739634941868909e-02
-9.168840355784435570e-02
-2.569631689664692020e-02
2.205475831820129587e-02
4.151699905405033253e-02
3.022542363749282368e-02
-2.245008062136218639e-03
-2.655963233978426985e-02
-1.053036633061995089e-02
4.732188994424907369e-02
6.084162686605630588e-02
-1.897728152562500742e-02
-9.031747813827037397e-02
-7.505413000869144702e-02
-2.658071042899264047e-02
3.993755427572204947e-03
2.079291482391978918e-02
2.302012411077181131e-02
1.248238546518919828e-02
8.717250869644775635e-03
1.512762969033823630e-02
2.624527417644529140e-02
4.474819334032537760e-02
4.930434528311151282e-02
1.815931271195505778e-02
-2.397321563046114767e-02
-4.706853816667641577e-02
-3.076675558044392189e-02
1.241471207204588624e-02
-6.698538841393132659e-03
-5.511166765328948114e-02
5.877434514205993193e-02
2.388128781473028983e-01
1.468256086817836259e-01
-1.548272724684287838e-01
-2.786958871584958586e-01
-1.668599713511570160e-01
-6.561452041595688955e-02
-4.246689544184961002e-02
-4.767521876164020067e-03
2.605912248920639468e-02
-3.888615551446643337e-03
-2.454879249148759351e-02
3.786322598401409278e-02
1.276712026649875209e-01
1.395046107893247456e-01
5.611567841760289888e-02
-2.495078713315448948e-02
-9.806066882694131764e-03
5.439185023695670973e-02
5.044763230294861678e-02
-1.648637786022334045e-02
-4.040665272098506455e-02
-9.315126246611361502e-03
-4.515736113361411633e-03
-3.077615445358688681e-02
-3.626883178802518815e-02
-1.337936525451399392e-02
3.939539972625989706e-02
6.591377097379387540e-02
-3.772030724835267329e-02
-1.578751519886379684e-01
-8.801715705987547822e-02
6.054284241511098674e-02
7.741663933770878692e-02
2.398340715385709199e-02
2.025307075636566256e-02
5.232735799134702326e-02
8.613187252328410870e-02
7.184277499286564894e-02
-3.346821986121878423e-02
-1.269374721406982265e-01
-9.036975994704557480e-02
-7.657343587992190143e-03
7.641427274669683814e-03
6.169779842823004332e-03
2.871180584617263193e-02
1.579178842478400763e-02
-2.187453887519648366e-02
-1.806651126393282042e-02
-1.643384986161166954e-03
-9.359484263478157207e-03
3.132590553925910983e-03
2.422890321094845617e-02
-4.396945144244843694e-03
-3.286580711435790891e-02
-1.004834158066221853e-02
-1.952278007406578822e-05
-1.023799218991952240e-02
1.846887810512344921e-02
2.444199317939140664e-02
-1.710660627653476373e-02
3.726729335051653241e-02
1.480038628841452153e-01
7.311851597482565968e-02
-1.399782350894621663e-01
-2.196640667621748144e-01
-1.354083107395268049e-01
-1.480621152277463749e-02
8.870022378504256733e-02
1.200558913837991293e-01
7.134178002375898831e-02
3.661551176426886683e-02
5.073200082284048951e-02
7.791002658076856546e-02
9.401674668471608765e-02
7.838206188656123008e-02
4.680410976436721882e-02
2.425662754281403960e-02
-6.711575053739078298e-03
-2.438030646505706667e-02
8.267329497440913458e-03
2.514654516349063007e-02
-3.080176224078396210e-02
-6.945691136846175728e-02
-2.730142606032748623e-02
-3.937943387983693089e-03
-5.528395244795638458e-02
-8.910000593140142422e-02
-6.455891151872278355e-02
-8.038012822728655971e-02
-1.733782162783212566e-01
-1.915447020249133603e-01
-1.048286837535902932e-01
-1.238055675757998297e-01
-2.120141232908835660e-01
-1.378147137703774616e-01
-6.080725488800428451e-03
2.335295046714808836e-02
7.658936879838637579e-02
1.814119462857526899e-01
1.936817924409766634e-01
1.238295155304180162e-01
7.960893115595366054e-02
9.331334901609816823e-02
1.535531385544712801e-01
1.963297659781336468e-01
1.551196059775225566e-01
9.363180260289599710e-02
7.758450354514470626e-02
4.424509025950851271e-02
-2.146843548572834742e-02
-5.165245622147823096e-02
-5.678287975458869152e-02
-7.015227796632786395e-02
-6.174701800080057562e-02
-3.889264647050169610e-02
-4.521538178190858542e-02
-3.827139921834005198e-02
3.513625462763804441e-02
9.473052622823445457e-02
9.315604578485468801e-02
1.595467967838072321e-01
2.924763840176344276e-01
2.769840106996045992e-01
9.348823291379228240e-02
-1.028453733214074184e-01
-2.661132522714945714e-01
-3.178459778980996520e-01
-1.817677080530976930e-01
-2.921154487320252666e-02
-2.309711147991161395e-02
-8.224935183974665942e-02
-1.197018746803327344e-01
-1.360337830825457117e-01
-1.335558709352794304e-01
-1.581176710045768818e-01
-1.875481018676097289e-01
-1.020759011906280100e-01
1.739241846836844449e-02
-6.856832325440376241e-03
-1.009333759717885165e-01
-1.249666217452794215e-01
-8.948424634486180917e-02
-4.955019230109837525e-02
-3.846532492018299443e-02
-2.079153834027437642e-03
1.245594684226560417e-01
2.078134235997563806e-01
1.245676957596129064e-01
1.038848738668921544e-02
-6.775019280747082012e-03
3.165081381423369422e-02
7.406953191753376520e-02
9.553206387431814606e-02
8.960776723645222375e-02
8.927036267251198254e-02
1.150872920533143190e-01
1.576396934291799945e-01
1.906600608671319974e-01
1.815391072840311926e-01
1.404099005202229244e-01
9.946893034681306145e-02
5.605028609313479626e-02
2.450836514219204704e-02
4.619134160728934763e-02
9.025665433203711174e-02
8.399052093997855239e-02
4.060045640838445824e-02
1.390181625029345697e-02
-5.217996964503798796e-03
-3.188181370678634663e-02
-3.836033908526732816e-02
-1.801540128707784794e-02
-9.645937223464550944e-03
-4.784206714270310135e-02
-1.083808733321842549e-01
-1.284669066531187176e-01
-1.270706666289645737e-01
-1.788945325143537768e-01
-2.101407669766162944e-01
-1.395115637065540426e-01
-1.181917621564835541e-01
-1.454822442523507064e-01
-9.394933257667582860e-03
6.939215112369354066e-02
-1.795170734188008821e-01
-3.662593041627933421e-01
-2.174696309040790865e-01
-4.885521772542915364e-02
-1.212080917976836314e-02
2.332598940756859529e-03
-1.954866765749387059e-03
-5.751106086531558581e-03
2.143093146724613790e-02
2.875874137617057125e-02
3.079160848632826741e-02
6.919791375717014581e-02
9.052378431207745713e-02
6.773306266860179559e-02
5.340942219150040388e-02
6.839987869625245576e-02
9.559108094354110130e-02
1.182322280246277946e-01
1.299671842246118425e-01
1.515768035786863865e-01
1.791106151588395534e-01
1.766577020550488819e-01
1.563210716663424316e-01
1.436384773839912143e-01
1.311040228673889807e-01
1.305423408547524700e-01
1.010426595072489442e-01
-1.217288766908225517e-02
-4.937719755282454770e-02
5.444165642206438144e-02
2.231915518056137165e-02
-1.310097804346649075e-01
-7.930681920326812517e-02
7.908765985500595952e-02
8.951054947236465609e-02
5.247951448356215354e-02
4.755131494352226457e-02
-2.183492063938135413e-02
-1.171775405490599192e-01
-1.398655368136599575e-01
-1.291036743414352983e-01
-1.413251167525845786e-01
-1.479129129830427380e-01
-1.265386069910856004e-01
-1.144050675058085054e-01
-1.399909732808981844e-01
-1.686822600371980507e-01
-1.523687653352505944e-01
-1.026789756001386111e-01
-6.991016924261564403e-02
-6.421422934614945399e-02
-5.593430906532357444e-02
-5.281414984396815004e-02
-6.915924807894703596e-02
-4.431331609396832460e-02
3.098992779984937468e-02
5.342424159892239510e-02
3.443205173326709806e-02
7.743272993446731478e-02
1.082068011010360875e-01
3.448454773232002835e-03
-1.422007880545567149e-01
-1.592029246576509294e-01
-3.033345609958826294e-02
1.445741762994700030e-01
2.472770549046812427e-01
2.318076719761898719e-01
1.956904890895500293e-01
2.233611194746142337e-01
2.499266921650145357e-01
2.276897021280964439e-01
1.805378495673040651e-01
8.362089460456917367e-02
-3.405643679046619493e-02
-5.659983970295596328e-02
-1.957128223007480183e-02
-4.158706037379900078e-02
-5.370195167107270906e-02
2.091667645155516342e-02
7.462346851494364164e-02
6.337680019481821414e-02
5.091983142188165334e-02
-1.149982837863375816e-02
-1.365232431356425136e-01
-1.551867488178800825e-01
-5.030577263136893490e-02
-4.818807598090042721e-02
-1.942851003806228827e-01
-2.799291217814080523e-01
-2.241813441069539503e-01
-1.422545532668025303e-01
-1.113121748456296356e-01
-1.222821135855493846e-01
-1.216136108770187463e-01
-4.116419384107447565e-02
6.394245493708103356e-02
5.224202563274242539e-02
-3.268222727713130521e-02
-1.525324071592518843e-02
5.686981936563911821e-02
-1.205356487522429854e-03
-1.016126156773951017e-01
-3.006440585026650195e-02
1.195805616773612107e-01
1.396590526573693591e-01
1.038202161652757305e-01
1.524480042162657256e-01
1.823440892558156334e-01
9.698690040826310477e-02
4.743967979512709460e-02
1.178270418904710654e-01
1.446871091899892270e-01
6.258655401387536177e-02
1.950749816880854859e-02
1.020033774054723286e-01
1.970335008243359332e-01
1.228427155281862498e-01
-3.718045250061279700e-02
1.293777767589308209e-02
1.696203599517754068e-01
5.368728426376871699e-02
-2.154711530437252720e-01
-2.577873509579662881e-01
-1.245819138302936557e-01
-4.248019428471850462e-02
-1.676229646847279472e-02
-4.104246602073807759e-02
-1.448659452306430007e-01
-1.991938966361250229e-01
-1.039740962903143440e-01
3.390100070915995356e-03
-1.985687713255366443e-02
-1.206591137604496877e-01
-1.662157609107857148e-01
-1.179867228974333382e-01
-6.815432255576733822e-02
-7.907332472568300019e-02
-9.156567148298198899e-02
-7.117330566615119591e-02
-3.844101260745644288e-02
1.265217329085129364e-02
5.928923907866803095e-02
6.097979535767528853e-02
3.638699139380836833e-02
4.221279747291570295e-02
1.112926954780198707e-01
1.216441640760594911e-01
-4.824883690135771397e-02
-1.485917462965788693e-01
4.250094407937041879e-02
2.325005207485956182e-01
2.100674281052185011e-01
1.908860920062777911e-01
2.457321691935389352e-01
2.421033965780083619e-01
2.381095848804632431e-01
2.968418747166687299e-01
2.774696375150551564e-01
1.238443542880607318e-01
-3.939678358527456264e-02
-1.332420934341136953e-01
-1.679891889174741637e-01
-1.731308955306649355e-01
-1.908147387961235397e-01
-2.177067906232258432e-01
-1.924014941728351413e-01
-1.188413423425907223e-01
-7.939004521528728042e-02
-8.972731438712631957e-02
-7.856621597163712667e-02
-2.549851351897843704e-02
9.940542169770985592e-03
9.182992390230626523e-04
-2.271208008873518841e-02
-2.536809521188337219e-02
3.675318433760191295e-03
-6.286867565215938092e-03
-1.013778453710591637e-01
-1.261815174760198832e-01
8.361604756545857123e-03
5.411046662619756892e-02
-1.277696082573911707e-01
-2.661873436795724746e-01
-1.854542840303339823e-01
-4.067187099371974424e-02
3.583029248346235318e-02
5.022737574531928317e-02
5.403005073206988695e-02
8.630460928273799015e-02
1.014843314403390678e-01
7.188292371545702830e-02
6.491891770537501494e-02
8.073455745893211299e-02
5.082359731832111760e-02
1.633848332957833771e-02
5.382025805020154707e-02
1.038702913683729190e-01
8.931617559467996958e-02
6.515408718996354431e-02
9.122257181289379624e-02
1.180124296271632262e-01
9.630859564371377357e-02
6.265613691336364977e-02
5.441559207708782098e-02
6.564865391228029423e-02
9.787067167378679655e-02
8.579122148269559267e-02
-4.669354519753924487e-02
-1.313047259299867098e-01
-1.441815878168385689e-02
8.186440994699678564e-02
-5.447646503679341723e-03
-8.249682880079922676e-02
-4.461616442310850639e-02
-1.714562842709667703e-02
-3.587595615290579965e-02
-3.615518635661951058e-02
-3.986027007194822835e-02
-9.473458427074959998e-02
-1.498744191438713680e-01
-1.469229846687005736e-01
-1.216707635987566705e-01
-1.100588961250517223e-01
-8.870362939522292989e-02
-5.946061858472850847e-02
-5.601266417008408938e-02
-7.475465620438855041e-02
-7.851299502792494223e-02
-4.361800312130335172e-02
-1.822062561639040124e-03
2.975168749044340699e-03
1.114637156730764050e-02
4.554392166037087020e-02
1.734026240125556562e-02
-2.597063051593057059e-02
9.983621838321367348e-02
2.697738995056650491e-01
2.064380432448749969e-01
6.449636171267618401e-02
1.051243121496084343e-01
1.172173010225403544e-01
-8.777030610786810960e-02
-2.157057055409833390e-01
-9.304930054296174646e-02
4.211556733392020357e-02
6.271381551344318295e-02
9.525674449244911357e-02
1.984525717263959377e-01
2.377727675632017312e-01
1.161979200436795839e-01
-1.864251659831407670e-02
-3.330309414801068540e-02
-1.065322039515521207e-02
-2.373302560333846734e-02
-4.599757691099853885e-02
-4.492441698347750950e-02
-1.412284723880069190e-02
-3.965544151190528513e-03
-4.148534040929506561e-02
-5.962738746797173472e-02
-2.362975473493124368e-02
1.006508022171259849e-02
-7.952101143091191288e-03
-3.578797341841819663e-02
-7.147185780438970737e-03
-1.227339190919954186e-02
-1.382356519685387919e-01
-2.144966245095724644e-01
-1.636289003225640248e-01
-1.489849606624792377e-01
-1.401907918218660565e-01
-2.694214694355683698e-02
6.832297852190719056e-02
6.040711878487765168e-02
2.225963088325027400e-02
-5.113997875804375537e-03
-8.956420287996012114e-03
1.712246764331105953e-02
1.203388944286351570e-02
-5.380500416993785201e-02
-7.485884255028271705e-02
1.311644559362130057e-02
8.725482644336965410e-02
7.680021020776602036e-02
1.118544569851684517e-01
2.250779575301404545e-01
2.474096995045467762e-01
1.458234149139075453e-01
8.976840328185996254e-02
1.154594542097126947e-01
7.185813730126894283e-02
-6.520677230475356578e-02
-1.519056837521654824e-01
-1.392482395456696997e-01
-7.370232405263399400e-02
3.011456178730820624e-02
9.724666197942806456e-02
5.860712231989233939e-02
5.067067723181527955e-02
1.397443758498901623e-01
8.737757749610101932e-02
-1.496674356881922685e-01
-2.510454603932781859e-01
-1.486638053107862123e-01
-6.718929426138707528e-02
-5.341803021027934778e-02
-5.787414241374781720e-02
-9.951629188259712711e-02
-1.245004879584430957e-01
-6.197868922234837930e-02
2.976604108679673649e-02
6.432375287969924194e-02
4.964606543440563957e-02
1.997002891469373473e-02
-2.306837647688998738e-02
-4.288061603288717549e-02
-3.938690316271305919e-03
3.076336512896138756e-02
1.411220184059921133e-02
2.997009771424273550e-03
1.681364484578662388e-02
1.675954403762835998e-02
1.635578200468898111e-02
2.485866879798671186e-02
1.821597380404023012e-02
3.515511879880652002e-02
7.864259984780479218e-02
3.858356889285505242e-02
-5.277853276337984845e-02
-2.356712265675302981e-02
7.819319295974543060e-02
8.788345091997601388e-02
4.373452452938387386e-02
3.702126232484435203e-02
4.457765341152618299e-02
5.817776976697922736e-02
9.672538122004603611e-02
9.581922351001639915e-02
1.173269653756450238e-03
-1.056060899913602025e-01
-1.226895259101000724e-01
-5.255806337415006024e-02
1.886578994279933599e-02
-1.044339916909621177e-04
-7.434992876966464714e-02
-7.834136715202304202e-02
-3.058671599582656747e-02
-4.504156684478001493e-02
-8.782511545385629503e-02
-7.230733975839885586e-02
-4.213789434446021248e-02
-5.277313914705180492e-02
-7.742054318698350646e-02
-7.662015338203498338e-02
-1.779495892164498563e-02
6.691154689603288908e-02
5.131403999993218445e-02
-6.232899656991008203e-02
-6.174051407027857097e-02
1.045891091918615678e-01
1.752222550773362697e-01
9.178807403360640660e-03
-1.894634304041039607e-01
-1.988421701688847243e-01
-3.313857251644861113e-02
1.475611306353533936e-01
2.225504497236082679e-01
