4.420726585900256085e-03
-2.672228918615866117e-02
-4.402379389246149216e-02
-8.217249774399942863e-02
-1.281344625113355062e-01
-1.022793924936470922e-01
-2.299321373395069035e-02
-1.206357403084305953e-02
-6.134494125415210219e-02
-5.493009706199118020e-02
-1.872663693121909972e-02
-1.200720559441022239e-02
6.214034083142647852e-02
2.065295323315306519e-01
2.376732968468171225e-01
1.574757484385203021e-01
1.224895901670183807e-01
4.271487029351737907e-02
-1.902504042290703301e-01
-3.362022116303517993e-01
-2.280191555614154153e-01
-6.741427731634062892e-02
-2.380183211811916222e-03
3.088451674062646715e-02
5.705038661468963407e-02
4.316269655043415698e-02
6.073230892851909368e-03
-1.115876271017324575e-02
1.101120735223012209e-02
7.429777864257486319e-02
1.512925696429347211e-01
1.774050313228448528e-01
1.448941311761424433e-01
1.200637287113935914e-01
1.080313708886328078e-01
5.219072321171177448e-02
-4.677326155947704456e-02
-1.365222449083637324e-01
-1.861493485494365996e-01
-1.676184792999798612e-01
-4.231797174319783250e-02
8.434455319543514296e-02
1.729972130866139907e-02
-1.553384583884564463e-01
-1.843206530286791711e-01
-7.324054477151829834e-02
4.185189115411196148e-02
4.740751898926129360e-02
-1.298228462207939304e-01
-3.206055210172047421e-01
-2.908873513716541681e-01
-1.337818737431843708e-01
-6.646567240921461006e-02
-3.213735276025397880e-02
1.380732894976030023e-01
3.231456309408711203e-01
2.841894515688636602e-01
1.229402970723092736e-01
7.838113296580519196e-02
8.785822008865402932e-02
4.782166466289948514e-02
8.827262089988419103e-02
1.726620444805147536e-01
8.171482913676120230e-02
-6.660910065014022385e-02
-3.063919357550833750e-02
8.701700181810646806e-02
9.858100453125072382e-02
3.388170197598580624e-02
4.838544398997407514e-02
1.958171439643761336e-01
2.992645616860217239e-01
2.331863857975984278e-01
1.009392015112696300e-01
-6.842099882500166097e-02
-3.031625787248831694e-01
-4.630418605993970038e-01
-4.306852127342622460e-01
-2.437944359040518094e-01
-3.960591420508359495e-02
-1.186904901339086438e-02
-1.392040555399493840e-01
-1.514829994835633908e-01
8.395487639200203273e-03
1.318949765462932300e-01
1.172280566283533387e-01
2.287191877458700368e-02
-2.343243844929960781e-02
5.353968184645198358e-02
9.282550060201938402e-02
-2.922322008099008731e-02
-9.731174488471544537e-02
2.200907228383504333e-02
1.182188845481813716e-01
5.975614215847452337e-02
-4.199973011536022038e-02
-6.438193111630408083e-02
2.254466461002659419e-02
9.661771962897823529e-02
1.074023014513403838e-02
-1.099050385043444655e-01
-9.595268748259076774e-02
-5.008350346214568427e-02
-1.054415780826667426e-02
9.740405066205122531e-02
1.331359759009165533e-01
7.301152591963090688e-02
1.357231229508254755e-01
2.136364375675932070e-01
8.631807020067400193e-02
-1.983989158719580773e-02
3.134024461824622132e-02
-1.921403022299945224e-02
-1.302693131884757327e-01
-8.837483062792853006e-02
-8.030310983054500529e-02
-1.967853893897489048e-01
-2.222109551519317883e-01
-1.679069855711634029e-01
-1.256074169498889170e-01
-3.800392377096500907e-02
-9.149332618084626487e-03
-9.888465507049300218e-02
-7.120368743956159707e-02
5.301507149506273081e-02
7.942360431956008160e-03
-3.582368934712768654e-02
1.857036116737320053e-01
4.351889061063790032e-01
4.536462690379952090e-01
3.232896138021081334e-01
1.046496545684862112e-01
-1.805351516669944922e-01
-2.997035373311708328e-01
-1.180216158675255061e-01
1.457854958640821819e-01
3.134940976757074615e-01
4.284514613178934672e-01
4.882133652662010714e-01
4.278365095839282151e-01
2.168537694950072592e-01
-1.092021914539122451e-01
-3.496572842893820865e-01
-3.828531637746478422e-01
-4.008376239625168758e-01
-5.012262322524441149e-01
-5.262389264217826046e-01
-4.510368522138852865e-01
-3.696105336873145020e-01
-2.687920968331929394e-01
-1.342817134609500251e-01
-1.068353478815325941e-02
7.630374566628635169e-02
9.767570124819799360e-02
5.948045008170498027e-02
6.403559761216197355e-02
1.324142969569252759e-01
1.363541289764879372e-01
9.219157527076624059e-02
1.591103127233196024e-01
2.608784351590443529e-01
2.008373670893634499e-01
4.037406967411726055e-02
-6.034169921898343419e-02
-8.919612237016111278e-02
-7.723579769456428989e-02
-1.657752586980697912e-02
8.472036350764022838e-02
1.617940587887611859e-01
1.546707275601135745e-01
1.114769311404414515e-01
1.082882961783782905e-01
1.041689334421022906e-01
3.530531892200772237e-02
-3.925354478596165819e-02
-4.425143606964083293e-02
-3.083091446251937789e-02
-7.924361321575490447e-02
-1.487099044152671024e-01
-1.335689348884302463e-01
-5.487251026141078125e-02
-3.397083896710421241e-02
4.917546653887816359e-03
2.202597115278015494e-01
4.026556880346062739e-01
3.067896184202102972e-01
1.363992834719663372e-01
2.672795038263020215e-02
-1.802651146845035135e-01
-3.831012204316152081e-01
-3.627297783417285371e-01
-2.082473268190063731e-01
-7.395105448110293744e-02
-9.020017993933093781e-03
-3.076159407446257127e-02
-6.677312482614496114e-02
-5.227176760292112645e-02
-4.231118114022365539e-02
-5.595412846464986600e-02
-3.029087453412534006e-02
2.953536761713055486e-02
6.628705325614814292e-02
7.161640281441358780e-02
5.407218942308261722e-02
2.784267061448718328e-02
3.084130394073785961e-02
6.255635061732862934e-02
8.119158290690285662e-02
6.813714010433893908e-02
3.435270066501110858e-02
1.225934875116167257e-02
4.879698435143222518e-02
1.057294873428820670e-01
3.888692922492828496e-02
-1.268631551360277498e-01
-1.667537975304711484e-01
-6.482321430473420021e-02
1.657684182020446179e-02
4.921040636294128634e-02
2.578017421164417039e-02
-7.080309504826259870e-02
-1.427264528013943712e-01
-1.354821279926471111e-01
-8.220522231049187667e-02
3.250842600384760278e-02
1.793176313328158911e-01
2.299387811772242440e-01
1.661753365766816815e-01
9.905884394117873970e-02
6.101442272991487031e-02
1.595060813904120717e-02
-2.845319324334820779e-02
-3.729671847384069538e-02
1.301499164509487688e-02
6.896574676184534514e-02
3.570498855592242615e-02
-3.017137900666857706e-02
2.937369392294487264e-04
5.226279271384901698e-02
-7.275590660468324311e-03
-6.484515434588589144e-02
2.270942482569530962e-03
2.181728638113808114e-02
-1.019519716726494662e-01
-1.227587847207737698e-01
1.510058244914409473e-02
-4.969419616679168761e-03
-2.374706959583624544e-01
-3.292348985424616847e-01
-1.268731387506837338e-01
7.951674819130896688e-02
7.776929156005708832e-02
6.235995021946018346e-02
1.190006296067258190e-01
2.630917889505119539e-02
-1.552349490885910344e-01
-1.434352723120653483e-01
-1.175159592435251477e-02
3.596879910394504276e-02
4.222201619305920861e-02
6.404258882905203287e-02
8.254372392718278828e-02
1.270336692636993559e-01
1.640120777323759438e-01
1.040615244143300172e-01
-1.792817292034989962e-02
-5.877135821607178123e-02
5.132563971640152767e-02
1.600778642233074422e-01
7.636617845334117693e-02
-8.776206598403883674e-02
-1.186000037209594682e-01
-6.746613751504321188e-02
-3.608180862221927604e-02
-7.493701391968154296e-03
-3.366067250265930566e-02
-1.057348262064396471e-01
-7.092204014289500702e-02
1.325541729697126900e-02
-3.194731736047147497e-02
-9.214208952082511561e-02
1.915665850718752117e-02
2.027979915226963969e-01
2.482085279255263344e-01
1.198843410617630861e-01
-4.314191095862152624e-03
-2.412877451865653305e-03
-1.540551925872513453e-02
-9.291272320327692569e-02
-4.263026237507817895e-02
6.686628072697151093e-02
-1.545091147120727232e-03
-1.236862934197900804e-01
-1.324169867122892141e-01
-1.243667987522715929e-01
-8.775383884957979608e-02
5.849265715506873214e-02
1.831536833241410589e-01
2.023387173267607864e-01
2.101068713736104765e-01
2.153573043406757093e-01
1.950755728988801951e-01
1.928460964904999131e-01
7.439716349899209991e-02
-2.892326661200527727e-01
-5.779292012291350478e-01
-4.177156923315087367e-01
-3.250759501322934147e-02
6.117059172813649193e-02
-1.406091467780079540e-01
-1.503113127588421860e-01
1.255070873981621593e-01
2.225047112890894963e-01
-1.411656853619602803e-03
-1.846608766500116294e-01
-1.453883174901973996e-01
-2.143825924713706199e-02
5.337626808367502973e-02
6.466403794867643662e-02
4.778365356864301694e-02
-8.897398024867591432e-03
-6.683799146934343849e-02
-3.086119917703595422e-03
1.263000578580356081e-01
1.398816166670964478e-01
5.823317564827469595e-02
1.024885573647825107e-03
-3.872841886373015741e-02
-8.948595057626426708e-02
-1.376192967633131925e-01
-1.643181184583641652e-01
-1.253089662298909335e-01
-7.208662738108168044e-02
-6.975421651376335908e-02
1.191460891223279639e-02
1.586973591283453999e-01
1.343962333370919138e-01
2.689903902927625462e-03
2.680340889196143606e-02
2.175233718672228145e-01
4.149403064327402135e-01
5.150295336275121372e-01
5.243570750820675253e-01
4.937166356461656913e-01
4.123526178644109641e-01
2.652374885604220633e-01
9.387471243233025398e-02
-1.001857844822541116e-01
-3.280324858213736761e-01
-4.981484870240204810e-01
-5.440188857646499621e-01
-5.503933737371640156e-01
-5.563354302065505186e-01
-4.662512852328623558e-01
-2.824101063653717825e-01
-1.268464262786385688e-01
-5.114848121996795616e-02
-1.275381606165013060e-02
6.546645570261715175e-02
1.473983806959674459e-01
6.884452224403582454e-02
-9.924368822982500282e-02
-1.094459061629954599e-01
-2.298814063236955668e-02
2.606017440807891633e-02
1.482005746271582991e-01
2.777148023671678345e-01
2.136738170302157624e-01
8.057274949755433013e-02
4.506254718614330357e-02
2.642995914512671907e-02
-2.259246546935534880e-02
-3.411089261372068915e-02
1.730105957562470473e-02
8.782556689774385916e-02
1.147017294725881098e-01
9.036780938549560105e-02
6.010466797779036308e-02
4.654822027407028856e-02
5.041402443856543569e-02
5.607908725329803501e-02
2.911080907189663933e-02
-1.281580632192361874e-02
-1.513450811251737874e-02
-9.467964380219087706e-03
-8.058051004854453747e-02
-1.821556665684629372e-01
-1.468929393390480675e-01
5.056586857440122096e-02
2.085057389923574700e-01
1.637828339574032843e-01
-1.509860343446358874e-02
-1.612459637419201286e-01
-1.946712930457819013e-01
-1.388765460983829025e-01
-5.051048235130326663e-02
3.572336378110826938e-02
9.909140766975733927e-02
1.070836555277688562e-01
6.260956300411421593e-02
2.625979875155309146e-02
2.857229185597615767e-02
2.373341919866993679e-02
-2.155555476823637837e-02
-5.713058589259463471e-02
-3.603844143984453324e-02
-6.183180020819683577e-03
-2.528364141582608096e-02
-6.307137286881597804e-02
-7.318640837644609098e-02
-7.671148391817315948e-02
-7.852632464614431318e-02
1.129775648562881749e-03
1.633933769432336369e-01
2.596933552492775021e-01
2.504157087800609194e-01
2.282280443193189234e-01
1.121833433128133495e-01
-1.528077578558987570e-01
-2.478777783786799138e-01
2.377418753862020617e-03
2.309416457668694855e-01
1.467828077478421089e-01
-8.346866735396496484e-02
-2.372351980888152412e-01
-3.024391179093538495e-01
-3.012842496489705479e-01
-1.730116450669293704e-01
2.365681435030511648e-02
4.899022746936169265e-02
-1.615692907043942972e-01
-3.168736398951162436e-01
-1.836876836694046888e-01
4.239540265399642516e-02
1.010637637520231669e-01
1.032660393115433783e-01
1.949731462320457298e-01
2.309305768684973281e-01
1.371947675109056464e-01
5.835915503456547831e-02
1.837530925356631664e-02
-3.244289774911515711e-02
-5.029763979272464797e-03
8.600272874840364512e-02
9.994370262931701054e-02
7.793679885310073052e-02
5.177322317147960151e-02
-6.518092555141316580e-02
-1.106229754551157629e-01
6.464751168804021286e-02
1.922382257395402749e-01
1.255617922084026894e-01
1.116134006447009469e-01
2.250058132294744384e-01
2.597330395214275112e-01
1.169964625867669222e-01
-1.108118948590680469e-01
-2.611205945128727279e-01
-2.647656154721920729e-01
-2.063079036408339839e-01
-1.467022566707690268e-01
-1.038957565113865777e-01
-9.705829468696183793e-02
-5.804733246450615586e-02
-3.072855053689406424e-02
-1.543268541110558723e-01
-2.041473374801680563e-01
4.854882156106090502e-02
2.274105953944946523e-01
7.285108035230575263e-02
-5.841216867344578567e-02
-3.257852132074406937e-02
-3.321860215868471106e-02
1.516483760332577174e-03
4.563861012610808537e-02
-3.555042339608245616e-02
-5.387326159019175525e-02
1.031092432352411492e-01
2.209614500861543929e-01
1.309680477973044765e-01
-1.053896093927285393e-01
-1.878453448889068622e-01
-7.704228604546378700e-04
8.681238708595623299e-02
-4.033995772721211959e-02
-3.137245586381893353e-02
1.204605406172621490e-01
1.362975977968293173e-01
3.289745661034754187e-02
-3.332360987192381496e-02
-2.005014268927350629e-02
4.124763209533729991e-02
1.115896605277429121e-01
1.627605501844900104e-01
1.028221446845134779e-01
-4.638238215456583213e-02
-3.611719431614331816e-02
1.042571721183387645e-01
3.453749356397579212e-02
-2.113571856163779517e-01
-2.836460530752950571e-01
-1.090833680993291699e-01
7.638512162942226458e-02
6.677129888485318354e-02
-6.971364941241496582e-02
-1.138131650715664411e-01
-4.203278753101517135e-02
1.675265110355152187e-02
4.599695790063531436e-02
7.545290175118291032e-02
4.367449477925362811e-02
-8.005605966864808021e-02
-1.759316799803531950e-01
-1.489402790994466541e-01
-1.355929829475528148e-01
-2.529150848139497532e-01
-2.954339670646842775e-01
-1.317992545945876337e-01
-2.917999062573388425e-02
-6.003619629453701284e-02
7.647526653765446270e-02
3.251075057959568748e-01
3.771396565182016936e-01
3.336014011999076101e-01
3.961055448537918466e-01
4.714298299187353325e-01
4.997721154802828858e-01
5.536218666566962154e-01
5.579079229591642486e-01
3.701054965346354808e-01
4.985119183014043165e-02
-2.347403801714002536e-01
-4.049180105347924274e-01
-4.648094765976276133e-01
-4.924167737772967568e-01
-5.679139124611709555e-01
-6.097190011758286676e-01
-5.088158866885149623e-01
-3.756666686359119711e-01
-3.220714588428679748e-01
-2.109939126954060995e-01
7.139647953791766755e-04
8.848816134871154149e-02
1.830034674553791818e-02
-9.365617668690470743e-03
1.211421878537145835e-02
1.258177715432365340e-03
5.035095520029554683e-02
2.054715996021175273e-01
3.382134324729485497e-01
3.707691538209146875e-01
3.447430112328466745e-01
2.841718955114802547e-01
1.830794165567856402e-01
6.168673337620934893e-02
-4.428762560989501357e-02
-1.012333852012563679e-01
-1.060871490326878858e-01
-9.346996325009448991e-02
-8.159967830437694913e-02
-5.815746858716857454e-02
-1.577502779644196843e-02
2.788006878541037306e-02
5.161601272224262266e-02
9.471200440798852038e-02
1.933578910623503511e-01
2.555288913027842779e-01
2.192240099411885967e-01
1.556330200682972398e-01
2.473059687165235498e-02
-2.266242240962365040e-01
-3.708794464017391990e-01
-2.658326356296742965e-01
-1.319256215054993020e-01
-1.063186062824926920e-01
-8.941739372127378849e-02
-5.058927279304716029e-02
-3.831418421109682171e-02
-4.161541452446718137e-02
-3.272296859200488073e-02
-2.209359515600287094e-02
-6.127419178323302573e-03
5.014419257365149846e-02
1.187418266481252704e-01
1.226106753629448015e-01
7.607695570240088911e-02
5.306262193599205201e-02
5.576116689730956089e-02
5.112405439593246947e-02
3.256226260750518658e-02
1.249474166458855277e-02
3.044286930135902194e-02
4.481624241542234155e-02
-5.156887905831980534e-02
-1.794800200903521881e-01
-2.033417574816965556e-01
-1.477089101737524557e-01
-2.599678889970463008e-02
1.087981164454683014e-01
1.136225092978624951e-01
1.468462704683607539e-02
-6.860930635219944507e-02
-1.092603593655443600e-01
-1.131225310145545643e-01
-8.423126902042044062e-02
8.059829843342051700e-03
1.481151770895456909e-01
1.920003931613137316e-01
1.125175384547097701e-01
6.315448788576333294e-02
7.622290695355612988e-02
5.409133195286993517e-02
-3.960767181653793156e-03
-3.259703894949534525e-02
-2.356620044401970537e-02
-6.889941882517965077e-03
-9.883519210732693780e-03
-3.366512778686461121e-02
-4.845013853226059347e-02
-4.427955527387885531e-02
-1.471237603711812898e-02
7.933410620750175335e-02
2.029444174284239510e-01
2.499545296981932896e-01
2.160210897300367527e-01
1.440488661188333575e-01
-5.605028649516738751e-03
-1.948528004864953922e-01
-2.481952620934048115e-01
-1.295895547113420088e-01
-6.036942785482319815e-03
1.993300161497963546e-02
-1.217090684059096706e-02
-7.409773112520334770e-02
-1.770898737048145766e-01
-2.743512163594238329e-01
-2.969418151264506811e-01
-2.597232280228624068e-01
-1.435125953794949560e-01
1.499928907331356254e-01
4.418743375744882407e-01
3.604746737617214869e-01
3.546100672257629371e-02
-8.632886174608984942e-02
-3.765470778843104521e-02
-8.777518106441456469e-02
-1.492925262379574958e-01
-4.383922402798005880e-02
1.118776415800325358e-01
1.263232168660137211e-01
4.410781446031691866e-02
1.426291634396915746e-03
-1.861286891426418982e-03
-1.751555217472773249e-02
-6.324073073542821333e-02
-1.226877142026902567e-01
-1.461967583028052076e-01
-1.401171931248551272e-01
-8.618693870060964435e-02
1.065370876316374116e-01
2.907744447633768270e-01
2.310684319369693263e-01
1.048245501266793778e-01
1.415846192950228621e-01
1.894601357047105417e-01
1.473628070307007876e-01
1.067882498878873210e-01
3.957125241475996369e-02
-8.054589046569790578e-02
-1.759418607285886949e-01
-2.131947181636853483e-01
-1.642493434680915021e-01
-5.566643012257462692e-02
-2.570526362207723597e-02
-5.164641145622717727e-02
2.160817927238723249e-02
1.258031234487413386e-01
1.563666476727161303e-01
2.255129238993976715e-01
2.846196944883436220e-01
1.142557029116489792e-01
-1.205942085992748186e-01
-1.076697994126745717e-01
-1.787308293051984714e-02
-1.166423714947415063e-01
-2.237646644537052421e-01
-1.835275344703201361e-01
-1.849385248033519058e-01
-2.800500436352787448e-01
-3.199391223614727053e-01
-2.733985860620442021e-01
-1.187102539991130717e-01
1.343565660589438326e-01
2.794847321708794352e-01
2.244124649599327781e-01
1.681909226414941283e-01
1.818301625140918698e-01
5.520204984951684879e-02
-1.535990986536263925e-01
-5.924054479975953552e-02
2.321325943208809028e-01
2.135869001071829532e-01
-8.846956581417882159e-03
2.700103375852676291e-02
2.016124465332501670e-01
1.675761273735331680e-01
-3.937975520389870436e-04
-8.958965825028100682e-02
-1.207389222009510599e-01
-2.405289043823544692e-01
-3.726726902277896492e-01
-2.375950884193112067e-01
3.543754945732456585e-02
1.648693820597748466e-02
-1.694778588978047285e-01
-1.382750735555732802e-01
-3.963449979898926723e-02
-6.455970999732796312e-02
2.260238775346377557e-02
2.469675567132570138e-01
2.956126085149570204e-01
1.409605559228213068e-01
7.622553939478693419e-03
-2.752132255398586497e-02
-1.001442061670996392e-02
2.439183352144020517e-02
5.505583572871525916e-02
6.143710143286043590e-02
3.820329125506094492e-02
9.889176151289105765e-03
-8.340760584624807780e-03
3.768825551652376510e-03
1.090978510279453362e-01
3.175316206448600131e-01
5.222926891065068356e-01
6.047480729179011139e-01
5.544870518926507952e-01
4.624208729657495742e-01
3.458952023198014203e-01
7.385275069511923474e-02
-3.729667806787688167e-01
-7.665054569728210199e-01
-9.183275757144897522e-01
-8.675140227707351936e-01
-7.156810925880451313e-01
-5.273542630834281431e-01
-3.751946300109050281e-01
-2.614021990144369534e-01
-1.333469395271286717e-01
-3.710005000137997500e-02
-8.641086920278151506e-03
3.858239118347471519e-02
1.398150118722166213e-01
2.378691690084057675e-01
3.113336950219028898e-01
3.476164328275842541e-01
3.175548873899236568e-01
2.656128734895000232e-01
2.585320551008429280e-01
2.468135943550866795e-01
1.540765868310876863e-01
5.949585631795709789e-02
6.895582757577276012e-02
8.604941339385899224e-02
1.076878001243266464e-02
-6.553248314616801073e-02
-1.150292306550803750e-01
-1.524606533473111258e-01
-4.604736592312059368e-02
1.417748495414195842e-01
1.449209572689182657e-01
-1.637630895925518831e-02
-1.526444326350450409e-01
-2.219154304410605738e-01
-2.063869879402883412e-01
-9.062625303069440919e-02
3.505994531189540742e-02
9.236506560471496874e-02
1.098964008985289231e-01
1.191320926494338073e-01
7.909284666855809220e-02
-1.601672375254440533e-02
-7.008955546483015830e-02
-6.624710506273628896e-02
-1.040552045337002351e-01
-1.188589313022458543e-01
1.989648566846166644e-02
1.410453828478998861e-01
6.334410635972882730e-02
-4.573330586275173304e-02
-3.323933084907367691e-02
4.880553661966934714e-02
1.597262968580581977e-01
2.224277546173802078e-01
1.689018949380282353e-01
1.031734926774160038e-01
3.734646744978779853e-02
-1.553940192228845385e-01
-3.547475713598393643e-01
-3.453457113616458241e-01
-1.905166991460106596e-01
-7.281531634187242419e-02
-7.358232045386339792e-02
-9.694045110801136067e-02
1.215344374441715281e-02
1.255551739085321583e-01
5.460064570112600768e-02
-3.933057297679294628e-02
-1.024526082865595718e-02
3.973970875209395515e-02
7.666999524480561101e-02
1.090571068260823839e-01
7.990884018382768406e-02
3.376539199114557410e-02
4.263898737896908847e-02
5.372650880134807044e-02
2.284076173359841574e-02
-6.807684466118140224e-03
-4.220957314078822853e-03
3.312972029496621257e-02
9.836543570770438227e-02
1.045555862575311273e-01
-1.235542409011836790e-02
-1.057826415152184341e-01
-5.131031332917042331e-02
3.147036511979622864e-02
4.806251302082002741e-02
4.388071507851959430e-02
2.231910771900557852e-02
-3.611773734300129796e-02
-8.918640145691821008e-02
-8.822494671293305835e-02
-2.634570190175310189e-02
7.264859732638927203e-02
1.767799444119699248e-01
2.379278018669831463e-01
1.692080870554858174e-01
-4.322801179305653385e-02
-2.358446508776545492e-01
-2.870761103160338057e-01
-2.576617254909247534e-01
-1.892726507545160197e-01
-9.569667449302023121e-02
-4.230700652973237025e-02
-1.516211949426100186e-02
2.412114023076643646e-02
2.707289911100513313e-02
1.501840922033113174e-02
9.124659206408680667e-02
2.135219254609375672e-01
2.308962432368347750e-01
1.580621060784048737e-01
1.366834596819826164e-01
1.204173354040041083e-01
-9.646451028646657599e-02
-4.397894688315073797e-01
-4.783447451226770508e-01
-8.633954142124292130e-02
2.601079608611314709e-01
2.472247031147643825e-01
1.016800910115552015e-01
2.021898841753888218e-02
-2.344972835256934132e-02
-6.273010523011177120e-02
-1.035754736414667282e-01
-5.939617192940020718e-02
9.821055733873187976e-02
1.599062480588326896e-01
4.585916417058800987e-02
-2.591385590057878469e-02
6.200751723489645456e-02
1.646031112656936579e-01
1.025779038842886959e-01
-6.875079054033536585e-02
-1.177276847233672402e-01
-4.729531781416591862e-02
-3.900758238998383587e-02
-1.673265773994914163e-02
1.251523045640041687e-01
1.483820312338355041e-01
-8.691612985987581808e-02
-2.707976017346732656e-01
-1.837979831638706929e-01
-6.787300530703735402e-02
-1.240781108646620279e-01
-1.791172713765885882e-01
-1.128749465051131218e-01
-2.484422299325378392e-02
9.688966027911713463e-02
2.352145751801815732e-01
1.910075404119123965e-01
4.279040844743504934e-02
6.874234569320543387e-02
1.549921011049496533e-01
5.953836671070955600e-02
-6.889252046092086967e-02
-3.347877008903996088e-02
2.502081163918482704e-02
-3.066957140455228020e-02
-5.642193542547339902e-02
3.445203134948485180e-02
7.484965213593179623e-02
3.667434944475059591e-03
-7.403963192002200981e-03
9.270773375316439247e-02
1.540563687867950726e-01
1.294266661923631767e-01
1.591966086313165440e-01
2.764473607287447066e-01
2.753080022254009718e-01
5.211162294485148505e-02
-2.125494944312572021e-01
-3.435693760728706359e-01
-3.768749368338110139e-01
-4.150360110272451331e-01
-4.030818304070123426e-01
-2.445166818012098897e-01
-5.803702618920292267e-02
2.415151349972582961e-02
5.694550054216108992e-02
5.017416138379771073e-02
-2.434419314825350678e-02
-3.837393675611890098e-02
6.344494424569516178e-02
1.279266126378766355e-01
1.083349713494781846e-01
8.410392239288679017e-02
-1.641093758517913129e-03
-1.598413177496098014e-01
-1.885674570029119701e-01
-5.586697055830120578e-02
4.036071105696771577e-02
8.855315845480352110e-02
1.316163156317118610e-01
6.045233425414819894e-02
-1.865197612170815464e-02
8.187969338602603397e-02
1.875710395543804254e-01
1.598662035685307348e-01
1.844237246457826329e-01
3.050476605377862027e-01
3.338060279940776587e-01
2.162835484420626564e-01
8.369669781121741314e-02
7.497207473820916013e-02
1.897482934411724442e-01
2.882452686037677014e-01
2.663465301217466386e-01
1.236198829564778001e-01
-8.699271034787003920e-02
-2.742295774763777172e-01
-3.969963121591772448e-01
-4.970622830733238962e-01
-5.709440975165093191e-01
-5.650713325823227828e-01
-4.920633078191974930e-01
-4.182754249555569737e-01
-3.534809327962966652e-01
-2.257149186442250210e-01
-3.017809381260951052e-02
1.017562114523784672e-01
1.441704794067995565e-01
2.472799534167702817e-01
4.058377870350683425e-01
4.521899158184901069e-01
4.039249699670576232e-01
3.442490349444237707e-01
1.931875877841563727e-01
-1.240003217782797290e-02
-9.620365757146880081e-02
-8.303808869850631824e-02
-8.441244793472253705e-02
-9.315103085781979708e-02
-8.114766607847923030e-02
-3.206642568867923426e-02
2.946505954390304244e-02
2.338943524778598973e-02
-3.276736399437091968e-02
-3.229956554069417923e-02
2.874283112444845842e-02
6.063652248219106311e-02
4.153267891698822489e-02
3.146345285901076816e-02
5.852266676163618564e-02
7.910502799454222078e-02
5.642001178498230046e-02
1.689512023252043998e-02
-6.182379937483144933e-03
-1.183733996146054020e-02
-2.523972975250079673e-03
1.668609360127885910e-02
4.122437909666427230e-02
3.295287438847573080e-02
-8.969497127248138302e-02
-2.394142319993340096e-01
-1.808512517481206394e-01
2.756311215385398583e-02
9.877510481928189479e-02
8.106994822481193574e-03
-9.906442469457171773e-02
-1.766982319600730600e-01
-1.846854171286966273e-01
-9.719427241967637521e-02
2.432047235338031382e-02
1.224437305247548097e-01
1.622496426551915949e-01
1.288244839158002586e-01
7.848752117741789047e-02
5.733069326022929846e-02
1.994620056969877153e-02
-5.766897518623535085e-02
-6.980041690574391444e-02
4.696643832638472404e-02
1.147755800174044827e-01
3.848345475011529654e-03
-8.991104741249983379e-02
-3.418894712010672743e-02
5.388666742497660866e-04
-4.382505041678479846e-02
2.389776684794838943e-02
2.231309079292683184e-01
3.088179086696096198e-01
2.120823157885616816e-01
1.148923154398193286e-01
1.470722354238073251e-02
-2.091517784605039787e-01
-3.763543266782151675e-01
-2.898548769328997965e-01
-1.266696563904186335e-01
-7.969221597699628623e-02
-7.013778353854249747e-02
-1.241055923148278242e-02
3.087882746789348543e-02
7.525754296834150092e-03
-3.592773159161011254e-02
-3.663770329335634679e-02
2.129223016025362514e-02
1.063035062780278150e-01
1.576130417742653278e-01
1.423189423062402037e-01
9.524564151193487538e-02
6.521405651400367931e-02
4.494733422389830813e-02
2.910252957917595917e-02
6.943118516036264620e-02
1.306439962864949789e-01
8.286615807163479064e-02
-4.146029242647834845e-02
-1.122364448771573237e-01
-1.705585766553223415e-01
-2.561499940330841940e-01
-2.235690246329657405e-01
-2.121286260237632490e-02
1.559821501419246526e-01
1.335501634904458501e-01
-3.210997774508000252e-02
-1.588385940349986702e-01
-1.730781347338278264e-01
-1.541427458353201441e-01
-1.261099211388411190e-01
-1.787269112843908533e-02
1.088700709607420131e-01
9.672846712697259763e-02
6.120640670369079800e-03
4.957904920003017996e-02
1.620786182280134768e-01
7.772334677182152207e-02
-1.378114891994898505e-01
-1.553940257576563178e-01
9.148662224171377755e-02
3.077857938542843397e-01
2.184254561438369602e-01
-1.265108502471586072e-03
2.193370381474433334e-02
1.736950461878707386e-01
1.450915642205921063e-01
6.008434298125968354e-02
4.596068419395665100e-02
-1.730895341634070689e-02
-2.816706113610439183e-02
1.267147282432159461e-01
1.791163729130756943e-01
-6.305787806308656152e-02
-3.462380835634353837e-01
-3.546585038203075024e-01
-1.588544408198467317e-01
-6.792000846507520451e-02
-1.116110393261178085e-01
-5.572783922978456067e-02
7.475292750687007048e-02
7.676463076756492865e-02
1.470270684375754588e-02
-1.722094447149838392e-03
-5.900510214475191556e-02
-1.287925926793922204e-01
-8.102684158812530069e-02
1.544033265978563343e-02
5.214769394818379034e-02
7.397830303841532174e-02
1.100653914807650791e-01
8.336638129575581202e-02
-2.785157309132857070e-02
-7.972700548806373189e-02
1.279515357837175682e-02
8.510611856071050030e-02
2.132670065419945554e-02
-4.542955117007974053e-02
-3.279134605371727962e-03
5.845611044566375453e-02
6.827942810839615975e-03
-9.738161798481727305e-02
-9.306908902497468272e-02
-3.043628722229694411e-02
-2.970666254159525996e-02
-1.889138344092400681e-02
3.278972889464705498e-02
5.422873653138107763e-02
1.274710830444495679e-01
2.531741087564831627e-01
2.083361416863774296e-01
5.222830143019710492e-02
4.199608698230195003e-02
6.302030818832651815e-02
-6.384622334527682852e-02
-2.022872202254822893e-01
-2.248556322087826576e-01
-1.683329725829114387e-01
-1.288905183964446366e-01
-1.162622445793439763e-01
8.746483681582230968e-03
1.995247037867880491e-01
2.469642526393885651e-01
1.857502647728197231e-01
8.951133330282638745e-02
-3.883662753056964234e-02
2.472053154016421242e-03
2.221391063630842322e-01
2.357648999311651727e-01
-6.010359020532811403e-02
-3.977230772174268347e-01
-6.129548100482061779e-01
-6.243022463918768139e-01
-4.148927183548325459e-01
-1.555470838438288983e-01
-1.194388121419584503e-02
1.845822550953721275e-02
8.511866851825981850e-02
2.819783332403819620e-01
3.978675336979132782e-01
2.591139827229390624e-01
1.184570527479508473e-01
1.901440046664293337e-01
3.039636813599009835e-01
3.322933309633937515e-01
3.698890042719413795e-01
4.251345620571138628e-01
4.021417061845446450e-01
3.202960107171675119e-01
2.405209561246626770e-01
1.088381645661025410e-01
-1.184705343316364984e-01
-3.422387570932582945e-01
-4.743922244953554523e-01
-5.791530660081494197e-01
-6.509846766706376409e-01
-5.180350147612352574e-01
-2.649460869085537573e-01
-2.228658577047302469e-01
-3.456133553995255348e-01
-3.541262192016970678e-01
-3.052882771540778029e-01
-2.558277069592778119e-01
-3.149868995348589773e-02
2.360305895255576381e-01
2.905212698483571332e-01
3.127398209944586838e-01
4.646583121331527844e-01
5.313107055309838067e-01
4.096029247346669733e-01
2.359238391472737173e-01
9.655599521280561204e-02
9.900927771637743624e-03
-3.906654536087011964e-02
-8.831365957087572438e-02
-1.250616398214181579e-01
-1.330327158261275788e-01
-1.187835356126145103e-01
-6.474174311073029042e-02
1.235128767621895482e-02
8.378265711767569901e-02
1.773204913963279117e-01
2.578763378384115179e-01
2.506885514750141208e-01
1.940878340268190339e-01
7.931305715060012196e-02
-1.551459292931735567e-01
-3.273914620808685005e-01
-2.599999773287914318e-01
-1.249155285585117348e-01
-8.471515176023447502e-02
-7.072180517507171971e-02
-4.965081758883677088e-02
-5.425231050325592108e-02
-6.747398709411384088e-02
-8.724478137653700338e-02
-1.087377826934939617e-01
-6.509735925354362407e-02
4.335135053610429667e-02
1.097239994758904824e-01
9.131685006495048051e-02
5.696749530599438949e-02
5.508580495349531259e-02
5.718568940959131708e-02
4.971161489225325858e-02
5.644810923957494647e-02
5.522119280726465324e-02
2.610934460273103830e-02
1.469994186742116897e-02
4.442969090982867852e-02
6.939603789982347337e-02
7.720740142885457180e-03
-1.379118967240664517e-01
-1.760119689717927205e-01
-1.279403086853555388e-02
9.504867776874978413e-02
-4.071722122277786349e-02
-1.989615078959598993e-01
-1.780891102082346467e-01
-1.149924882257323117e-01
-1.099188189931092907e-01
-2.463431806656628947e-02
1.661507326711718635e-01
2.610252651727121842e-01
2.011608382228527447e-01
1.651414718127642844e-01
1.530843397818155982e-01
-7.863113893872111446e-03
-1.801447590374153918e-01
-1.304839259109160376e-01
1.137978971110717441e-03
2.436161696288296347e-02
-1.649644946505957749e-02
-5.353933847971272669e-02
-5.255813489469068900e-02
-1.556421550893158194e-02
-4.842643966486315232e-03
3.149975693290275880e-02
1.896476944258629338e-01
3.221563655223323996e-01
2.691238326769312406e-01
1.837518891714105540e-01
1.536934008836548515e-01
-5.797592088009818900e-03
-2.467390144999860868e-01
-2.953605749995761309e-01
-1.668032988724670318e-01
-4.658969039765212261e-02
-9.264033167259788995e-03
-8.777456474946278286e-02
-2.132489709339725481e-01
-2.390414319295445511e-01
-1.787615155688980773e-01
-1.464206450019453487e-01
-1.186728072611553247e-01
2.183970662909544974e-02
2.079118339881620425e-01
2.059303490015012561e-01
3.631826469934747864e-02
-3.966671518549325787e-02
-2.339693196758832472e-02
-9.911502020055590334e-02
-1.365094174288327133e-01
4.572215162871198779e-02
1.857357404611846563e-01
1.161266579974342128e-01
1.229648402085167375e-01
1.651364950254360087e-01
-1.310394444086747379e-02
-1.065547217941875680e-01
4.737577053204151262e-02
7.194241138883733511e-02
-3.018043628848827292e-02
-2.962664234879106018e-03
5.630576905964829182e-03
-1.420086055707056316e-01
-2.569446556542392401e-01
-1.972749382269013696e-01
-3.586881591412478809e-02
1.277199340609435907e-01
2.532756657201526429e-01
2.934395120793509282e-01
2.340348398530623653e-01
1.305536621567852384e-01
8.219105592900136092e-03
-8.988181334460323968e-02
-7.857485525629692713e-02
-1.924940775409082760e-02
-1.200093639883955537e-02
-7.096843510978200972e-03
-1.486380854605249061e-02
-9.146683519481765834e-02
-8.671746795446363953e-02
8.713762361225775577e-02
1.993960815366223049e-01
9.680020836976180321e-02
-3.517796261644424299e-02
-6.821502615804934944e-03
1.176350172372922914e-01
1.855348071178600233e-01
1.049543831528351734e-01
-1.384642948098183668e-01
-3.541690263092456270e-01
-3.196410013768592462e-01
-1.775393258253682993e-01
-1.715280060858233036e-01
-2.113348300513198386e-01
-1.228930110336970138e-01
1.445545779713271542e-02
8.793121999013490953e-03
-7.728826156534467084e-02
2.083069929881629229e-02
2.254793024176101612e-01
2.311501261158121490e-01
1.345175730437013217e-01
1.406084621491600350e-01
1.023615036724547372e-01
-2.628870125369549976e-02
-8.396361502727465315e-03
1.729195019258204791e-01
2.558396618758006502e-01
1.116039406823816499e-01
-1.331681106839857631e-01
-2.820807775185781852e-01
-2.244616737572718845e-01
-5.443721945666415291e-02
-6.412407383459227395e-02
-2.914151897179836359e-01
-3.043628902588956242e-01
3.067769105958902121e-02
2.207255959125065392e-01
7.037944815503850704e-02
-5.795690634772469874e-02
-5.901383872105220307e-02
-1.379176668448142407e-01
-2.376546247213647267e-01
-1.720599096182595378e-01
9.000530790533993811e-03
1.773906975315101275e-01
2.901208300475965896e-01
2.935606433624967648e-01
1.950456331512531172e-01
1.257193478970540512e-01
1.167445423190921622e-01
8.423297757848741130e-02
5.552006275461270068e-02
1.093676369034536494e-01
1.971274806801632806e-01
2.211553855835248494e-01
2.175049785508507416e-01
2.940272459374588254e-01
3.923288881051418819e-01
3.687190784766542495e-01
2.460227751232380577e-01
9.552796071213076612e-02
-8.280339117254331693e-02
-2.129842924025502349e-01
-2.835771027686855295e-01
-5.170677650423403104e-01
-8.980403108771710663e-01
-9.650637573874391029e-01
-6.048474413074826916e-01
-3.124241124174580442e-01
-2.890503994889991879e-01
-2.224405470725446810e-01
-2.717048037962187246e-02
7.542149975679351970e-02
7.071273799480307098e-02
1.222614359008413615e-01
2.161415580605210995e-01
2.480143112130173133e-01
2.733560224148129381e-01
3.530351141429962647e-01
3.813287476271463583e-01
2.931065079927299699e-01
1.829172071925238285e-01
1.178241041178931386e-01
6.382775590909944841e-02
8.367314137629124071e-03
-1.502456226544725271e-02
-1.705413994320458676e-02
-4.234611326656938235e-02
-7.277363997163188714e-02
-7.330331993634252308e-02
-8.652520083501180626e-02
-9.758971044846340148e-02
2.133342904401077170e-02
2.116748338618878178e-01
2.051203301926591005e-01
-1.960524748354874544e-02
-1.826235711857828459e-01
-1.806374124101412515e-01
-1.457299079315836077e-01
-9.161323601717928644e-02
2.275485804561538927e-02
9.794984730051245481e-02
8.301027261342804053e-02
4.892039533283082386e-02
2.238580084052486582e-02
-8.268937695865659007e-03
-2.628275481144095108e-02
-1.299127568568459248e-02
2.744107372675732084e-02
4.961968951403002148e-02
1.271199072275137378e-02
-4.438522339343527884e-02
-6.063362956890484823e-02
-3.907204834524763415e-02
-2.050740043154107226e-02
-2.019897286012533461e-02
3.270379011588385107e-03
9.635090899555037725e-02
1.979636336231526683e-01
2.105522315162358660e-01
1.773966447764075971e-01
1.162235888417254559e-01
-9.734565599481509457e-02
-3.614924562820644449e-01
-3.948119504297241678e-01
-2.420784992280616277e-01
-1.251129914044490365e-01
-5.861451326918806076e-02
-1.774632307418384097e-03
7.194419296701823341e-04
-4.353977320579122123e-02
-5.583065222356729113e-02
-1.622970943614739092e-02
3.824051050171527188e-02
1.061396448240540802e-01
1.719741029673146904e-01
1.746897160161733631e-01
1.151212027756882555e-01
5.074168504533517476e-02
1.942385189773879889e-02
3.748838956345473122e-02
6.383113732323648926e-02
4.654915731166636012e-02
3.012144695531156213e-02
3.784674439337812335e-02
3.214992767791048645e-02
6.606105890155385130e-02
1.220277451655871481e-01
4.967047308055347332e-02
-7.736435254568636843e-02
-7.784773306941170090e-02
-2.275421642856370608e-02
-1.219271349301665787e-02
-2.839989629000296521e-03
1.602198832446527846e-02
1.859283025406671674e-02
-1.031684709490126098e-02
-1.142597801078438779e-01
-2.643185626298917845e-01
-3.176306360074865331e-01
-2.248771175140393819e-01
-6.209886738381120014e-02
1.110223652914981013e-01
1.917898192537314528e-01
1.123219370073008788e-01
4.039670218621178865e-03
-3.834952901566166666e-02
-9.297257363832438226e-02
-1.634768076684570692e-01
-1.486487118856478218e-01
-4.543513396309538377e-02
3.462833293785937128e-02
2.529386274617017802e-02
-1.247894153863163269e-02
1.352584266218540346e-02
1.829001690622762966e-01
4.876172372083397155e-01
6.250457272808970233e-01
3.781367659411412063e-01
1.158651272887872841e-01
1.140770667795141663e-01
-8.993478306064200956e-03
-4.126202977986859199e-01
-5.765275040758662817e-01
-2.812696003717337079e-01
-3.480031287753558578e-03
-1.933916911929255134e-02
-6.115049141271796523e-02
4.704830081609988335e-02
1.373111765380732874e-01
6.757934623600242441e-02
-7.207254691051122319e-02
-1.564798035085880612e-01
-1.830710323036737197e-01
-1.364476120854911934e-01
3.448114012845802934e-02
2.058886121887742449e-01
1.900717541688189682e-01
5.803380313966634285e-02
-1.886602363020187592e-02
-4.987996817678623518e-02
-7.823033210462447540e-02
-9.332884890277515222e-02
-9.503354637520033954e-02
-4.007441122994231941e-02
2.046767042216645488e-02
-5.014033852561858295e-02
-1.178958572956846501e-01
-1.902698969433248496e-03
1.344435840074691413e-01
1.431148689242109362e-01
8.753562176347040591e-02
-7.151900877401131014e-03
-4.689649440376573303e-02
1.063238266346156202e-01
1.995906979821774063e-01
-6.945727429189324509e-02
-3.286577471292748132e-01
-1.512451503021571830e-01
1.675278463434294318e-01
2.736689880331488745e-01
2.244646375151363449e-01
1.345420021414607814e-01
1.077122592368771892e-01
1.403990195077347014e-01
6.704905816912053174e-02
-6.859317754990328087e-02
-1.288726829836457644e-01
-2.191957116444399889e-01
-3.488477355105232269e-01
-3.047367401126894748e-01
-7.399443055339832709e-02
1.098281283979456735e-01
9.158460199227685949e-02
3.549318496098519821e-02
1.438371680238549888e-01
2.056697015479996282e-01
1.028420984527240456e-01
1.010749444193463076e-01
1.262679528497321901e-01
-5.429345789760720020e-02
-2.667214218923488755e-01
-3.842422427951686092e-01
-4.701389109405437194e-01
-4.204042041165372834e-01
-1.463287048543121804e-01
1.343456610267865503e-01
1.525453386930878397e-01
4.243130536522185525e-03
-3.997394491162958169e-02
1.642680248100200982e-02
3.539875659856517309e-02
4.566320130851907189e-02
1.469838281387667867e-01
3.188993456795984338e-01
4.193562836677032779e-01
3.924329731139316602e-01
3.688214692285468610e-01
4.050161728411026396e-01
3.683864952867241249e-01
2.308011085724731293e-01
1.285906853635503111e-01
8.318741303915624941e-02
2.419511450340236514e-03
-1.213397899532963897e-01
-2.352318703159205215e-01
-3.325162227544555260e-01
-4.376290088010071910e-01
-4.992386589780930528e-01
-4.448718582795905818e-01
-3.702008464133771937e-01
-3.648288047993231697e-01
-3.301194371775477698e-01
-2.657146385655115850e-01
-2.746913991150786716e-01
-2.534368953350112919e-01
-7.295023682066595350e-02
1.626090927228187044e-01
3.184603284034632775e-01
3.879477913408970746e-01
3.998291811375639937e-01
3.820994239424907457e-01
3.433379019067261950e-01
2.430252794878110245e-01
1.054863062915100819e-01
3.512511843475384088e-02
2.024288121596960754e-02
-3.054336724465642888e-02
-8.891287336275598141e-02
-1.105012170065906157e-01
-1.285347176461167917e-01
-1.011631247848941428e-01
2.081648876549019311e-03
5.312179376904887368e-02
3.778226764083959799e-02
1.306141242912846334e-01
2.947717366718731746e-01
3.268937958115586406e-01
2.341387295853325778e-01
6.917457336029550485e-02
-1.662858705963672912e-01
-2.855193408939393773e-01
-2.204804305813428678e-01
-1.937289029509211002e-01
-2.279934716163014852e-01
-1.645955389637596689e-01
-5.084814766802019798e-02
-1.234033794851470758e-02
-4.879994290329359857e-02
-8.523096472298123671e-02
-5.824676321031198312e-02
1.372261872039018393e-02
5.926850574802676463e-02
6.797567248089737835e-02
8.149421257625538706e-02
9.528607714694144193e-02
7.515380694279495677e-02
2.771364377696802078e-02
-1.329044515831906761e-02
-1.371466021625582926e-02
3.636721169235130474e-02
7.819305328220364781e-02
5.676168295879087389e-02
1.972078415405968330e-02
1.852776615206704752e-02
-1.099826824861176514e-02
-1.324461317458270337e-01
-2.171667888460604989e-01
-1.055818946093513289e-01
5.454264741795357418e-02
4.126969788525312877e-02
-3.059618280419991107e-02
-2.682435934502543431e-03
1.151558722330214661e-02
-5.850851270258432268e-02
-8.121191811757884349e-02
-2.284248875419780944e-03
8.928793833871995211e-02
1.311519729605298834e-01
1.254759400991032892e-01
1.050404198407711848e-01
8.924401187076193287e-02
4.627252565140820006e-02
-1.931953735844893841e-02
-3.611307230492437348e-02
-4.305508640176140822e-03
-1.215448239724895366e-03
-4.237684619643942996e-02
-6.607701461874178339e-02
-2.806197867600666515e-02
2.548923125912084739e-02
3.851496937858962105e-02
7.609401718565103612e-02
1.592618062569440551e-01
1.581844668404377707e-01
1.080165865940696385e-01
1.722272777957584156e-01
2.190990698856294383e-01
2.042027911976812549e-02
-2.867815490310891002e-01
-3.721420475918099657e-01
-1.938952141893567904e-01
-8.088323104184118317e-02
-2.416178575180419341e-01
-4.175095853028759629e-01
-3.224775806035722336e-01
-7.911446102954998449e-02
9.126284398344466919e-02
1.877186612926433351e-01
2.348005548102079509e-01
2.031132008431658642e-01
1.679318040205580731e-01
1.834250959607710840e-01
1.240704949044320327e-01
-8.533309841146166641e-02
-2.390069333749666736e-01
-1.429458922897324236e-01
1.038660500176753071e-02
9.259985284206483092e-04
-3.520946738551302552e-02
-4.886952699179191936e-03
-9.230691836178261250e-03
-4.289009831517983685e-03
6.548152615467987825e-02
1.106693896132903560e-01
1.217958049447910029e-01
1.176685111370697756e-01
6.597143434460567279e-02
2.795586949598054607e-02
2.719760463591235078e-02
-3.119618670890694778e-02
-1.367794786937291951e-01
-1.995754450299914162e-01
-1.836270611254729457e-01
-4.651091282170341512e-02
1.703971821131658737e-01
2.722073722711031429e-01
1.687978624468167710e-01
-1.294969503552441045e-03
-7.252774261795147392e-02
-3.047736936178906120e-02
1.135345892391505240e-02
-6.287398740330291461e-03
-2.890381096901058558e-02
-2.422695544463560058e-02
-9.903048816402040821e-03
-1.808313229263237149e-02
-7.687741841922643427e-02
-1.070316449405573078e-01
-4.154838631508245977e-03
1.423172755913962861e-01
1.695509798236192744e-01
1.090977239878037353e-01
1.277778887289140464e-01
2.563094007062038382e-01
3.333375000838990632e-01
2.004685731990267783e-01
-1.607849846007453343e-01
-5.321349329440956399e-01
-5.594759602778170970e-01
-2.587480075677722757e-01
-3.132193181418212874e-02
-7.097115217053390213e-03
-1.750670498395909963e-02
-3.774469498840058584e-02
-8.897480672551952297e-02
-7.840686139939280486e-02
3.037590029898924043e-02
1.451928979931333408e-01
1.588077108229404288e-01
9.033690598494668877e-02
4.022266919968373045e-02
1.794601155269876652e-02
-2.261028653234579706e-03
2.222483572100703714e-02
8.788140172454703136e-02
9.019018459125238696e-02
-2.146841195555188389e-02
-1.312563798061050779e-01
-1.053264322155014338e-01
-1.231046594429969013e-02
-1.116676344738096530e-02
-1.001180373926903455e-01
-1.827041104379195646e-01
-1.925533706941930934e-01
-8.940514327604040523e-02
3.882899746570205729e-02
3.637244667235023377e-02
-4.139056334548349425e-02
-2.956711751818698330e-02
2.673143246403756820e-02
1.383997282161492960e-02
2.524498285929423907e-02
1.623437759442286632e-01
2.728733613381236212e-01
1.952107499383048950e-01
7.260307682940907170e-02
9.028976247893452656e-02
1.392154015505619180e-01
1.061145758791787741e-01
1.289663052071872429e-01
2.875108458624325847e-01
4.537481251015965111e-01
5.013903788593661037e-01
3.754132069502592040e-01
1.153604184248261944e-01
-1.325279478666440136e-01
-2.902286111359431153e-01
-3.595740786805030620e-01
-3.150973677338979595e-01
-2.133795649121588145e-01
-1.603909588245994444e-01
-1.313936626885007786e-01
-1.264228250718941182e-01
-3.239575213970703471e-01
-6.923210448786830673e-01
-8.056996907365131522e-01
-5.109485120942622860e-01
-1.776114326717468106e-01
-1.653882051245172957e-02
9.363327662571577226e-02
1.892110941378047362e-01
2.213961946682863058e-01
2.248696515247154415e-01
2.356239491623352000e-01
2.348826345586596531e-01
2.201547247894287962e-01
2.198536011521891598e-01
2.321627063035336946e-01
2.078370021121194455e-01
1.260156685724833081e-01
4.968138552321386958e-02
2.513238280359871013e-02
8.613921039038387184e-03
-1.797036034198690180e-02
-7.382309883270592177e-03
4.601116374159870681e-02
8.427798866736209427e-02
5.858047407312400034e-02
9.062280809315970825e-03
-6.989564009150447954e-04
-4.674092632311101225e-02
-1.636475754848569775e-01
-1.519533410668422457e-01
3.724998330445672412e-02
1.330604167957862571e-01
1.622557681323805179e-02
-1.389063046534008694e-01
-2.014422247293776724e-01
-1.727551897044028451e-01
-5.868204175562071606e-02
9.107423439722094061e-02
1.587415553282501002e-01
1.179977860544074858e-01
6.329973514544473545e-02
4.562108094856657386e-02
2.109635632314022999e-02
-3.574136825038375792e-02
-6.936426353287049318e-02
-4.906363782527703443e-02
-4.116365102592195457e-02
-7.330203800146498083e-02
-7.028533164956378421e-02
-1.401701453088856700e-02
1.143194955874714605e-02
-1.903783653624337158e-02
-1.516113221966262567e-02
8.648189197164909969e-02
2.060697830432987321e-01
2.303067401170672546e-01
1.871095262764357614e-01
1.317843755954248852e-01
-1.855818226637927226e-02
-2.540691695810496920e-01
-3.556938548364362296e-01
-2.425208599375095475e-01
-6.591741975970175083e-02
7.651065398971462067e-03
-7.880687113478643258e-02
-1.656788101743402464e-01
-9.124571732904605825e-02
1.355277282116816237e-02
2.551226286566653234e-02
4.292174657744599053e-02
9.611045769659115612e-02
1.125117509995712528e-01
1.107388495108724280e-01
1.201332197999366858e-01
1.041086743782660973e-01
8.097808858611649230e-02
8.997915014988214222e-02
8.445988148310516752e-02
4.628687182869550137e-02
3.993717626889378702e-02
8.101304352053016744e-02
1.286511130010952464e-01
1.357381103946776468e-01
4.867202923673650400e-02
-7.016798800616072529e-02
-8.813945388971639039e-02
-8.072972597950403562e-02
-1.808696656025396421e-01
-2.779126838752749018e-01
-2.535329729990533632e-01
-1.806219755958532180e-01
-1.167004261351238387e-01
-8.312967585114859614e-02
-1.536805682365365022e-01
-2.078803295765295767e-01
8.241778154284829655e-03
3.339139256349652474e-01
3.789986732913430689e-01
1.823562293310426741e-01
2.558443984014148118e-02
-1.649577018466065817e-02
-1.284575105775708284e-02
-3.110228244483953172e-02
-7.413531125664529764e-02
-1.005084175636070803e-01
-1.157900242367824739e-01
-1.080226032436419625e-01
-3.697967274281623723e-02
4.751948205306734396e-02
8.745374983468173768e-02
1.121551787772208097e-01
1.499656395726029490e-01
2.266699669473248024e-01
3.693063308761555530e-01
4.488268215261770333e-01
2.734040418457417965e-01
-6.225412657155103557e-02
-2.668509803803228442e-01
-2.628409996837888785e-01
-1.798990912116639751e-01
-1.036874618760519340e-01
-6.024064845961546455e-02
-6.583767438750792733e-02
-1.049174581060496186e-01
-1.380798242240995621e-01
-1.300383151955795680e-01
-1.085314170189031341e-01
-1.284328117214492415e-01
-1.280767881501010119e-01
-4.230750110082651463e-03
1.748903845058870365e-01
2.081356171463449312e-01
6.186635290222330941e-02
-4.522832726429351635e-02
-2.432394566697554730e-02
-1.234519243727888980e-02
5.895849332759535086e-03
9.085983473986060377e-02
8.550889945545037119e-02
-4.846245804087187525e-02
-1.170020137219742462e-01
-4.206692175824016527e-02
8.366692695528726853e-02
1.238422082852888156e-01
2.508732625793770252e-02
-6.979155642895529255e-02
-4.159967375566479136e-02
5.810597844743449480e-04
-5.014597584760974169e-02
-7.434558719024844664e-02
2.984493528917860072e-02
6.906304918364838952e-02
-2.448657926185460881e-02
5.631941049407132582e-02
2.840785357967932634e-01
2.733414215216607990e-01
9.335081191856817173e-02
1.623702685692232986e-02
-4.682080555122591914e-02
-1.845487027267951330e-01
-2.759255387710167207e-01
-2.485315826949381635e-01
-1.475780673574876023e-01
-5.988180789850411356e-02
-7.479244381765361854e-03
2.609690776592426750e-02
1.335412100811908531e-03
-2.006276144177623899e-02
8.049419646541505768e-02
2.062227299087779075e-01
2.291340744991058886e-01
1.893662899117580789e-01
9.552774214410648945e-02
-9.120956199123286812e-02
-3.079004640823158057e-01
-4.306661645407485195e-01
-3.835361772705595529e-01
-2.243541149143933322e-01
-9.647197610011210012e-02
-3.453591451993954370e-02
2.905074805469625571e-02
9.864009846903393219e-02
1.471397883731990763e-01
1.834909073861030471e-01
2.102731527469034745e-01
2.529288083884873584e-01
3.567390758855726318e-01
4.895937998913655886e-01
5.704895986396129048e-01
5.804931974741381895e-01
5.252683591266074092e-01
3.481363775246987258e-01
5.642501123049843692e-02
-1.836341119258459997e-01
-3.138233373118166636e-01
-4.793365651273737704e-01
-6.704442978923498275e-01
-7.003515888126768951e-01
-5.622453014363774093e-01
-4.158964689285343796e-01
-3.380765312729455685e-01
-2.734335057143833514e-01
-1.662606002313628539e-01
-7.471287913275685699e-02
-6.127620959011736979e-02
-6.850559269524511552e-02
-4.589211541832928509e-02
-2.119484389336358243e-02
3.007948361996252984e-02
1.822024478596553920e-01
3.909980278828501521e-01
4.726554540271208360e-01
3.516947001106545123e-01
2.157578207672679049e-01
1.980149537477930155e-01
1.644493081550477687e-01
5.434818148884275335e-02
-2.103743240537665066e-02
-4.891711301503624820e-02
-7.200306231175247762e-02
-7.601251246689855190e-02
-7.146566723432287715e-02
-8.032089512032487832e-02
-7.868248552050549627e-02
-2.032732839527814223e-02
1.157387854038381542e-01
2.626592422587377684e-01
2.968970374761615294e-01
2.238338154518285106e-01
1.724865085500035256e-01
9.309687173202972621e-02
-1.582948676345545813e-01
-3.981567299020377648e-01
-3.552245678139996921e-01
-1.769909909740815523e-01
-1.457742648239753191e-01
-1.551407234802315571e-01
2.672167586845220627e-02
1.770579969315694835e-01
-5.652106166256568032e-03
-2.260910742021695619e-01
-1.424277704994273974e-01
3.098976679642376914e-02
6.809955791774058298e-02
6.177247092670272444e-02
8.130558815107317983e-02
7.819525754186984479e-02
3.539145161395945705e-02
1.822708186504340758e-03
9.370122482181806461e-03
1.997369696256511701e-02
1.286876838499450941e-02
5.545207550302478847e-03
3.828077328680411055e-03
4.217863930548778478e-02
8.569615385965624610e-02
1.903174310235396585e-02
-7.090007058439938559e-02
-5.978528497586241275e-02
-7.259059900083048023e-02
-1.032519087043917427e-01
9.821413327545311378e-04
8.812961505147536012e-02
2.165659554953305865e-04
-1.008670075892404705e-01
-9.849383971941447213e-02
-3.644095382419782619e-02
7.117981898805718355e-02
1.742444910301759187e-01
2.033761674997940083e-01
2.004269193631019741e-01
1.582048705936550947e-01
1.076607992606817528e-03
-1.379806591912574598e-01
-7.460841942336296495e-02
8.029292231893719878e-02
9.322178824780805173e-02
-5.339081850250379513e-02
-1.583754414586281967e-01
-1.055296291718601509e-01
7.559962654123536518e-04
7.144080250548802413e-02
1.036959345359650397e-01
1.033126671437074318e-01
1.168037750342083292e-01
1.008668747527428217e-01
-3.301287473784533105e-02
-1.561597549013414021e-01
-1.894253064256959385e-01
-2.687345501547694915e-01
-3.255554932472566332e-01
-2.463587795753503784e-01
-1.808657780812208682e-01
-1.174203890565748282e-01
7.781724017072093325e-02
2.517480395227059686e-01
2.470104576315939049e-01
1.342452935727839747e-01
1.858247458347296252e-02
-6.078977025605938195e-02
-1.092035009209218616e-01
-9.028409785140695254e-02
2.870261379223082443e-03
4.026512494435365713e-02
1.904713564392053471e-02
7.339204141158389705e-02
1.198217330415465159e-01
7.060263255866970622e-02
9.186026664984774104e-02
2.246539319484316677e-01
2.841289810676236871e-01
1.968993209358937124e-01
5.139773939060592739e-02
-5.886268403855936943e-02
-1.202859459650926083e-01
-1.683988022975888010e-01
-1.926328591049871752e-01
-1.297949255815377123e-01
-1.258514336522933985e-02
-3.563918895752562349e-02
-2.063673642693837906e-01
-2.215564497680708178e-01
-3.307861985757672152e-02
7.111957506186272759e-02
4.543907463156347804e-02
8.274111451887819491e-02
2.096702105239181824e-01
2.700325823992810736e-01
1.822787701194260590e-01
7.915800897507363487e-02
5.989413645944878517e-02
-3.453839560342310960e-03
-1.669037307659378966e-01
-2.724366514468894440e-01
-2.368897945789309734e-01
-1.559885123131861673e-01
-8.649756652754628239e-02
1.806370698033816016e-02
1.164707862202694066e-01
1.181959115758235423e-01
8.577071969092264769e-02
1.176210613456248749e-01
1.909370101058455449e-01
2.443333186020363867e-01
2.507180817373351744e-01
1.728066549447462574e-01
-7.147748892360238082e-02
-3.826367155573118239e-01
-4.228895257771147498e-01
-1.804657940007124706e-01
-3.945991733194665479e-02
-8.213880108111211442e-02
-7.643024200847303717e-02
-3.280255568774700231e-02
-9.972266396155167467e-02
-1.424562373938426385e-01
-2.357754377116982186e-02
2.338326831793077765e-02
-8.254872057422074638e-02
-1.944321762506271561e-02
2.063631709181179552e-01
2.246365592926031218e-01
3.858692853055053357e-02
-8.303692464280641727e-02
-1.175891688270555707e-01
-1.479216639169038117e-01
-1.204262365369228038e-01
-8.106072714674492086e-03
7.551447041832216878e-02
8.064598051377919186e-02
1.070374700621571917e-01
1.535122529478287756e-01
8.647033986234699265e-02
-7.624590985317438417e-03
1.166881366794537134e-01
3.618997263360503869e-01
4.186168419235851701e-01
2.997905293754009048e-01
2.175591802314728318e-01
2.276378246704802988e-01
2.375977327333819167e-01
1.370645493060435316e-01
-2.749644788163611853e-02
-9.676146873673803495e-02
-1.025445613017060692e-01
-1.814030492669213845e-01
-2.936529968008452229e-01
-3.722120976022678662e-01
-4.557341467204587548e-01
-5.277550687343561808e-01
-5.214947688772333390e-01
-4.231894393758491302e-01
-2.629818485723710575e-01
-1.259757599070994993e-01
-6.427010820367465294e-02
3.945748869880333354e-03
1.225467919526360278e-01
2.164521078789701236e-01
2.933785951564121808e-01
4.018080859929861193e-01
4.422484444879500876e-01
3.660778136704013752e-01
2.856300668420025390e-01
1.714295929799338758e-01
-6.274083524474337314e-02
-2.382488799000921365e-01
-2.087553516912309393e-01
-1.154731507025744397e-01
-7.130855252554119117e-02
-5.006839657153552836e-02
-3.897902917735185380e-02
-3.132442177767034291e-02
-2.090673929967278369e-02
-8.921752599050519067e-03
2.608900217012158004e-02
6.486149735859787768e-02
5.911318322942198805e-02
5.116201240716063137e-02
8.879703744279822397e-02
9.571832893639715956e-02
3.028037244754799504e-02
-9.616759101391066447e-03
1.920479631538763582e-02
2.678324356959742997e-02
-2.178224229493904221e-02
-3.449857605517596404e-02
2.227373711042807819e-02
5.621157315259567300e-02
1.473069237130550380e-02
-8.866133746348683897e-02
-1.966342730171726505e-01
-1.539834872009426814e-01
5.288312411324910117e-02
1.448786443105360422e-01
-1.535059779377521277e-02
-1.784787648548307737e-01
-1.583431101295101895e-01
-9.455215862455497444e-02
-8.574752413855757371e-02
-3.708179626250020233e-02
7.192038127785278789e-02
1.620456465290485704e-01
1.741087435746195844e-01
8.339403021841092223e-02
5.435158719230762450e-03
7.372513255225626727e-02
1.298765188012608873e-01
8.625601485697270698e-03
-1.075743869539375480e-01
-7.525347583306135624e-02
-2.203544011033990377e-02
-2.136143882611178310e-02
-2.887065456111607628e-02
-4.607679204958063657e-02
-5.789069943492602954e-02
1.946687877665573274e-02
1.781910442096341085e-01
2.629610510403198043e-01
2.135277073345537846e-01
1.526433182348836959e-01
7.685059389652064421e-02
-1.351682643634238012e-01
-3.382683494343859953e-01
-3.194991261203731225e-01
-1.849602593483649360e-01
-8.560885506979719339e-02
-4.780312109310975305e-03
4.604855655387495028e-02
3.225944927446258714e-02
-2.737619518331933094e-03
-7.549318300365513018e-03
2.385164396872641382e-02
6.743962946454315488e-02
1.006236119401524021e-01
1.227167483206271781e-01
1.301812231457281088e-01
1.253851050729689331e-01
1.199480613933478768e-01
7.823927758157951662e-02
-3.810455290792099520e-03
-6.240843799559964850e-02
-1.376537697718817899e-01
-2.315232461119393625e-01
-1.537458120907498893e-01
5.631313188911195311e-02
1.204311230729774862e-01
5.288784643562634280e-02
-3.194618507380822016e-03
-1.136060601341286058e-01
-2.613100099616414984e-01
-2.423346169194960376e-01
-5.193630357252479457e-02
2.514057124173674912e-02
-8.924914511815876250e-02
-1.168854944830767240e-01
-4.038197899603600260e-02
-9.862085874424920962e-02
-1.452006865303472061e-01
3.530951177080371428e-02
2.517703835021075642e-01
3.455785124971805233e-01
3.556838679130225889e-01
2.427039229269782605e-01
3.521488361106938497e-02
-5.956296651368134243e-02
-1.290752968321524224e-02
-8.275003919535126040e-02
-2.527019497194957776e-01
-1.036024014211000821e-01
2.973821855712928675e-01
3.461342788823264516e-01
6.018934080572977546e-02
-1.945950234241736881e-02
1.109204886817102831e-01
1.510010511561833413e-01
1.334077167232664007e-01
1.525721592323466547e-01
1.405826200803720061e-01
1.968426126541622523e-02
-2.272926717597043289e-01
-4.200506776585862800e-01
-3.319179928156025250e-01
-1.265718347911849451e-01
-9.466613559874308137e-02
-1.799460797303921722e-01
-2.094461268188299585e-01
-1.165442440201613084e-01
4.977286386310561528e-02
5.530415358577770585e-02
-1.198080740424533885e-01
-8.169113438529043703e-02
1.820896633850950519e-01
1.811800385404836455e-01
-5.646682100060011755e-02
-6.684129676468754389e-02
1.014611022673083396e-01
1.344134085787214439e-01
8.226012000892599096e-02
9.464194944462429870e-02
8.633173213274858426e-02
-4.267727791814410893e-02
-1.195576626685745103e-01
1.253525737580874627e-02
9.928343227357036560e-02
-4.470888337264861123e-02
-1.330872844490710860e-01
-1.323337672224349920e-02
6.490781203725203008e-02
-1.109247885726716981e-02
-6.080503484444588908e-02
2.331131012588033916e-02
1.232226643719101372e-01
8.926928786643796576e-02
-1.747626784647010253e-02
5.194600978927214202e-03
1.205319147985257078e-01
1.089088749369815090e-01
1.154720035952592691e-02
-1.603986050805628755e-02
-3.065681791070649573e-02
-9.618842043880783399e-02
-1.481644103716821537e-01
-1.482031240676468797e-01
-1.326019708011053067e-01
-1.621549721606280192e-01
-2.538042530161978561e-01
-3.286457693703363492e-01
-2.577268398564930840e-01
-1.050813002887033762e-03
2.671207973500592248e-01
3.344000690567162648e-01
2.783278006134013438e-01
2.864683208293282712e-01
2.974918605107419456e-01
2.364356001068132762e-01
2.215985399616439144e-01
2.247901150762053324e-01
8.435507716493426122e-02
-9.004134640950048341e-02
-1.069022156641919880e-01
-3.059599567190662145e-02
5.188996397354544987e-02
1.525666949992972310e-01
2.149293191553232341e-01
1.922193241470760150e-01
1.051923578932974224e-01
-7.130453294593258606e-02
-3.053489594124758622e-01
-4.405233801488510625e-01
-4.444403722456480299e-01
-4.134167647757343578e-01
-3.453521875885370296e-01
-2.633967322134663225e-01
-2.239278414032882525e-01
-1.150831446468116581e-01
4.165027935815911880e-02
2.670005097396868643e-02
-3.215558707791696391e-02
1.257314221513156360e-01
3.013821360549963635e-01
2.854560470142339379e-01
2.372416311648171683e-01
1.536053505204683922e-01
-6.842209003332616613e-02
-1.643145474143670182e-01
1.154911143570737375e-02
1.612126912750951602e-01
1.231784249393505226e-01
1.259163283672131393e-02
-1.246035189722741326e-01
-2.445956874829522398e-01
-2.145465107316927300e-01
-3.285399252651455271e-02
1.294613455610313102e-01
1.655143856622940945e-01
1.455085349654665072e-01
1.410679638673138225e-01
1.071070584262037995e-01
4.619373559071458107e-02
5.092406204639472744e-02
1.010470968074447945e-01
8.252087521773122936e-02
-3.025314846806490682e-03
-6.166709580179300515e-02
-7.710908050977036132e-02
-1.028048538422012548e-01
-9.965871707424564518e-02
1.421939478643793886e-02
1.418007277087250106e-01
1.608380427581815320e-01
1.384709060226257948e-01
1.416707013115263702e-01
1.658484045982396571e-01
1.299788636119312280e-01
-1.283597723570307214e-01
-4.347198429466858083e-01
-3.955558836019489322e-01
-1.385708626976039914e-01
-4.215204644693282959e-02
-6.762298470591664168e-02
-5.066519035029924678e-02
-3.198709202249437611e-02
-4.813412883924848840e-02
-5.927433623727485640e-02
-5.654534352817330856e-02
-3.857691467677525077e-02
1.957481736512039008e-02
9.198817244580116681e-02
1.157026449972666793e-01
1.067932480098078563e-01
1.083434654296127203e-01
8.505948458120288214e-02
1.595466549086050484e-02
-3.946421913524586489e-02
-3.573003908349911550e-02
1.559045122682111220e-03
3.118667473640405335e-02
6.471960111933738879e-02
9.078067659448517401e-02
1.498459514613840853e-02
-1.306461702789727952e-01
-1.568708094506441886e-01
-4.202149645152650215e-02
6.794657789674218851e-02
1.065772164022464330e-01
5.986429389217337582e-02
-5.131880566499356922e-02
-1.261995652536437307e-01
-1.278590131017513232e-01
-9.988562567753166144e-02
-2.184497670931184049e-02
1.098016790764245187e-01
1.932342602528644981e-01
1.843608514090863126e-01
1.333589017810580535e-01
6.043979374647377029e-02
8.277141637350361736e-04
7.516887141128855004e-03
3.363230300925243443e-02
4.202315245507730335e-02
8.097231075800459532e-02
7.033549156949027437e-02
-8.112977947862956563e-02
-1.674370363234138903e-01
-4.784743701684342210e-02
6.475608344128559735e-02
8.096713320198198338e-02
1.322710186457291548e-01
1.715731826402668025e-01
8.103866362603012741e-02
-8.234837518690769909e-02
-2.298733045284238607e-01
-3.187696311088020207e-01
-2.996514961759452200e-01
-2.274625632646670448e-01
-2.050411775854408813e-01
-1.627445050747221289e-01
-4.670339631015127391e-02
3.245860535744992531e-02
6.896278767300488555e-02
9.935551519364088646e-02
3.070116537551529495e-02
-8.302695641356330758e-02
-6.394576500002412123e-02
3.718095423834164026e-02
6.437484114343622332e-02
4.444717400090962556e-02
1.113551119532754929e-01
2.608052855206971499e-01
2.943213664090953419e-01
1.343362363612513599e-01
1.577666814686053132e-03
3.893329210155047765e-02
1.126828065147562202e-01
1.172409421960335790e-01
8.282287265222831874e-02
2.896112548003553985e-02
-1.549565203078005771e-02
-2.315980870904400801e-02
-6.408068236199690459e-02
-1.397223087984841017e-01
-1.173634664286312135e-01
-3.952569016389709255e-02
-7.717368660368340016e-02
-1.918294037693038245e-01
-2.423820291986913678e-01
-1.762710515776205467e-01
-2.419770596489129524e-02
8.860560969316692848e-02
1.084496351686477511e-01
1.184673536881600819e-01
1.100523431260379548e-01
5.149988250673105672e-02
1.324482955067036484e-02
-3.253332686995917544e-02
-1.303572370519381629e-01
-1.491558176088801924e-01
-4.360643568124759895e-02
3.577829011041454982e-02
5.272325754127206443e-02
1.054662086356716044e-01
1.732618318870150498e-01
1.903879777476259194e-01
1.949582000625038336e-01
1.978781128738683892e-01
1.492099217576177972e-01
9.608106607499899976e-02
1.555697881597052357e-01
2.605512305471754941e-01
1.780583149725431247e-01
-1.117128935608482920e-01
-3.996948439293379063e-01
-5.447253262242444105e-01
-4.891072314216711736e-01
-2.829115147837897304e-01
-1.271322397871408050e-01
-9.840647174414202114e-02
-9.729864557339125419e-02
-9.733636339794105030e-02
-5.026764928709509528e-02
1.287990212836273018e-01
2.409028026585580684e-01
9.758349076039839198e-02
-4.349260985667725149e-02
-9.564323847311050758e-03
-2.058420897721081888e-02
-1.165737431374752053e-01
-1.020859249973382205e-01
1.368144483893933908e-02
8.776980155174390896e-02
9.665803720348833949e-02
8.438396065858544404e-02
7.031719071362396711e-02
7.655682179993963943e-02
7.893529687779704540e-02
2.155653929898264723e-03
-9.313533062914526595e-02
-6.810549561175523181e-02
2.551966261030906569e-02
5.459784325728621324e-02
3.737075719428455123e-02
5.853712529975409196e-02
1.524033450636513853e-01
2.771095775068594946e-01
3.292081354497868317e-01
3.181701867361393377e-01
4.005020050518171559e-01
5.642680371156175712e-01
5.374091817442901986e-01
2.203484869648203448e-01
-1.219147276602155078e-01
-3.109446582486958821e-01
-4.414498442926414468e-01
-5.479405922985356447e-01
-5.792241289245944058e-01
-5.667527973360795279e-01
-5.415970292343891268e-01
-4.923010649452373988e-01
-4.193893232217855704e-01
-3.036635207944198278e-01
-1.067063009405945923e-01
1.189200198781670548e-01
2.471802634688698153e-01
2.802668331867120832e-01
3.392075907130974732e-01
4.158939614923421457e-01
3.298232765773648767e-01
3.783622276666856465e-02
-1.737187050622513995e-01
-1.125271192380541962e-01
1.756921486841710178e-02
6.937179320062465682e-02
1.218402613814136420e-01
1.401140892816148953e-01
5.511140175949552633e-02
-4.594539217795651220e-02
-8.200671813230434037e-02
-6.022287592821461144e-02
-7.622820101532385567e-03
3.924130258399781412e-02
4.716843325703332784e-02
2.774399123045405424e-02
2.648240483069819184e-02
4.184028127752699444e-02
3.423677499496981247e-02
2.819619297601879543e-02
5.566554054408891228e-02
6.962780921385948452e-02
4.098088380194438163e-02
-2.128863229454332207e-03
-2.296835961867781106e-02
1.463837479545698414e-02
3.750155645377718089e-02
-8.713814437760980525e-02
-2.251636458632400584e-01
-1.459812354552595948e-01
4.407575172176412398e-03
3.759686839769212086e-02
8.344690935333182180e-02
1.100533606485357419e-01
-5.817230246492680751e-02
-2.082059489264504459e-01
-1.004726002528798789e-01
8.271963755601537127e-02
1.500300349206049044e-01
1.565983207531108368e-01
1.355699909802548508e-01
5.623926184337523643e-02
-2.824646329555865337e-02
-6.313740244917429023e-02
-7.373945596582581752e-02
-7.667039631276655054e-02
-6.824154101642748715e-02
-7.664448503634133103e-02
-1.149202737880752473e-01
-1.388423304319066354e-01
-9.232502298736204593e-02
1.394764769131522433e-02
9.246955111190631460e-02
1.239295111203025379e-01
1.768725355883321027e-01
2.123278800822134549e-01
1.777476414471536870e-01
1.548260196684022039e-01
8.678182412611043506e-02
-1.542086700915112629e-01
-3.493557883582083523e-01
-2.685897740283670343e-01
-1.025769276574157451e-01
-4.546420141818503097e-02
-3.107236528559363664e-02
-1.646797150613583255e-02
-3.439474398777336850e-02
-6.203852902815586157e-02
-1.779661485891968764e-02
1.259510296964310438e-01
2.256945607569858236e-01
1.780344525700564839e-01
1.276515429106891697e-01
1.662575525387040565e-01
1.790198614051959625e-01
1.286495680166012956e-01
8.541725485683408781e-02
5.416188165324152537e-02
1.919191000079679965e-02
-1.496937440058946495e-02
-7.930944239433543319e-02
-1.689167689651856485e-01
-2.049478910232430950e-01
-1.863137040742856576e-01
-2.212349641451565041e-01
-3.162934112510031870e-01
-2.876973777154775425e-01
-6.310570994967026892e-02
1.126445699252808796e-01
6.814988656589238136e-02
-2.804950256479941256e-02
-2.151400855219090871e-02
-4.597624602542205174e-03
-9.851895352279702034e-02
-2.040015712844620299e-01
-1.086025784574841391e-01
1.510949070993793664e-01
2.938945664862010476e-01
2.006857813844268312e-01
6.856977195677198267e-02
1.048855149829855948e-01
2.130607217616435622e-01
1.609644694092964012e-01
-1.571154503681356646e-02
-8.373154763335460826e-02
-1.788900683284045529e-02
1.742543589903670920e-02
1.331458217618475964e-03
3.052558027465271384e-02
1.005565955652196197e-01
1.612614687009661096e-01
2.039824754096067339e-01
2.055961100066435732e-01
1.698503470593609177e-01
1.731728432085284097e-01
1.937443945733178519e-01
3.857585768810418980e-02
-3.056599683437924431e-01
-4.982508543952370306e-01
-3.603081435545641975e-01
-1.600383333343595171e-01
-1.214490947259264930e-01
-1.683642198329940165e-01
-2.068155996565973487e-01
-2.158522052111801481e-01
-1.695765314213952546e-01
-6.136739160360822620e-02
9.888212247771581420e-02
2.374806845392036514e-01
2.270620855862851006e-01
1.048338840324689741e-01
3.209156287802700236e-02
3.496584039320481396e-02
5.846364013707428670e-02
6.878395401021296374e-02
3.707607052970741945e-02
2.447671062564132916e-02
7.314854884217969477e-02
5.645056700476550060e-02
-3.571589399202979714e-02
-7.451926435460005937e-03
1.045238207694428323e-01
4.928637912783408181e-02
-1.427761892813934619e-01
-2.145825416122167928e-01
-7.883140934123969434e-02
9.310634379431112495e-02
7.272043240707151690e-02
-8.760894069921765226e-02
-1.106943997246270794e-01
3.237478563378160673e-02
1.044561917915104721e-01
2.796815749352363559e-02
-1.772911368844650240e-02
7.491296540535515025e-02
1.430030368937727503e-01
3.822560645416898939e-02
-1.055114328983971228e-01
-1.493939256818064831e-01
-1.710120953859276538e-01
-2.130682022319774771e-01
-2.061203466032194287e-01
-1.221163952246376583e-01
8.552014633862868587e-03
7.963071031666409116e-02
2.294139493397830132e-02
-5.232330770863378999e-02
-4.994935621318947333e-02
2.327172554669284035e-02
1.692898805427382747e-01
3.314631479633558531e-01
3.968140211278834983e-01
3.640075862155801589e-01
3.318065927885579525e-01
3.072613610155475738e-01
1.941561006054896010e-01
4.521834956215758927e-02
4.096111408767340312e-02
1.709321612000363755e-01
2.638820616572919997e-01
2.129568483433496584e-01
1.247622155179602815e-02
-2.504826449967285096e-01
-4.789592024299621498e-01
-6.305235591899538417e-01
-6.554008392094730073e-01
-5.853124542478289616e-01
-5.256084826845529578e-01
-3.949586654146497455e-01
-1.149022750605287468e-01
6.736798004085609026e-02
-1.335767733264547896e-03
-8.939862278553550867e-02
-3.168258773689730523e-02
1.057836616468722790e-01
2.477249030803465590e-01
3.077730704231971259e-01
2.534267285809001513e-01
2.083051796842972370e-01
2.219738216184296842e-01
1.877421174064112519e-01
1.227665324055586815e-01
1.332458251185777709e-01
1.382752798151415663e-01
5.036394381089043248e-02
-3.270273470677974303e-02
-1.004877212222850258e-01
-2.223811436133925623e-01
-2.723105245844791855e-01
-1.379724448351708488e-01
4.654004377463721864e-02
1.414032993009573524e-01
1.716651774644790407e-01
1.954206803026763695e-01
1.999832059440743437e-01
1.447756944556640168e-01
4.782456207519165947e-02
-2.440407416455379203e-02
-5.936278005345237835e-02
-9.412591409585632785e-02
-1.202145189264969549e-01
-1.110354978537979598e-01
-9.489642259058629625e-02
-9.473141230154336068e-02
-7.571087899560821621e-02
-3.884823325500910002e-03
1.122034411112412255e-01
2.152073601925959534e-01
2.460937674103057526e-01
2.105787268431940640e-01
1.010793899850402217e-01
-1.082984006983276765e-01
-2.961804155591716281e-01
-3.110068121213405146e-01
-2.062282275612522531e-01
-1.053564335200498220e-01
-4.876497728917233987e-02
-2.996154761605987482e-02
2.445702705415685185e-03
4.406789030910988197e-02
-6.528870214775606140e-04
-9.456114010324861985e-02
-9.385071418398985288e-02
-1.544194934928025398e-02
3.251015601107529185e-02
4.426310902638636025e-02
3.302862784501817139e-02
-1.787869295360227512e-02
-2.198464966038636559e-02
1.017801964674027726e-01
2.016766935873589850e-01
1.330710545343768980e-01
3.058170191070053168e-02
2.063245961400247269e-02
3.954402083449475025e-02
6.554843163728957256e-02
1.094428382533949307e-01
4.294092216968535547e-02
-1.664059244420889039e-01
-2.249742545358588419e-01
2.094359980847521063e-02
2.124817526525656919e-01
9.896029719978005623e-02
-5.074421514736446315e-02
-5.477972049583666736e-02
-7.148979325873781876e-02
-1.049796956647029156e-01
1.220141974232737125e-02
1.787376578126214921e-01
1.710357089192103552e-01
7.487548971985258373e-02
6.449451166975425642e-02
5.567003795488234541e-02
-5.735423475840303875e-02
-1.804315126722422225e-01
-2.069774127045752588e-01
-1.846121964746427202e-01
-1.891833151844949101e-01
-1.838954966634648303e-01
-1.267642763833387309e-01
-2.813014652964733464e-02
8.020255680600966997e-02
1.251457641516472985e-01
1.289627550621313123e-01
1.792074356267517599e-01
2.097847317537720468e-01
1.486456591277778572e-01
7.086080261648639023e-02
2.852340301075968060e-02
-4.669671592132485644e-02
-2.010083035428135156e-01
-2.911797355388265340e-01
-1.721159621954737595e-01
2.032358283964504769e-02
8.864356470025885892e-02
5.538464023323688701e-02
1.095250918112507243e-02
-2.722753650940008124e-02
-5.795936011658708170e-02
-7.972005121095557256e-02
-3.762352602624498277e-02
1.329809771054073497e-01
2.785029797307365107e-01
1.894000850822895043e-01
-1.180314335884819626e-02
-7.027326278420395478e-02
-5.220504464724856630e-03
2.214242239153322439e-02
5.583646360639293871e-02
1.912313441174604833e-01
1.828279151911935962e-01
-1.362429385656896974e-01
-3.194510729181401221e-01
-1.010081948654381612e-01
7.713866298865078297e-02
6.312044618531367779e-03
-5.732052507188630658e-02
-8.495846440137741484e-02
-1.503070494985511429e-01
-1.774363556089620930e-01
-1.629692642529245450e-01
-8.861308841531245761e-02
9.146454720626973067e-02
1.971925214041898022e-01
1.148793453441700751e-01
8.009768401227979062e-02
2.112827348301945796e-01
2.936842625942082119e-01
1.900133182748464378e-01
-1.091487922957203385e-02
-1.444411300294348166e-01
-1.253298428625679861e-01
-9.094549431590856492e-02
-1.586482042748866561e-01
-1.725106598682879522e-01
-6.182592324808242057e-02
1.183533060235642323e-02
6.599888061753284713e-03
-2.095394612786859873e-02
-3.801683930333916300e-02
5.062707646121921562e-02
2.090863386590763318e-01
2.630193309651444045e-01
2.379953970181079570e-01
2.481861578527566892e-01
2.293906525547975972e-01
4.261170051499707512e-02
-3.066028262961323358e-01
-5.689281669974399769e-01
-5.464484564279855627e-01
-3.903378792398639052e-01
-2.831229985074658062e-01
-1.858515621197963374e-01
-9.147987612681969527e-02
-7.897665442185726470e-02
-9.224802000185264306e-02
-3.487649346542762846e-02
5.949224686440540005e-02
1.892700371650960778e-01
3.814753978173511251e-01
4.912201015540026972e-01
3.699167855238972846e-01
1.435230139009521788e-01
1.022164909076893613e-01
3.032694777194715474e-01
4.895098971049509085e-01
5.155970921481229929e-01
4.791970761285492264e-01
3.995378367945057185e-01
2.126035389887839799e-01
-1.042829685537800810e-02
-1.704663768706429494e-01
-3.183676222348653662e-01
-5.076277507988532500e-01
-6.153239012064454228e-01
-5.218998555608538314e-01
-3.598696923808789028e-01
-3.702838383314182580e-01
-5.538925306481968791e-01
-6.382894744642995111e-01
-4.685280133264216884e-01
-2.107103823478259641e-01
-1.002955203048917776e-02
1.768801825809845074e-01
3.362412567784751616e-01
4.015194065009487501e-01
4.000538093917327953e-01
3.442040438990477402e-01
2.133962684425025347e-01
9.723104619154171457e-02
7.976447185968496556e-02
8.003965288808080614e-02
2.424940806103274490e-02
-2.573378762006375137e-02
-2.302604117195955480e-02
-9.406343943295161769e-03
-6.427976656951779610e-03
3.916126218252287405e-02
1.636427592253341667e-01
2.588860402901754232e-01
1.825037153840073645e-01
7.986973719539394723e-02
1.649496181464025213e-01
1.746591497792124303e-01
-1.412742629718802545e-01
-3.942614480220963946e-01
-2.936498767030402135e-01
-1.259903993254496979e-01
-1.101309434911765528e-01
-1.528281692756237042e-01
-9.530371232225937073e-02
9.169572962803265725e-02
1.707868943754356494e-01
1.247123810896742097e-02
-1.167604500865016687e-01
-5.288941586834706998e-02
5.265820718358184271e-02
