-1.417182168136947931e-02
-1.691073852895329938e-02
-2.212068439696864008e-02
1.391384979897754802e-02
2.346455422775227395e-02
-2.779873529211804653e-02
-2.301710823580437743e-02
5.821365988841441241e-02
8.806484398543636127e-02
5.401832191704855624e-02
3.949338465459984598e-02
4.924530064711116206e-02
4.792142660514929486e-02
1.450225117787841585e-02
-4.040901057043469469e-02
-5.225114577266169735e-02
-7.982382901216326931e-03
8.980607921321857173e-03
-2.691573150468644371e-02
-5.217545271510484056e-02
-5.123093775015454682e-02
-4.994090369235296839e-02
-3.294274845807097785e-02
5.319269212831033780e-03
2.970320025668314254e-02
3.091744532554733388e-02
1.254836887865424210e-02
-3.355457577011443371e-02
-5.274938884055389160e-02
3.391125262430404706e-03
3.940271962679654100e-02
-1.917341455545269399e-03
-1.792617165993376505e-02
6.579494686799199077e-03
-1.062425965895731975e-03
-3.999369498021915388e-03
1.910235065577934807e-02
9.981548474138502575e-03
-1.283433681419708129e-02
-3.747667089162986555e-03
2.581897708638749341e-03
-1.106406367087585038e-02
-1.355742632432258704e-02
-2.283358993981377677e-02
-4.248169594389662740e-02
4.852150472086513497e-03
1.111592729464257745e-01
1.522515999144821719e-01
1.007646017341756323e-01
4.894501128898338244e-02
4.241335727442190062e-02
3.196769039734122242e-02
-2.695546846731179669e-02
-8.671247284994419713e-02
-8.894554911623649140e-02
-5.819988854748435469e-02
-3.454756132968775373e-02
-4.526697214699897109e-02
-9.401454439493164839e-02
-9.929410072893854466e-02
-2.671236197739758345e-02
1.407299488522651548e-02
-7.178030099104882461e-03
2.463604656559676559e-02
9.383729572457541468e-02
4.932009866569490170e-02
-5.611279376497983751e-02
-3.004572996356971726e-02
6.792978512281777626e-02
6.362182342901750998e-02
1.138616089261595965e-02
9.839001043917621273e-03
2.932552650319378632e-02
4.948512433073324474e-02
3.313283943940342063e-02
-4.955698315207934107e-02
-8.344586299908995919e-02
-1.629911110135149818e-02
7.844326081814033402e-03
-5.685036794661253029e-02
-6.886666866755902783e-02
1.675714377017320511e-02
5.768403111636331154e-02
-1.689073217886842906e-02
-7.258436694337751238e-02
-8.283950776203032398e-03
7.653026954783355429e-02
6.614739820655868296e-02
8.618678587845440137e-03
-2.764628879307028109e-04
1.535486652281082068e-02
5.516188159566275118e-03
4.829095101746439661e-03
3.324722357797871980e-02
5.928911116630068007e-02
5.212227267715873608e-02
3.020211544524452948e-03
-2.712936198435025176e-02
5.601953916211490150e-03
1.632090752071456777e-02
-4.296009777956691367e-02
-8.366543013829451370e-02
-6.278128586957616719e-02
-3.419067949380026616e-02
-1.783225879712408909e-02
-3.096015068524294450e-04
-2.096708810531484023e-03
-1.376324375374792137e-02
1.477977376888864672e-02
4.399448424278729064e-02
1.598395175303559193e-02
1.382474495409813722e-03
3.026797959521181081e-02
1.992124790306109422e-02
-1.142453732244493730e-02
-3.689288047886515702e-03
-1.751623788324226105e-02
-6.115507738381941588e-02
-4.389563499518833734e-02
1.612669779137709813e-02
3.396961139783767625e-02
-4.181617812670953421e-03
-2.468503585121501961e-02
7.677726098358338136e-02
1.891238568251298602e-01
1.037136572586276062e-01
-3.675379009081187337e-02
-3.074896688219993374e-02
-1.212968735333757112e-02
-6.325389175883031068e-02
-7.594546429753559758e-02
-6.883780355519973637e-02
-1.125166192804783610e-01
-1.528449473949505533e-01
-1.457080342985807853e-01
-1.239596319758742154e-01
-9.516995687088673772e-02
-3.073861057839565730e-02
5.892107483907983723e-02
1.259433184946071038e-01
1.534049459477166422e-01
1.623583702086759673e-01
1.774406065106215458e-01
2.052386526381752840e-01
1.993657364044556790e-01
1.281889326082023550e-01
6.221280087501882688e-02
2.484189009446238772e-02
-4.756679782390822037e-02
-9.434562704387683407e-02
-5.736009223159957426e-02
-6.583832623184303345e-02
-1.430430674898819365e-01
-1.550198618147330676e-01
-1.227204216669617320e-01
-1.181136919270523167e-01
-9.011230663621251635e-02
-3.263628324992981500e-02
1.485065739871217066e-03
1.960643675538991174e-02
3.298286268104914931e-02
3.436167857456981500e-02
4.127131639457882334e-02
4.776025454771552770e-02
2.757632045085091702e-02
6.700593198900274203e-03
1.631361732901582401e-02
2.808883085496280060e-02
2.683855159996795595e-02
3.776942689402310038e-02
4.113627723279623255e-02
1.442740318848991475e-02
6.924115901134323195e-03
2.233539594518388696e-02
2.390139662625835604e-04
-3.657450211383299343e-02
-3.856351416351509048e-02
-3.758310084234044862e-02
-5.194598477493676814e-02
-4.991357564880626041e-02
-3.310661023862646740e-02
-1.623604609760621528e-02
1.329561721311376885e-02
3.269345812998912526e-02
1.706044803640544352e-02
2.299585311446744607e-02
5.529050961022873717e-02
3.352604371390809079e-02
-6.776203355290505090e-03
1.375572989960298365e-02
4.189145998992198361e-02
2.625407712745787825e-02
1.037491892806238249e-02
1.311848463502398102e-02
-1.584972484986296379e-03
-3.519904341518589191e-02
-4.519223265489348551e-02
-2.749778137536108141e-02
-2.471031492527332382e-02
-4.252841782096704326e-02
-3.756278181125064647e-02
-6.623094376779740597e-03
5.125155866934902500e-03
1.438646152082600008e-03
1.285677084443238513e-02
2.367356481287641659e-02
2.467955050142755374e-02
1.491805249231966182e-02
-1.342656485027856825e-02
-1.373058634324757915e-02
2.710882686016859167e-02
3.553235035830201033e-02
1.107621788734930272e-02
1.236818578855956863e-02
2.080509348701259018e-02
1.906186711001352230e-02
2.975206615067942442e-02
1.809738118299568724e-02
-3.442248144635620677e-02
-5.787698201200772163e-02
-2.873795168316386345e-02
-9.704479721925906438e-03
-2.825341069937449545e-02
-4.647524502399616453e-02
-3.650330897363670418e-02
-1.617046217608250278e-02
-4.223256525766466707e-04
2.811944444229971460e-02
5.421946792526669695e-02
3.282174501853095394e-02
-3.621552630978824849e-03
2.947784644238546359e-03
1.569112118260508615e-02
-5.300275224095230345e-03
-1.774651027910204015e-02
-5.527332884486327313e-03
-2.461527630037203818e-02
-7.658035407944416284e-02
-7.519616118228053536e-02
-9.493010713368265144e-03
3.705212629388758561e-02
6.740148264613568529e-02
1.181682397737427587e-01
1.027345339458011764e-01
7.870410259282721588e-04
-2.346769587392062706e-02
6.241234711404250457e-02
7.732534850326076847e-02
-1.254489506171203167e-02
-5.029165341653221710e-02
-1.264943938115509897e-02
-1.789336363553545306e-02
-6.969585028587849118e-02
-6.655227950121590796e-02
-8.766732485837052183e-03
7.775834251509820480e-03
-2.001984186137754224e-02
-2.001259750783376118e-02
-8.206132619585533583e-03
-2.130301973102749144e-02
-1.766942364857494729e-02
6.151670975198265598e-03
2.041484637191236934e-03
-1.751017157420092438e-02
-2.589687573976709803e-02
-2.116797908321574676e-02
1.514568046173737914e-02
3.764961278887798274e-02
-6.576418324620355443e-03
-7.245606046835150263e-03
7.342720804693672609e-02
5.139091360323071178e-02
-6.076838660859401609e-02
-3.488550476927543970e-02
7.483978494413173754e-02
6.333162232775317591e-02
1.958704893433466446e-03
1.878377645267836210e-02
4.099401992232257208e-02
1.650537914207278814e-02
-7.939855214647125597e-03
-3.969385738380478562e-02
-7.728052541377213036e-02
-4.692432976494014668e-02
4.151804929465061772e-02
7.714625885601900102e-02
2.859805711146184287e-02
-4.341399148657715951e-02
-1.002881027018734938e-01
-1.073859300775697745e-01
-3.400992331335496444e-02
5.860468580721450021e-02
7.587898657519343004e-02
2.198111678459994944e-02
-3.340721249844517265e-02
-5.485606324072624107e-02
-3.556759093358580898e-02
4.884167607333567140e-03
2.738116043626163953e-03
-3.824106624892203987e-02
-2.115952018082362454e-02
5.215654176033532319e-02
7.950192454081442262e-02
5.742848443713897966e-02
4.617316029425907326e-02
4.276568051942434417e-02
3.448626739529277174e-02
2.939679966379105461e-02
1.926679915714524238e-02
1.583075169706996480e-03
7.076123233937543083e-04
3.426165835426398659e-02
5.412240260209153636e-02
7.904082682511501950e-03
-3.815967304476857586e-02
-2.755541846010270066e-02
-3.503881381892287594e-02
-7.711870451774111013e-02
-7.317104715884634181e-02
-3.729813001518308274e-02
-3.316377794080264951e-02
-4.043237521048555216e-02
-3.024763149003963092e-02
-2.066925165725433389e-02
-2.604464053503706758e-02
-5.441728693676518847e-02
-8.445847537063393140e-02
-7.246564440254942008e-02
-5.788576162849652651e-02
-8.915528219235281659e-02
-8.769526984459689867e-02
3.686728521140450032e-03
1.067073498849404056e-01
1.509270634605770212e-01
1.595250298673910883e-01
1.821857789591972421e-01
2.121174237773224835e-01
1.975773318676109225e-01
1.417800389640711811e-01
9.236075713028890632e-02
4.479891069887929900e-02
-2.139726381219209106e-02
-7.957434626071684114e-02
-1.109547277137877264e-01
-1.316025186309588424e-01
-1.441269867459868681e-01
-1.426887216255036672e-01
-1.374694508137809246e-01
-1.207216457819652450e-01
-7.252544652908982092e-02
-1.666861531414782008e-02
6.513811153299457757e-03
8.265223972812037884e-03
2.385106352095967344e-02
4.650642786659654054e-02
4.954817915181967958e-02
3.470743587508964834e-02
1.502477414634736073e-02
5.323146861630661739e-03
2.226950775089638068e-02
3.820845497148864928e-02
1.983569227938599203e-02
1.080724731613294520e-02
2.630999422653085978e-02
2.238537507538170858e-03
-2.570825293068611586e-02
1.889088818443563147e-02
5.556154500747901431e-02
2.233292770847389308e-02
4.071898107256296737e-03
2.771726745968104005e-02
2.818994357455385444e-02
-4.992428010038190908e-03
-2.947041183768982567e-02
-2.657761318042627455e-02
-1.649921617204116661e-02
-1.736061720103480865e-02
-2.145201582500520440e-02
-2.582193906974245348e-02
-2.954716516138676530e-02
-1.820545914829176798e-02
-6.535558544194306277e-03
-1.249729891361107265e-02
2.056149123900296444e-04
3.722644573198116702e-02
3.244422249271029096e-02
-2.628629040171830827e-02
-5.740809592431732333e-02
-7.976018590845323705e-03
5.627716613693660441e-02
4.078429419029636765e-02
-1.508379652284469116e-02
-9.263267595964224527e-03
3.096101746254824663e-02
2.817539733913616146e-02
3.899263425279330016e-03
-4.070413361808708150e-04
4.294568133762907344e-03
6.445186028951861192e-03
9.188405135535411203e-03
2.045831724434454390e-03
-2.615387810653034897e-02
-5.514429661298569929e-02
-5.813732733592424234e-02
-4.187354399523918191e-02
-2.510456200386997766e-02
-1.170541298774310096e-02
-2.415731165347894185e-03
-1.045314273192337121e-03
5.523310613288288234e-04
2.397093198152180915e-02
6.533989957882560540e-02
7.561395653620853197e-02
3.583318903879569722e-02
5.091310682375542289e-03
1.320689088218107016e-02
6.624014872122441222e-03
-2.857485670312760739e-02
-4.431883090992846941e-02
-4.481718962515125748e-02
-5.196053743873989272e-02
-3.912388083442676356e-02
-2.523892334389425673e-02
-2.742187340775248047e-02
5.173441676495708214e-02
1.793163708519281141e-01
1.326724500440435994e-01
-3.759303056656841668e-02
-4.750320344147006268e-02
6.347025049825816279e-02
6.854039520925783724e-02
7.959379257662742638e-03
-8.945227205166637191e-04
-1.115602942364382968e-02
-6.502274898871912567e-02
-9.893616908269758925e-02
-7.303184445281643566e-02
-3.381281972182256790e-02
-3.280506762705710094e-02
-3.904697510382394016e-02
-7.116111463843702648e-03
2.719278521891946299e-02
2.029924878854008630e-02
-8.096656733145787821e-04
-2.278091538025685953e-03
1.843708804062252349e-02
4.622528314203398769e-02
2.090542501432881423e-02
-6.441643900503545017e-02
-7.356792058096353615e-02
2.752252661243067069e-02
7.404415745370915292e-02
2.754813996182924052e-02
3.907168403951114671e-03
8.657336556392454530e-03
5.198182693469491876e-03
1.975997316348818839e-02
1.801272783382819320e-02
-3.097965982663240803e-02
-3.200660404295077588e-02
3.769747333346439716e-02
4.411378066716661883e-02
-2.716875560666152933e-02
-5.480756510907165008e-02
-2.957691456627625781e-02
-6.292526760577289192e-03
-2.330874115617814941e-04
-1.934857641568117972e-02
-9.489200316718578165e-03
5.856258233352269055e-02
8.180897044112171723e-02
3.036151714929401918e-02
-1.821947193612353556e-03
-2.096878644396388616e-03
-1.221201961583212592e-02
-1.043664432752509225e-02
2.510089468685345465e-02
4.217354881059487415e-02
-1.834289493083753747e-02
-9.708308432155744738e-02
-9.120631435616585736e-02
-4.525231890375625010e-02
-5.141453560250766608e-02
-6.249780312865246823e-02
-1.000543609806663070e-02
4.886805998145156427e-02
3.246277281986410801e-02
-1.343651793131028782e-02
1.036296597617412767e-02
6.456312095889718550e-02
6.319826107029935525e-02
5.041650595741531404e-02
6.146156047967171743e-02
5.007357316878822268e-02
2.857288570842317701e-02
2.590783573671551904e-02
1.856637177872497158e-02
6.892363722796158304e-03
-5.152366908586310593e-03
-3.265807050819544144e-02
-4.154647403273230288e-02
-1.082496349632757794e-02
8.047763367435869369e-03
5.712280462647914905e-04
-1.110056412346173069e-02
-4.412271091355654540e-02
-6.726148183007250869e-02
-2.223300104419562856e-02
2.803611635848898137e-02
1.344188692196690918e-02
-1.074085500249086569e-02
-9.372590871927771392e-03
-1.898632238503747405e-02
-4.019671402769065677e-02
-6.124802665928852363e-02
-8.042090618116658207e-02
-7.508522511465154370e-02
-6.606080673080208521e-02
-8.506719242384995494e-02
-6.820506930781154720e-02
2.150668853783731932e-02
1.020055859679128984e-01
1.325038938891217599e-01
1.408050792453613698e-01
1.408244749889850100e-01
1.681534456641587960e-01
1.819055262267367246e-01
7.544145083046056854e-02
-4.758832171766150948e-02
-3.861443261614905254e-02
2.312825920619952791e-03
-1.050091099958172340e-02
-2.218041214508056913e-02
-3.541271954933307431e-02
-6.930566057989839823e-02
-9.320336862968719993e-02
-9.965199966458732073e-02
-1.014714389638607384e-01
-9.739555538016157754e-02
-8.343276723589058974e-02
-6.233378401416251463e-02
-3.254184048844662586e-02
-8.719188078371898493e-03
-1.446086458017836404e-02
-2.948318425334859466e-02
-4.306520762273144398e-02
-2.993402131185558465e-02
9.960642383054810201e-02
2.361823980145202895e-01
1.507067300332713411e-01
-3.005854020095465387e-02
-6.111796905931940471e-02
2.587424385578445535e-02
1.449723207497130850e-01
2.018325516245820794e-01
9.273424377633998628e-02
-4.339591559225382950e-02
-5.078817364758658054e-02
-3.656425291138773459e-02
-8.048592582580206545e-02
-9.729552284538420248e-02
-6.580843739439584672e-02
-4.884323666673937719e-02
-4.634524278216334281e-02
-2.088626916486620300e-02
1.528941406512836568e-02
2.028126401431402243e-02
-1.635108667155608930e-02
-3.363512924576775309e-02
1.826264756945418510e-02
6.228821190647551576e-02
3.520960999509901990e-02
6.648831144100001041e-03
8.131557118326369731e-04
-2.029005496224380728e-02
-1.505973784488668851e-02
2.229759502148742634e-02
1.623284581204736260e-02
-8.931809674122444254e-03
1.666463985598038572e-02
3.621859872269181380e-02
-1.279019065178570516e-02
-5.503360125764222149e-02
-2.316928445578657347e-02
1.172873052232247838e-02
-2.226419062588644304e-02
-6.492676092351970518e-02
-4.130037059869727523e-02
3.871869073918865825e-03
8.172098373343698874e-03
1.623492405008926387e-03
1.441602085781509140e-02
2.018245403399754681e-02
2.059226012339610348e-02
4.266486967061847158e-02
5.459109305973221249e-02
1.930353465154718839e-02
-1.341638012323064129e-02
3.726018640476383079e-03
2.762730237299594951e-02
1.906742512046055715e-02
-3.339764999159732656e-03
-2.884959964370005514e-02
-5.765821873090049010e-02
-6.226679403128929091e-02
-2.224428164086559093e-02
2.283101090009457407e-02
2.382544272902122062e-02
1.198791971998910792e-02
2.592491402988097993e-02
2.910633913355697988e-02
1.196256334623837722e-02
-1.666201976783451139e-02
-8.098899630873679367e-02
-9.641051957264834549e-02
8.480572195862613044e-03
8.648382165022416856e-02
5.472395639750166074e-02
2.563663043379294654e-02
2.881228008601902091e-02
7.543501673449965264e-03
-1.973993470104560763e-02
-1.506046937328917902e-02
-1.016910398269558168e-03
-8.193488227597016393e-04
9.609272907078088288e-03
2.568360820075677939e-02
2.049604839748590812e-02
2.226665288322192751e-02
3.822723736584914683e-02
1.490354140946266621e-02
-5.443750500733950115e-02
-8.942713105905804316e-02
-4.100273765055490599e-02
-5.527600704502201069e-03
-5.332463412179265505e-02
-6.690197179721719956e-02
1.094123228981645074e-03
1.763455319854653758e-02
-2.226839285794340179e-02
6.219151636558874208e-03
6.025748674689631462e-02
4.029105964802816298e-02
3.296026762156010342e-02
9.002781797256950713e-02
7.164891318663663133e-02
-4.643514276540821467e-02
-1.013033959098260106e-01
-5.059979185481382202e-02
2.894783711597100420e-03
7.505734687062635101e-03
-1.288552733629357364e-02
3.888108314143824164e-03
6.240338410229395727e-02
4.498204579747630549e-02
-4.730008717228670334e-02
-4.149030707708828425e-02
5.190178635437035781e-02
6.941031965125289693e-02
1.721473260787506621e-02
-9.010720833189725387e-03
9.007167348324122969e-03
3.940247336710969717e-02
2.243306305038045290e-02
-3.760402395684723370e-02
-5.022943918075767344e-02
-2.096117582033089205e-02
-3.861728502672685803e-02
-6.372167285435462181e-02
-7.382130580809368250e-03
3.964199070186595619e-02
-3.021316873230744243e-02
-1.027617821880812687e-01
-5.759152169783067488e-02
3.776079192610660301e-02
7.145262375465255555e-02
1.718608278040397938e-02
-3.238433317584364646e-02
1.181712918661017783e-02
6.890410509203266642e-02
4.225565920563643940e-02
-1.836048095960971654e-04
9.286073575204910335e-03
1.538203237766685820e-03
-5.575758471635207381e-02
-5.715780363082483689e-02
1.673065672164962547e-02
3.140048803885515938e-02
-1.670765647313850882e-02
-6.140571938709822597e-03
2.132598261110086463e-02
-3.338738232835800068e-03
2.576089936977935674e-02
9.994406768058024249e-02
5.022248067566068008e-02
-5.570848502281851994e-02
-4.035156345552005919e-02
9.695118904446457797e-03
-1.298408857516837600e-02
-1.854509946818299129e-02
2.843521473187364187e-02
5.132327454746044015e-02
3.744322763585683500e-02
3.628208596266697256e-02
5.874018308598833588e-02
6.968881513186706012e-02
4.909520899948306705e-02
3.996255048637336119e-03
-4.884402017068864565e-02
-7.858274455428937433e-02
-7.499839222306636799e-02
-6.813911842792708118e-02
-7.365172012496375153e-02
-7.283117437941553918e-02
-5.526956478647924997e-02
-3.135031726062718904e-02
-1.208168463887428039e-02
-7.828531270698893541e-03
-3.425037474252019820e-02
-9.100296024946871731e-02
-1.325687851621173974e-01
-1.129732905760387762e-01
-5.992138548543406162e-02
-2.142484521765237321e-02
1.166749546244041924e-02
5.173333200230047918e-02
1.032746463002601478e-01
1.861362816865402281e-01
2.206126357958062834e-01
1.315362673910047409e-01
9.453312158656912434e-02
2.036037270181179359e-01
2.071588269631011725e-01
3.643776911855088618e-02
-6.858102564781370925e-02
-6.696325741591760417e-02
-6.714979755337413536e-02
-5.879869395661598691e-02
-4.809998427479117433e-02
-7.762203261968809997e-02
-1.057768365174909936e-01
-9.284653946903878574e-02
-6.996992998888083848e-02
-5.936395057800604447e-02
-4.519488237241586076e-02
-2.101633419190047231e-02
-1.015961547991914987e-03
1.428763932310182436e-02
3.278808704766264515e-02
3.653359687929801786e-02
2.919624242196717026e-02
5.094740122367014817e-02
7.691089000717467317e-02
4.859837098854162540e-02
-3.514141693755792537e-03
-2.451755520264793306e-02
-1.907383140327884377e-02
-8.621097708663380890e-03
-2.251042126052760564e-02
-6.424795609752124992e-02
-6.582918667929375800e-02
-9.026213672079379940e-03
1.818121481707525924e-02
-1.566134649414403779e-02
-3.436240751634926649e-02
-2.634481420788011355e-03
2.558327964702737309e-02
1.876538928934431971e-02
5.346898090147029700e-03
4.110481622815969835e-03
5.239304435929010087e-03
-5.110303603144768139e-04
-1.002331914321302406e-02
-9.665439000084881382e-03
4.531500220064941034e-03
1.448565060835191667e-02
1.492076406269684206e-02
3.614564808664979395e-02
8.022959554748300415e-02
8.455233081628739378e-02
3.014562830291327503e-02
-8.976619404191445856e-03
-5.265967471567347541e-04
-2.265966832654210672e-03
-3.995321534990299572e-02
-6.534388082577670398e-02
-4.511081507782820771e-02
-1.602489388336848092e-02
-2.827819067622304797e-02
-6.456531778515861575e-02
-6.731862773943390887e-02
-1.343195553392344602e-02
6.378679673006369677e-02
7.445811612591275719e-02
-1.292245224500678316e-02
-5.858046711084115982e-02
1.823610909439494360e-02
7.146401699116047834e-02
3.025056574342206359e-02
1.439295264636197488e-02
5.451865760264822808e-02
6.544384082645592071e-02
2.529528324225339270e-02
-2.475375573695372255e-02
-4.310272901677049406e-02
-2.453896286551332517e-02
-8.573429934879153724e-03
-1.252896538418670283e-02
-2.142487475304074782e-02
-3.534876796237686886e-02
-4.324168123979671430e-02
-3.209830333249633766e-02
-3.416560700542680545e-02
-4.702364869512411921e-02
-1.294191853259672384e-02
3.275483836047836383e-02
2.229572110406802254e-02
1.969826344002633539e-02
2.054385227770228611e-02
-8.728718550852435087e-02
-1.268262194005153609e-01
1.153580415812212739e-01
3.108819798132427259e-01
1.546928704228815177e-01
-3.793826669568947652e-02
-1.229332498161804510e-02
2.217394623462191905e-02
-4.908011889834109492e-02
-9.025747555503541020e-02
-5.200553391565902739e-02
-1.117630804680618678e-02
-3.302786642224811442e-02
-8.990799176336389253e-02
-8.470188843144874080e-02
-3.278887104145530862e-02
-3.700949552958162497e-02
-3.082921368465443845e-02
8.726662862926877484e-02
1.633961675243476297e-01
7.192084275417434669e-02
-4.774764463349297217e-03
4.519200541952761441e-02
5.895070573753795340e-02
-2.137113955247899738e-02
-5.861452502831188127e-02
-3.306126802548811638e-02
-4.203507952500358524e-02
-7.279741978070916608e-02
-5.213337855010968108e-02
-7.612078905956865503e-03
1.167388366771537206e-02
2.191241493289151215e-02
7.720002977283271783e-03
-2.990706475771312545e-02
-6.404814680604774789e-03
2.960670536254363452e-02
-3.707117303513096651e-02
-6.475655043441344572e-02
5.541744678130255952e-02
1.068064029159513928e-01
1.309231300695889652e-02
-1.790776427334414903e-02
4.021360480514395153e-02
5.026279771080911091e-02
1.987478665712834325e-02
6.018207908590398475e-03
4.971147861622567110e-05
-3.236831231959475842e-03
-1.954802820629533006e-02
-5.492917154467318736e-02
-5.324245423417699186e-02
-3.904546951429048451e-03
2.450381929490644262e-02
1.991193883991693170e-02
4.252327346548253825e-03
-3.519327678441833834e-02
-3.266852793095770952e-02
6.291523202470415688e-02
9.614151471872627031e-02
-1.015896506257593992e-02
-6.047834548190797466e-02
9.377785053205321686e-03
1.281324554135839650e-02
-6.303163005368528360e-02
-3.898990632945074919e-02
5.180428591413012429e-02
4.255871887947514087e-02
-9.924873384174748292e-03
1.455385013169417305e-02
5.507475655815669696e-02
5.321085065515267915e-02
3.231742789086770179e-02
-1.821646560242091636e-02
-7.320609748922497773e-02
-6.566102936580593685e-02
-2.311329715090444312e-02
-3.707579799838155686e-03
-1.332994801141290132e-03
-1.241213155589624036e-02
-2.105089579550064455e-02
1.546136967441999119e-02
4.852689963363486514e-02
1.139950918130250811e-02
-2.180621710997628776e-02
7.499776887504671849e-03
1.394923341145228035e-02
-3.699083575415807595e-02
-6.527466797952706512e-02
-6.742527720889761322e-02
-1.210090117302454193e-01
-1.852088670840621731e-01
-1.377522815733171757e-01
-3.675851817860940202e-02
-4.239209004344536569e-02
-6.250851695391108909e-02
8.978908911441409180e-02
2.643522598335117380e-01
2.340551859259413781e-01
1.395380177176379632e-01
1.674165190413991200e-01
2.025913103573892260e-01
1.433009371277772503e-01
8.607090686113906541e-02
7.164453011704552399e-02
2.846217572188648737e-02
-4.651980675264874576e-02
-9.393531999460678905e-02
-1.197835707709617309e-01
-1.558560686237163984e-01
-1.757804044775945207e-01
-1.556369660135739352e-01
-1.170531251958196184e-01
-8.008691026236218480e-02
-5.526183793781529185e-02
-5.134443856027586656e-02
-4.221541520488085453e-02
1.109259503411044734e-02
6.916187033472484536e-02
5.976989909825376757e-02
3.255918802479784713e-02
6.312150030566736347e-02
7.775470728061752157e-02
3.121868789133916758e-02
2.536189662821135976e-02
7.703913215935222214e-02
9.285805481891235003e-02
6.344040040091752930e-02
2.792805344761083858e-02
-1.207137302561358226e-02
-4.153982586110521041e-02
-4.376786012893479211e-02
-4.790299025367106278e-02
-6.785906505296476765e-02
-7.254794506852678404e-02
-6.208281326419392426e-02
-5.955732612601932069e-02
-4.737241202388883105e-02
-1.498747291317407276e-02
1.465068485199691288e-02
3.635645258414299530e-02
5.259986676776516601e-02
5.789012068255897092e-02
5.398588882237136122e-02
3.761803810913347951e-02
1.273758748741529202e-02
-2.799204901568199885e-04
2.234637275424812553e-03
1.219530540898404458e-02
2.485666491098624531e-02
1.179001525100902351e-02
-4.387259888647416367e-02
-8.005834242152243263e-02
-4.891208961267319577e-02
-1.246968178006994943e-02
-1.025932081504004126e-02
3.890404802284151958e-03
1.879168887137176377e-02
-8.114000274042028338e-03
-1.493690723053706960e-02
4.239738565135914988e-02
7.457896106519060209e-02
3.815530514832018993e-02
1.430732121290129860e-02
3.128903327968607373e-02
2.940073675779231177e-02
-2.818805898309160746e-03
-2.675305077152719674e-02
-3.626080329685607562e-02
-3.829430841615189679e-02
-2.150427869024484212e-02
2.327240424719146956e-03
-7.330264324999946624e-03
-4.454537557725765651e-02
-4.567900592279902638e-02
-1.056490922718266237e-02
-6.821246487322105839e-03
-1.389297953989914076e-02
1.751837561610404895e-02
2.291748746025517799e-02
-2.233940773682412811e-02
-1.270755588342064452e-02
8.031504689556324961e-02
1.277547202381371649e-01
5.268421944928519673e-02
-1.586010862189297932e-02
2.516233831766993140e-02
4.274043251521420644e-02
-2.401827559328653661e-02
-3.955101653599503442e-02
-2.586578891730361568e-02
-8.172836817930426156e-02
-1.020212661451865704e-01
-3.813180760367641808e-02
-2.394096825218617469e-02
-6.959557579515852910e-02
-6.302374102791245825e-02
-1.082330449763980670e-03
5.716814294458501255e-02
9.214117789518967705e-02
9.027004003757670147e-02
6.421547050150858138e-02
5.337137585188463096e-02
4.082747550473640047e-02
7.652897931427556262e-04
-1.699306557882757085e-02
2.342647886286134545e-04
-1.889121838618054716e-02
-4.863711633985545041e-02
-8.923597056139872391e-03
2.489640833939141609e-02
-7.521521033436798231e-05
1.309694177711701393e-02
2.367276136022422248e-02
-7.674105114356236101e-02
-1.442506277146406168e-01
-4.242581754557309126e-02
5.500945424280379720e-02
-9.759892386300011990e-04
-5.755765583951202857e-02
5.959068788212331866e-03
4.368761652130816880e-02
-1.291189735116748602e-02
-1.153392602918948406e-02
6.862177618514640753e-02
8.746662989764197871e-02
3.749667128882912953e-02
1.878715512063729165e-02
4.343630135142011878e-02
3.441507810030788178e-02
-2.164276791514984158e-02
-5.121440313381631082e-02
-4.926021268682748144e-02
-5.702940311631989750e-02
-4.964373193054430478e-02
-1.934720374460382336e-02
2.574967320502350408e-03
2.397357775980861472e-02
5.107410415183416541e-02
6.037460673467130723e-02
3.471695933627368807e-02
-1.878384043261569977e-02
-4.892238563537962270e-02
-2.650924567913280974e-02
-1.295858958414930137e-02
-3.345424913679388018e-02
-1.351264263566963331e-02
5.997404980226810067e-02
9.465766201149788950e-02
5.187860124341552026e-02
1.094271784986835735e-02
2.905562718025384364e-02
5.289899400229432919e-02
3.327292969205023626e-02
-4.254434084818852976e-03
-2.488643781862579646e-02
-2.475794125021003184e-02
-2.824211328126330356e-02
-4.393971903369732479e-02
-3.632745413189074346e-02
-9.913522766240840875e-03
-2.179737940826807427e-02
-5.717247282070660186e-02
-4.687302033586701611e-02
4.314747095411164499e-05
1.602389313051152259e-02
-1.680739523021452381e-02
-5.508418848134522677e-02
-6.643041119594551847e-02
-6.485359503320332897e-02
-7.562431383689938169e-02
-1.001081783366448708e-01
-1.007429339929036965e-01
-6.850565290570820309e-02
-8.087261255645690483e-02
-1.089425326740511152e-01
1.229890866682067235e-03
1.708339390221891019e-01
2.063397158337753889e-01
1.890616098298755210e-01
2.269226471690953817e-01
2.338813645097962690e-01
1.906102815166316744e-01
1.586182745344449641e-01
1.205536650751760086e-01
5.351234683381255602e-02
-1.707961919740549200e-02
-6.950143643038611541e-02
-9.655116455642290263e-02
-1.104256900243429096e-01
-1.319684276289466163e-01
-1.503358397127758372e-01
-1.500511258314994045e-01
-1.391448943958583373e-01
-1.167318441774110593e-01
-8.180049945352696472e-02
-4.366243542076030798e-02
-1.092294554135668852e-02
9.292545278045891144e-03
3.737863896807257919e-02
6.588154343415043857e-02
5.613370935450990445e-02
6.688100268954176586e-02
8.563461901723269654e-02
-3.211995772788903830e-02
-1.185848806984665660e-01
7.927444041659201246e-02
2.552734265944595071e-01
1.045824769712716817e-01
-7.139957708700132855e-02
-4.082630915284134188e-02
3.619957342454856175e-03
-3.240782897391321360e-02
-5.840817774089054892e-02
-7.008675859673135777e-02
-8.528233445595109763e-02
-6.375084808384474944e-02
-1.823428702076373281e-02
-4.741212602707026505e-03
-5.186127506986177443e-03
3.392485869819809180e-02
8.091750263252819875e-02
6.391300306669364661e-02
7.085618162896992894e-03
-6.529350492455833661e-03
1.738594435993699033e-02
1.609389592686492551e-02
-5.476693522478577256e-03
-1.116867495460523163e-02
-4.962226787334123382e-03
-4.839628715300739112e-03
-2.071203746836886364e-02
-4.190929315405361733e-02
-3.609824094244487580e-02
1.690101643074337981e-03
2.963364248798019962e-02
3.399595136986052757e-03
-4.596763995557150151e-02
-2.182637123026302806e-02
5.889503856586300601e-02
6.915788086519350508e-02
2.478964939628651443e-02
3.491432345266265447e-02
7.109738333468507143e-02
6.391323157714623449e-02
2.490682054654795238e-02
-3.274114077097577125e-02
-7.969974728674764086e-02
-6.456473104551092856e-02
-2.451490289257116095e-02
-2.674541134246942800e-02
-4.670868239142032807e-02
-4.751492294487119628e-02
-4.871899689353870883e-02
-4.839257196282511359e-02
-1.712694748844586015e-02
3.030050052359200587e-03
-3.830073909544089161e-02
-2.306197414285809585e-02
1.331210616150720893e-01
2.020030684196262860e-01
6.218226696963818911e-02
-1.960299651600160703e-02
4.462002619456682806e-02
4.533846245726074614e-02
-1.917899854922835642e-02
-2.160364134987102780e-02
-3.486272537611167718e-03
-1.741359858922796738e-02
-2.356157458031662988e-02
-1.469575391719517808e-02
-1.697899533231357963e-02
-3.322313543788422280e-02
-5.463913142700311393e-02
-5.958941190844600777e-02
-4.140322130812616047e-02
-3.242238480400311262e-02
-3.807621336561375219e-02
-2.521730216068122574e-02
7.774145039548139603e-03
3.637336829364325869e-02
4.503571592547555430e-02
2.104444869170738613e-02
-1.443317566930664778e-02
-6.594770708714412476e-03
3.491836322601189063e-02
3.784860714423463057e-02
-5.715128776135082293e-03
-3.276959388373998361e-02
-8.048424140866764637e-03
4.415100903613764644e-02
6.987431841749608408e-02
6.029753702605210319e-02
6.728435113900657627e-02
6.970545043661090234e-02
-8.593642379082798433e-03
-1.014660703629180483e-01
-8.866032774431170660e-02
-1.081534996364428777e-02
3.215349052929268592e-02
2.508275737909058251e-02
-1.206079728313383045e-02
-4.295877011982496274e-02
-1.306515284757061787e-02
4.562963486508771205e-02
3.259988023559606818e-02
-2.362907146604877745e-02
-2.209758773877355809e-02
-7.396794398743101843e-03
-3.591242452509331440e-02
-3.350405730762832934e-02
5.990850006874298694e-03
-2.083531110474901374e-03
-3.169869867972459343e-02
-1.345795923806143712e-02
1.436405643743580117e-02
4.859731414977209660e-03
-1.852908981794062701e-02
-3.303566791430418564e-02
-9.685587218538365198e-03
7.438428473381020201e-02
1.225658112043201825e-01
4.249760104110391484e-02
-5.465241185980163063e-02
-5.901917021680189168e-02
-3.307444978301616462e-02
-8.394388853794782293e-03
2.265098159863219648e-02
-1.213669989068168632e-03
-4.055130875686711184e-02
-2.702640437008579574e-03
2.556839220741812663e-02
-2.497953167425608426e-02
-4.170932077756656781e-02
-1.137667079832118538e-03
1.863953731891399273e-03
-6.086483510268357253e-03
2.226775551527691507e-02
2.721954230308237452e-02
4.808939202345241179e-03
1.205570250775514496e-02
3.341780570648116011e-02
2.933479388343333133e-02
1.024290110105256779e-02
1.233076371452942153e-02
3.825330975314039650e-02
4.802011733383190761e-02
2.402535361233515410e-02
-2.398938739900083328e-02
-7.203829422774087055e-02
-7.271093071890089021e-02
-3.709577489766791025e-02
-3.225656354147530408e-02
-4.685570988332311143e-02
-1.337220942039494230e-02
5.299616916739435107e-02
6.629214875431616028e-02
2.646702961224090336e-02
2.966462356588438903e-02
7.568868011109806948e-02
6.414309669020587523e-02
7.173039355485382428e-03
1.146723267616925682e-02
5.580395113892105963e-02
2.409979752628160429e-02
-5.913397766557226820e-02
-6.949883359185116127e-02
-1.210160192738426836e-02
6.491289184998012482e-03
-2.799429987123443209e-02
-4.197356131552273939e-02
-2.880799535328964350e-02
-3.919333016341514098e-02
-5.778501326017673051e-02
-4.238865871651305295e-02
-1.675503875115181771e-02
-2.428432390188845630e-02
-4.865022057230891650e-02
-3.833454763887242378e-02
-1.709754828165765614e-02
-6.257543623419764556e-02
-1.239169482544127537e-01
-9.159618882311827692e-02
-2.720033650894626218e-02
-1.864014522420840911e-02
1.301583332132816295e-04
6.856207005833790669e-02
1.315272473965333200e-01
1.668953397876158096e-01
1.798831899597383155e-01
1.786067663714007714e-01
1.777558228592915346e-01
1.597068886162595069e-01
1.085545716574045916e-01
5.558160773110407127e-02
2.322667481411831714e-02
-1.421414097455312581e-02
-7.198163410326746670e-02
-1.156697580612435772e-01
-1.226846366901980789e-01
-1.158771772678313383e-01
-1.088721330362100170e-01
-9.475273837678781230e-02
-8.002092222958644141e-02
-6.928575965831444694e-02
-4.995743719598859378e-02
-2.306093430758662105e-02
-1.612102518212784469e-02
-4.345844527734436802e-02
-6.318050277068294751e-02
-2.509692001736671396e-02
3.112872775191419250e-02
4.094788274213480989e-02
3.970725092587512606e-02
5.175732754185598944e-02
1.568775501065300393e-02
-3.147805244214022663e-02
1.391684769248742980e-02
8.415471557220144394e-02
6.655825970654534463e-02
2.392542423933081280e-02
3.137934418659632518e-02
3.746363158595345660e-02
7.813111666571906366e-03
-2.025037959645099167e-02
-2.529790501560335789e-02
-1.234053317330198116e-02
3.063149935329947428e-03
-1.242013872477912111e-03
-1.170432213037359177e-02
2.507920974558815880e-04
1.672017871277576076e-02
1.171560776030892287e-02
-6.253042671821536225e-03
-1.274162908088775220e-02
1.168239820877722303e-02
3.832549946223355597e-02
2.551203217335059822e-02
3.747993563293880535e-03
5.942844138215067074e-03
1.315830936740091002e-02
1.643739230593352710e-02
4.243457279213675576e-03
-2.832292202283787086e-02
-3.872977943936765921e-02
-1.196954258766708828e-02
1.417534563835033505e-02
1.841769166891091616e-02
7.993327888864368985e-03
-4.995298618266224254e-03
-1.524490656670524427e-02
-2.144753909491902560e-02
-2.761631007847652544e-02
-4.873357911261912145e-02
-7.316731627193212573e-02
-5.908798481875537217e-02
-1.551974018813719741e-02
-9.636834183602248360e-04
-1.860323679064380259e-02
-2.742432300811986634e-02
-2.482296714632625106e-02
-9.550724938885403470e-03
2.728519940960760781e-02
4.196230456838914713e-02
7.943449699523827748e-03
-1.974800171732003437e-02
3.280250114038556555e-03
3.777775286508618102e-02
2.953867173357994230e-02
2.609548226747098257e-03
1.628732448095007203e-03
5.485461379475192224e-03
-4.308965199466789978e-03
1.526505215888804279e-04
2.803335208919967292e-02
6.777924609804024392e-02
1.114787143118548540e-01
1.116250918021170629e-01
4.343696610729377849e-02
1.549349536135829868e-02
7.697953346989136469e-02
7.725042644243769463e-02
-1.128446416609748398e-02
-2.892592710537594120e-02
-4.276543121694037497e-03
-7.267249647446642757e-02
-1.508674477919730306e-01
-1.213843180164572155e-01
-4.936516778232837716e-02
-1.050993564666494358e-02
-2.614586545791976191e-03
-2.870748165066164259e-02
-5.201820262038753251e-02
-7.545560297549500431e-03
4.928229822539148541e-02
2.477652289130516036e-02
-3.819441319569494286e-02
-5.442184148880876982e-02
-2.364536442362407190e-02
1.206770489523809227e-02
3.262016906814289852e-02
2.455532252062202908e-02
-2.288029727412056388e-02
-4.678591472890732822e-02
9.172599485049726109e-03
6.761021952495048504e-02
5.983546589492695633e-02
1.373424435053462872e-02
-3.447505099010703816e-02
-3.951617720140799400e-02
2.948670767542894283e-03
3.139787211209422307e-02
2.593298818159420899e-02
-1.599664138371026736e-02
-7.495275797056923095e-02
-5.015065147099363047e-02
5.193376400440621876e-02
8.073901327364295388e-02
1.640701587732936936e-02
-2.936809729217659121e-02
-1.046064629105893616e-02
4.093296181291476016e-02
6.625632346050655541e-02
5.110263049482918762e-02
3.941419149038444952e-02
2.671208513910884944e-02
-1.725238953478608166e-03
9.147144335408348079e-03
5.002012067676944035e-02
2.683645645991627332e-02
-4.658444048672666371e-02
-8.097291169257354870e-02
-8.158269309456107898e-02
-7.665771210927685431e-02
-4.687723372399963534e-02
-6.996987970550840735e-03
1.734393275270641743e-02
2.980785325892207349e-02
2.465513463753940537e-02
2.362730204320913005e-03
-6.355218498206007850e-03
1.798755547037540065e-02
3.050573821123690743e-02
1.414338001434247913e-03
3.348300852808771752e-03
5.003934585050806572e-02
4.571328272127896802e-02
-7.869590174574329910e-03
-3.699151537282526631e-02
-3.551418330799629292e-02
-1.596061884854913654e-02
2.829907964283409193e-04
-1.238948483230862749e-02
-1.387066292777415846e-02
9.463538892616722362e-03
-7.062143376712183909e-03
-4.486493005252863847e-02
-2.919698208479933402e-02
-1.120322168628050744e-03
-2.260438432575158016e-02
-5.349459097839021765e-02
-6.096152811491648005e-02
-8.309732336374138495e-02
-1.299039372178573126e-01
-1.541823258103120486e-01
-1.395239596708059693e-01
-6.821805971520994438e-02
1.020023659735577459e-01
2.555174730490540336e-01
2.323638957122014514e-01
1.484277962497710379e-01
1.637372323803253371e-01
1.939619859409237312e-01
1.619322455885622847e-01
1.286559279446961856e-01
1.047658167277978614e-01
4.831977101813446362e-02
-2.381753502803951594e-02
-7.461959125595737929e-02
-1.042194636646954775e-01
-1.213533793388033022e-01
-1.265778745901004476e-01
-1.279939466791187863e-01
-1.274911015721202912e-01
-1.141723520254339375e-01
-8.807397301611161189e-02
-5.901836921995535362e-02
-4.024157799439820327e-02
-3.261093680890126550e-02
-9.863216040405877599e-03
1.362213127065800382e-02
4.598645301658363382e-03
1.417481147154719956e-02
3.243749390449505304e-02
-3.507469707802891856e-02
-9.756178502059750790e-02
-4.636032077199167545e-02
3.233505136525190865e-02
1.182743964451176688e-01
1.824214785408391215e-01
1.065927970728147850e-01
1.361933633499760876e-02
3.943917483420041059e-02
5.006508634178087613e-02
1.048381209650009992e-02
1.361807981586216076e-02
1.451226050601361547e-02
-1.750179850823888744e-02
-2.427235579446572825e-02
-1.658496994109978639e-02
-3.026075145529001642e-02
-4.701338611873477624e-02
-4.263521188156411262e-02
-1.610181471465167366e-02
4.863029815441181208e-03
4.741300630922261859e-03
1.732879589609144858e-02
4.077925477926212100e-02
2.575872133180290985e-02
-7.505005970515991713e-03
-7.310583129986072091e-03
9.737956359780759741e-03
1.108627760456733918e-02
-1.080528921521201752e-02
-3.776778960037847910e-02
-2.870234801630301008e-02
3.432813967832399997e-03
1.320757271174806576e-02
1.340996798854523879e-02
1.388336208736038954e-02
-3.707053040858413959e-04
-4.742133935112085794e-03
-3.417373263040999164e-03
-3.508544749036295735e-02
-5.691562752351300020e-02
-3.525787984303731248e-02
-3.557934750883164077e-02
-6.110113153597937496e-02
-4.204595914872154283e-02
1.839288560004824751e-03
1.123773078710652365e-02
5.615434251154353268e-03
2.962800701924668545e-02
6.121508703734677287e-02
5.068295975154665789e-02
2.135923344624781478e-02
2.397114918109626361e-02
4.069911442414243102e-02
4.226447069061215617e-02
2.990064952389532432e-02
-5.824825829093672677e-03
-4.729031437724330600e-02
-5.443976240227576396e-02
-4.724244083532055938e-02
-4.077379390998404213e-02
-1.169857383592845697e-03
3.548986860901776758e-02
1.839962964825608838e-02
4.447182226904615801e-03
1.454184243342800803e-02
-1.236461154630603444e-02
-3.925817799286387966e-02
1.280412699737556656e-02
1.032741185771709619e-01
1.483048768098429449e-01
1.160799814877851721e-01
4.624903407123043264e-02
2.577208126138216815e-02
4.697145616363943010e-02
8.239083669092256770e-03
-9.262265969447829039e-02
-1.533182758158709025e-01
-1.253744225074278351e-01
-6.624198584851091753e-02
-5.169627329589351200e-02
-6.728324595483971271e-02
-5.815095954762395519e-02
-4.122091980888160923e-02
-3.378200275203961656e-02
7.001760080613882858e-03
5.888843215837945289e-02
4.958687759789259797e-02
1.778170870351725857e-02
2.591011978883346611e-02
3.474811240774996340e-02
2.740725273253890107e-02
1.774371648543809563e-02
-2.771098923096606756e-02
-5.792133906864421755e-02
6.515132691555167166e-04
3.746321698290523000e-02
-1.581645490522735203e-02
-2.335914953968589586e-02
4.521373440800771637e-02
6.988092258545940128e-02
3.840193465994903854e-02
9.046778470831122465e-03
-1.185154440347443300e-02
-1.907633341193463311e-02
-7.496377328021684716e-03
-6.063115808764408740e-03
-3.344355764292524045e-03
3.538540012909424659e-02
5.085357100978820516e-02
8.815257421214332464e-03
-8.012901241048343837e-03
3.621964805937169518e-03
-5.186601748010704477e-03
1.877666700026007704e-02
6.194511884750081993e-02
1.866838398123715076e-02
-6.299497128617738417e-02
-5.418775429861879406e-02
-4.695652346218876297e-03
-4.271538759861506079e-02
-1.161666968682728146e-01
-9.501716352175856861e-02
-1.819036030913397106e-02
1.683890920924267787e-02
2.964586838188651430e-02
3.156337108758910243e-02
1.085905151611341393e-03
4.989598383658630509e-05
3.921950616382447602e-02
3.583782072099993277e-02
6.653146927290199894e-03
2.172942911788966133e-02
5.488992101885536989e-02
3.398376829597460347e-02
-3.067817220576063778e-02
-3.366312864076289463e-02
2.368134762893044434e-02
4.115511846273317564e-03
-7.008920228220930082e-02
-5.199499979497701485e-02
2.260169146649606761e-02
3.394744329000724814e-02
-1.142560709484303702e-03
-1.729023684719331599e-02
7.407227674301066975e-03
5.706437985526614798e-02
7.332782443417668050e-02
4.875872559046046106e-02
5.630273924731479113e-02
8.213653674903506618e-02
3.328290914179437426e-02
-4.538759797434909621e-02
-3.643245083515313232e-02
1.274087366214253156e-02
1.846911762256046819e-03
-2.555362796560577479e-02
-2.135181300279761357e-02
-3.013816065515169049e-02
-5.152655364584781544e-02
-5.433001201916858036e-02
-7.199771476162625250e-02
-1.086959454993104285e-01
-1.132862012285977410e-01
-9.765104509578134695e-02
-9.911414842509225220e-02
-9.217551953438531120e-02
-5.685838255125018337e-02
-1.407835821455247563e-02
3.154455109126613754e-02
8.518048362753209701e-02
1.301483300027166390e-01
1.491058670624277327e-01
1.514413453386091180e-01
1.573209018661054504e-01
1.538054859153063780e-01
1.076024877070248659e-01
3.183841302569520582e-02
-2.277348662936718587e-02
-4.666919499567858537e-02
-6.726949619305286343e-02
-7.502028641830743583e-02
-5.712639587065915930e-02
-6.599705581209197591e-02
-1.000255216410110004e-01
-5.812126879151236630e-02
2.336379340817271860e-02
-8.262411700373367696e-04
-6.467532382035931504e-02
-1.683620449054050450e-02
6.628216101361140977e-02
6.041618506194031124e-02
2.867523922095931502e-02
4.601548274867280075e-02
5.174913270783688957e-02
1.078003179031622460e-02
-6.071544426888468918e-03
1.465735858698081692e-02
1.178797070933171320e-02
-2.863180762843579863e-03
2.959922699463260996e-03
-4.873041846922264789e-03
-3.269547499343232466e-02
-3.628982497192520529e-02
-4.210244515454056313e-03
1.908218246817379449e-02
-1.017350009296034107e-02
-5.157804618469948726e-02
-4.587137179542535165e-02
-3.543523500331709208e-02
-4.443711249913483152e-02
-1.085500879947731007e-02
2.993414582622682535e-02
-5.485740621657755889e-04
-2.516257251129552439e-02
2.248711449797185027e-02
5.080606741996545467e-02
1.032372354294017885e-02
-2.718266345578718157e-02
-1.885895024580965668e-02
8.076506567888556282e-03
1.948539442863874566e-02
-1.072725441618323575e-03
-3.018890444004047532e-02
-1.947680527656456273e-02
1.272057589488855694e-02
7.753567508098616404e-03
-4.787917848519093571e-03
3.175325711493724723e-02
7.073639801933920279e-02
5.182556326899072363e-02
2.162458152186801791e-02
3.473302954335453357e-02
5.024679764264729231e-02
2.943267020843568296e-02
-2.318658935082345239e-03
-2.468348395594555794e-02
-3.018700844086299670e-02
-2.387988600272018119e-02
-3.777154076819098233e-02
-5.948055432634066775e-02
-4.764858366712224069e-02
-2.502808071353704311e-02
-2.109779981218100689e-02
-1.831491664178711357e-02
-7.241617677632114156e-03
2.949561234761415018e-03
-1.408476177178096499e-02
-5.474990983719563165e-02
-3.904962417221253396e-02
3.069497555261805136e-02
4.184130533457906115e-02
-3.937140755578411033e-04
-8.837392339593309540e-03
1.310735894654675021e-02
3.490700197117803383e-02
2.653782684828670871e-02
-4.388553085397796372e-02
-5.711534438392169150e-02
1.075727964958007044e-01
2.374737809893719132e-01
1.249756911977470131e-01
-1.473104623453616070e-02
5.993943531278675407e-03
2.631285446267358358e-02
-4.437560369237142366e-02
-8.663140053461074186e-02
-7.140037901505401352e-02
-7.311907620521963802e-02
-6.914886728513700009e-02
-9.526095196219708933e-03
1.279980723136967154e-02
-5.951911834616614716e-02
-7.929268587762915155e-02
1.628800775129926950e-02
7.616309302283508220e-02
5.204895983141646226e-02
4.033130801270825433e-02
4.246166708399739392e-02
1.646127638998170356e-02
-3.236197769827539074e-03
-1.617819280949223462e-02
-6.679657515349517183e-02
-9.606700670858682456e-02
-3.127075324302421022e-02
3.000039543664449748e-02
5.852063805014745199e-03
-6.695678492484568797e-03
3.614546906967231604e-02
5.641283939001685149e-02
2.744063171428886422e-02
-2.310459834512675406e-02
-4.533218500673882878e-02
-9.425571646614408494e-04
4.775580164281401085e-02
3.461880680950510381e-02
1.835516928802096576e-03
-1.521318749295406947e-02
-3.425941895735316878e-02
-3.875025069141452977e-02
-2.079870224644879417e-02
-1.822737284120814344e-02
-2.058735357374857564e-02
4.077297373298001577e-03
2.702743777903813746e-02
3.222465191275555862e-02
3.535135425775579043e-02
2.905359447991601868e-02
3.184040280570951675e-02
4.244941130978396177e-02
-7.147953124245388576e-03
-6.620160016753072474e-02
-2.348208158691502540e-02
2.881718929943492824e-02
-1.703038841682139037e-02
-6.536107634934142097e-02
-3.336374852811105352e-02
3.357847167776745190e-02
7.382082368788417392e-02
5.210585411988550436e-02
-5.130423755851133694e-05
-1.395782780012063025e-02
-7.557054964336416825e-03
-1.357639163163928964e-02
-3.688226827141650489e-03
4.407775919712648115e-03
4.252123915025112985e-04
2.480385112899067407e-02
2.225892714893457081e-02
-4.360687874116094681e-02
-4.819874548851369594e-02
2.292559539659732443e-02
1.813850579088091552e-02
-2.758565918493802865e-02
2.042817017615279618e-02
6.605591222563390874e-02
2.282965340002005364e-02
1.942934432846200182e-02
7.386660924303210807e-02
4.819062725971618583e-02
-3.155202366459010366e-02
-2.390436309821773742e-02
4.229788799738602029e-02
2.571447629278701685e-02
-6.314321427535253550e-02
-1.024335660452361241e-01
-8.203026986662606546e-02
-7.348818778384841321e-02
-8.507255356025471282e-02
-8.289776701596413000e-02
-6.981640300177913150e-02
-8.579501987834683985e-02
-1.428033738734422742e-01
-1.755869411311742345e-01
-1.169215618331794077e-01
-1.925942740311242796e-03
8.621968718317196689e-02
1.273540116567159763e-01
1.630844313065604179e-01
2.211415061584430797e-01
2.489024489258140627e-01
1.797201043759352745e-01
1.073905103144926626e-01
1.650882458169203593e-01
2.196634046969189458e-01
8.505418903177422441e-02
-9.784035431862019017e-02
-1.138244733650465162e-01
-5.149582424708286366e-02
-1.026672779454682882e-01
-2.087935353983499664e-01
-2.050549470528341134e-01
-1.166439009710098507e-01
-3.773712723269808528e-02
9.940067816939134743e-03
7.473846447240972690e-04
-3.834644397083368517e-02
-2.052020727424705079e-02
3.667337243103466898e-02
4.931503722948094026e-02
2.235706913337876314e-02
7.807990967963257187e-03
1.691700082311996256e-02
3.909905979634489132e-02
4.899435167583236078e-02
2.482575623791807157e-02
1.767529661167248009e-03
9.113871975859931876e-03
9.650628871430540212e-03
2.087834029579422029e-03
2.871147042196216595e-02
3.364232086376967718e-02
-6.281662927090585213e-02
-1.583353861172547283e-01
-1.010055390919567669e-01
3.828323904289063218e-02
9.150559284687204142e-02
5.433583057606450328e-02
1.538591126698017619e-02
8.067003266874889483e-04
3.915207347895376978e-03
2.507235367515560018e-02
3.893838558976490949e-02
1.560226304864170341e-02
-1.854799112565850769e-02
-1.835607711137702408e-02
-4.393185195512748324e-03
-2.169529172297910910e-02
-4.872250876962522931e-02
-3.347233971154761623e-02
8.768097172397409586e-03
8.324028319070059245e-03
-3.123782053557509764e-02
-3.026149495994970989e-02
8.471563209098790029e-03
1.996639201656012774e-02
1.476616311820415708e-02
2.440529141702542371e-02
3.641763744340927728e-02
3.529055643270610082e-02
5.922155228668621492e-03
-4.029760232222429073e-02
-5.859235879559545473e-02
-4.590699024552558766e-02
-2.960085726306954310e-02
-1.715331827115513380e-02
-1.808648489223935174e-02
-2.978607914822099800e-02
-1.263644647837009263e-02
2.360184065018743407e-02
-9.692032564259010774e-03
-6.210739124505017250e-02
4.831415164796236394e-02
2.200518541807318096e-01
1.830474758836855564e-01
2.311010294009692434e-02
-2.656533872457989345e-02
4.065486642948444584e-04
2.964747735305117357e-03
-1.243336703969317829e-02
-4.142444463472465255e-02
-5.962185889496349200e-02
-2.783673655738450048e-02
-8.132481468969384591e-03
-4.891815888086922803e-02
-6.476707474873730219e-02
-1.648764293933633468e-02
2.896942184952187860e-02
6.476596277290302961e-02
1.095271916319809219e-01
1.068405449352374109e-01
4.199932121154927728e-02
-2.018307130531510687e-02
-5.648869805881606698e-02
-5.929040707479819872e-02
-1.215563243292108221e-02
-9.652662574237594328e-03
-1.212021923624293090e-01
-1.803208215346529530e-01
-7.847356788743470313e-02
3.030930294461779435e-03
-2.761881193695012171e-02
-3.530346365987785395e-03
1.049101552624065736e-01
1.112188344989128858e-01
1.962447230224328640e-02
2.216904516612413362e-02
8.494526915787736776e-02
3.624592708609394170e-02
-6.959397620151160091e-02
-9.411599440130351268e-02
-5.071581633689913049e-02
3.923144554604761358e-03
3.812291143296313300e-02
2.992231368784827039e-02
2.221019934106770177e-02
5.068959585652960814e-02
6.632418196427489199e-02
4.862588592960557371e-02
3.397652734216899395e-02
1.450925813318101193e-02
-3.278523167842042896e-02
-7.536245867461308090e-02
-7.402238335983538087e-02
-3.688897292420041663e-02
-5.502798041489228437e-03
-1.517422746324938523e-02
-5.159161819052680148e-02
-6.384520802514367932e-02
-2.679434768711712322e-02
3.868009433721882745e-02
7.939495723208513100e-02
5.874699502144506424e-02
2.250926164004048158e-02
2.715874966558767464e-02
3.062273106766530764e-02
-9.303146552170965186e-03
-3.373859262633923523e-02
-3.483826672036300504e-03
2.706999736473319346e-02
2.237198319470621449e-02
1.133838915461203578e-02
1.163805343484968294e-02
9.217991314294403035e-04
-2.985467918258123340e-02
-4.038413860618848827e-02
-2.113252023084782882e-02
-3.035811289630800658e-02
-5.714430729443974177e-02
-3.363589003856461146e-02
-8.952541949076419509e-05
-9.640751094222977866e-03
3.620149133994245844e-03
6.048361204172765515e-02
6.840428292288786016e-02
2.221308123117991459e-02
1.245895021615620740e-02
2.377186491483144690e-02
-1.618217895700033160e-03
-3.181579330942213221e-03
4.980464314216662136e-02
7.106099032195987986e-02
4.104144935812002043e-02
2.239465772561981260e-02
2.917650894725246427e-02
4.264814449869703400e-02
3.765385256348593307e-02
-1.237062691532881537e-02
-6.029731208443134260e-02
-4.481115123678783285e-02
-2.960061996542258031e-02
-7.888997609592507398e-02
-1.115633837285932850e-01
-7.614941057029216143e-02
-5.015497399937415834e-02
-5.464983614978576737e-02
-3.247613231407030926e-02
-1.334458397957625012e-02
-6.176612024934204082e-02
-1.275675219024383078e-01
-1.300630314070706783e-01
-9.461969946995381353e-02
-6.842073485652508391e-02
-2.020136218167690317e-02
6.196272151823653540e-02
1.174798750156999666e-01
1.422705151101088250e-01
1.980457241813742275e-01
2.389946560767090000e-01
1.726888847878661759e-01
1.011962186107041028e-01
1.408155972682465784e-01
1.481346596961451711e-01
3.007804069510862030e-02
-5.618147342325496840e-02
-5.363451302260747316e-02
-6.643782915020091107e-02
-9.899719232237172428e-02
-9.249525747366066364e-02
-6.680711718641034469e-02
-7.136195816267673631e-02
-9.913694706605707951e-02
-1.042953888933438877e-01
-7.286891022282136754e-02
-3.277952316530932664e-02
-5.064309333528064019e-03
1.359775539773298847e-02
3.011939178243380755e-02
4.071821991046817996e-02
3.287817431466899532e-02
1.612487979773587557e-02
2.827290145372872085e-02
5.725955948755531710e-02
4.331525932877243468e-02
4.494868813868253127e-04
-1.697762482508593032e-02
-1.399375285610977501e-02
6.937010885051291334e-03
3.328482045842837134e-02
5.970354562388332717e-04
-6.054211690475361923e-02
-5.040777184238813546e-02
1.434621329803553030e-03
1.421356302312930947e-02
-2.574326481861819588e-04
-8.122395347741596938e-03
-6.552559767460299639e-03
-4.429527520887668011e-03
-1.514358235306415695e-02
-2.244150492545857190e-02
-9.741854403497365172e-03
-8.824107508038548167e-03
-2.089569958731561303e-02
-7.926550111298136594e-03
9.211779243369909095e-03
7.374547118762893143e-03
2.273908745855088634e-02
5.038787724803286960e-02
5.105090511042065238e-02
4.360044961473785730e-02
4.223718940053627913e-02
1.805803500717170079e-02
-1.360698450477744632e-02
-1.325456067962159194e-02
-7.102734497716750930e-03
-3.429280893492604038e-02
-6.324609767130058569e-02
-5.345001016302920738e-02
-2.104875421512482705e-02
3.515123646761795367e-03
5.730799233026701196e-03
-1.208491507207609152e-03
8.868762608243218465e-03
7.960675035386624576e-03
-1.665306971655968263e-02
1.577976728857432556e-03
4.479301203799965214e-02
2.661922569311832992e-02
-1.230543030946253114e-03
3.266342138131723971e-02
5.362062845263720207e-02
1.560948350644659685e-02
-1.219328850545613879e-02
-1.091897608465665359e-02
-2.657907727618647950e-02
-4.794356937480928615e-02
-4.002406139459233070e-02
-2.806713704585636626e-02
-3.984821029097140865e-02
-3.840117281800134452e-02
1.157251565398030244e-02
7.203853162640758145e-02
8.967023086113626307e-02
7.537968595753105627e-02
7.711765016962655872e-02
9.411104815262318068e-02
5.040797213397120446e-02
-7.324214048074322025e-02
-1.370293510039099216e-01
-5.920500227529282289e-02
9.859257122648705171e-03
-4.774333212118037767e-02
-1.121213947465347777e-01
-6.992031826246071502e-02
-4.169347861172554605e-03
6.197702381826104834e-03
1.915703924548769338e-02
5.714915221340339385e-02
5.236206146599803324e-02
9.034147647567221384e-03
2.811219096700868884e-03
3.009545221550051844e-02
1.726233864338642607e-02
-3.964208408030157893e-02
-6.247278022708635525e-02
-3.211845268396967129e-02
-9.498782072494226653e-03
-3.965701893873202315e-03
2.425724626793219693e-02
6.312741172564892422e-02
6.574767899715550090e-02
3.483747383479748883e-02
1.889405974814609493e-02
1.601359067809634759e-02
-2.022659665552218808e-02
-6.241460108945495050e-02
-3.825970675427958767e-02
1.869424131329685407e-02
1.356807453600324120e-02
-2.603815813034610765e-02
-2.061116614846410927e-02
-5.792394281947045760e-03
-1.549209978507166269e-02
-4.962244875413400827e-03
1.363337292882488977e-02
3.637440280070854126e-03
4.461652809265537374e-03
3.337018944121392799e-02
3.279786171435531555e-02
-1.135606886959998098e-02
-3.166344831221230838e-02
3.132440950198864260e-03
3.109678127246415236e-02
-6.551260060589653676e-03
-6.718760124035562387e-02
-5.043345167693771836e-02
3.676450405274841321e-02
6.095049751123532422e-02
-1.842130825927932800e-03
-1.997598953762226917e-02
2.474917076725569043e-02
1.859374731368275413e-02
-2.361356441316016935e-02
4.434728498991259531e-03
6.049112410370575260e-02
4.029786112836088174e-02
-5.482182667557338775e-03
6.032966328109497754e-03
2.337420232583459906e-02
1.974491024827391278e-02
4.509862597258287864e-02
3.870523719629602455e-02
-4.384406685409836940e-02
-7.032945743968815888e-02
-1.370833574114770428e-02
-1.982708987359114300e-03
-7.832547156811999617e-03
5.100390761813076990e-02
7.258004593058670073e-02
-9.692796286338286466e-03
-6.383441216019167253e-02
-3.037173904931184110e-02
-2.482339164701460182e-02
-7.528396171029766437e-02
-8.000157051978221134e-02
-3.566929368955514684e-02
-3.710035084103050634e-02
-8.360786674515389982e-02
-1.070761571937620671e-01
-1.140637332027482215e-01
-1.141458769464223089e-01
-6.568784667852033132e-02
3.825406345441161732e-03
3.751786909958217120e-02
6.750471319154173477e-02
1.203458893269115371e-01
1.500249191741933608e-01
1.368825564403549078e-01
1.279273876030384838e-01
1.574304603704902161e-01
1.549284632064843181e-01
4.256261159533898664e-02
-2.957668569220513188e-02
1.031851022708757670e-01
1.931911568170585625e-01
-7.059498705739373180e-03
-2.134858864930776479e-01
-1.659304229279168486e-01
-6.535774582978259861e-02
-7.756030003875505341e-02
-1.150338509455997998e-01
-1.028213007198053031e-01
-4.325029116159997966e-02
1.153842570712809712e-02
6.158546328993822622e-03
-2.376886658663751942e-02
-1.755375365371017807e-02
2.065356158357216018e-02
5.958653025935702757e-02
7.429842762080182683e-02
5.428915193351963736e-02
1.453869280661921129e-02
-8.847449366993141023e-03
1.102067534721361958e-02
3.932681640306774640e-02
2.593710852669384517e-02
8.343721643741697225e-03
1.736644833366762786e-02
-9.488813158014666044e-03
-6.088448972373895068e-02
-4.569538898343317168e-02
1.039547893710221146e-02
2.785858018237532402e-02
1.393138485627032526e-02
1.175817628560791965e-03
-6.960378112613275180e-03
-1.899314877395543583e-02
-3.784890227705460519e-02
-4.403352434999110998e-02
-2.432493899603082460e-02
-4.555332192959287915e-03
-1.473787973262069909e-02
-3.909139798355130285e-02
-3.797681500761009715e-02
-1.826127337176004090e-02
-1.538038614933447470e-02
-1.126000995187410869e-02
2.646639787153870493e-02
5.743058545758224914e-02
4.171548437233017076e-02
2.716302589586644389e-02
4.831753426802980894e-02
5.668282333560111658e-02
2.581229922596527462e-02
-1.392020688521117266e-02
-3.880821521801338519e-02
-3.221132766741049980e-02
-7.195224460794609131e-03
-2.079684146749530976e-02
-6.347460308378864713e-02
-7.314733128925700323e-02
-6.059318983773755857e-02
-1.191820366177162235e-02
1.203384209420924750e-01
2.177622429117567482e-01
1.473862759311941328e-01
-1.129584158317408459e-02
-1.170845556794584408e-01
-1.040382916413608999e-01
-7.876911823658155898e-03
5.789673101815495659e-02
5.319381211428163281e-02
2.786361428517047933e-02
1.090427908538265864e-02
-7.062392000697160881e-03
-3.743492966254275550e-02
-5.293275628110112596e-02
-2.427749324563949901e-02
-9.981676467901842362e-05
-3.031636060751236733e-02
-6.295115631768162523e-02
-4.926544681935166037e-02
-3.561659365171528091e-02
-4.168738098477611093e-02
-1.754771078260197736e-02
2.252135208881201126e-02
3.265452663086072099e-02
6.183598739665495392e-02
1.248495592132607690e-01
1.206566321867188901e-01
5.121560502658478037e-02
1.172899909495314467e-02
-2.669838546600276571e-02
-7.686552149857882321e-02
-5.793683729888498418e-02
-2.533138598887398757e-02
-5.081186235497684583e-02
-4.580352564354300826e-02
-3.491666883883182831e-04
5.451500364790445863e-03
1.001603491646657108e-02
3.512198948406645288e-02
1.376534866207411792e-02
-2.571475627653207682e-02
-2.469647637702033008e-02
-2.783000855134409868e-02
-4.787311774846372825e-02
-3.220306982224830500e-02
1.018284714265269356e-02
4.668126083467080689e-02
7.454910485246576957e-02
7.638250129504874086e-02
5.128665519463182498e-02
2.216544923163943012e-02
-8.319535412705443903e-03
-1.695187450484346436e-02
4.704779782429197033e-03
-3.971600308575099977e-03
-3.977573814272651609e-02
-4.279890112422846116e-02
-4.837950933860859365e-02
-7.584384745979955156e-02
-6.219058455841801336e-02
-2.242818539615526463e-02
4.569927414083617759e-03
4.191456387961568775e-02
5.888012316290287818e-02
3.589138185444619433e-02
3.261866843284841333e-02
3.103091619101046306e-02
2.080912168722220956e-04
-3.627100643499860458e-03
-1.600994983892298912e-03
-2.986001025465961217e-02
-1.302506494591287346e-02
3.997254741816344548e-02
3.555654022988505303e-02
4.643338335067297151e-04
-2.811011526261751603e-03
1.817017895267314040e-03
-1.715569963717240853e-02
-3.783887546543171498e-02
-1.698159503711291207e-02
2.074158674705508035e-02
-7.042867519663808043e-04
-4.981069294723439872e-02
-3.064105945496449490e-02
3.905942966077891043e-02
6.874989920996749104e-02
2.717744555768291520e-02
-2.434028717206205422e-02
-1.180604912169214843e-02
3.022402157572760817e-02
1.813914664951950598e-02
-2.300277148042468786e-02
-9.625789214614526718e-03
5.195913570651700814e-02
8.536041002505712072e-02
5.818052543274881971e-02
3.910643648877607133e-03
-2.802489847005722873e-02
-1.104635099828598331e-02
2.763086497923495505e-02
3.350099774389549839e-02
4.325318210786234692e-03
-2.320722064293897699e-02
-3.640373457689309589e-02
-4.141037170647335341e-02
-5.063063077731740774e-02
-6.922606427911204285e-02
-8.190373167604794724e-02
-7.872126870923464026e-02
-6.366632189532450692e-02
-5.137261787040269673e-02
-6.053345936855137471e-02
-8.557569567908548946e-02
-1.060551164153948206e-01
-1.071769098444430302e-01
-7.716478764027574766e-02
-2.453288855501255944e-02
3.109258294674415238e-02
9.411496620573674143e-02
1.571504397185761182e-01
1.784740853921910897e-01
1.725839945193744784e-01
2.002177046239837499e-01
2.075790793279407576e-01
1.059365692099238226e-01
5.595628738105509065e-03
3.316554279663493782e-02
5.962767302890804172e-02
-2.566913130447756597e-02
-9.605886986743988887e-02
-8.174086546635681017e-02
-6.157601744299811414e-02
-5.563945419311898399e-02
-4.839655748261625923e-02
-5.305672142786353046e-02
-5.825884270824226163e-02
-5.988546717857799739e-02
-6.338804395600954045e-02
-4.447075057624446520e-02
-7.967380090472358373e-03
7.176474751872952314e-03
1.570526889199678339e-03
-6.175063765149688133e-04
-3.950548851272776135e-03
-1.275262303277762375e-02
7.595636087599045433e-03
6.645359336743304757e-02
9.495302581626707816e-02
5.108857560383362612e-02
-4.397491454468212962e-03
-1.733115449838069227e-02
-1.522955202682460540e-02
-2.857536776899705089e-02
-4.684058626805474856e-02
-5.277618610524734133e-02
-2.925074596664262866e-02
1.476384256068434715e-02
3.372925641091251148e-02
2.289741192417229718e-02
1.450366301947769720e-02
5.281245103760348787e-03
-1.148426460410549403e-02
-1.779832588526638476e-02
-5.384169862012002858e-03
8.839795726499902889e-03
-4.391604478549038411e-03
-2.693694647801886735e-02
-6.930298547780963485e-03
3.035805431334252097e-02
2.653177306996212792e-02
2.956074256070714487e-03
3.589390629495553802e-03
2.604440496681386524e-02
4.303502654045070208e-02
2.944522541264786922e-02
-1.079626393655439389e-03
-1.086903373322159645e-02
-2.924560465091437245e-03
-6.261130736157519659e-03
-1.880090639385864626e-02
-2.268999717785053633e-02
-3.031312461079971321e-02
-4.633718780896801948e-02
-3.157218269368373270e-02
9.907693902129808758e-03
9.074860563259642618e-03
-2.934320266084364942e-02
-1.656169465459473786e-02
3.444783270037190398e-02
2.712689537938609008e-02
-1.391646038014114281e-03
3.269841059447211457e-02
6.769342226117178174e-02
4.817657544784505197e-02
3.054493695188233854e-02
2.941925268837864912e-02
1.556445082272375161e-03
-3.783218383618750652e-02
-3.689472901574434444e-02
-8.286224948690402298e-03
-9.975046842326591723e-03
-3.576726548306585762e-02
-4.506615955096549692e-02
-5.635144517717069479e-02
-7.479763522354099248e-02
-5.664909000012487844e-02
-1.948693526615988963e-02
-1.484470126614412418e-02
-1.976638841722508366e-02
-2.207049355406632933e-03
1.510318246760791912e-02
4.569747129601346713e-02
1.160865132792944926e-01
1.415658388414224034e-01
6.542115066648393484e-02
6.269582424220989172e-03
1.997872259876284917e-02
-1.083026184200068000e-02
-5.779665150489888409e-02
4.098727050611147144e-02
1.633888696028447662e-01
7.776222606278920813e-02
-8.618857274631828991e-02
-1.050153361024658422e-01
-5.232678719726695238e-02
-6.780014534958059280e-02
-1.072193562724725324e-01
-7.586805020829789914e-02
-2.765281763309151639e-03
2.442352831829316950e-02
1.545225943509850527e-02
3.073188977983934075e-02
4.534495746982491332e-02
1.052684169195092917e-02
-3.422153729129370076e-02
-3.391474197536035323e-02
-3.280735677921136663e-03
2.513837313261712419e-02
4.006992646097774086e-02
2.889793787848043277e-02
-1.246937663749372351e-02
-4.078060695900116717e-02
-3.213821783414809105e-03
5.087108369912195921e-02
1.845425603450930735e-02
-6.739239446344627571e-02
-7.283508726211122830e-02
7.984580802241833530e-04
1.026305594290450457e-02
-4.844587284160509905e-02
-2.167791047821438291e-02
5.958596545427331803e-02
4.269950254652159216e-02
-2.027638010254517731e-03
2.753604887598027490e-02
4.672796452344078755e-02
3.255975272453833641e-02
4.788090221153307180e-02
5.115049033789210303e-02
8.783753523171971070e-03
-1.930442748824783700e-02
-1.928438380248088252e-02
-3.020500521715373254e-02
-4.349475649182853870e-02
-3.508290865533705838e-02
-1.852937952979281239e-02
-1.421141550602821393e-02
-2.018271485592511988e-02
-1.450169262681511723e-02
1.331649968162549984e-03
-7.047016982669529646e-03
-2.135740363829526783e-02
5.601177477079035717e-03
3.413429230501757727e-02
2.046989858070564355e-02
1.341418404770320684e-02
3.441126868301019881e-02
4.492778210744378248e-02
4.178375532435072565e-02
3.547783579547730132e-02
2.276829227742614703e-02
1.817055263284717698e-02
3.043391193143200196e-02
3.088378918579722660e-02
-7.043962858098710977e-03
-5.743196616847560942e-02
-7.545820851046163014e-02
-4.293654251624538787e-02
2.455233602131294546e-02
5.736219037403757909e-02
3.524795974088997669e-03
-6.215423506121641600e-02
-4.108535743449787114e-02
2.456230481730777016e-02
3.257186820037759334e-02
-7.687348465507632539e-03
-2.896059601791589957e-02
-4.653847806359623362e-02
-8.975675987495312924e-02
-1.085981860843673874e-01
-8.513599569700268377e-02
-8.967201294872040318e-02
-1.313176545841914789e-01
-1.373117294699861546e-01
-1.245049380983283410e-01
-1.186561802694108270e-01
1.561140286820290532e-03
2.105781162159707232e-01
2.483245214392853228e-01
1.217172896336384813e-01
1.032429336486918592e-01
2.071594027090337686e-01
2.514600355155904299e-01
2.179330606333506615e-01
1.777583878813805973e-01
1.266023442653753661e-01
4.626716439389391700e-02
-3.660157027030717936e-02
-9.460755304456502923e-02
-1.308098512735506314e-01
-1.539702469410291763e-01
-1.602925050664360529e-01
-1.507329636667065209e-01
-1.381795189127973389e-01
-1.212443946286062557e-01
-8.955278303509790760e-02
-6.185143388674337050e-02
-4.252745062170594503e-02
8.296538850457797071e-03
6.964538451514507011e-02
6.367731128641127003e-02
1.273842561960184666e-02
1.581784299703788144e-02
7.018898177770524494e-02
8.295706305245291456e-02
5.176032900798577946e-02
5.150854046427115474e-02
6.870815075752603751e-02
4.807234311473351784e-02
1.172986181709816979e-02
-4.778555603882954361e-03
-1.514315738790948489e-02
-3.942922835960357281e-02
-6.556773202159894842e-02
-6.583428186375020474e-02
-4.826966388069406366e-02
-5.144382851122107636e-02
-7.392060236186916156e-02
-7.460167034652820384e-02
-4.574527546168699610e-02
-7.944135881981069514e-03
4.366155705720153185e-02
9.687930338523828566e-02
9.394718618687011857e-02
3.905999588361938613e-02
2.005150209288459814e-02
5.207903037497001175e-02
5.162367483515056810e-02
5.621633748011580639e-04
-3.680887150245466810e-02
-4.071594068955119994e-02
-3.201978209463031411e-02
-2.214283348458128547e-02
-2.539142481767225207e-02
-3.004203148694186559e-02
-8.057993356985744191e-03
5.309067890433201778e-03
-2.931280295739255998e-02
-4.326573768501066480e-02
1.948044234272675382e-02
7.339550099469896449e-02
5.647662391456050035e-02
3.486332148051592139e-02
4.003954030567841160e-02
3.185725591447811922e-02
1.216245370365787344e-02
-3.452037366737346902e-04
-9.115307806483457717e-03
-8.021059155671127552e-03
-7.320283259357719674e-03
-2.074256665280227105e-02
-2.351275142091701492e-02
-1.256959330133828462e-02
-1.807622507053192884e-02
-3.749207030247771189e-02
-5.243439253897661662e-02
-4.901815469646519235e-02
-6.690368080603728909e-03
4.442425189745061870e-02
3.096452675271271077e-02
-2.875653150296223967e-02
-3.030210620912972622e-02
2.119313810474715218e-02
1.012934371703607533e-02
-2.914670811578124604e-02
4.032425070339950429e-02
1.258143621621307384e-01
7.237043353838462645e-02
7.920372267670153579e-03
4.471760685804420515e-02
3.847103784205983812e-02
-3.737308104688226440e-02
-4.320639135222473226e-02
-2.878204595870364688e-02
-7.375167546593913714e-02
-7.989885501510808619e-02
-6.048425476880060769e-02
-8.709246183528909779e-02
-5.010797758178577727e-02
3.995071068212954768e-02
3.241641167248508065e-02
9.217149678155667908e-03
7.648213719236530983e-02
1.143429078876514599e-01
6.120879778907352409e-02
4.403520517230396711e-03
-1.473912259095076088e-02
-2.442921332339685961e-02
-4.831462432184457922e-02
-6.343330946388861524e-02
-4.535701156640845749e-02
-3.797408497910718245e-02
-4.837024071658908853e-02
-1.535796238653567257e-03
7.766962437642142836e-02
8.720211465033818332e-02
5.063999815401675625e-02
2.580066948150823783e-02
-1.732424459012665494e-02
-4.333906052003822645e-02
2.433963665865888568e-02
9.505362683087595355e-02
4.750961931486945983e-02
-3.969362541160800090e-02
-4.814702409284245255e-02
-1.242308747923490109e-02
2.343924285390194383e-03
9.358247173170999552e-04
-8.077918576858569497e-03
-1.599646465316604052e-02
-1.409772033817406275e-02
-2.934065521930027606e-02
-5.411888808117532729e-02
-4.064328110291133556e-02
-1.248191182543098229e-02
-1.543324303478865733e-02
-1.452183230436739948e-02
1.877996154641403681e-02
3.691098542677642008e-02
1.777107426042549496e-02
2.640168718117844732e-03
2.272660102353731091e-03
-1.698922268668589825e-03
8.463805797452310375e-03
3.077523599140626065e-02
2.053531613249515858e-02
-6.514456816695228872e-03
2.461419865664300072e-03
2.474449987990454472e-02
2.368583398273946261e-02
1.975764558349218242e-02
1.606515092872892042e-02
2.557110398921078054e-03
4.183062825435994274e-03
9.793274402871083098e-03
-1.509829417337009427e-02
-3.499612606951486848e-02
-2.168309842724246150e-02
-1.668097539281642588e-02
-1.594158324734475107e-02
2.032909638935271116e-02
4.282954374378988155e-02
9.146974132531833154e-03
-6.920239477769788046e-03
3.073427147251061101e-02
4.862041579687594040e-02
1.860664716714719932e-02
-1.266063973210578529e-02
-2.934939602960418698e-02
-3.538330563601628509e-02
-2.338933365668563816e-02
-1.669494898040106007e-02
-2.260527129415523806e-02
-1.631187630184315757e-02
-3.216829515751985086e-02
-6.654312885324549509e-02
-3.787136494084221428e-02
-7.115755618111890314e-03
-6.870100556951402870e-02
-1.191514581129871769e-01
-8.673294496259101316e-02
-5.444048713575865006e-02
-4.844352508009770741e-02
-2.367748882876186123e-02
2.493054143132034800e-02
7.359695758206880045e-02
1.108519693065270345e-01
1.460663388558619546e-01
1.812275547736236225e-01
1.906342905599184845e-01
1.627714189486386132e-01
1.246629330713291267e-01
8.743068386355536126e-02
3.146983844309177158e-02
-3.099689862268616841e-02
-6.448035140878163873e-02
-7.382627088696354367e-02
-8.428323781684887717e-02
-9.412810803694690587e-02
-9.767043650207642147e-02
-1.108843671100122608e-01
-1.191189471090730867e-01
-7.544164296668699754e-02
-1.626123187680292986e-02
-1.565122428195176926e-02
-2.662945414107320205e-02
1.422735468106648554e-02
5.276807444747574904e-02
4.127309281776761485e-02
2.276425141541636027e-02
3.993125332145834594e-02
6.371953949326758515e-02
4.957223528455635686e-02
2.106156036509600898e-02
1.853776883872008258e-02
1.676869269366004084e-02
-1.526460727338753431e-02
-3.988047253606979287e-02
-2.359021770217179653e-02
-1.111114270383521153e-02
-2.819651286735736645e-02
-2.836427036871607896e-02
-9.117748208292964646e-03
-1.131658746825677138e-02
-1.905410954505325216e-02
-1.101217406785424437e-02
-1.254276489069668966e-02
-2.868290337580061203e-02
-3.494680840589529242e-02
-3.411769260368523876e-02
-4.632135095961598115e-02
-4.553665665248547711e-02
-6.284822414389610104e-03
7.889706322105229444e-03
1.674378734747399705e-02
1.351616544103940720e-01
2.118725660553092416e-01
7.752577106283303765e-02
-2.961205269102173618e-02
2.118112677192539317e-02
2.424367663837019571e-02
-2.286178020464172192e-02
4.050622363257792152e-03
3.019332274279526093e-02
4.138378881876877795e-03
-1.836474356998971103e-02
-2.736007581914900663e-02
-2.821156684290444805e-02
-2.659837428295407785e-02
-4.304724310451576302e-02
-4.620406067245975967e-02
-1.195517251703487674e-02
2.177516864008964201e-03
-1.746563277541273579e-02
-8.955870678215170980e-03
1.505648394222245529e-02
5.799325562098143344e-04
-2.275329208609207579e-02
-1.167901549932608141e-02
8.250827504595876008e-03
-1.023549773237296054e-02
-4.359260540377906529e-02
-1.315020319489130021e-02
4.736421808454316373e-02
3.819632485841759073e-02
4.429348313010424490e-03
1.395190200953663751e-02
1.024433610352588030e-02
-1.937223665015380333e-02
-1.536403867305578992e-02
7.679719996554053470e-03
8.679907873852754641e-03
-5.587735828528520021e-03
-2.437745404035754002e-02
-3.584282400323640649e-02
-3.160016148520661261e-02
-2.769953324363581479e-02
-2.620956463023169092e-02
-1.084960057819335695e-02
2.847324933511584388e-02
9.003881610775846256e-02
1.324843813111533097e-01
1.147605732764946096e-01
6.197913156774174925e-02
1.270404667145655364e-02
-1.326131534353778424e-02
-1.035652782684354581e-02
-3.701168543668906241e-02
-1.138555420253583167e-01
-1.332972515055720342e-01
-8.218802694143131915e-02
-7.360044806576920839e-02
-7.474446162780466751e-02
-6.935900696685091613e-03
5.043998125513003694e-02
5.999362598019597481e-02
7.960968893233566490e-02
7.223240500773416006e-02
1.219672408036111960e-02
-3.365151615322704935e-03
5.533440800842786417e-02
9.096846045851504636e-02
3.781605681389041407e-02
-4.691906588551302687e-02
-5.096566534336617604e-02
1.134662253928957198e-02
1.237674980570363688e-02
-4.035785835307152680e-02
-3.724582331517839462e-02
1.722634541815403972e-03
6.415947598479242696e-03
-9.826119067945771751e-03
-2.707671877247517719e-02
-2.845892233707414398e-02
1.114816294897407302e-03
7.398091888102567917e-03
-2.818410130959121684e-02
-1.921505442170604039e-02
3.690182441876131703e-02
4.045994231614334635e-02
2.401507693919722672e-03
-2.202080217873571971e-03
3.861007804289265030e-03
-1.496673102654526993e-02
-2.997742422450969807e-02
-2.066023636411706138e-02
5.437918806379747616e-03
2.592162853591968921e-02
8.903068435801232000e-03
-1.440916664707891752e-02
1.345699514500211906e-02
2.616837321793566429e-02
-3.586827852384231324e-02
-6.329928631592972310e-02
-2.180440857281583725e-02
-1.874285400238933155e-02
-2.540129962385363413e-02
2.900527895536868586e-02
5.923624132965747691e-02
1.901695602179695119e-02
-1.832595156762145683e-02
-9.003357020381332065e-03
4.277419249901886350e-02
8.458902377534903427e-02
5.496734582237702837e-02
1.031646303561596818e-02
2.559010886717361793e-02
4.243466591444626512e-02
4.968164026685165970e-03
-2.922318413725682323e-02
-1.818455034058924502e-02
-1.626471069056899602e-02
-6.026862222211089998e-02
-7.576533103552646198e-02
-8.188588681211975834e-03
4.144073870460529552e-02
1.695428064580535230e-02
3.349181810806404341e-02
6.952040069956938462e-02
-7.731496994475244369e-03
-7.295650130100257702e-02
5.990246095419170247e-04
5.048805325070252620e-02
3.018041880283844902e-03
-1.389779419014360896e-02
1.461731679342936734e-02
1.192760939651169375e-02
-2.610064302533634389e-02
-7.634768468157764054e-02
-1.192856596456345480e-01
-1.266958010419925174e-01
-1.131350665405378431e-01
-1.222602862777525945e-01
-1.398072606255151007e-01
-1.169948737652125731e-01
-5.526478986296782386e-02
1.979328753157726453e-02
9.961971851314693760e-02
1.632454082346209701e-01
1.997564842755193415e-01
2.173145418449682342e-01
1.906569550534245316e-01
1.488934807171375108e-01
1.837664147896434230e-01
