1.777467926013302224e-01
8.651388203920808151e-02
-8.285825348248541250e-03
-4.939050009692692866e-02
-7.761897888037302962e-02
-6.368344371390224912e-02
7.014004395992549934e-02
1.940544631963359579e-01
1.479749755948261136e-01
6.496352662197954486e-02
8.520007043946187242e-02
9.274009954480669227e-02
2.952621994875051503e-02
2.462803881451908206e-02
5.061087343811482980e-02
-5.009011553452342308e-02
-1.574445185906830913e-01
-9.395305448868830622e-02
1.368405768117475496e-03
3.773833136769189078e-02
1.035921716709336943e-01
1.649589384247915902e-01
1.935580808474318404e-01
1.204942222847545930e-01
-2.280563432743716590e-01
-5.758375340439145784e-01
-4.410948793920333455e-01
4.347122520488667929e-03
2.407140739073643232e-01
1.294860815354353933e-01
-6.862853426279685864e-02
-9.958311211668634255e-02
-1.248409516575715514e-02
3.611532242368402368e-02
1.943557368834572183e-02
-3.814411680411088773e-02
-7.216525823811509310e-02
-2.774719068428610838e-02
9.462361001469469374e-03
-2.407076060699873260e-02
-2.918599236371810512e-02
3.395970873328430645e-02
6.301181167918890047e-02
6.307007266663408607e-02
1.098722697813858395e-01
9.708140675498948269e-02
-1.771116892765804002e-02
-2.467116719985188930e-02
9.283644543100913471e-02
1.043630553381089954e-01
6.944912999812546256e-03
-3.216190773645491441e-02
1.903453415981231495e-03
4.144627056435169765e-02
5.146204319207967753e-02
8.685594916817987454e-03
-6.157075570999066827e-02
-8.471615812716540295e-02
-2.273148064690373726e-02
6.931011654714991366e-02
8.740777192506578308e-02
3.793298449461154909e-02
4.259233481306717861e-02
6.898323575749829017e-02
-3.402647272582316057e-02
-1.575457801377237177e-01
-9.927147723976931237e-02
-3.088575658432672622e-03
-7.469355385413058157e-02
-1.878474626705406991e-01
-1.769453925257603033e-01
-1.057807279255423283e-01
-6.316739761710474244e-02
-1.735909159507167954e-02
9.812413545459494624e-02
2.657215151201033909e-01
3.173971745062807992e-01
1.456910357131615263e-01
-9.902528091175974434e-02
-2.556504761634177947e-01
-2.442793321420179131e-01
-1.334602071953987223e-02
2.115117899826087500e-01
1.486687002827932758e-01
-5.869771034148062172e-02
-1.075593726939086253e-01
1.686791484081042944e-02
1.085179825978147966e-01
8.600165297422551758e-02
6.120810458578106877e-02
6.168832675565683737e-02
4.334817890391628320e-02
1.269639608262668889e-02
-1.021702401341858801e-01
-2.591206279310466765e-01
-1.857582014763978495e-01
7.660855102738117761e-02
1.199816495023698915e-01
-6.205828564843809958e-02
-5.297370493081882820e-02
1.632063487319959927e-01
2.137874816277226808e-01
5.817995758939079748e-02
-7.759888562064749806e-02
-1.407462568797303304e-01
-1.248588306128622649e-01
-3.707543657910537804e-02
-2.277942167774550317e-02
-4.472201418385715610e-02
5.895480159590504171e-02
1.147865365602707688e-01
-3.923364105913300370e-02
-1.456912562808375389e-01
1.134425507015637824e-02
2.284764601142317553e-01
1.608320707891468249e-01
-1.323680285757311836e-01
-1.866745257207017561e-01
5.822955556964874019e-02
1.464608172440890477e-01
1.753932991575273687e-02
1.906659799017799278e-02
1.368027367309344045e-01
1.040214602357962537e-01
-7.996067690545470563e-02
-1.692880301558182254e-01
2.994295181647785298e-02
3.310202536443991872e-01
3.578770117778906079e-01
1.783874785972027477e-01
-5.598500271943186030e-04
-3.033452695710905367e-01
-5.250981516128903070e-01
-2.657309412989847242e-01
9.852102873060794574e-02
6.261321299955113773e-02
-1.026132820370433130e-01
-7.023551758241218523e-02
-1.079163504802131864e-02
-6.822915211075265829e-02
-1.034081805683852717e-01
-8.323002974772808482e-02
-1.729275898455007177e-01
-2.789458437463831486e-01
-1.134783186345920125e-01
1.940864567579629330e-01
2.958227205000318882e-01
2.174093077583232891e-01
1.192992784093186293e-01
-3.106814540251185211e-02
-1.755162017034322675e-01
-1.533830667640955769e-01
-8.666543334776731500e-02
-1.326480957442816855e-01
-1.298243549812539421e-01
-4.174054150228369287e-02
-4.834904387800063874e-02
-7.587897921850676741e-02
3.527209484495962694e-02
1.972432941144718899e-01
2.732160957449191740e-01
2.922991038480148296e-01
3.419545781930432016e-01
3.960413133148054099e-01
3.855917308975531643e-01
3.332321094533480244e-01
2.870584047646871917e-01
2.545130023620919557e-01
2.346995706347419219e-01
1.898929023949340045e-01
5.794064530398841673e-02
-1.387850666690967349e-01
-3.049916745079825908e-01
-3.875770898409861553e-01
-4.189814179498064783e-01
-4.437368242688172759e-01
-4.625791050110916736e-01
-4.809952680019916604e-01
-4.457809669255476948e-01
-2.467931492458610987e-01
1.692129285187320142e-02
1.296863999530959710e-01
8.208147518384706354e-02
-8.741740850551357744e-02
-3.206746622336183461e-01
-3.123505345593759475e-01
4.662977169344820205e-02
3.435509434263695483e-01
3.227257699097166310e-01
2.172579586578095578e-01
2.036771139978756084e-01
2.071838577136690951e-01
1.586733984930119301e-01
6.228636415136380722e-02
-6.639784200945204190e-03
2.878500529424381921e-02
6.135510012630875087e-02
-2.973226792387125353e-02
-8.770166152308223051e-02
2.616361313146166323e-02
1.300659614469389658e-01
5.904153701964807988e-02
-5.018680717602210656e-02
-3.247414462360641296e-02
-3.224781230010860533e-03
-7.034770245670270150e-02
-3.660436651610823877e-02
1.284768695488262280e-01
1.465657297296762696e-01
2.322495087025636118e-02
-2.387394642720317220e-02
-9.072281611035414722e-03
-1.205531246844937336e-02
-3.092152779491163725e-02
-7.652445402517502049e-02
-1.087055941204326248e-01
-8.842393611553975297e-02
-7.641839710471719227e-02
-7.392366111576396948e-02
-7.024179786232561014e-03
7.313781756414296231e-02
6.191712530098765488e-02
4.891950446356138626e-03
-4.265223063798131986e-03
6.649231628919369079e-03
-9.445760553988380437e-03
-2.542930415909754049e-02
-2.209440575270643983e-02
3.805442666432105707e-04
2.740166922537488892e-02
2.495297216406642225e-03
-4.863012495490668524e-02
-4.773657005369809359e-03
1.365522986056554033e-01
2.457544525222253862e-01
2.126939638129057841e-01
4.533697630059783934e-02
-1.142447574268949800e-01
-1.670428481312945523e-01
-9.833279018645786629e-02
8.078774701210950093e-02
1.799784491760272886e-01
6.224475173982950416e-02
-4.804533169147220256e-02
-1.454265585463104804e-04
3.676486736174335718e-02
-3.085850583178480905e-02
-1.206211162928985392e-01
-1.873126841596962078e-01
-2.330015754362674552e-01
-2.243284103679031860e-01
-1.209626960753824726e-01
1.399915035916598008e-02
3.782685256232116988e-02
-4.483437744823851739e-02
-4.840767175796480137e-02
6.677931212655428828e-02
8.209090845375510703e-02
-5.249604244561369149e-02
-6.216696821693165620e-02
9.836189690230015548e-02
1.263813248815299217e-01
-1.411702936623511831e-02
-6.843320194276190926e-02
-1.438590244772827015e-03
4.095646284869984555e-02
3.329121831473727533e-02
4.204471407319951975e-02
1.112359577235035452e-01
2.519089217083809173e-01
3.748057481827342663e-01
2.707235437882430373e-01
-7.975266158929195104e-02
-3.170744018559898958e-01
-2.044473413026926534e-01
-2.272140742720495793e-02
-3.618384964129734566e-02
-3.794170454793874270e-02
1.034928728731923653e-01
8.282537986042637357e-02
-1.573665413295927684e-01
-2.024460491682470997e-01
-9.696672730793443051e-03
4.723327462778684899e-02
2.428560500595330213e-02
1.592503606733335353e-01
2.268469620842643586e-01
1.161943575700115083e-01
8.802564431871436057e-02
4.097920400113205797e-02
-2.243716267101399653e-01
-3.868009757796472270e-01
-2.473303615166429492e-01
-5.141805214690303716e-02
2.771452745561701902e-02
-5.756575905353962519e-02
-1.677994976053598930e-01
-7.816759517047258687e-03
2.578606110951018882e-01
2.182845057086848506e-01
-1.665253419757747877e-03
-7.907430206589431687e-02
-6.566733558038113927e-02
-6.301109234384250080e-02
3.008971128368811282e-03
9.776223090207344923e-02
1.094112399358937032e-01
1.018163396128280440e-01
1.470095704712944817e-01
1.538274086852237377e-01
9.016338517626787397e-02
-2.906473804026704286e-03
-1.012318133631491396e-01
-9.791563522044594015e-02
-1.496626365050184732e-02
-3.385923647424432525e-03
-1.092063989606355777e-02
5.355341093467060054e-04
-3.988539214018199663e-02
-6.003116463043931678e-02
-4.236643224864905521e-02
-8.995983546640504147e-02
-1.494496737367359829e-01
-8.749776374135664891e-02
5.647440180456857195e-02
9.786273219862233474e-02
-1.134606186829700478e-02
-9.315849780726459528e-02
-6.529102713554084392e-02
-4.614170140798237035e-02
-6.447706774310837941e-02
-5.651521840314226858e-02
-7.188197029157311624e-02
-1.601389318490803737e-01
-2.155714325433266687e-01
-1.301636899732498687e-01
6.280761581905087640e-03
4.462539596267328657e-02
8.402872931264437906e-02
2.712092948906540957e-01
4.055302530796000005e-01
2.615371668673671657e-01
-4.656066680720322148e-02
-2.919697763235951093e-01
-2.590322225715250282e-01
1.071230958068238315e-01
4.848841062147210001e-01
5.810438354811394701e-01
4.757608945589525407e-01
3.486423680637702471e-01
2.890645695044347097e-01
2.962958898668418550e-01
2.687730710679359647e-01
1.257601751095378528e-01
-9.806507174163527074e-02
-3.213299787876242597e-01
-4.828394521029369946e-01
-5.555868650411740495e-01
-5.308366544480528360e-01
-3.989335516406519733e-01
-2.602984973100556099e-01
-3.176332162782680713e-01
-4.666401707187654013e-01
-3.560835756482952918e-01
-1.125899652299386100e-01
-1.077905178694197469e-01
-1.582597157962652157e-01
5.531312646242306230e-03
1.527067582260260292e-01
1.257828477960671043e-01
1.393106012264586635e-01
2.787288405654922419e-01
3.574165537075751908e-01
2.923805635964221161e-01
2.182408304347416284e-01
2.019369122597828303e-01
1.500890319834541076e-01
3.983686911291597910e-02
-1.987055630381659443e-02
2.001798955741856956e-02
4.765371200099964566e-02
-3.291311141216306940e-02
-1.056270429850872661e-01
-4.395028941393408495e-02
6.737978232997057781e-02
1.119347161432273641e-01
6.796189328414452280e-02
-1.543526553509037835e-02
-3.467039969914378905e-02
8.290319292211759117e-03
2.032852601030315023e-02
2.233400056186006510e-02
6.312370889954009578e-02
1.139561335718999729e-01
1.250788733076614867e-01
-1.884076743284742242e-02
-3.137585294623499999e-01
-4.510309919792347966e-01
-2.846673304037854457e-01
-7.739104282639291954e-02
1.706551502514783852e-02
1.011950813919240133e-01
1.625781327075497273e-01
1.186697984300519315e-01
4.414816636367691061e-02
1.361276511286192009e-02
-6.767816756196676740e-03
-3.062294579880367462e-02
-4.249369480049162290e-02
-2.665049984401906061e-02
2.625270777336819947e-02
6.041794590664186643e-02
4.916204259707408764e-02
5.976904803858385656e-02
6.937245478508248520e-02
2.018774382934439282e-02
-1.080229919439337771e-02
-3.522918694403704559e-02
-1.113164967648964526e-01
-9.010258996553680011e-02
4.048044581172493411e-02
5.223379490353631527e-02
-4.542767950379290876e-02
-4.581333094932283495e-02
5.667733101846986199e-02
1.016139601080129906e-01
3.335899684486438865e-02
-5.413046973161428355e-02
-8.858041843794134396e-02
-8.327930128998177473e-02
-4.616608847701327706e-02
1.821362426053634714e-02
6.201139204783868292e-02
6.228781853448923933e-02
4.326891519732291996e-02
7.436407019291383508e-03
-2.929535547563508202e-02
-3.092903966225675136e-03
5.365603212031398728e-02
1.718580511797196397e-02
-3.009884749351381811e-02
9.562889422569034736e-02
2.222394018206982347e-01
1.154915894473309834e-01
-1.072991904005699167e-02
4.529316267767383164e-02
1.165034192397757101e-01
1.069976256264657810e-01
2.548957017376825285e-02
-2.149440985858139530e-01
-4.765875876847206483e-01
-4.547835049943915742e-01
-2.095294867410838202e-01
-8.575650068305967766e-02
-1.940630870964226429e-01
-2.598086982436834669e-01
-4.700053747083746472e-03
3.903351158426434098e-01
4.621420781633206465e-01
1.645478762259015015e-01
-1.448851667704556881e-02
1.444835862010050709e-01
2.495088723241777329e-01
1.061069140677689260e-01
9.144555210452752839e-03
4.139430118669795017e-02
4.447332077609104234e-02
2.304367018234404832e-02
-3.594431074862154685e-02
-1.477357144253935162e-01
-1.561474891158366463e-01
-5.462515878539069003e-02
-3.983671077706990582e-02
-1.624817841929757922e-01
-2.396327302732354780e-01
-5.565169788524495370e-02
2.596471852477550413e-01
2.925228570314793441e-01
2.243756157441310212e-02
-1.385475618670969078e-01
-3.916782693715226832e-02
7.786132541490427272e-02
4.640247756534702367e-02
-5.452502378317612003e-02
-1.371207610027569690e-01
-1.724561280535424068e-01
-1.069875226349185360e-01
3.250570182637504274e-02
1.417014093473501490e-01
1.426391166853098469e-01
-1.496716838705079711e-02
-1.754081346977722777e-01
-1.097229102303360904e-01
4.328353048657621049e-02
1.230670647351038288e-01
2.575999640421388071e-01
3.478862281961491720e-01
2.055323459012758924e-01
7.288211355493930121e-02
1.280916584795998292e-01
1.551146646579479038e-01
4.862861160072402822e-02
-1.430446787616141413e-01
-3.996639879941629170e-01
-5.186752350873765627e-01
-3.145098381321148051e-01
3.933980139329719405e-02
2.386189759665044985e-01
1.488343756017213859e-01
-6.275318120667541799e-02
-1.088361985877090987e-01
-3.964745019194068631e-02
-5.737600470034501243e-02
-5.935453346854220602e-02
5.437229795497864476e-02
1.230753085709750116e-01
7.367547943881028183e-02
1.819487054336730789e-02
-1.820035119857608269e-02
-1.068323853289349784e-01
-1.625839928119672262e-01
-5.097617097331123837e-02
8.844090852531956426e-02
7.356332458792554096e-02
-2.184327175175349023e-02
-7.804140249738254764e-02
-6.801344528197623973e-02
-2.296938504416910082e-02
-1.672844812736596493e-02
-4.789387871229768001e-02
-1.372925938244329985e-02
8.600730514933102588e-02
6.412575814098339655e-02
-1.129300381135953379e-01
-1.806471565092525045e-01
-5.860766681148395912e-02
3.985791791763343417e-02
5.037196926321983043e-02
5.016296690026250671e-02
3.382672525889360987e-02
1.353662230366784770e-02
3.973102054288071838e-02
1.015656550985808981e-01
1.779466686164247191e-01
2.757557327143743131e-01
3.632928472124048458e-01
3.781430619919169400e-01
3.426885063564150680e-01
3.265199190971908028e-01
3.008477913165897855e-01
2.498880469434168750e-01
2.382915507087749740e-01
2.085027113273416055e-01
3.775622193896042283e-02
-2.895266629554987814e-01
-6.866118106416646549e-01
-9.042297828975762730e-01
-7.771898038189977154e-01
-5.306454191223238803e-01
-3.970915303599013568e-01
-3.235950364821828518e-01
-2.309271466294936792e-01
-1.181574037585836207e-01
-7.977235741570845584e-03
4.257865613700753671e-02
4.188245735044061890e-02
9.784503158696596092e-02
2.127334022938099922e-01
2.555686274162097815e-01
2.086841259762825807e-01
1.650962979538746767e-01
1.517783557500199942e-01
1.622145891960392328e-01
1.713604085714272030e-01
1.352324185912319177e-01
1.165503376368501043e-01
1.502407403091475802e-01
1.018381931844893479e-01
-1.917550530982293361e-02
-1.702356616328857403e-02
6.358791720176326656e-02
1.457517268137436400e-02
-7.704033926484603334e-02
7.435130016768411176e-03
1.240762426453467515e-01
7.908850388376138796e-03
-1.740420958485182912e-01
-1.476946275554155141e-01
-4.136826629584060971e-02
-2.955599773982899026e-02
-3.539416948474395641e-02
-4.563036663492005610e-03
2.643731466813211556e-02
4.398596971894020574e-02
4.594591329215098885e-02
4.090032090425994860e-02
2.158934452033597559e-02
-1.919543289648605044e-02
-4.708137096151953499e-02
-6.925975565842021342e-02
-8.943045402206523109e-02
-4.698760215924175504e-02
1.615143321906473139e-02
3.126223739273600172e-02
6.335924599987771688e-02
1.200645269811657923e-01
1.473187271603901283e-01
1.284784892221103869e-01
-1.879515591057268065e-02
-2.472268499591029345e-01
-3.115811372961702075e-01
-1.580830161621772367e-01
2.162321603103123727e-02
5.721901540685233462e-02
-3.410187276890756791e-02
-6.274688169457637299e-02
3.266012344116592941e-02
8.490272763260563182e-02
3.566849594672385354e-02
6.378889009442169702e-03
2.645531429319884081e-02
3.226980798844206189e-02
4.246880857795139880e-02
8.996613568400145533e-02
1.080688884785361292e-01
7.285535951260821430e-02
8.439388777186032642e-02
1.268861995666032971e-01
2.968418212193571840e-02
-1.740757292938713008e-01
-2.296606748728791669e-01
-8.437278628173075501e-02
4.554590258369070610e-02
3.016616992186996193e-02
-3.724277273469200900e-02
-3.713719223223843624e-02
1.868653001043077411e-02
5.025151871079176075e-02
4.729011702915777299e-02
4.528932861558994383e-02
1.826904491319063586e-02
-3.872548911282439055e-02
-4.588688588807332547e-02
-2.326340711361224792e-02
-6.720812205531619121e-02
-1.106989551724952697e-01
-1.042578438886106462e-01
-1.687579582115353860e-01
-2.358861393797899164e-01
-1.114835713759015912e-01
9.295115311589038920e-02
1.893731975931093880e-01
2.257449626022968725e-01
2.310337383458569427e-01
1.070398510131520126e-01
-7.826925965876151137e-02
-6.113007027310189689e-02
1.827217859822081181e-01
3.304944250315743903e-01
2.592735227361518402e-01
1.785564824051718846e-01
1.006835819947801275e-01
-1.250086914362477097e-01
-3.679125982630145897e-01
-4.106362500254323589e-01
-2.695651862434013113e-01
-8.868435383293787888e-02
1.803535102277519647e-02
4.686044815317073203e-02
6.014251290611870304e-02
9.382422281493929539e-02
1.375468001312243338e-01
9.862367397438828731e-02
-6.073415777030898022e-02
-1.739359489515996948e-01
-1.128419881285604304e-01
3.806368998548786270e-03
1.768725504413187766e-02
-3.524702280482656935e-02
-4.252741521421701809e-02
-4.751010667668751491e-02
-7.987112390432739295e-02
-1.052949695626640217e-02
9.403200955869747690e-02
5.924868365886215571e-02
3.657232853762898417e-02
1.450671512917326433e-01
1.625109504357063750e-01
-4.033794876962697173e-03
-1.490473770084091709e-01
-1.392780223718765309e-01
-5.398353439571504375e-02
4.918625735066657970e-04
3.808953516573462816e-02
1.071504122882222243e-01
1.402019243432218454e-01
6.984399302751766181e-02
-6.801182815632770759e-03
1.094956368227173113e-02
5.112108064549260311e-02
1.374698955917819966e-02
-3.086357325168412671e-02
2.766469243165373126e-02
8.958496560898875083e-02
2.672525434475306327e-02
-3.550411135416448039e-02
1.490516245885323277e-02
2.985448031647525494e-02
-6.823185626074212973e-02
-7.734444872307792707e-02
1.273966001751480892e-01
3.126210025160509609e-01
2.297958024703557478e-01
2.240303071826160036e-02
-1.208754112547677506e-01
-3.152380788866087080e-01
-5.009560092357596695e-01
-4.027541969411423395e-01
-1.751360886706227471e-01
-8.557919278931180873e-02
2.401860224716768910e-02
1.563992073627459845e-01
6.558273986376568498e-02
-6.092748386466005639e-02
8.806883257503648338e-03
1.795860666823157620e-02
-1.486596103759443566e-01
-2.296509315416672969e-01
-1.486235075308049991e-01
-2.643575217938210278e-02
7.458241373763571658e-02
1.090205176165345569e-01
8.891255973006675917e-02
4.161588745816570400e-02
-2.077608659699538285e-02
3.391976893322072584e-02
1.952913347843719949e-01
2.285218948279426343e-01
1.535821608944154815e-01
1.697370743468845922e-01
2.796099716836520921e-01
4.208516463559668908e-01
5.317986267013786739e-01
5.013307532435290481e-01
3.356677471512952149e-01
1.400053590920317115e-01
-2.144235683629139300e-02
-1.101450198457292196e-01
-1.623106906938373839e-01
-2.542287840179227598e-01
-3.210178543303727761e-01
-2.982233762320489201e-01
-3.088110864935217359e-01
-4.154489230448951131e-01
-4.968863300217620238e-01
-4.708058159767923301e-01
-3.504230971677706474e-01
-2.016748188145854881e-01
-1.280804529141637005e-01
-1.249522380259253940e-01
-7.859297346842880616e-02
4.084639507068967001e-02
1.866504217106907948e-01
3.207870608438729843e-01
3.938537502839832838e-01
4.053864367316851736e-01
3.348195527870287957e-01
5.987840065311177129e-02
-2.800275911786940797e-01
-3.007386656768100686e-01
-2.536213077998494825e-02
1.643525724447618963e-01
1.099811277232438239e-01
-4.432368823180340284e-02
-7.679425174445292379e-02
5.246726315006455116e-02
1.445235975695515762e-01
8.162544764446715007e-02
-2.949425450117016886e-02
-6.456450432387939031e-02
-2.421813127574408420e-02
1.766957389797215588e-02
3.735949681098919839e-02
6.557814471304279635e-02
9.298669840638157380e-02
8.244922221443772015e-02
4.876859076160994927e-02
4.692537392760692816e-02
5.307875015935159535e-02
-1.190363023078361629e-02
-6.315773869964241838e-02
1.644733594279679592e-02
7.756158612430515131e-02
-9.322587427366565982e-03
-1.060478598031482644e-01
-1.163080999241025842e-01
-6.393530169828033627e-02
2.302179169795567568e-02
2.962124682150681781e-02
-7.178007214359513610e-02
-9.226465054964179402e-02
-2.631783238461959940e-02
-8.455335268002069082e-02
-1.832654573067974968e-01
-9.180695399330390805e-02
6.771024587676120754e-02
8.758829057113035055e-02
3.514654291173380241e-02
-1.604448188308214146e-03
-5.710384826121997492e-02
-6.777263071038813758e-02
5.850510895310333248e-02
1.813259526459004289e-01
1.356891078254028327e-01
1.423325759013415251e-02
-3.344411621643824523e-02
1.510963608999727099e-02
1.135340281936152440e-01
1.875222906887171470e-01
1.811980452462389757e-01
6.904367600147669204e-02
-1.306669283227709644e-01
-2.943727866842876240e-01
-2.752532836170188402e-01
-7.985123583593425889e-02
8.306380910260897921e-02
4.065235236787070189e-02
-7.021450873689816241e-02
-4.433425812437226388e-02
2.927203740322937078e-02
-1.051353394227459714e-02
-7.363230055310381050e-02
-3.106286305809392509e-02
2.988727032461570288e-02
6.192094254698986278e-02
1.597751213036865126e-01
2.168057926249191414e-01
1.056851563969317676e-01
2.719221080695544135e-02
6.145895931501786646e-02
7.196193972480455572e-03
-8.914111186506240569e-02
-6.066292723571677786e-02
-8.443695928370038156e-03
-2.357778550278699647e-02
-5.271107424215490389e-02
-9.821070244044949327e-02
-1.504911887754857014e-01
-1.444482367999817274e-01
-9.216976555039711749e-02
-4.425507434919224298e-02
-1.480533266349456575e-02
-2.946648886197230505e-02
-5.530836947011164711e-02
-5.474393535188961865e-03
5.685482275393476115e-02
7.844395636794163074e-02
1.566458239207582093e-01
1.949678503127172391e-01
7.435016099799848788e-02
1.509271385501625290e-02
4.832839264899993492e-02
-8.419764579681993100e-02
-2.008192237679658765e-01
-1.809586275866725130e-02
1.328634841030457425e-01
2.015802965858146806e-02
-2.921732328273671936e-02
3.872690641233542119e-02
7.201560262877150682e-03
6.198837739552039150e-02
3.095401396176151176e-01
3.643315278372825095e-01
8.298875235143192419e-02
-1.969352588407483062e-01
-2.704569308059853738e-01
-2.062907569505218475e-01
-9.599738377711521109e-02
-2.141860879378455068e-02
-3.772014412996592403e-02
-1.213164962143514491e-01
-1.693641701686844081e-01
-6.799791443744422625e-02
1.106959844343599203e-01
1.574403058243432352e-01
4.422256406339954149e-02
-9.976358579472291432e-02
-1.891084038160737724e-01
-1.478577654382149387e-01
1.342852777514851395e-02
1.275373224317871146e-01
1.741092608446170864e-01
1.979315769685524584e-01
-3.865445001116641840e-03
-2.885516012911829575e-01
-1.335841552222118145e-01
2.127630971386553216e-01
1.814282884972298615e-01
7.294090870294404894e-02
1.647720089524203346e-01
7.424976386178420984e-02
-1.698645617545909425e-01
-1.391653612059208789e-01
3.688883545373510681e-02
2.268854247237458294e-02
-5.068541979705545875e-02
1.251486003083558673e-02
1.008357242571304713e-01
8.428540930226548211e-02
-3.097713120962117608e-02
-1.507964131368124405e-01
-1.277617131453421262e-01
1.220562179413483064e-02
5.279598423908266058e-02
5.565697650030666105e-03
1.061936147706741551e-01
2.724038549369173223e-01
1.885385632783245224e-01
-7.731413825028062015e-02
-1.870023360514896926e-01
-9.038312915931667746e-02
5.562611462510308122e-03
1.198272494192213246e-02
3.491254001389641759e-02
1.633631782564803903e-01
2.701402103611210137e-01
8.854052747945015400e-02
-3.504735809078128872e-01
-5.823164284082670283e-01
-4.007384949352147396e-01
-1.569376916360943064e-01
-6.292947231803994179e-02
-1.713714470611318180e-02
-1.399784627526615144e-02
-4.389864517756621176e-02
-5.125559205145931163e-02
-9.059057720537803948e-02
-1.138180731782160171e-01
-1.976790772817830708e-02
8.804557725933204182e-02
1.317776972276704928e-01
1.570703975881742043e-01
1.331830107230788096e-01
8.480833073382035292e-02
1.138629296001629487e-01
1.454187908482692249e-01
1.379879139470800153e-01
2.536233754770381155e-01
4.117609109361928810e-01
3.723893038018906698e-01
2.858045693957145805e-01
3.512042382214017322e-01
3.871020402804862814e-01
2.616114254650219739e-01
9.509902874407409612e-02
-5.592298461880386429e-02
-2.208873027761615315e-01
-3.730669766302863177e-01
-4.655137152161418213e-01
-4.715901001859581498e-01
-4.100741336269660975e-01
-3.632189069331040465e-01
-3.802832098057240540e-01
-3.665646684260231991e-01
-2.010595956372085158e-01
8.736391108236152281e-03
5.221234600895474642e-02
-2.976405313834040722e-02
-7.073392430943703513e-02
-5.833021488098367319e-02
-2.181595211401140405e-02
5.579962692355818626e-02
1.305424878541515121e-01
1.371954809175465195e-01
1.153157387200569178e-01
1.615649726000928099e-01
2.981488607531487256e-01
4.563463089339737100e-01
4.537070022914472811e-01
1.115084205387792265e-01
-3.279444234486645904e-01
-3.992799807836278081e-01
-1.566732418124557880e-01
3.056957976629192525e-02
8.387181748393078562e-02
6.005306689545852200e-02
-8.813226223238129764e-03
-3.328505073919929558e-02
-3.483576518635730229e-03
-6.516150719465148983e-03
-5.542563052481540298e-02
-6.506018260490606386e-02
2.401250095668957044e-02
1.368944474091029484e-01
1.495132236353762523e-01
6.179174073894738717e-02
-1.263155023230626978e-02
-1.835895998946589225e-03
2.657549810907103988e-02
-4.589709807501335739e-03
-5.955185342153171413e-02
-1.132509812753787620e-01
-1.132751066881466234e-01
2.558050613007605695e-02
1.405024839155405714e-01
4.717751011919620041e-02
-9.998212387433026704e-02
-1.288153431108937930e-01
-6.690854083912220474e-02
4.226855017084648648e-03
6.716775735522409821e-03
-2.910859685674871758e-02
-2.655929210388783407e-02
-4.721053146680807139e-02
-7.612563928203960884e-02
2.512557278451595794e-02
1.475337296646955509e-01
1.138536006356783564e-01
4.209294090909877772e-02
3.161488312443962168e-02
-2.246156004416075599e-03
-4.738956261632183697e-02
-4.034681180999331179e-02
-2.361142598285189201e-02
-2.078897181782530038e-02
-7.251218056761862818e-03
-2.333588840972882633e-02
-4.644050795610482618e-02
6.496319913044339145e-02
2.304461491492356684e-01
2.140823454138388038e-01
8.746972701192848310e-02
5.641981197503765852e-03
-1.202535773123089013e-01
-2.817269480380947266e-01
-2.764886551628889522e-01
-6.851278927429516052e-02
1.235537340489837321e-01
1.044489198597143287e-01
-2.627333658170091096e-02
-4.009689742944250873e-02
4.472507488059391384e-02
5.125065645730005059e-02
-2.172319420459243797e-02
-5.183165576845241013e-02
-3.159541444828515427e-02
-1.831154362737068275e-02
-6.110303130754133304e-03
1.905581233262238286e-02
4.331451501596104287e-02
6.730382516434012252e-02
1.031467683628663340e-01
9.449156455715677916e-02
-4.924697283921660590e-02
-1.879571310880799595e-01
-6.774783576192372481e-02
1.622896289889945720e-01
1.731314770403413750e-01
4.578982592733446544e-02
-8.543026679243415425e-03
-4.338136496351154003e-02
-1.204868836626969142e-01
-1.786929992813090229e-01
-1.988789938662110235e-01
-1.722947125662466217e-01
-4.925599492224398690e-02
1.043363994099465175e-01
1.218544761342972987e-01
2.588826906847020021e-02
-4.980841056582946402e-03
3.754751430989501648e-02
5.717275443387293682e-02
5.292311908015085581e-02
2.402431009265095299e-02
-1.207618055420364711e-02
2.457461127596888978e-02
8.210856928992971149e-02
7.881929001972302895e-02
1.048567346193395727e-01
1.439388576036870482e-01
7.216662211521884807e-02
4.094775401051045649e-02
1.948248542312537024e-01
3.112614859945551649e-01
1.944870903047956068e-01
-1.073863382262149613e-01
-4.416983523478533735e-01
-5.043966681736187230e-01
-1.774501041164971149e-01
1.077334650936328103e-01
-2.162870294243528918e-02
-3.180839883039137117e-01
-3.606911354399462977e-01
-1.089736371846676960e-01
1.483174771698713423e-01
1.858718128900616329e-01
7.384488448262696569e-02
-9.246270282647749833e-03
-1.628233787147324862e-02
1.845100696266494325e-02
6.769888697681408773e-02
8.279123207372116044e-02
2.051112103119391225e-02
-6.482097971193709340e-02
-5.100955623207249767e-02
6.030587099820142183e-02
8.839390361161116039e-02
-3.435546428285562656e-03
3.682846364758637914e-02
2.499913753164527130e-01
2.905165536869756537e-01
4.025052028819926797e-02
-2.083011534621386773e-01
-2.316528865989229413e-01
-7.284309383873255328e-02
9.721401873173785013e-02
1.558534541550558594e-01
1.230960209518069115e-01
3.411535311751081462e-02
-9.611620516555190175e-02
-1.588215599024334623e-01
-7.885767648981457933e-02
4.790224925090754565e-02
9.866969129572797370e-02
5.926879298285356312e-02
-6.219472241073543267e-03
-1.912365788417924248e-02
4.198685391121030619e-02
8.720286359437606771e-02
2.822848123157694483e-02
-7.008829994037717170e-02
-8.100480559833027339e-02
-2.663942685817541345e-02
-2.438229426543716757e-02
-1.441415944846563546e-05
1.992059627091234408e-01
4.195957187832765056e-01
3.772219728544096151e-01
4.631990051053615220e-03
-5.073328086781001556e-01
-7.472815040368464556e-01
-5.077191410411874273e-01
-9.694080930391754669e-02
1.342189864014262102e-01
1.190593404151293333e-01
-3.299399584091279591e-02
-1.243100539305019986e-01
-1.178231128587075016e-01
-1.272414147628692926e-01
-7.903871598384733244e-02
7.343228736318416217e-02
9.428476456710022102e-02
-7.147096714580385146e-02
-1.606690840980278812e-01
-1.125415239240138005e-01
-8.149405424123414010e-02
-6.492140815943509002e-02
3.613261751572841712e-02
2.164357419171420438e-01
3.425740104567951971e-01
3.042021097276188524e-01
2.384260768431558652e-01
3.260954869014849322e-01
4.399904026550949809e-01
4.318571195067754664e-01
4.325677785167572065e-01
4.818716000921084430e-01
4.031062950995307204e-01
1.946630161771560896e-01
-1.726972418953666433e-02
-2.334744530354060377e-01
-4.182680794390215562e-01
-4.772408666056868753e-01
-4.784446865073981869e-01
-5.021732842092908600e-01
-4.415722157190163366e-01
-2.632855701192870490e-01
-1.560394978936972543e-01
-1.980560997453585381e-01
-2.316251869276933495e-01
-1.735481382891565227e-01
-1.066009469948247246e-01
-5.938671609769556603e-02
3.371292828987756951e-02
1.571406648662624084e-01
1.925371961679991917e-01
1.419382933694975368e-01
1.648445305460388421e-01
3.095352756305025377e-01
4.084251082528300159e-01
2.561875963414457225e-01
-9.060960233714188128e-02
-2.876864916167329311e-01
-2.241400946554781282e-01
-1.290710285643420219e-01
-4.314681484552632118e-02
8.727512017158814417e-02
9.316768485535636968e-02
-4.083178370974181043e-02
-7.937497787064640153e-02
5.349213035394900784e-03
3.761294576812582169e-02
-1.125680821783725701e-02
-3.015228688303750459e-02
6.313819956746812012e-03
3.219783431477275804e-02
3.965185207019812641e-02
8.347287197950516158e-02
1.625076373206632840e-01
1.587285434199950662e-01
7.572049861864191093e-03
-1.257123678671632216e-01
-1.330816704538919093e-01
-1.023256291617768710e-01
5.480159778630006029e-03
1.803122150139626900e-01
1.700750733367378531e-01
-2.627918917672723148e-02
-1.314422583050380844e-01
-7.510064976721561592e-02
3.197145004593920925e-02
1.040462377414419770e-01
7.972455198811305432e-02
-4.049617499681567104e-03
-3.278178700856723693e-02
-2.056541622107449160e-02
-3.319790447002603923e-02
-3.407463134339702888e-03
4.409637623568626874e-02
-4.571475762014456240e-02
-1.591072418765922258e-01
-8.315168916892129447e-02
4.075326747637779412e-02
2.466158183147765942e-02
-3.128150646538344071e-02
-2.431148762019341714e-02
6.447191768348864253e-03
3.433397967601023448e-02
3.816070153018887023e-02
-8.559297413132573723e-04
-1.290196999633222950e-03
9.823582596594100658e-02
2.201725084756082917e-01
2.561535756053250901e-01
1.126353594732855540e-01
-1.841225287042384806e-01
-3.852395126774924017e-01
-2.995527838736280479e-01
-4.282764537374049441e-02
9.596976746264200553e-02
-3.255562353111945972e-03
-1.131753786304795784e-01
-4.895361028761467670e-02
3.902063414185660828e-02
2.472324524668276929e-02
-2.695172968799988342e-02
-5.741287353423434048e-02
-2.814522032641873436e-02
5.938583812706839382e-02
1.095201622997170471e-01
7.008048303427315273e-02
2.123583415747037212e-02
4.087449915244702192e-02
7.550367516877960761e-02
5.597528761177707202e-02
-2.795766959260989962e-04
-8.201140245879499913e-02
-1.254080271877839881e-01
-3.367644565304669241e-02
5.898416239090482210e-02
-1.850307460907223145e-02
-8.698169734802797814e-02
5.626282310952220034e-02
2.055700589303463277e-01
1.357681333741093399e-01
-4.530991148196401169e-04
-4.455501927336208423e-02
-5.140169091799583201e-02
-2.115519974211173271e-02
7.130111620134856054e-02
1.333353396249183920e-01
1.162308806472812511e-01
7.206997155866767812e-02
3.049495200665893260e-02
-2.022043555786825694e-03
-2.357750869533715293e-02
-5.381116577317376914e-02
-6.702589566189415260e-02
-1.732626527900173186e-02
3.111013419512857758e-02
-2.551047870570920251e-02
-1.657252745484745216e-01
-2.812008610349421844e-01
-3.032640016722623066e-01
-2.175891822714538515e-01
-3.353845084469661564e-02
1.507734210641346606e-01
1.687194392137876808e-01
4.008669874807741645e-02
-2.570881478469482645e-02
3.627140210825095801e-02
1.097967293469774008e-01
8.700263366242806662e-02
-5.883855754469990984e-02
-1.959000365805541877e-01
-1.200840046034029607e-01
1.331730749867602315e-01
2.679466129543426889e-01
1.628876365410553140e-01
3.848558440755454890e-02
-5.574018950281058732e-03
-5.097722100884195806e-02
4.606420048063795958e-02
2.455913282027993583e-01
1.368799084894959939e-01
-1.493438561703054335e-01
-1.608362413364705090e-01
-6.360760696533115932e-02
-5.690571001352827396e-02
4.061201216939386294e-02
1.470335655035178435e-01
5.004782711390164118e-02
-1.301903023672931203e-01
-1.577704062578081379e-01
4.267616911777880745e-03
1.216467253567333345e-01
9.415321259469956738e-03
-1.277513113327644334e-01
-1.376078811628211884e-01
-2.062468627602046800e-01
-2.707555952320362391e-01
-1.004871037249707999e-01
1.065743317715788646e-01
1.211055675392801317e-01
8.730445133821307380e-02
1.326033079833876804e-01
1.499062816826313149e-01
3.797130375119692897e-02
-7.095264838732996682e-02
-1.254692359136905938e-02
1.115040165930074323e-01
1.494631672138764800e-01
9.635976112670394111e-02
-2.896345977808547495e-02
-1.463809017885444042e-01
-1.257391152402943246e-01
6.580479316392975897e-02
3.428422484284778249e-01
5.135551829982443195e-01
4.065531847686029154e-01
2.598614237110034517e-02
-3.750859725679580592e-01
-4.310101484125170024e-01
-2.079243877198671542e-01
-9.944913789466860998e-02
-9.673486747322168622e-02
-6.057066061887041858e-02
-9.194990287674725815e-02
-9.535202994075391014e-02
3.840424194381661382e-02
9.907337970410222405e-02
3.468914142660924765e-02
-1.051903075925102876e-03
-2.301995980179309675e-02
-6.098647644654685979e-02
-1.049327388931879379e-01
-1.684580264943247030e-01
-7.788640479341152334e-02
1.972127837488510116e-01
2.386122036448149464e-01
-4.485143346219225280e-02
-1.730538085795755021e-01
-6.141229475666520887e-02
-5.589469314424393848e-02
-1.209446323766235343e-01
-8.518017044585102227e-02
-7.014412118717962275e-02
-1.152785460193118949e-01
-1.379039232939274773e-01
-1.240397730337896159e-01
2.788241339792872555e-03
1.723294750136622477e-01
1.507325636469339369e-01
5.514246096680427284e-02
8.153525145452727996e-02
4.494339014979063796e-02
-6.980644829256278661e-02
4.365806142695993763e-03
1.833702830921790650e-01
2.261533104021581364e-01
2.070104558672363204e-01
2.670969553693369747e-01
3.642975445276066537e-01
4.030571074039759338e-01
3.893092048886688250e-01
3.955917076393044574e-01
3.861900101955551556e-01
2.599583877095471562e-01
6.072332533780854663e-02
-7.273343319882943914e-02
-9.799420325401014820e-02
-1.089774570436813500e-01
-2.683473729218546766e-01
-6.291120371986379523e-01
-9.299482840762763880e-01
-8.575057810208398523e-01
-5.546549793167445674e-01
-3.641353535062658020e-01
-2.806083730688557210e-01
-1.588397503451113302e-01
-1.694408863207638727e-02
9.008051095235844463e-02
1.316013151024312267e-01
9.192755702911660498e-02
3.087188137428222012e-02
3.558319872247156512e-02
1.078352810916512194e-01
1.766282819884721911e-01
2.034851859876582736e-01
2.060473288877134601e-01
1.915798850530836817e-01
1.535660176803577415e-01
1.428678973562751697e-01
1.943210221929106973e-01
1.949107760768068465e-01
8.696269529965000578e-02
3.577386512307541289e-02
1.127701797646806919e-01
1.514073919818323677e-01
4.646169082887666169e-02
-1.101148779596138050e-01
-1.592884846894054851e-01
-5.895571543047123386e-02
3.106054319316231549e-02
-2.055502395933031870e-02
-1.154532641501938434e-01
-1.363174284509954537e-01
-9.563485208332644927e-02
-1.824926823746178539e-02
6.454971030214634586e-02
1.000073436625516787e-01
8.212435808634038770e-02
3.087450989230964421e-02
-1.885785354499524766e-02
-1.806120200021765765e-02
2.183197511619718034e-02
4.402017345112961555e-02
2.358764705575651377e-02
-2.028527705253925506e-02
-4.788438499509913709e-02
-5.521706129954184750e-02
-5.344001698279585155e-02
-5.751488143677206330e-03
9.148225880118418529e-02
1.719213040670702075e-01
1.417021843852450669e-01
-7.664765469767473305e-02
-3.455592992943043451e-01
-3.817982233012489623e-01
-1.650475925506180164e-01
5.867833073203247707e-02
9.072052948158182417e-02
-2.785830668827650458e-02
-7.332335138265501373e-02
1.752962035577847189e-02
8.412630290558861801e-02
6.391236325031429688e-02
3.333226985090316508e-02
1.286045491720477774e-02
-3.114585446947066433e-02
-2.805897071619520983e-02
1.031602542822169233e-01
1.850780224833565302e-01
8.089440371972600463e-02
2.365421645619882052e-02
8.022180013483119765e-02
1.995815603954884977e-03
-1.304823031575320369e-01
-7.057961808646706636e-02
4.465153673050774319e-02
3.425283342193534419e-02
-4.384217033832977367e-03
1.066753958259879925e-02
4.195651335671631010e-02
8.099010968197800642e-02
1.131969201645903200e-01
7.705763702537424265e-02
-2.254268768373193441e-02
-8.722337671653081215e-02
-6.806651099850292985e-02
-3.035865718802160593e-02
-3.040798902363697417e-02
-5.117539333018401165e-02
-7.382910534541389791e-02
-9.412567881262202951e-02
-1.282675121704177357e-01
-2.081157728511080496e-01
-2.499060777874263783e-01
-1.309812053831330148e-01
1.326851886324721154e-02
-1.696631490947536625e-02
-3.769776302015676733e-02
2.048915283649800079e-01
4.563236389282296912e-01
3.664964315347117307e-01
1.483445393797387934e-01
1.255628119020263389e-01
1.845118464976061579e-01
1.590511798628019280e-01
4.031124763765699115e-02
-1.990710501116557674e-01
-4.123965421464107495e-01
-3.236899519873601139e-01
-1.344848181536080489e-03
1.709175577788980827e-01
3.020506694222762495e-02
-1.552679236100513727e-01
-1.063607416102673037e-01
6.598079213206405058e-02
1.348232660884746137e-01
1.295636857391902486e-01
1.009502039830615649e-01
-3.310012589453042303e-02
-2.061065037222016005e-01
-2.968759359365499839e-01
-3.158370912799615127e-01
-1.697051311474225554e-01
1.810203359237411158e-01
3.869748845021332428e-01
2.024688270488584907e-01
-7.867798411953370874e-02
-1.667329455260730398e-01
-1.041386582572667863e-01
4.466449932978035914e-02
1.506303454552931076e-01
6.094054425596474867e-02
-7.439905840240880475e-02
-6.334707154427306197e-02
3.602177196065132342e-02
9.577474755848440491e-02
5.238399032975050995e-02
-2.697994551883879655e-02
-1.548124915097832260e-02
5.100526888756287680e-02
3.566270137714246113e-02
-4.445343880340783815e-02
-2.502951440311335443e-02
1.155283180117635117e-01
1.600238074968019231e-01
1.301973257855600086e-02
-9.809002301624258902e-02
-3.457766982379392035e-02
1.213772183871076812e-02
-3.551533777567410233e-02
3.600655485667761391e-02
2.231962867487652658e-01
2.173800809668927914e-01
4.742873237140281251e-04
-8.186106654708069641e-02
5.811880852460885732e-02
2.107775648514584599e-01
2.980073818177054745e-01
1.558774805498918947e-01
-3.614505174058346704e-01
-7.359981775250423741e-01
-5.129822052333794513e-01
-1.411735102340024306e-01
-3.110295378278785799e-02
-1.660004966016818267e-02
-9.989045509704787273e-03
-2.573088279373095255e-02
2.002645000991498669e-02
4.770951600815180604e-02
-2.397211238185181781e-02
-8.292433057189503576e-02
-1.357804969720223243e-01
-1.973830840661179586e-01
-9.501817889352318081e-02
6.602452763269352209e-02
-5.811914876000731645e-03
-1.326355659882439142e-01
-2.706731473125514181e-02
1.427196192195982483e-01
1.851580375317883054e-01
1.407223335801885133e-01
7.601586730752969701e-02
1.077260451496032112e-01
2.149123854362974539e-01
2.164297754222951342e-01
2.004203589008991260e-01
3.371717987278367024e-01
4.707385550560029830e-01
4.431805924064736724e-01
3.900237220625557555e-01
3.927334550399416147e-01
2.886370688982080601e-01
6.123324294374439536e-02
-1.125150172840573420e-01
-2.348491402989031362e-01
-3.519728168153400949e-01
-3.771270227613256476e-01
-3.509194670101357105e-01
-3.799541196321922221e-01
-4.066880312783920925e-01
-3.881603289864063999e-01
-3.788125574510915472e-01
-3.637654324045045406e-01
-2.960263490176947565e-01
-1.914696498817098913e-01
-8.660121934005791944e-02
1.097323591844699686e-02
1.266340094525384985e-01
2.469634438151896982e-01
3.111926109731377732e-01
2.689966189726617496e-01
6.988259919112864427e-02
-1.826106631472095565e-01
-2.007521689845521151e-01
3.327448490135714865e-02
2.094376736224310975e-01
2.074942762008626096e-01
1.437255232417493089e-01
8.152043557039333199e-02
4.715669815478260030e-02
4.938508160247261081e-02
2.538712699448789079e-02
-3.667444647213205511e-02
-6.443991189942442632e-02
-3.589503293733514039e-02
2.933162227496935448e-02
1.150811869282963446e-01
1.612545929331704042e-01
1.247817345224930263e-01
4.842428663040337922e-02
2.570333968230878452e-03
1.101992263748940992e-02
-1.187576639956926944e-02
-1.228403855683700419e-01
-1.540068692938545702e-01
-9.055346239227497762e-03
9.009421944942540283e-02
2.487170029282613146e-02
-3.733263485725137054e-02
-2.966055766349332337e-02
-3.939186470380754562e-02
-6.895704280915637696e-02
-5.489003281409565727e-02
1.758520344196199889e-02
8.446683971311881589e-02
6.481644212937509586e-02
-1.052890797478095962e-02
-3.717565358649375235e-02
-7.612870635319245877e-03
-2.801894451268283244e-03
-4.811024314804701607e-02
-8.293788289475183262e-02
-6.320057467204642787e-02
-2.661284961501669474e-02
-2.033284233987748060e-02
-2.155987148337661433e-02
1.612134632776027199e-02
7.256534928251751060e-02
6.311176069739174443e-02
-1.298957569217033987e-02
-1.401736610547906110e-02
8.978349804079517604e-02
1.583670739938229099e-01
1.684271435276560314e-01
1.157945236363717850e-01
-1.087129227388171915e-01
-3.477303196591543522e-01
-2.737623669003689808e-01
2.679930110960563466e-02
1.582341089221096786e-01
2.043444439156375664e-02
-1.127665963574801949e-01
-6.441536313066048569e-02
4.112004064381364482e-02
5.444395493418557885e-02
5.609854395340098387e-04
-2.369923143666821316e-02
-2.171812214397665381e-03
1.606432648919838349e-02
2.021529156402187069e-02
3.042586302573086626e-02
4.931825710297626369e-02
7.310141618403444286e-02
8.958705649525952608e-02
7.530942450578667624e-02
1.691097247980890769e-02
-6.086317126256263199e-02
-7.118001610003447943e-02
2.228130684747192322e-02
9.477962646223658805e-02
5.020977699190590227e-02
-3.709950166452773146e-02
-8.090168850385040522e-02
-5.314461103806905617e-02
3.328358284089651814e-02
8.549384478275592891e-02
4.401052111939640632e-02
-1.968322918283784556e-02
-2.694714204844239278e-02
-6.138349333777786201e-03
-7.236835137872318913e-02
-2.300021025376103312e-01
-2.678298913461115704e-01
-1.502676637349245059e-01
-1.231862651427759053e-01
-1.291500069742894108e-01
7.785568952265300990e-02
2.860119669372357398e-01
2.330899748273504990e-01
1.169499033236028884e-01
7.678328735503398006e-02
1.085328393383717515e-03
-2.189397832143858899e-02
1.392364173620546930e-01
2.765698277519075821e-01
1.991013686173596087e-01
9.083305179687439779e-02
8.081208112667906396e-02
-4.515874344660551071e-02
-3.133072447140720640e-01
-3.782596605130524869e-01
-1.638429379934314423e-01
-2.086661174593957765e-02
-7.841969210222128617e-02
-5.543080319217017632e-02
1.055650418047208994e-01
1.171304501764982853e-01
-7.100927590765380992e-03
-3.863096240534456133e-02
-5.492809871602243738e-02
-1.434326855335557871e-01
-1.515319019821539936e-01
-1.598025877915814838e-02
1.581443465384407276e-01
2.630870610252853403e-01
2.361496449241121121e-01
7.399321489220617165e-02
-8.489443514266697965e-02
-6.279251378608487200e-02
2.527404630255408735e-02
-9.144000172776995186e-03
-2.114057977756602508e-02
4.972567515142539696e-02
1.020502855401220557e-02
-6.693417618564062588e-02
-5.600242532580709809e-02
-1.558203241621157198e-01
-3.268520044571995298e-01
-1.935390911917927448e-01
1.514544551176849607e-01
2.285427348029208106e-01
5.977672993091143194e-02
4.945197745727601679e-02
1.581674857182107652e-01
1.169557269157970869e-01
6.985171263516623541e-02
1.229175445666526589e-01
2.814642105027590976e-02
-1.514225796559159343e-01
-1.060604597342727357e-01
4.156574608071614968e-02
1.590918430035719033e-02
-6.010908618124982672e-02
6.886882729659225821e-02
2.642409528591416201e-01
1.777495411041387086e-01
-7.902507883776425934e-02
-8.766078672361113377e-02
1.333547720275784776e-01
2.456700158828291070e-01
1.264028027516420905e-01
-1.513834608117790026e-01
-4.073938057511978239e-01
-4.135888663293327827e-01
-2.009089618329982230e-01
-2.605934162911241816e-02
-1.885804332023053448e-02
-9.541226949841956351e-02
-6.740375211382194920e-02
7.545121283013378477e-02
5.655312014692804451e-02
-1.846956527600468467e-01
-3.131678847060154758e-01
-1.818804770656221870e-01
-1.979065980746680387e-03
6.166875040251613982e-02
8.540439557279608240e-04
-6.607965610943836166e-02
1.819698444112912566e-02
1.075220507736234510e-01
1.540888972245369609e-02
-1.812582212919908176e-02
9.671193276593395560e-02
6.864889986180666703e-02
-5.531876734770529991e-02
-1.623777339028838890e-02
1.463129092033183809e-01
3.425753980156430178e-01
5.321416208846034834e-01
5.848191677858418647e-01
4.542203081116870100e-01
2.609885286067361587e-01
1.733387207956156306e-01
2.311152715941650060e-01
2.651225633084101085e-01
1.431198684185454040e-01
-5.593453283554378208e-02
-1.958126689214052529e-01
-2.523557561654727888e-01
-3.323522814685987425e-01
-4.879249008195893911e-01
-5.928650181477834735e-01
-5.373867624724320002e-01
-3.744103187536340083e-01
-2.354687923696901497e-01
-2.033173133451832704e-01
-2.203855364070914091e-01
-1.705572779252744475e-01
-4.775944192324414750e-02
8.033272484041881212e-02
2.092709650137581923e-01
3.624304672505725411e-01
4.069634859524041692e-01
1.413954535825398817e-01
-2.560708227964562655e-01
-3.480114237417210599e-01
-1.286740623363343827e-01
7.278534506960381012e-02
1.421022727796565077e-01
1.339539987421108913e-01
1.338358138276167508e-01
2.124598258166117415e-01
2.681577842954568358e-01
1.705461988064252421e-01
4.623928718186155751e-03
-6.837525608206176941e-02
-3.784143843472412283e-02
1.413860877477531031e-03
-1.355943353946651581e-03
-2.717261775922154288e-02
-3.111948516912002582e-02
1.074396074916608018e-02
6.146164885247869247e-02
8.268712554776848356e-02
6.401163482513404224e-02
-2.263566050431640997e-02
-8.653002045723826030e-02
-9.761338333929218958e-03
2.854934111010035830e-02
-8.437298961605591008e-02
-1.071582557741743713e-01
8.184131014363729695e-03
7.111749712716144978e-02
7.482710813415299755e-02
4.438631277139496595e-02
-6.084458288446925600e-02
-1.542228739585479458e-01
-1.438616089229238781e-01
-6.921945877379889756e-02
1.704522767102052000e-02
8.458935424840692552e-02
9.964899298570523145e-02
6.692076781823885767e-02
1.640388651751677196e-02
-2.592984144191497198e-02
-5.147230622265516753e-02
-8.870587328411133621e-02
-9.980988031529204607e-02
1.424678315883889240e-02
1.574309772301160926e-01
1.263816027787294238e-01
-2.540773363909559768e-02
-7.924740832525617451e-02
3.600925691354610325e-03
8.286619151174125231e-02
9.807645324679190035e-02
5.442251007644474670e-02
-1.132076352228077037e-01
-2.950876782549552990e-01
-2.212503567881447530e-01
3.383810137680302865e-02
1.346535473346124057e-01
6.745453697013058247e-02
7.643519785919672405e-02
1.428472374659436606e-01
8.493474026790803766e-02
-2.996520354610546916e-02
-7.230523153961397609e-02
-8.565464992666033117e-02
-8.157120209656609777e-02
-1.597083679068568574e-02
5.625418217055136449e-02
7.797568093081803930e-02
7.258723082477878952e-02
6.440793143529591203e-02
6.842840721481528721e-02
7.448355287468616526e-02
2.868023821412354554e-02
-5.414995574697997055e-02
-8.400073961551687840e-02
-3.805700764718182583e-02
1.522314486536899096e-02
6.477173043393917931e-03
-4.550900914325028968e-02
-6.046568330929569246e-02
-3.720864568333231287e-02
-4.899663090142335198e-02
-1.182182389062030881e-01
-1.843694748014775286e-01
-1.630412956730030172e-01
-8.630218175648962653e-02
-5.114403947783258131e-02
5.208159061654536043e-03
1.022501176753493890e-01
1.162689355457127011e-01
1.700790297059871781e-01
3.425714775726012018e-01
2.808378039479977328e-01
-7.336942624889630782e-02
-2.635764335977957007e-01
-1.731000938343286721e-01
-5.183374745531972583e-02
7.893762311388849429e-02
2.449096449833596256e-01
2.893950806189734548e-01
1.890128109876006712e-01
4.790392935336433566e-02
-5.887632001511555746e-02
-8.593390772270129152e-03
6.482928353533895516e-02
-1.671507860925727229e-01
-4.370206312680179894e-01
-2.669564254082115173e-01
6.530698026034180426e-02
1.217211764969821780e-01
4.330255355653241101e-03
-8.820950778362136868e-02
-1.125968752561500169e-01
-7.445634617935606436e-02
-2.096501329984150341e-02
4.076742885304397712e-02
8.943973195715874958e-02
3.519085306855480183e-02
-8.127288586127409675e-02
-1.016337221875401875e-01
6.479569566110341891e-03
1.355380018542157450e-01
1.572328274616314192e-01
3.050150771951982628e-02
-9.516355445918055211e-02
-8.161173134368632232e-02
-5.337484104426563902e-02
-7.633709759636722603e-02
2.493412851953241000e-02
1.836456383130024850e-01
1.255781920967123377e-01
-5.543023303048283390e-02
-6.567957269604304815e-02
5.288692464448251779e-02
3.966748748994766011e-02
-9.202039309530257727e-02
-6.628088244482069347e-02
1.031907641064300218e-01
1.154417122571432253e-01
3.866771119282920444e-02
1.543016037800281626e-01
2.365615334744184950e-01
1.625134271369821706e-02
-1.328649145071507665e-01
2.046746390296708129e-02
6.596564245101656232e-02
-1.150145389540445096e-01
-1.459989496898358441e-01
-4.462803803419464199e-03
3.888242066029259925e-02
2.601842850381841377e-03
-9.194230152566713887e-03
-1.966888607901052730e-02
2.016027389544702147e-02
1.075676831044549697e-01
1.489523955391101884e-01
1.970240930503957266e-01
1.703422945627167950e-01
-1.834035349954661609e-01
-5.871967080863633726e-01
-5.263154291594971390e-01
-1.897253539407276202e-01
-2.860925111393947812e-02
-2.085848157941527087e-02
-2.193180752480376056e-02
-6.264551695793665886e-02
-1.403391414508604607e-01
-1.561738497749751708e-01
-8.084752070599718343e-02
-3.826536808322026501e-02
-7.485916756050206566e-02
-2.840436695881868798e-02
1.165675966649976081e-01
1.427760854796822632e-01
6.165824613671160720e-02
7.875536564990821831e-02
1.538504269248562872e-01
2.038964636637566885e-01
3.302715616844298929e-01
4.581853845113297297e-01
4.153962679122375490e-01
3.119729404251376237e-01
2.841734354381643124e-01
2.784755153945860373e-01
2.638472172045359110e-01
2.536470199805357373e-01
2.150855794501238538e-01
1.014697390542003419e-01
-1.125308591336861008e-01
-3.631521743723156170e-01
-5.010843051358206957e-01
-4.759085055049249724e-01
-3.968390073353981196e-01
-3.476659081806893203e-01
-3.050593834272516958e-01
-2.531785773740566903e-01
-2.172705944007747303e-01
-2.044178959479489022e-01
-2.073709375481422867e-01
-2.035225196299695893e-01
-1.493478025325435943e-01
-4.197751063874055610e-02
6.982706593266002626e-02
1.429479347407542900e-01
1.577603562575308760e-01
1.352655602807476543e-01
1.538733490092679679e-01
2.511053854055376733e-01
3.613138467386886599e-01
3.994941573472214347e-01
2.529697907585091166e-01
-9.771673317528520308e-02
-3.520884132641801667e-01
-2.624803775421434837e-01
-2.438087304492017604e-02
7.942687034313662686e-02
2.688097571478688386e-02
-1.471309671608153277e-02
6.551643361208282779e-02
1.505130547694594478e-01
9.752989317091517729e-02
-3.547360943639371600e-02
-1.112517140186976561e-01
-8.742419762298427044e-02
-2.287990451159706284e-02
2.325058340351932734e-02
4.535858783621058571e-02
5.274631992381451778e-02
3.761296327306663106e-02
-1.242279548642585482e-02
-2.047930846822519635e-02
7.597280697296014684e-02
7.865092343108562312e-02
-9.298063919738630556e-02
-1.135206405853316086e-01
6.718296884011099035e-02
1.054346516341539003e-01
-2.382941612089322855e-02
-1.049956766804754360e-01
-9.151485996784892996e-02
-8.299159084795436694e-03
6.712148212845446549e-02
2.530489625550138774e-02
-5.645963778038212005e-02
-3.609618159555906536e-02
2.525827755563588711e-02
2.741025337064958295e-02
4.211595493060766443e-02
7.954597293164571148e-02
-5.419273215313259034e-03
-1.253188294759306209e-01
-4.116488853999515640e-02
8.971008013133764669e-02
-4.798457829033229982e-03
-1.289962691863486000e-01
-4.191039167470735072e-02
9.513194110882650101e-02
1.104894381017784699e-01
4.939534721112651822e-02
1.104350170264854075e-02
6.735522078241971966e-02
1.698085805853454811e-01
2.069639362093054491e-01
1.371184411883015486e-01
-3.989773049827171486e-02
-2.294275665828811317e-01
-2.705634171574605729e-01
-1.434838335525553399e-01
-2.327373127531447844e-02
-9.379863410392202949e-02
-2.548008320864431631e-01
-2.414600836385945859e-01
-1.079362596112580092e-01
-9.920505436035675917e-02
-1.303177179944913222e-01
3.270766604868018124e-03
1.457255298898644802e-01
1.253390660989919247e-01
1.304026163697087348e-01
2.380753047615976337e-01
2.474203530997409750e-01
1.697384613535485309e-01
1.661996157292250087e-01
1.493098720128076540e-01
-5.427745252743179996e-03
-1.577792054137434896e-01
-1.713259461127551730e-01
-1.222928897611054444e-01
-7.431484802005081103e-02
-1.418533957050164759e-02
4.074671813628780864e-02
8.298699581956769933e-02
9.329608872108356710e-02
3.095710022677500631e-02
-3.352942887111409753e-02
1.439285123115540549e-03
5.974127741975220063e-02
-5.499916339285538559e-04
-1.319419895710961521e-01
-1.461894039494482100e-01
-1.103209557167923738e-02
9.093483653972525560e-02
5.813991665675895953e-02
-9.680943964819176822e-04
1.501870227024915995e-02
5.810825051717005696e-02
4.428970199432340216e-02
-3.207020721938962787e-02
-1.162031308799911095e-01
-1.250330473390769692e-01
-3.649475950574523203e-02
5.133261444490144071e-02
1.060743699757766834e-01
1.873513604956558720e-01
2.080514598357121048e-01
8.890770049758851823e-02
-4.538613068247093069e-02
-1.806255105834104202e-01
-3.526572428003120208e-01
-3.232749302048259499e-01
-4.701547199933586718e-02
8.205818729910051290e-02
-6.209738154607178512e-02
-1.217043761148725589e-01
1.064601696253267143e-01
3.557721566907429134e-01
2.836774100162091639e-01
-1.655243322450310889e-02
-1.437817776060187902e-01
-2.062912749833241410e-02
8.310933143480270235e-02
7.757168453847970713e-02
6.151981481814305236e-02
6.498368669802377651e-02
8.565523616553187558e-02
9.344143108685901145e-02
1.351343123909901425e-02
-1.467966720506369005e-01
-2.693999082903427711e-01
-2.234782483726371616e-01
8.239895456656418093e-03
2.124335809329601088e-01
1.264867225826909469e-01
-1.629872882792485211e-01
-2.820204744286898269e-01
-8.882389775386234643e-02
1.309399348014003150e-01
5.183410837734144655e-02
-2.260449225613719026e-01
-2.638523978581998053e-01
3.159065512587265478e-02
1.991679340843815760e-01
2.770456563360548796e-02
-1.215355654082553027e-01
-5.776724820527059934e-02
-4.023663236105181652e-03
-5.698732340718377920e-02
-7.087134040363587961e-02
-1.010326908825406877e-02
1.442378192925629007e-02
-3.405046091988959966e-02
-7.034925336003662599e-02
1.413183330256782833e-02
1.198943767672212002e-01
4.032657329397609791e-02
3.335308614431239244e-02
4.462041497345961560e-01
8.946977204332768885e-01
9.250053010627463657e-01
6.194401394291966234e-01
1.085471070894899193e-01
-3.040510418258249858e-01
-2.028526940405098455e-01
1.337119206754428802e-01
1.303779730619772093e-01
-1.764168805670729978e-01
-3.943057632594932915e-01
-3.832017010707760574e-01
-3.167791139790135935e-01
-3.601494348195213302e-01
-4.663411735821264004e-01
-5.008842751625262046e-01
-4.091926707267463659e-01
-2.847352380788544246e-01
-2.366700818865463685e-01
-2.022718241468922928e-01
-9.363627223603955552e-02
2.957212858944777145e-02
7.079265856720204364e-02
5.078804265979436350e-02
9.978172391725370627e-02
2.191948107641027987e-01
2.564154960992016674e-01
2.271166109712451364e-01
2.450304070317078087e-01
2.262703503060041477e-01
8.992250075323346414e-02
-1.448271626180559074e-02
3.273145660957189201e-02
1.143116733994875428e-01
8.267682701835928072e-02
-1.191030115041637888e-02
9.804827359816137289e-03
1.590477561516758231e-01
1.966876995917422044e-01
4.231796737211346998e-02
-6.049026176514549907e-02
-1.490136605749547982e-02
2.643288255089429328e-03
-4.786068512748856835e-02
-5.261740020393666090e-02
-9.629312481732196782e-03
1.503749309274615351e-02
5.965336636119582259e-03
-1.849246993667804512e-02
-3.295516784792239251e-02
-4.013259337059338350e-02
-4.645788780662103018e-02
-1.579941721681546625e-03
1.031043375532804535e-01
1.804109752246338960e-01
1.717702223956794061e-01
3.135209011623882325e-02
-2.302025554754310865e-01
-3.838970563445724959e-01
-2.632661576432552830e-01
-3.487335659930402426e-02
9.145629238758216928e-02
8.841014812184125327e-02
9.132067880540245541e-04
-1.016787122709322394e-01
-9.611756703177377903e-02
8.930140304409486807e-03
2.418403402751252013e-02
-4.949086260388689540e-02
-3.431678752934655408e-02
2.828239233650498702e-02
1.912660637125659577e-02
1.845984771763383922e-02
8.296259728725038918e-02
1.170218859420767005e-01
1.001279630251398073e-01
8.266971917036716744e-02
4.657005089702093495e-03
-1.500044996616103354e-01
-1.971375558427346519e-01
-4.910447390595019945e-02
9.486219148537811119e-02
8.380546488017756590e-02
7.263225548020340802e-03
-3.847382027126818038e-02
-3.953529148823161504e-02
4.774918303965553640e-03
4.419890531867582545e-02
2.822423644522832620e-02
-1.922019525798526751e-03
9.158199850189455843e-03
3.544838543111666906e-02
2.486116335329185273e-02
9.157588748108737645e-03
4.435608965115007268e-02
8.562028838902366323e-02
7.944124085350240394e-02
5.366515417088620066e-02
2.370915744577702100e-02
-2.215325817878875322e-02
-5.778485558904708497e-02
-3.702500342491488183e-02
4.040693775234734803e-02
1.003546389721622217e-01
9.492930500204607713e-02
6.360583195286209635e-02
2.113307460692361375e-02
-3.485346034245104425e-03
6.036219844594913064e-02
6.885485663053245164e-02
-1.288195955599667764e-01
-2.785937215306734105e-01
-1.935643953381303017e-01
-8.319139933341190840e-02
-1.011454979680317945e-01
-2.589058419016116996e-01
-4.223909753866063044e-01
-2.484394635334049861e-01
2.003589145404855720e-01
3.868493017368990206e-01
2.141853460827453648e-01
5.683844762853969279e-02
3.287371223627851002e-02
4.185057330641540896e-02
5.883030940938227538e-02
4.079157275646051739e-02
-1.495117010672961447e-02
-6.759933382855867756e-04
1.151076571271601040e-01
2.046972978399840548e-01
1.165045761740428620e-01
-7.823781744582156139e-02
-1.332673173749753526e-01
-4.984314825234290036e-02
-3.577129923468652661e-02
-8.262972118555367285e-02
-6.791576090082643291e-02
-9.294969739969443506e-03
5.095045267317224041e-02
5.350116257479477222e-02
-7.714179794898981535e-02
-1.641463896589931415e-01
2.032115185626399978e-02
2.078474112033282251e-01
2.805800528849953374e-02
-1.916004487843224746e-01
3.446906027118959437e-03
2.562230346794429070e-01
1.240184941070724689e-01
-9.799476742721070777e-02
-1.226187283021946683e-01
-9.851963790722503833e-02
-3.812284099168456591e-02
1.107342103513928588e-01
1.341628043163842765e-01
-1.886295591008290209e-02
-8.140644385414132211e-02
2.472711313519353887e-02
1.176555140012976453e-01
1.100852589882492932e-01
8.017721359385693303e-02
1.303676771280990743e-01
2.184940586053290834e-01
1.191717877240057455e-01
-1.977780960804128019e-01
-3.580829285827048514e-01
-1.694744152854792130e-01
2.242990396047277527e-02
-6.364281078085111398e-02
-2.136660109269868657e-01
-1.399681922131579270e-01
7.001512555404934557e-02
1.652128996513745895e-01
1.267023533375036815e-01
8.644329217473215032e-02
6.293210058136307350e-02
-3.288334553359717818e-03
-8.542828094215233758e-02
-1.031829217320475445e-01
-7.001542497409725396e-02
-3.171865989552696136e-02
3.512195301090999255e-02
7.473333631723028114e-02
-6.011756324711313437e-03
-8.749713954748854217e-02
-3.170871863218062414e-02
4.660239055494739407e-02
1.551525130745710218e-02
-8.809634624884814247e-02
-1.942856189487140173e-01
-2.005749156358091201e-01
-2.761831349489250742e-02
1.221391386813466956e-01
3.394835794585533695e-02
-8.451199821954229197e-02
-3.998358884331333629e-02
-4.637412360635660008e-02
-2.038370077577082162e-01
-2.407985963445579414e-01
-3.903146536154809138e-02
1.602623604278448355e-01
1.828884924878462770e-01
1.020527897038004950e-01
2.493869297074818164e-02
1.417959348182862289e-02
8.001415955122929968e-02
1.588436341510598426e-01
2.230122708557184807e-01
3.103916765442704673e-01
3.993283550747234179e-01
4.100650599733710044e-01
4.281759581277558291e-01
6.684605065853249650e-01
9.404654049559526552e-01
7.356667903077481752e-01
9.058293052158848668e-02
-5.152079956890006640e-01
-8.797839640901555791e-01
-9.564303527422863827e-01
-7.401446827985407317e-01
-4.996488543144015360e-01
-4.668017541175212282e-01
-5.150267485270871859e-01
-4.419824730962662596e-01
-2.795448399712550103e-01
-1.807441618439105113e-01
-1.786457681030298450e-01
-1.873640110543350612e-01
-9.668003859731977290e-02
1.340182979920425677e-01
3.388644003091900725e-01
3.366107061864611616e-01
2.655398062608098630e-01
3.097374499498463662e-01
3.058913311393242074e-01
1.333715273139981505e-01
3.895344289108306629e-02
9.796559840810296904e-02
6.432427263160776787e-02
-2.966110103528479119e-02
2.813377043127103516e-02
1.171410558493400922e-01
6.768532713178374016e-02
3.011252938404884033e-03
3.620798086570283653e-02
8.543019087077102780e-02
7.287727906951874113e-02
2.066040396102472934e-02
-2.613420325728266214e-02
-4.686523961698733226e-02
-2.831698057121227741e-02
1.798218432762004743e-02
3.833803469652133367e-02
2.194767421630886700e-02
1.068670664929251626e-02
-8.665515085846810933e-03
-5.618120793913793098e-02
-6.937878753833072454e-02
-3.143582323551873114e-02
-3.335202775445239576e-02
-8.348591369438243537e-02
-7.060969845657413813e-02
1.769637893180810682e-03
1.630584526185550540e-02
7.198384446039700346e-03
8.628667342901569226e-02
1.972280218001229990e-01
2.365341141683122983e-01
1.444787714042225779e-01
-1.189973986316487792e-01
-3.815584169044751728e-01
-3.750838433919845838e-01
-1.252869588612669227e-01
8.708276635240855268e-02
7.304435026418346077e-02
-4.874211253610110511e-02
-6.356969233683840148e-02
8.519151196966657374e-04
9.643356104110815952e-03
-3.869416936059467960e-02
-7.341862657247866242e-02
-4.030363174106948998e-02
4.147538344991415216e-02
8.822376976020540607e-02
9.349958670170702146e-02
8.903122757558989964e-02
3.934033691348704648e-02
1.685279278968058320e-02
1.135821431718380820e-01
1.304976431869053488e-01
-4.587966065879416772e-02
-1.236698371934012025e-01
3.018933350580830371e-02
1.527417176633906193e-01
8.751836771416010574e-02
-3.593816836596751274e-02
-7.394267534451340329e-02
-1.812879398215241564e-02
5.385155804248095007e-02
6.715173405796408257e-02
2.012768520578602297e-02
-3.152290602169429551e-02
-5.659478225218740610e-02
-6.134238838906828917e-02
-4.135537659959094559e-02
6.202700323500464491e-03
2.292116877998336480e-02
-6.316882823164783611e-02
-1.909177486211166563e-01
-2.147130480477010550e-01
-1.321215359578420956e-01
-4.858120730809690341e-02
-5.900389741912096669e-03
-7.236417781750270617e-03
3.114262436948623050e-02
1.930382786305039344e-01
2.411456492172101562e-01
-1.349385295952622299e-02
-1.746673810274465832e-01
1.006360830308452858e-01
4.552872972260484374e-01
4.442937124414835792e-01
1.273439452330784039e-01
-2.024104431401624604e-01
-3.580756653656949062e-01
-3.211613706242545940e-01
-1.860294636361020382e-01
-4.020116577887231091e-02
4.971609505525908385e-02
5.217694328834895229e-02
6.527955612165715904e-02
1.345727026516915503e-01
9.340982987483290034e-02
-1.023957503992970336e-01
-2.037430651205515419e-01
-4.816356610604687061e-02
1.452539753491977614e-01
5.777784282817477468e-02
-1.900735381092648335e-01
-1.845213703912036429e-01
9.127433813413944608e-02
2.665461037991204152e-01
1.671231954336773740e-01
-3.522947535508072492e-02
-9.951415871838387162e-02
2.749248682149899037e-02
1.279859812147259857e-01
5.693220351559103581e-03
-1.523742029531649778e-01
-1.109955440932307025e-01
-1.197206958361408599e-02
-2.425541864821805990e-02
-7.189376561528382226e-02
-7.630680069213369165e-02
-4.802080382285302262e-02
-2.385429667467900069e-03
4.395475306639270996e-02
4.809081347890195590e-02
1.593269035659910376e-03
-1.851700886135049413e-03
9.393753531646592547e-02
1.760042408575112072e-01
1.176558517425471545e-01
-2.228578531888504577e-02
-7.069760173804517933e-02
1.801936425306083570e-02
1.226662274695452248e-01
1.294101584563377982e-01
4.073492101144902955e-02
-3.339945688947071334e-02
-2.326716975068902210e-02
1.531740447861695831e-02
8.241726940275856395e-02
2.399785807483602040e-01
3.097755191831610411e-01
-8.700586381257494062e-03
-4.816745928707234503e-01
-5.084203208036541799e-01
-1.756786738024649352e-01
-5.139381611153783988e-03
8.496419937633850616e-03
-2.385911391241591489e-02
-1.361640795926248315e-01
-7.074377265993270214e-02
1.716711366377567383e-01
1.794629543215859324e-01
9.508725447071750270e-03
-4.832178853596937051e-02
-1.061575365415453887e-01
-1.589943207579291862e-01
-2.708264605930864669e-03
1.248919146615406206e-01
-1.025464009874473004e-03
-9.894130426338480777e-02
-9.563223658884398293e-02
-1.427412102942832717e-01
-8.016343006246401393e-02
5.334116390197601171e-02
-4.331466679264146802e-02
-2.419213275966881627e-01
-2.372833675584380686e-01
-4.695011884518989626e-02
1.232252762661587009e-01
1.377036376990272704e-01
9.857882488282362909e-02
1.507936674074636385e-01
2.136655302111709620e-01
2.205255204018310433e-01
2.656575310569314619e-01
3.629052404265139531e-01
4.458137685290483043e-01
5.099295303527657808e-01
5.145715064878532141e-01
4.006020205546030333e-01
2.487039964074437282e-01
1.309464703613869019e-01
-3.883961677014183267e-02
-2.851380240361980900e-01
-4.655569870908562446e-01
-5.000393541480260273e-01
-4.566966562522640771e-01
-4.201365677871179982e-01
-4.296320344898444943e-01
-4.353820451765443300e-01
-3.544416214488796402e-01
-2.230448471626940987e-01
-8.654261891874229229e-02
9.545297885305933927e-03
-9.175918574310069908e-02
-2.778811190236152862e-01
-1.885154528642532801e-01
1.114887887962081880e-01
2.741446602316340853e-01
2.483957422095473822e-01
1.743394734219200215e-01
1.346486687448152086e-01
1.525255524961709186e-01
1.739945706776900025e-01
1.248124999506714239e-01
4.402223213835963767e-02
6.273188835100716731e-03
-2.629531160448918964e-02
-4.798029509322008362e-02
5.189682969288469949e-02
1.952885564065667268e-01
2.027060751969034513e-01
1.221713943403751890e-01
7.734192152059028713e-02
6.402927105257524842e-02
7.168037038391458782e-03
-1.016255729507896943e-01
-1.206871197850415273e-01
-1.334786677368011293e-02
3.185164730517345277e-02
-2.467410713859768956e-02
-3.658490140057633899e-02
-3.787103370733492513e-03
-3.903680745160958629e-04
-9.411875866926135148e-03
-3.777257164742317541e-02
-9.939758399455134175e-02
-1.257564358584372932e-01
-8.131743415710898648e-02
-1.334434977984941262e-02
4.384321473771176508e-02
7.895859940489771689e-02
6.863163841131073029e-02
1.993217586577477468e-02
-8.994379065846243651e-03
5.204172912042703478e-03
1.168176959208540311e-02
-2.319938377717761790e-02
-5.887709963794642010e-02
-4.539543745824171916e-02
-1.222464236878397469e-02
-2.944560448396128099e-02
-5.682854734120655615e-02
1.655741775092560431e-02
1.609922594969868115e-01
2.421039943640057868e-01
1.899474939228920356e-01
3.915501285712236906e-03
-2.318658261281193456e-01
-3.331648616936032647e-01
-1.710643408112676456e-01
1.049778972851578979e-01
1.506785308843950066e-01
-4.703841732517170110e-02
-1.150853312510696086e-01
1.894831807117546355e-02
7.027492201643040226e-02
-5.247047424115913739e-05
-3.643080702343619998e-02
-4.372019823101003233e-02
-4.023909695452420471e-02
2.186538891063422724e-02
8.314610865196114808e-02
7.670869171558006294e-02
5.684371920613900953e-02
6.077371572783205750e-02
4.435344669172695126e-02
-1.696831641931238754e-02
-8.769481166744252931e-02
-1.169881174655510864e-01
-7.037695333308612022e-02
2.932806189717430609e-02
8.830444065634102113e-02
5.449200165260842388e-02
-1.221281122276604569e-02
-3.141007175263918483e-02
1.013100705376371140e-02
6.787125962293744097e-02
9.545395137890066994e-02
7.855767830017285069e-02
3.351422101023095873e-02
-5.394329752243867682e-03
-1.268826325849502223e-02
7.254491922742844004e-03
1.682030727734037251e-02
-3.072233451855196223e-02
-1.088978600008578823e-01
-1.308356684593537933e-01
-8.701677505437893645e-02
-1.480555742285952908e-02
4.578251340971434963e-02
-1.145019866836521905e-02
-1.516506235517749712e-01
-1.560830682627465937e-01
-2.713624462083655611e-02
4.736575919561145792e-02
5.909785060750384622e-02
1.208007335833387597e-01
2.857999737886995906e-01
4.211262880648431461e-01
2.461039272734111549e-01
-1.443896877637070308e-01
-2.708141493434035318e-01
-1.141614797895214445e-01
-7.327711280387247395e-02
-1.587233171689379496e-01
-1.569651336032572286e-01
-1.266182122173147850e-01
-1.555709437596113909e-01
-1.185902858561166812e-01
8.579592698213527047e-02
2.878589442907138474e-01
2.425839997679055671e-01
4.775250548537181283e-02
-1.848318184204344322e-02
1.465121697779889209e-03
-6.587100251802061046e-02
-8.146829407656132338e-02
8.765808261361912601e-02
1.556766861095348897e-01
-5.414796937514952668e-02
-1.744371602724881232e-01
-3.449859294349315320e-03
1.048821273658472053e-01
-5.798370561488062208e-02
-2.379685312991726698e-01
-1.850566762348231364e-01
2.615341885413227999e-02
1.698012219826206814e-01
1.592251113567692833e-01
4.133327523650452695e-02
-8.571315491540446030e-02
-6.552023550137317520e-02
8.903162230252913145e-02
1.044414824783968521e-01
-8.144410821234794595e-02
-1.561525060346071192e-01
1.891136516918468652e-02
2.155159605755488650e-01
2.293153937430841560e-01
5.849837644301636441e-02
-1.212306974713713015e-01
-1.101799685408267337e-01
-5.541881706170731503e-03
6.498225206201570410e-03
3.684715577412765036e-02
1.148295925142821666e-01
7.942199661719058501e-03
-1.959280874499195746e-01
-9.281417983307459207e-02
3.193844609773279219e-01
5.720249538679447188e-01
4.077223542990903171e-01
3.990821066448609067e-03
-3.893357332324676179e-01
-5.539320359011079553e-01
-3.828892621528950380e-01
-8.616737253141963648e-02
4.355778447443681145e-02
-2.305884915350742137e-02
-7.569083291477671227e-02
3.685066143061837413e-03
3.603095849753326640e-02
-7.567429791525531746e-02
-1.243459277220381881e-01
-3.109172894774225177e-02
5.317687970385094609e-02
7.604237747008285586e-02
6.997966238324958288e-02
1.961287747330954165e-02
-5.754362586095305293e-02
-7.694952113334659061e-02
-3.146343196549428872e-02
-1.389758435851947381e-02
-2.583967194282629082e-02
-2.965586417485736870e-02
-7.616579063358465407e-02
-1.560390904835539383e-01
-1.943719839153987272e-01
-1.413221905602574657e-01
1.308645073327591168e-02
1.538172561691497076e-01
1.732164879135977831e-01
1.172872364210425511e-01
5.239112373693190217e-02
4.612629937279627557e-02
1.410816545871619310e-01
2.266936001293117786e-01
2.119431781729852471e-01
1.687840753503612179e-01
1.755541183334517752e-01
2.674039262882387802e-01
4.011651326391438288e-01
4.335954427631515395e-01
3.650690322070059834e-01
2.987311771671808946e-01
1.684599948882213316e-01
-6.606953018423473989e-02
-2.610996011358459046e-01
-3.498991749303589360e-01
-4.204236132653326186e-01
-5.043245232703101877e-01
-4.905913964146680351e-01
-3.216930321228229639e-01
-1.550816544957393794e-01
-1.728281217252284896e-01
-3.598450969253129683e-01
-5.435423835281673055e-01
-5.240861270036754060e-01
-2.481823873043944861e-01
7.830030617879338295e-02
2.134771741874900708e-01
1.962446220845119882e-01
2.258092450775625870e-01
3.131297552774036652e-01
3.302102908053973773e-01
2.590714892243018985e-01
1.593426886497176509e-01
7.488383320313167502e-02
5.136922234412544946e-02
8.532845180738404811e-02
9.426222005010345684e-02
6.031191023375705867e-02
5.945833066582320581e-02
5.008039958131556973e-02
-1.140609050068638886e-02
2.352934952646199701e-02
7.876481663411136203e-02
-9.249179757174688654e-02
-2.389977787341267534e-01
-6.008244678196066058e-02
1.293441457223589719e-01
5.724963630754467681e-02
-6.638258298444656147e-02
-4.674997846803947976e-02
8.600622022813986245e-02
1.898927033167914780e-01
1.402756890674745904e-01
8.243756916068831556e-03
-7.762941606098394676e-02
-1.112146664263324036e-01
-1.003092202503077790e-01
-5.515516435239335713e-02
-1.467706219771903325e-02
1.581679734998988826e-02
1.939627966930720232e-02
-2.195592192310747912e-02
-7.651318768033803230e-02
-1.299120963884010660e-01
-1.394138973270347970e-01
-1.262379313232971263e-02
1.698280156383350226e-01
1.658367781706883148e-01
-5.144960460658531270e-02
-1.925413243159158627e-01
-7.359516494562584610e-02
1.099170368139601173e-01
1.546787346236086491e-01
1.208947230280535690e-01
3.942887250175558522e-02
-1.305821686930730696e-01
-2.401593170052821746e-01
-1.166882681726268134e-01
1.142372480681455860e-01
1.659766110323867838e-01
2.083027280065295056e-02
-4.932523506595513918e-02
3.787653274744475634e-02
9.100514555001254502e-02
4.043016521751610637e-02
-1.692681580222837531e-02
-2.627742080590761073e-02
8.340555875135935437e-03
5.778005616310082776e-02
8.518363646269595801e-02
7.651197313775343067e-02
5.374070078113243193e-02
6.653718894870983003e-02
7.152789748158731864e-02
-5.536671496574168544e-02
-2.454738717629885714e-01
-2.846813300303631111e-01
-1.397449226180464132e-01
3.221847815759626421e-02
5.807013145726798442e-02
-1.169012765134682108e-01
-3.214002442676616722e-01
-2.954792514785268276e-01
-5.604354022889150577e-02
1.179709398856063629e-01
1.630681766549266776e-01
2.537911834705393055e-01
3.634900547567043727e-01
2.969302502039294911e-01
6.754721616843885335e-02
-8.339179656340414692e-02
-7.244155081304598509e-02
-9.066817858112782846e-02
-1.681307106247202365e-01
-1.296346580939633231e-01
1.753310824549581329e-02
1.634167336588605302e-01
2.156616600230779612e-01
8.477113638624141079e-02
-9.582092887949240911e-02
-1.359457965895733145e-01
-9.440523812617516997e-02
-1.939897148754216039e-02
1.019141930282476266e-01
1.485743487932023321e-01
1.720190442001842124e-01
3.502662525241823088e-01
4.021916835801202517e-01
-1.276031106615212185e-02
-4.614062502855403314e-01
-3.815254997301661399e-01
-6.585982360600103891e-02
-1.298481317481807451e-02
-1.354153164727243397e-01
-2.415764741145705330e-01
-2.480406338085728579e-01
-3.285422699715737083e-02
1.341901571920059988e-01
-2.918931609819674922e-02
-1.242726989266365323e-01
7.626945970773914285e-02
1.732040699311840071e-01
5.611254822868678993e-02
-3.843121405938293433e-02
-4.566284367299457830e-02
2.448773648189728203e-02
8.273984662990446770e-02
1.988422235449020803e-02
-2.100412725443181680e-02
1.239613993792818003e-02
-7.334297344456598700e-02
-1.413533275120946453e-01
7.338395170122452571e-02
2.886168573826020101e-01
1.997709608074225707e-01
5.107421871133999147e-02
1.165361926765536016e-02
-7.147678868779126782e-02
-1.481644099514548008e-01
-6.114984113619425371e-02
1.089954667877335026e-01
1.974363511070918731e-01
1.302675057327334629e-01
9.281080784929389427e-03
-1.922815449170309568e-02
-2.930815639076026630e-02
-7.249094621523979876e-02
-2.406251166441379305e-02
7.022572519646654021e-02
5.582883090213801303e-02
-2.230909181084182388e-02
-4.430227548172602225e-02
-2.648014760936607398e-02
-7.861839257832235750e-02
-2.005699887447377205e-01
-2.112130311920409065e-01
-1.938503073265589183e-04
2.874840486524709027e-01
4.187783253252800875e-01
2.694221405217057663e-01
-1.296341041797009486e-01
-5.342473448871070119e-01
-6.052112946614294220e-01
-3.527986160524524406e-01
-1.475764221031117263e-01
-1.140206591103040401e-01
