3.193618987350858689e-03
-1.540306229992464276e-03
7.025168060076807108e-02
5.326083631577460675e-02
-1.679117130550256132e-02
1.518421885100117857e-02
-5.028022946427013196e-03
-1.066328262048790443e-01
-2.406619386630907964e-02
1.527830956433038345e-01
1.405291207303605849e-01
4.105177887170555207e-02
8.355575692518319234e-03
-2.827468852103057206e-02
-6.317059366717633906e-02
-4.629786885469863028e-02
-5.184433095243624889e-02
-7.899233485906259622e-02
-3.233497191183107300e-02
3.787710023688553584e-02
2.526302150293267476e-02
-1.719649572445484248e-02
-6.631066436141461184e-03
2.042169772091955923e-02
4.114191869469148444e-02
7.804842020686582338e-02
3.569273136584435319e-02
-1.468695625848720487e-01
-2.464571013924105880e-01
-8.913749373592036451e-02
1.048647356341012304e-01
9.804802817018315464e-02
-7.054493150545539798e-03
-3.871423697045968393e-02
-1.669014103418937217e-02
-9.718479861756806892e-04
3.272670832274920255e-02
7.604168517730916510e-02
6.103563744096514310e-02
-4.172511920964521934e-03
-3.796903190276384316e-02
-1.100669761313639340e-02
3.389807198938960681e-02
5.183166479457471110e-02
5.078061525179238672e-02
6.942029356952673924e-02
9.764008697499618195e-02
8.586304661634026891e-02
3.427345872112030900e-02
-5.753323635778948009e-03
-1.042988542540641134e-02
-6.391087676056034228e-05
1.342123040350996430e-02
6.387788956939641390e-03
-6.215814526667758078e-02
-1.216047745961030685e-01
-6.518440267440250846e-02
3.274584205215685245e-02
7.259859362459242238e-02
1.084374151298387601e-01
1.234418516817983591e-01
-1.646618893835207278e-02
-2.147097316914395870e-01
-2.092161141562860760e-01
-4.872464864766971188e-02
1.985042997116153243e-02
-1.946297908980768390e-02
-6.786467223326533849e-02
-1.086453304745003817e-01
-1.072184052244975899e-01
-3.871709479291411682e-02
8.939307174637214914e-03
-4.487932748827509755e-02
-1.185178960768956680e-01
-7.561511613405588750e-02
4.291810130092243991e-02
6.443239820890916958e-02
-1.222499434299699136e-02
1.259193567394096755e-02
7.114843048192974473e-02
-1.220295707618852393e-01
-1.485815597388627507e-01
4.885774825559454082e-01
8.538131520737977098e-01
2.215530727840444303e-01
-3.380386855950673342e-01
-2.026308301884125473e-01
-4.135854623285953324e-02
-2.764378382886033617e-02
7.033595952684991437e-02
6.637976710761131494e-02
-1.081003167833427675e-01
-1.821430130197196073e-01
-6.278488609414992205e-02
4.426191203823282017e-02
-1.344261455971023506e-02
-1.362942533408319778e-01
-1.681683267989465269e-01
-7.657228781134241269e-02
1.301925147685927819e-01
3.212198135765778062e-01
2.508354409398184659e-01
1.738942861117074440e-02
-6.296402462483774443e-02
-4.521550136616901694e-02
-7.878099160165957793e-02
-5.259721447738198441e-02
2.337451825182211562e-02
2.634994740675545080e-03
-3.381104000616541594e-02
-1.374239296484511610e-03
-4.357428543687804495e-02
-1.272264378310512256e-01
-8.417314093155794236e-03
1.924752718032286536e-01
1.409543829014537897e-01
-9.962616828773221411e-02
-2.511067327069112509e-01
-1.961557180288628355e-01
2.614115709178089358e-02
1.920987928005101486e-01
1.106687198679764395e-01
-7.520594109279318817e-02
-1.438780402672471814e-01
-8.419495605600921251e-02
8.627847192176355678e-03
4.482954030931902284e-02
2.594241087515297695e-03
-4.066745826572654848e-02
-3.236184914130366130e-02
-1.176660325588988615e-02
-1.773555719354507482e-02
-3.766887813640217020e-02
-3.505367489532167785e-02
1.269165401196211025e-02
4.977903332251298191e-02
-2.915143962646213338e-02
-1.533294486963294734e-01
-1.096039358787728735e-01
3.959791664802206346e-02
4.830284723940938413e-02
-1.430377363597688800e-02
3.534153640190476620e-02
9.722335599785270066e-02
6.425193129596437625e-02
4.391845699139710485e-02
1.023853404740281137e-01
1.618957096472798951e-01
1.938618523572554486e-01
2.582165893822745972e-01
3.174167734645665373e-01
2.517799117069046133e-01
9.800805592286040979e-02
2.066885211329632516e-02
5.680703176073523264e-02
8.477349022003280443e-02
9.851230638270595114e-03
-1.203848822183953837e-01
-2.048975581689588266e-01
-2.337484528343757029e-01
-2.412845935117998719e-01
-2.320043533415534764e-01
-2.414330303775522879e-01
-2.313367605673867233e-01
-1.008498831831214915e-01
-9.152877974213284584e-02
-4.082471453504282755e-01
-4.840395641187087983e-01
2.455858276337108057e-02
4.053831697467725759e-01
2.601360954506055645e-01
6.257278985991797382e-02
4.035712773175260948e-02
3.959051033488046600e-02
5.343751932344865258e-02
9.506115093756031809e-02
9.285346518708577357e-02
5.002495371170605221e-02
1.062698943610732721e-02
-1.164642267901002878e-02
-1.584646728487579953e-02
-2.229208798955011755e-02
-2.688672610186084236e-02
8.016494922763201664e-03
5.979118100651377443e-02
7.817214977675222831e-02
7.582278246353139906e-02
7.117987574105394399e-02
4.907680369705824663e-02
2.199728532368410219e-02
2.451549024156473439e-02
5.814373145556819139e-02
6.742090646446409485e-02
1.183363967214532894e-02
-1.294679843590624754e-02
6.264560167000986224e-02
9.709681858947426247e-02
1.364549897175528111e-02
-4.610382683554208050e-02
-1.499141433598908529e-02
1.605721675453354591e-02
4.706883498472065955e-03
-1.355021399295097163e-02
-3.810368369411523681e-02
-8.597530554229136646e-02
-1.295919909241123880e-01
-1.342205103049618486e-01
-1.005277516184665543e-01
-5.737882442523778437e-02
-3.509863234909167684e-02
-4.052131719776980168e-02
-4.780777138323475534e-02
-2.624190726269230028e-02
-9.245766763788614701e-03
-4.584791759322491556e-02
-8.480070271230238932e-02
-6.979778169681440103e-02
-3.722596415950302218e-02
-7.683674946064388001e-03
2.100023258506758181e-02
2.324162106406512524e-02
5.021002246218918275e-02
1.434077225967149705e-01
1.842104547279270477e-01
1.446658902340769992e-01
9.789383198027311328e-02
-5.858089710114028348e-02
-2.210016278797195810e-01
-3.929064089881816740e-02
2.670150917803590374e-01
2.364333180255371036e-01
6.060992205976497432e-02
4.170807034486393589e-02
5.066809125760897425e-02
3.965194924697643120e-04
-2.726284672663438144e-02
-1.851534162268499845e-02
5.063095200351679787e-03
1.815365103531105945e-02
3.492485787500226521e-03
-6.764277429799412170e-03
-8.038562854048374520e-03
-4.066513580364188030e-02
-9.053510895305455497e-02
-9.316979368258830607e-02
-3.575098325688320922e-02
-5.451322940119228758e-03
-1.001215824006597005e-01
-2.304019909736721161e-01
-1.680912021694961900e-01
5.035654110524855759e-02
1.280600982120637943e-01
2.276961183536382188e-02
-5.854111551888896425e-02
-6.227897743033681405e-02
-3.822970004663375776e-02
6.487478755162659483e-03
2.478508452814330923e-02
-1.614233256635779629e-02
-6.253990160261879705e-02
-6.669829390826455262e-02
-2.621938019991701396e-02
4.482835408072651656e-02
1.176030683606583555e-01
1.469128192510511799e-01
1.056473705111875827e-01
2.582728961135925469e-02
-4.336159682320613051e-02
-7.149816592557367567e-02
-2.703289235777621424e-02
5.832416622583346671e-02
7.167810161798711388e-02
-3.080404379702750273e-03
-3.251965089556507760e-02
1.701633816320870241e-02
2.174232889199986113e-03
-7.876771191159681607e-02
-5.705656469760832239e-02
5.163262352684279410e-02
1.428755644043798179e-01
1.019367169376868554e-01
-2.402243420809506147e-01
-3.154599237853885629e-01
4.998376527042423523e-01
1.024246386896451089e+00
2.692328963532528707e-01
-4.594784843362592630e-01
-3.145082819727459400e-01
-9.375166611305355002e-02
-9.318889765947388493e-02
-4.244956206986923858e-02
-3.450875057922258432e-02
-1.371299144541582582e-01
-2.129936424009257478e-01
-1.853879738646460607e-01
-5.869356445727774013e-02
5.322480344059594970e-02
1.605383243542604643e-04
-1.127196230408161748e-01
-8.424133100669914387e-02
-1.119834719785714992e-02
-2.587861947966597215e-02
-2.630605886175650318e-02
1.804453703711949436e-02
4.168030986507521157e-02
6.742333502003855505e-02
6.742101563005417630e-02
3.001923318016415029e-02
6.757844765718633295e-02
1.468988281152953379e-01
1.397479626316925072e-01
1.095661435608410728e-01
9.797336154387391305e-02
-7.597662815776628359e-03
-1.299451497978635350e-01
-8.646153695901714897e-02
6.327764213555200912e-03
2.271292130390734510e-03
2.652630058548406319e-02
8.930604503028610752e-02
4.182615438755685894e-02
-3.143190541797430404e-02
-1.154460753401904960e-02
4.708411047680211362e-03
-1.918305552016328144e-02
-1.992755319663427546e-02
-3.090099476928174355e-02
-9.362935684914816536e-02
-1.473198866508364513e-01
-1.330109455099013072e-01
-1.015718066691551486e-01
-7.293538751340042370e-02
4.266144451917539687e-02
1.616282605887568724e-01
1.131323554592911229e-01
-5.977169306319862763e-04
-9.891262239924168698e-02
-2.344165722900128368e-01
-2.016803375969796197e-01
5.343257247585635888e-02
1.296272615398146033e-01
-2.795438844719768529e-02
-6.349899911548925746e-02
3.859936460183301110e-02
1.270462866039642758e-01
2.109378673525021675e-01
2.175020288453449191e-01
1.278882429223903161e-01
1.093015896301264833e-01
1.640300544754933199e-01
1.680247435045563453e-01
1.624139684248840920e-01
1.904541800905110160e-01
1.585629424259462905e-01
4.727571515949086089e-02
-6.319507970667453955e-02
-1.658676203843884311e-01
-2.586434988874230512e-01
-3.078575264023006852e-01
-3.453744630648229452e-01
-3.185812153155959670e-01
-1.514477823841426929e-01
-1.782333993387090823e-02
-5.947278940613112685e-02
-1.130858503864106968e-01
-3.932640227479272665e-02
3.067234700681455845e-02
-3.346986867981659175e-02
-5.773545926357785685e-02
9.595463864488468220e-02
1.901356018735350650e-01
1.314317374018490747e-01
1.317382013858174328e-01
1.481071213250990115e-01
5.906795343636325746e-02
1.738075527728464090e-02
6.403772577521782416e-02
6.113448288428209587e-02
1.731846441114363172e-02
-1.650090360744239926e-02
-6.141309809889600180e-02
-7.795362164026137242e-02
-4.572209970954908831e-02
-3.836668862173443773e-02
-6.761451786830564858e-02
-6.740676474607285029e-02
9.371986771135530983e-03
1.152722445751132585e-01
1.038172682799125973e-01
5.665583075936769103e-03
8.711314067910607209e-03
2.500285857685424426e-02
-6.792297672573656409e-02
-6.064465075653328180e-02
9.073843798937308858e-02
1.221088025393349541e-01
1.134950841169059602e-02
-5.814448787601168150e-02
-5.545228714584900243e-02
-2.112924891724409643e-02
1.408294607375741060e-02
-9.706980379295376826e-03
-6.372283727540954679e-02
-5.412978129066647881e-02
-1.238186507121193623e-02
-1.890822762322400680e-02
-3.852624666898230715e-02
-2.778913758816515048e-02
-9.653198727457084141e-03
1.566731114818836409e-02
1.732144809227143326e-02
-5.100968762246533422e-02
-7.215775950104785785e-02
5.752213587992433680e-02
1.731215165996204397e-01
1.172679754522430590e-01
-1.977349753598060464e-03
-3.907959990582654530e-02
-1.227063176801624841e-02
-4.786306244879313596e-03
-2.904621668191707806e-02
-3.544076296389163383e-02
-1.661126060830325074e-02
-1.695071003131517345e-02
-4.011633619402479173e-02
-5.043720283256274139e-02
-3.998408166816799086e-02
-1.945024951655551296e-02
1.843581275550374918e-02
8.002502345380695103e-02
1.343135181143214341e-01
1.416568444472615096e-01
1.043433774711372830e-01
4.813607881086941209e-02
1.457121910541936231e-02
4.384628048038753667e-02
7.611177927560279499e-02
2.978221550888076122e-02
-3.393186882048290082e-02
-6.762015950761801619e-02
-1.251527679369750790e-01
-1.372288117139621733e-01
-3.127828299810245932e-02
2.502344198205488576e-02
-3.651124103981882862e-02
-5.882208150977860650e-02
-9.810246590646040654e-02
-2.237276951352124843e-01
-1.678532066577693160e-01
8.505198338294904514e-02
1.525115447740263974e-01
2.433347023320098224e-04
-7.229299599082804340e-02
-1.526289207980727203e-02
2.299869107340517249e-02
3.891619804042345532e-03
-1.977182002757183268e-02
-1.610904887621611783e-02
4.531934373193447115e-03
1.495350152902022098e-02
4.298120094354097864e-02
1.364148847382548324e-01
1.818287337192238118e-01
4.079308974092715756e-02
-9.244944812682305557e-02
3.623798448319427712e-03
7.405525415815258916e-02
-9.119558977648364873e-02
-1.594759518167892520e-01
3.426556721275343664e-02
1.634680653335340850e-01
1.083244814232586783e-01
2.269187899620971061e-02
-2.099838642152049295e-02
7.307263592429268095e-02
2.128427140554436658e-01
1.054980393154666407e-01
-1.097436559222413205e-01
-1.342606980763632885e-01
-8.809628275211398019e-02
-5.910855214052502388e-02
2.898092426064138513e-02
4.199144544981192606e-02
-7.175553347148980188e-02
-1.306578044419395290e-01
-1.073040329521268155e-01
-6.141354436248921272e-02
1.593270975278274909e-02
4.971945137089978789e-02
1.716621642535071796e-02
-4.095120810083502719e-03
-3.064642645102117272e-02
-3.375970952460513597e-02
5.174219555405439736e-02
8.635282831978861873e-02
-2.842876620206113633e-02
-1.279633587545252194e-01
-6.971892802623939900e-02
9.578562158788597736e-02
2.203363358151251283e-01
1.687042293009695937e-01
-5.476735157455372982e-02
-2.294992278607585479e-01
-1.013747462046777070e-01
1.952768213951869003e-01
2.452556608995520304e-01
2.914828941108426469e-02
-1.155526774150405916e-01
-9.586322766820651320e-02
-5.910101917424483847e-02
-7.884134321842950488e-02
-1.118623673718430883e-01
-8.142232130606194551e-02
1.404644019028868616e-02
6.850169730476791952e-02
1.352901753892842007e-02
-5.635401018093304237e-02
-1.958346906916916957e-02
6.640628346972554663e-02
8.791296215240332335e-02
3.785030254833371410e-02
-7.815133128794835016e-02
-1.762695962664051208e-01
-1.086988267252841089e-01
4.233503082501125642e-02
9.617284810031007103e-02
3.839899847628287788e-02
-6.760094828786017418e-02
-1.022410620696219685e-01
4.973873052681460072e-04
7.837970509286391885e-02
2.438167469268546009e-02
-3.367996404114484334e-03
5.342811176868544204e-02
2.819910749674622852e-02
-3.099892918140907325e-02
8.259899489925541516e-02
2.226884487383929967e-01
1.738021358629955881e-01
1.114019354149652086e-01
1.753150289606401624e-01
2.053256218363133934e-01
1.431820161471920594e-01
1.013865562558347033e-01
8.404015441725766478e-02
2.369897583622119358e-02
-5.496816047704913832e-02
-1.252801498998021290e-01
-2.173305802724947444e-01
-2.960593649958376261e-01
-3.215376528586362248e-01
-3.266207937142031059e-01
-2.631438836293730765e-01
-1.001079840010664496e-01
3.171252923406947533e-04
-6.656047019815009014e-03
2.121745459809083745e-02
2.592815230059640486e-02
-6.431501953910939706e-02
-5.215834897522735047e-02
9.597422414051806627e-02
1.496628876401125408e-01
8.679054102188041298e-02
5.391583939923418056e-02
3.948085181948052247e-02
-9.790514502055126800e-03
-2.476148444814438992e-02
2.322370919383959231e-02
5.656337686095452844e-02
5.162199038652655336e-02
4.676020728767841389e-02
4.771413469198663299e-02
4.063326108409236193e-02
1.420480795481651216e-02
-4.413449867886391070e-03
5.046042050903232906e-02
1.324525013934217399e-01
8.740844891371171710e-02
-8.577348666339153216e-02
-1.772728407106146931e-01
-5.909617773232100219e-02
1.025699510854864716e-01
9.774852005162373847e-02
-4.302835769323803961e-03
-3.568558558703169292e-02
3.786940787322130159e-03
4.061258335681111609e-02
4.538575531339026498e-02
2.208018430149176481e-02
-6.172154284680508342e-03
-1.851753317984126262e-02
-2.462492136858317193e-02
-5.628108564466062502e-02
-9.915564355563312449e-02
-7.854009632298825094e-02
8.701155110422359104e-03
4.652548799509201305e-02
-9.573647097894009972e-03
-5.184585895928960075e-02
-2.412515950434101011e-02
1.525977676638218955e-02
3.994775264492735761e-02
4.048130632303839627e-02
1.113576725921273936e-02
7.878376714901786509e-03
1.223134847766921968e-02
-2.075872469660144243e-02
1.702786041508272050e-02
1.142167845923177244e-01
7.939236618393455402e-02
-2.061939950451620665e-02
-1.767384033808782132e-02
-4.572517309702169019e-02
-1.539531936519263622e-01
-1.114342950639950897e-01
3.110024227516607759e-02
-1.248768414529432755e-02
-1.506679657024752317e-01
-1.110734386255254474e-01
3.229037919629160203e-02
7.051882931919489783e-02
2.273903929570827293e-02
1.441465858379349652e-04
1.443741168098468253e-02
4.069342533116481614e-02
7.853211451628247519e-02
9.869060286665862214e-02
6.303874857691513234e-02
2.279072199806416593e-02
3.443106797816151976e-02
2.925434938220094344e-02
-3.889182306213602447e-02
-1.011264893412634897e-01
-1.081401427059760778e-01
-3.521605793528489320e-02
7.973819601938028634e-02
9.911542325101606321e-02
3.049264923056856785e-02
-7.733190186296216330e-03
-3.558513446657660118e-02
-5.278471485681798803e-02
7.076362116788692536e-03
6.180098784652530985e-02
2.279464725456315649e-02
-3.542793399446848845e-02
-3.284173298958275450e-02
2.374814704371898746e-02
6.245604676416321999e-02
2.203349152789450122e-02
-2.272204025905627187e-02
-2.155410820800945579e-02
-6.744031768313178687e-02
-1.058411696509802824e-01
5.035021058905854788e-03
1.315227546890324339e-01
9.526540244216780140e-02
1.041020399111519321e-02
3.806378985828376416e-03
-3.566078833117591190e-02
-1.410795604430355732e-01
-1.299166206648373345e-01
5.565612803500343680e-03
8.858662057157085101e-02
1.146385242238067981e-01
1.421829775892843040e-01
1.230934940708011960e-01
2.955240540496833351e-02
-1.269801718506887722e-01
-2.073755263802477267e-01
-2.147121519919574506e-02
2.019694780481861018e-01
1.148832575790714738e-01
-8.665853996018724192e-02
-1.565055126533350383e-01
-1.851378872735168768e-01
-9.939973745114197290e-02
1.314233263336089530e-01
1.651672197802331876e-01
-4.477676972711395337e-02
-1.423284462915147541e-01
-8.478291821997618882e-02
-3.900799645827231210e-02
3.658517008354714856e-02
1.024152104153353698e-01
3.924219405255553739e-02
1.023053302574463384e-02
7.319045545698864286e-02
-2.712424270997019354e-02
-2.046296041700778889e-01
-1.512906574518309566e-01
-1.036932977662189531e-02
2.014941817540154972e-02
6.094326398446799770e-02
9.213819920204817382e-02
-7.611647343169637703e-03
-1.062756455793223975e-01
-6.107637222877021488e-02
1.874829647257682252e-02
-2.940918255867494210e-02
-1.117169093308744837e-01
-1.581212013019739002e-02
1.470370687602028659e-01
1.380854772388529217e-01
6.194497480267961709e-02
9.522081697536208256e-02
1.763243080603990043e-01
2.412267308940828081e-01
3.041517881905469456e-01
3.112519290451879472e-01
2.143725082953528982e-01
1.165351809377901948e-01
1.322955765877067424e-01
1.287756266974416919e-01
-7.487776599687206991e-02
-3.200825293553922757e-01
-3.921129823156419003e-01
-3.913818417377438186e-01
-3.947355764364617881e-01
-2.828602228610173075e-01
-7.175696174029269625e-02
7.179002708402668076e-02
3.985337206892844431e-02
-1.433608054163284240e-01
-2.652420791477221873e-01
-1.398002176147001563e-01
9.022866695241973933e-02
1.829761938990306647e-01
1.094217487977259262e-01
-1.687621346003855688e-02
-6.287684111368058160e-02
-3.863960679462831102e-03
4.644135773347438795e-02
4.246118497179379725e-02
4.583769263040993192e-02
6.899201535502587357e-02
7.659019008668163653e-02
7.130920303801545346e-02
7.357329112252011805e-02
6.073140807474788905e-02
3.055847141585001092e-02
3.745928096294889181e-02
6.069377731050193403e-02
3.607842836473160869e-02
-1.767430504316168383e-02
-4.934225060924851691e-02
-6.518324976322077691e-03
8.586636695162243316e-02
9.394297891767315611e-02
9.420866489976467348e-03
-3.961036073799120705e-02
-1.936583033602630455e-02
6.701425984111802903e-03
-1.431399912864872101e-02
-5.579492158250346640e-02
-4.340878663139604438e-02
-6.802668986862001402e-03
-3.412706265649977783e-02
-8.615568384554275760e-02
-7.620952563856302209e-02
-2.916842147428277271e-02
9.300189772197944849e-03
5.943599422986278746e-02
1.009419491406640529e-01
6.388484014001930000e-02
-2.504635355043677986e-02
-6.436620508099188953e-02
-3.336371345972554553e-02
6.218154444438250134e-03
1.696192971930030047e-02
2.067180225087862297e-02
3.234415180476810092e-02
2.647971093027885053e-02
1.192145363377567630e-02
1.602562385675704304e-02
1.563142759018077560e-02
2.404215741690644836e-02
4.727142336754615315e-02
-2.436569702709899879e-02
-1.469329740476807422e-01
-8.773678495399239718e-02
9.943620213469872571e-02
1.433083203982662146e-01
5.390459351357428097e-02
1.203047001828242216e-02
1.377493727071335203e-02
-3.963676626816817899e-02
-1.214618633821797911e-01
-1.354111769833825363e-01
-8.559557130469862274e-02
-4.522723073100853169e-02
-2.702975469133107878e-02
1.653004372661590407e-03
4.691757405305985174e-02
5.962402673588063085e-02
-2.660715286149299696e-03
-4.991037629362790606e-02
1.108792923178451156e-02
6.363126742282797232e-02
-5.482187534601980217e-03
-6.961568679279747651e-02
2.338855605903756782e-03
9.844493007934304596e-02
7.272437546460060187e-02
7.744958137195182002e-03
9.634449137545639599e-03
4.179991181531460959e-03
-4.476512921180632321e-02
-5.633843568521632733e-02
-2.501790662477980376e-02
-3.436602362256143892e-03
-1.220979249520571901e-02
-7.630878720287893879e-02
-1.148473702979901090e-01
6.995281001433572773e-03
1.420445902433209451e-01
8.976161459871727366e-02
-8.447515440688706939e-03
-3.384330584416562343e-02
-1.258943401212480051e-01
-2.042525294015483939e-01
7.666702655042491321e-02
5.254081443273209695e-01
4.694522647319830932e-01
-1.124112644452086862e-02
-2.203226253652322275e-01
-9.134884738023998918e-02
-2.694772607053665808e-03
-3.138400370644977427e-02
-5.574662828859947711e-02
-2.696080049509497201e-02
2.605080547025536916e-03
1.666608715523765216e-03
-3.863518590406449932e-02
-1.385263177621222641e-01
-1.440970138795595323e-01
3.916190990154238410e-02
1.294621060827391146e-01
-6.868274135991538076e-03
-9.802329894681109657e-02
-3.735520875220079556e-02
1.177539874622682975e-02
-3.055949410800826160e-03
-3.953725638277295548e-03
1.361190529325707367e-02
-2.528274395673380665e-02
-7.583470687289763090e-02
2.092698561167906021e-03
1.372391901403494929e-01
1.238067926517534278e-01
6.868961477767308171e-03
-1.881457603529354539e-02
1.133256792962855988e-02
-4.299363352161214569e-02
-9.384291770646630004e-02
-3.498413094165285508e-02
6.571800049287040632e-03
-2.168809892455586877e-02
-8.438481886111973140e-03
2.618487873213080561e-02
2.494591895201715009e-02
4.332641093018753387e-02
4.889587713276417891e-02
-5.237066779468278754e-02
-1.304381209344011028e-01
-9.724202100749090860e-03
1.215845896033943274e-01
4.929033428657578902e-02
-3.616378589433327101e-02
-6.343473521188490449e-03
-2.953567793138142661e-02
-1.114482552100204693e-01
-1.144391149662585261e-01
-6.261597748938133035e-02
-3.341438810059194769e-02
-3.377439597287450884e-02
-3.208088789627959458e-02
7.846415817724983893e-03
5.678610287565345749e-02
4.785685695731343309e-02
-6.054591646967166264e-03
-2.512825334323900983e-02
2.099054813519558860e-02
9.043552449967781626e-02
1.718376587538253120e-01
2.795541744016362684e-01
3.515677225984014109e-01
3.245217642837131544e-01
1.986928737075709939e-01
8.145648889499888801e-03
-9.244562412545845320e-02
1.072068428716736743e-02
1.215534949801868603e-01
3.809530518015884909e-02
-1.461894800188280885e-01
-2.440244812699947641e-01
-1.918337815092531207e-01
-1.472726846254475419e-01
-2.599583126511694209e-01
-3.789887687961563389e-01
-3.600204797289181524e-01
-2.412754803016205762e-01
-7.296213645904212064e-02
1.064015576276659131e-02
-6.417183076353717708e-02
-1.262875164821445351e-01
9.532533091299172368e-05
2.537979858860417437e-01
3.352439873784837099e-01
1.274605591959276085e-01
-5.000916961639833430e-02
-7.003272064594671248e-03
7.491790894775335330e-02
1.075953633929360442e-01
1.364389473306126255e-01
1.091024667636086437e-01
2.797682785697547247e-02
3.003766248294035407e-02
1.092539019553806778e-01
8.827416376236706108e-02
-2.562350955303762182e-02
-5.369795689658325710e-02
-1.870990146270845589e-03
4.098817284566180774e-03
-2.213550051289149556e-02
-1.539530955994488845e-02
1.045472321016913120e-02
2.916033449431458535e-02
4.177283717550046155e-02
3.421847665734333716e-02
-9.470520613851313163e-03
-4.542525957487882765e-02
-3.222502915175523563e-02
-3.357349953431701395e-02
-8.408485216108056715e-02
-7.756609111827464376e-02
-7.411277489725856191e-03
-2.747281616847479721e-02
-9.196994604545354057e-02
-1.712732430340422468e-02
8.339201256447774380e-02
2.547819990378515087e-02
-3.924894408104256938e-02
6.124047148388471300e-03
-1.274026509379637059e-02
-9.434712419308390052e-02
-2.258992881133470298e-02
1.253396540876964282e-01
1.201346606033752151e-01
1.926468244760931939e-02
-3.254212746786240562e-02
-5.025652958308824553e-02
-5.290372371642788202e-02
-2.414211963383425946e-02
-3.984101969638815730e-03
-1.911289467816628881e-02
-3.053443577583803484e-02
-1.414527855250416813e-02
1.744794091729254606e-02
5.645381420780846982e-02
7.110681300491558665e-02
5.275043496736208509e-02
7.016429407044290356e-02
6.030059146517334490e-02
-1.069710643413251533e-01
-2.203333756605416749e-01
-5.238644794358345708e-02
1.319889889548150896e-01
9.198762234643975688e-02
1.453175715957027991e-02
3.276312621528693070e-02
3.980538692777831067e-02
-1.129268196282661677e-03
-1.737953599440598268e-02
6.078505218087441875e-03
1.072634626182808297e-02
-2.326364529348117632e-02
-4.358201249733686944e-02
-3.781931342259864381e-02
-4.776929618339595396e-02
-5.383112564408740891e-02
-7.809373149410867021e-03
5.889502236109396549e-02
7.874897248463663679e-02
4.019590609081498400e-02
-1.240660757916361989e-02
-3.759407738623937734e-02
-2.305651917575879395e-02
2.278865224532580780e-02
4.332338626411619958e-02
2.828221622639022492e-03
-1.143031184003255943e-02
1.846958154592719462e-02
-1.359616167429143416e-02
-3.570338920211747064e-02
4.672081669142620630e-02
8.598932069486579788e-02
5.284340789041054587e-02
4.411524354259175468e-02
-6.868776242000662613e-02
-2.490871314402121617e-01
-1.524634493168471050e-01
1.529857550995173121e-01
2.196101668337145374e-01
7.972789728961808542e-03
-1.488754359402013061e-01
-1.208871071306227007e-01
-2.031587333144401625e-02
5.598109622520970607e-02
7.775734200198644586e-02
4.571045181717604822e-02
-1.437135735568200422e-02
-6.385880527516638039e-02
-6.474722955913565781e-02
-2.373794618464403205e-02
-2.655218075974657976e-03
-1.297550476201303482e-02
8.261549875396175663e-03
3.931990332513366632e-02
-2.078105333276186739e-02
-1.233738943071048949e-01
-1.082600942492895207e-01
9.400427793252457906e-03
5.307670859312003248e-02
-1.156944833755525759e-02
-3.160803013134198119e-02
3.497715711867149802e-02
6.507610934780197476e-02
3.284871084915715056e-03
-1.257023848783805908e-01
-1.501267867642842868e-01
1.982082692039823513e-01
6.185074886732007116e-01
4.765771220787967111e-01
-3.068312466280868900e-02
-2.729898275132528473e-01
-2.052901648057713913e-01
-3.257634368390650154e-02
1.080522742948408221e-01
6.256886023472682523e-02
-6.057525003959147308e-02
-6.317170022296936249e-02
-4.674697847735471978e-02
-8.843897880933304645e-02
-6.971557227721911221e-02
-1.924806975935175815e-02
-3.637188275007108285e-02
-4.807540643913053163e-02
-2.161521323387552082e-02
-4.640677064584357303e-02
-7.332397130768635030e-02
2.145216344333807437e-02
1.480844387731032885e-01
1.279008778485026809e-01
-2.910727470817473655e-02
-1.595578815819559682e-01
-1.043852411097710153e-01
8.281969949451511992e-02
1.062208132721355336e-01
-8.840205393392289168e-02
-1.741370335794640289e-01
-5.396975708017984902e-02
3.259025486480569833e-02
1.806553842788414035e-02
6.750454908854345432e-03
4.934523592518072488e-03
3.521385360239305540e-03
3.471016596394352338e-02
6.781279824871276618e-02
4.568224560935786605e-02
-2.162826483171058703e-02
-3.933892669695322752e-02
7.649431159359255938e-02
1.805128422693416668e-01
4.569120904567392644e-02
-1.620920171893838746e-01
-1.271826413333362604e-01
4.636100461376279486e-02
9.432598264554703515e-02
-1.164269312062279384e-02
-1.391648577193585201e-01
-1.314168589838642376e-01
4.225962509779877807e-03
8.556477262637779413e-02
3.235537433883593772e-02
-6.945085286005875380e-02
-1.229513281690985671e-01
-1.054899633353708621e-01
-4.972417202648485302e-02
1.463543354168392319e-02
5.820103612174578472e-02
7.579454149190177625e-02
1.484216918502901383e-01
2.861909826722744410e-01
3.222656785876594765e-01
2.222738889176608668e-01
1.722512290124803835e-01
1.941225918353921276e-01
1.466306418988703730e-01
3.672443844555665221e-02
-7.004861398412390305e-02
-1.655587046430439524e-01
-2.219583448901818468e-01
-2.622693533033697011e-01
-3.033083778212965487e-01
-2.469303872367221986e-01
-9.264856407860544429e-02
5.521315313311493667e-03
-7.412817497278836876e-02
-2.865828574585592703e-01
-3.285413008063809981e-01
-4.131521172744603843e-02
2.164722992607863994e-01
1.883642930935678916e-01
8.686752673611762565e-02
4.094616584017610195e-02
-2.099516210601089922e-02
-5.709891121860342922e-02
-1.385586200591804214e-02
3.963735697216756726e-02
6.558353176047181099e-02
8.768739410987876071e-02
8.223051102577177973e-02
5.435109632798713203e-02
7.027010066950215017e-02
8.791347152520774533e-02
3.766353605263826620e-02
1.426345464719539456e-02
5.882580608685106238e-02
3.529514945470203779e-02
-6.455168484027050402e-02
-1.130702319293406810e-01
-7.767952707428080195e-02
2.237748407568420847e-02
1.082663245937470903e-01
7.055542436937353723e-02
-1.142661992613797431e-02
2.199581156369336682e-03
6.016059012936077199e-02
5.844530144304927594e-02
1.982449362008257415e-02
3.527115917611997609e-03
-1.272514560834100625e-02
-5.286810451154879548e-02
-6.993997782683027131e-02
-5.649747209915341462e-02
-5.608586126595092175e-02
-4.274273285473793871e-02
1.220404936719015308e-02
4.445799034275114275e-02
1.566796922711199275e-02
-2.077558718530751747e-02
-2.799950317976940620e-02
-3.248906542263130248e-02
-4.919300533373203305e-02
-4.399057146439986493e-02
-1.355985898080791334e-02
-1.827508009456577792e-02
-4.966196987538018526e-02
-8.770429444604878680e-03
6.694171615939745190e-02
3.595224069598747241e-02
-7.975548952253171120e-03
6.850498583652020468e-02
6.129823518373551244e-02
-9.988622022401248690e-02
-8.783608303605365542e-02
1.212958266884187480e-01
1.730247865572620281e-01
3.327273233052088774e-02
-5.263083080230088889e-02
-3.895829427563032854e-02
-3.268209887183443768e-02
-6.073979349252310589e-02
-7.081182302760337388e-02
-3.184352541876474263e-02
1.560408082021861459e-02
2.437299021594498821e-02
8.048674823695390126e-03
-2.666815073641671217e-03
2.759588874318494658e-03
1.920332030436998003e-02
4.874742269870267763e-02
9.006131456101917898e-02
5.301291184540290330e-02
-8.802414565847462014e-02
-1.165159165955281101e-01
5.096731653719881183e-02
1.661103741344314710e-01
1.094343629848321259e-01
1.711801433461774408e-02
-3.732967086440431431e-02
-6.006182943203917241e-02
-3.210078829991890037e-02
8.158346618461541008e-03
-1.077767311084190834e-02
-5.681453698896288956e-02
-6.382824861863127530e-02
-4.697958600340057522e-02
-2.273799443455177746e-02
2.182589232629111170e-02
5.232139671773898548e-02
4.002178834914522920e-02
2.601501167848448148e-02
2.653430674223698424e-02
-9.255170985191761568e-03
-8.205592852320772734e-02
-1.174265748924515768e-01
-7.837922247990990188e-02
8.811852039268810652e-03
7.240360051346333981e-02
3.734827083641023560e-02
-4.330108889475896283e-02
-6.902445205118258598e-02
-6.003503787218083393e-02
-2.122179825639934972e-02
8.566904111780877795e-02
1.730918975438585361e-01
1.209123196063017769e-01
-5.903011867981632077e-02
-1.992415255793267004e-01
-1.276180482910317937e-01
4.257158882738622252e-02
2.714881403346627864e-02
-1.495014653598419896e-01
-1.422339945989196108e-01
5.202059711618605559e-02
-3.162195522487460872e-03
-8.335243783518983540e-02
3.838126086976868523e-01
7.017035290657567259e-01
1.939573610183768781e-01
-2.498502528933994604e-01
-1.331651776978896029e-01
-3.388835786367309227e-02
-3.020627499669868363e-02
3.813891685138495052e-02
-8.205694432495299478e-03
-1.033784171733436313e-01
-1.025126324800933325e-01
-1.149174451586443962e-01
-1.278200387581925335e-01
-6.372181346512040268e-02
-7.616131902023948533e-03
3.412609927536961602e-02
9.659059397581312711e-02
9.250515482447449478e-02
4.141561944618134261e-02
4.379581566039790486e-02
1.293797560283786903e-02
-9.709721072135797659e-02
-1.132876786684680892e-01
-3.155543298752648551e-02
-2.330545923786295215e-02
-1.713608385680593510e-02
8.529910004847818250e-02
1.038877794286267309e-01
-1.328475682612470510e-02
-6.492921348970850937e-02
-2.783831871123527285e-02
-1.288183352669527125e-02
-2.143074535514355103e-03
3.227299487723327143e-02
5.201170839186720907e-02
1.377601022021974000e-02
-5.165526710870566029e-02
-1.674578923474452294e-02
6.796519572268913678e-02
-9.886250575271116406e-03
-1.376084192743997348e-01
-3.808074015972019721e-02
1.532105007150547649e-01
1.420703318282334482e-01
6.008656847485891600e-03
-4.571920747416498287e-02
-4.722724097437307200e-02
-6.583818008029154734e-02
-4.481453002875537828e-02
6.006737228886376706e-03
3.158375453394518528e-02
2.691931295508884561e-02
-4.034500141663023565e-02
-1.547271217452410030e-01
-1.874525620856568042e-01
-8.771417818232636610e-02
2.271286847480417578e-02
3.220806018476361776e-02
-5.310392574265271337e-03
8.268008757099491041e-03
4.618675685023339306e-02
4.006394785684961463e-02
1.804930286237919901e-02
3.913225516647888397e-02
5.615573364377526855e-02
-8.790970458006764840e-03
-5.247567876597949987e-02
8.006611567042354327e-02
2.795072858139026617e-01
3.524233183298418060e-01
3.351602605752680986e-01
2.719934244724532268e-01
9.014803654597246252e-02
-7.559504187499743733e-02
-1.735647644535184830e-02
1.062113401763592896e-01
3.529857328075808320e-02
-1.662478709549221334e-01
-3.255020156916296203e-01
-4.058747341602872982e-01
-3.842845530871696336e-01
-2.533827935503698559e-01
-1.324468740360362218e-01
-9.522145119707203786e-02
-6.306496495800906210e-02
-1.054106873436376490e-02
-2.846421010969581167e-03
-2.396634199598092485e-02
-3.535504802373967692e-03
4.877456390273687131e-02
7.224741327323982998e-02
5.360932078437405379e-02
4.012390113011286841e-02
5.728752880736102948e-02
5.683841825560031341e-02
4.630198249434851893e-02
1.082737337427715357e-01
1.934323405443456878e-01
1.868221288637049171e-01
7.454652400244279886e-02
-1.045969218118076305e-01
-1.876406098392219834e-01
-3.026245523793953673e-02
1.529318077798062225e-01
1.239589899706212278e-01
7.690069170081707296e-03
-3.771228231749874926e-02
-2.521321410300400578e-02
-1.398622630269130696e-03
-1.888720858065610214e-02
-5.686253010687648130e-02
-2.361432723651312945e-02
4.163030336115786101e-02
3.642386932222508450e-02
-1.361729318897555389e-03
-7.191659806527295890e-03
-1.173215341703609874e-02
-3.047624421075880580e-02
-2.697222020639028148e-02
9.588367510594171528e-04
3.196916515979800286e-03
-7.180443680729131639e-02
-1.755047384105649644e-01
-1.351453017604192786e-01
6.604472321010719515e-02
1.688733699492928897e-01
7.795284575796770921e-02
4.720310896669695222e-04
1.029556186071085670e-02
1.967532476749451337e-02
4.705276761204277292e-02
7.867469368208232505e-02
2.160935034729570894e-02
-6.070028702602431325e-02
-6.682722786019913708e-02
-5.221736593094508661e-02
-5.777572744863584270e-02
-4.127055936398686675e-02
-7.166602314586883668e-03
2.005190332076127457e-02
3.676912445364907689e-02
1.915263322290505082e-02
-1.855114161086934138e-02
-1.441287037103300243e-02
1.148059747972979966e-02
-1.083897310477791379e-02
-3.781044264676512029e-02
4.596390080917341081e-03
3.615140997363506387e-02
-1.690338870432363944e-02
-2.434843999102241988e-02
7.352778572922288869e-02
1.081814817074219226e-01
5.741732409408215054e-02
4.750360950750848188e-02
-4.170211732653609712e-03
-1.209545431513868452e-01
-7.742967685110252463e-02
9.458825894917717581e-02
1.192888445051429047e-01
7.259556747592876835e-03
-5.580254405938849666e-02
-5.644381459581637034e-02
-5.165027064128732692e-02
-3.955194647571833727e-02
-3.719071634651565511e-02
-7.172128410013445254e-02
-9.174265824052729723e-02
-4.458451590476005671e-02
1.648372929285928795e-02
3.216095030028735813e-02
1.381508359876647621e-02
-1.486875759609785491e-02
6.246892863305472665e-03
9.670612257998636996e-02
9.361441657504354641e-02
-4.412379807977657997e-02
-5.469532981441316971e-02
9.304694076809083558e-02
1.104459380183040601e-01
1.356930692623971313e-03
-1.606701417169216148e-03
6.884349600690492510e-02
5.698711629279783197e-02
-5.212808258863769161e-03
-1.995269811645933311e-02
-1.274447585884391082e-02
-4.183137382114411607e-02
-7.055103380966608329e-02
-4.978172160624195347e-02
-8.915473644106136630e-03
4.833877041633342919e-03
-5.577932651214064300e-03
-9.344381281521410912e-03
7.812989806738130510e-03
3.227597700345966047e-02
4.191246265423679424e-02
2.366842968446757761e-02
-3.140540351856838802e-02
-8.456114121171685871e-02
-6.433557130568429150e-02
-3.716321606512257812e-03
2.077195089528473260e-02
2.579710369714193624e-02
1.669997273256516868e-02
-3.017676290606516668e-02
-6.053862654718174946e-02
-4.582067860329996911e-03
1.158832138150877600e-01
1.249834158705033921e-01
-9.163083480435668671e-02
-2.199301886877883527e-01
1.980060601798125375e-02
2.502440984606262853e-01
1.197942581494398917e-01
-1.011215466583060829e-01
-1.986864482936651077e-01
-2.589208856496063582e-01
-1.955850090132060237e-01
3.171264342551660675e-03
5.528714888175960407e-02
-3.297254206063513632e-02
-2.644400860145373899e-02
-4.933343393820195655e-02
-7.284997485551217289e-02
3.150011707165584207e-01
7.311747034971521897e-01
3.947987797698916390e-01
-2.079157497138074684e-01
-2.791537322221365192e-01
-1.315107634095798728e-01
-8.978987333396933057e-02
8.221542851241564476e-02
2.717140483662735528e-01
1.321078146983883927e-01
-1.613188311368634609e-01
-1.916164520424682161e-01
-3.593023652659051159e-02
-5.374466642910549069e-03
-8.368237114703400148e-03
7.933295651161641204e-02
5.653405765851267362e-02
-8.665857395572323929e-02
-1.129845733899137311e-01
-3.433280921650071205e-02
-2.026329978528807613e-02
-7.397361705260455111e-02
-7.809584728554594402e-02
1.125008358906443365e-02
6.979906672209304497e-02
-2.518658987617432288e-03
-9.372478689790103568e-02
-8.632826539972544844e-02
-2.360090147837982585e-02
3.757657594512841398e-02
8.611331640035725654e-02
8.315713173029024019e-02
1.859360799549947957e-02
-4.983143416294249367e-02
-8.230914711297723785e-02
-3.901834763846233345e-02
9.289631563325306818e-02
1.708969017346141372e-01
1.016503029004315883e-01
1.008202569277520666e-03
-8.169537538418895906e-02
-1.424040024421448780e-01
-6.138586357935779669e-02
9.321316506108431876e-02
9.423648661478588318e-02
-3.630088780053245673e-02
-1.277264814485699895e-01
-8.792749623587892138e-02
5.499258240101159712e-02
9.345713225531016022e-02
-6.684168756116110055e-02
-1.848883436542720082e-01
-1.148202834093051961e-01
-1.735385341906819923e-02
-1.626705380932343820e-02
-6.671729175977551829e-02
-7.717415648445458132e-02
1.096945662779533377e-02
1.172227539832048082e-01
7.808062921082983832e-02
-4.882525138266720355e-02
-2.716241675307948245e-02
1.347823498753910609e-01
2.607120108387951385e-01
3.480375042687555709e-01
3.858580536238848668e-01
2.733022801585422434e-01
1.014360287421756934e-01
3.623020489150586415e-02
5.405359922640042003e-02
4.778147803788675152e-02
-4.165280865677498112e-02
-1.944355272278768809e-01
-3.047177442579854234e-01
-3.086881357290697236e-01
-2.525991302481105927e-01
-2.085283971181695339e-01
-1.833868479407839425e-01
-7.859053866941051458e-02
9.529745481091655979e-02
1.043454858988421552e-01
-2.108908159833836060e-02
3.477475789018200786e-02
6.781528971029276986e-02
-2.596081127082101037e-01
-4.367564371677939983e-01
-1.123729496555514046e-01
1.367639727421720575e-01
9.727411309599072464e-02
8.195523355486634964e-02
6.461878054109236602e-02
5.452293944231513534e-02
2.085982796106637116e-01
3.239725230327674121e-01
1.428623918711471319e-01
-1.677452466106228168e-01
-2.084024003358980748e-01
6.578494626330692874e-02
2.441189043276988935e-01
1.508229464598186131e-01
1.777667728509835232e-02
-6.105332594114550732e-02
-1.165914381645039161e-01
-7.823143513532632154e-02
6.084100815268479734e-03
5.902314128989416889e-04
-3.648336828756742339e-02
-5.028577894628325634e-03
2.714131131543034980e-02
1.105101558186589311e-02
-5.778578576199067118e-04
-1.224769817634579171e-02
-4.201275424556320109e-02
-2.461125492418714950e-02
3.452480065209298510e-02
8.277299297894792282e-03
-9.689266537388276090e-02
-9.589829391104863487e-02
4.358590664409533327e-02
1.284140341656053452e-01
7.278398303189960450e-02
-8.613114262374928914e-03
-4.568566467865728398e-02
-5.036842069819595646e-02
4.432338578866702912e-03
8.817851066844369090e-02
9.079317470122622025e-02
2.205630761767982118e-02
-2.699926352873333740e-02
-6.205882586411565899e-02
-9.941366710867706458e-02
-8.196990387724795157e-02
-8.080130432141969382e-03
3.617388177088386170e-02
1.417868874387027620e-02
-2.024518578257603063e-02
-1.988253344615279264e-02
9.681485343791929044e-03
3.571383197947118615e-02
1.918410606080113434e-02
-2.537729399437440442e-02
-2.590627100828667151e-02
1.232319294274255086e-02
4.865592261022651591e-03
-3.425333671719092005e-02
-5.722688645158974068e-03
6.815535475190663550e-02
7.267294432026284723e-02
3.694597810891350059e-02
3.662374129742516221e-02
-2.344517105753758657e-02
-1.338927856444579456e-01
-6.604905872695815416e-02
1.441180540059933679e-01
2.027397407796143469e-01
8.814885178055631432e-02
-1.742072943792162196e-02
-7.110909784459550076e-02
-8.330306070983645172e-02
-5.026945108224276093e-02
-4.402675230566818754e-02
-7.805327676759629685e-02
-6.364529374092292580e-02
-2.530201353261015557e-02
-3.504083300522937983e-02
-3.164326867450959618e-02
6.642637377310238456e-03
1.791483339980939893e-02
4.670385773827607362e-02
8.557573368339814468e-02
-8.660693423040370653e-03
-1.445206711684669521e-01
-7.487413647114514459e-02
1.028855147082622240e-01
1.328424043277444400e-01
6.986733817018313253e-02
6.816658833138916629e-02
6.506082508838090250e-02
3.862778110841005082e-03
-2.263671169119457760e-02
-3.614746294435329521e-02
-1.382500031890416536e-01
-1.930449353401007540e-01
-7.154627547936984189e-02
1.626189566796269401e-02
-6.775542830079994694e-02
-1.156554859610926800e-01
-6.842977956198736597e-03
8.307236630659538268e-02
4.346296103872485106e-02
3.095240684045380553e-02
4.289183687529755928e-02
-1.345643304131336759e-01
-9.598458711423805967e-02
5.311725438637745489e-01
7.595712826364594550e-01
5.117464544318753306e-02
-4.091647454338803724e-01
-1.754734663199762346e-01
-5.292955571945451992e-02
-1.241113098138076631e-01
-1.278738429023865142e-02
1.369009029009473077e-01
1.327752760255666298e-01
3.041279253450230452e-02
-1.426558272651735626e-01
-2.680389251636964287e-01
-1.108836426415936161e-01
1.506353106625599181e-01
9.748926209980227076e-02
-1.214236617911232941e-01
-9.471449549249898181e-02
5.133540015583858140e-02
9.490602162520959256e-03
-1.139552627790068329e-01
-1.234308881476985920e-01
-6.268161550440447261e-02
7.248731601859771667e-03
8.122830760133380179e-02
1.114645216200086386e-01
9.111299669226306797e-02
4.778363670760046866e-02
-2.377936570071789019e-02
-4.678972438035432224e-02
5.038377563486208521e-02
1.121279756116199677e-01
1.349408896961900792e-02
-8.804520615912776738e-02
-5.370996923486415220e-02
4.713795297844587673e-02
1.122566675301371053e-01
1.168610772226883893e-01
5.862474377855818319e-02
-7.021271028820570692e-02
-1.687939752924444425e-01
-1.037603256233644300e-01
4.642866531807822439e-02
1.024913214807963713e-01
2.909430144001426757e-02
-8.158326665094664532e-02
-1.406292219362793583e-01
-1.342373862021866149e-01
-7.626216224101917129e-02
-6.467683092461855125e-03
-1.879473433690401207e-02
-8.780160519262114605e-02
-7.066136815543974659e-02
2.111063329659602916e-02
6.044460511849562845e-02
1.310353983490668631e-02
-4.648014401218339420e-02
-1.452118621879430055e-02
6.852216624627104069e-02
4.287067608238236127e-02
-4.442564100136389693e-02
-3.118476460623756386e-03
1.307833497154778923e-01
1.919544448528461011e-01
1.846064286188118797e-01
1.974414605284310620e-01
1.885598715225917932e-01
1.067026014295447828e-01
7.912707476506301851e-02
1.583274173104625426e-01
1.753820462547777681e-01
8.757906870341064520e-02
-1.099486719685369152e-02
-1.429612127871768834e-01
-2.839865281459313939e-01
-3.221115860434023981e-01
-2.831565068709488431e-01
-2.260111957900668989e-01
-1.348328904217792057e-01
-6.109764541773406166e-02
-6.310992694787925794e-02
-7.025631802814419347e-02
-1.098810723034826520e-02
5.838047359229275174e-02
6.057977317148110358e-02
4.402368359198313014e-02
8.132087552323649660e-02
8.692685385871232184e-02
6.568736417661427685e-02
2.143442269281147783e-01
2.205697251713141238e-01
-3.312254016831091552e-01
-6.336686609016024541e-01
-2.145564987475871710e-02
4.687541299508169446e-01
1.598133133919338866e-01
-1.669218738109904399e-01
-9.694622771420521867e-02
1.698982146284042441e-02
4.579546011113555526e-02
7.401278897047862404e-02
7.984017850322164267e-02
5.176766187444646616e-02
3.167491045777711539e-02
1.683637033952301715e-02
-4.033631879395360546e-03
-2.997492471444481582e-03
1.419687774279838714e-02
-1.084849314658990413e-03
-3.496039947433103590e-02
-2.217010983836353172e-02
1.477366253353384548e-02
3.412691287194439052e-04
-2.586144403649874232e-02
1.320974808953961563e-02
6.062514758371080614e-02
4.346697322885677284e-02
-2.551333260647043258e-03
-2.040477228246380045e-02
2.645450476319576028e-02
6.842053929247540744e-02
-5.594038019489998292e-02
-1.986739026775323769e-01
-3.313868675032064642e-02
2.405940184383796310e-01
2.120952799388078625e-01
1.420056032346626862e-02
-5.834855018781434643e-02
-5.291900008438352176e-02
-8.235341861997724777e-02
-1.115496172075752246e-01
-9.110554154540650984e-02
-4.734325859821931354e-02
-2.537515288107186628e-02
-1.338426006555518827e-02
1.162821705865598604e-02
2.200120683343556593e-02
-5.941894919822910195e-03
-3.974976926750696526e-02
-2.634877002040204169e-02
2.604934873059384925e-02
2.430753623738588290e-02
-4.976049786843965428e-02
-6.107476810719330435e-02
2.809264955958937215e-02
7.901748166924077443e-02
4.064514301642822847e-02
-4.264054893854208293e-03
-1.366210700000750934e-02
-1.592014788762814020e-02
-1.053071403767155342e-02
4.780803326940539361e-02
1.105526282037997965e-01
5.569810817432177541e-02
-6.720962455017687187e-02
-7.300237203497414451e-02
3.839327554472092563e-02
8.676714021231671237e-02
3.847401098019642696e-02
1.855182808545152717e-02
4.045577195879579424e-02
3.891575915548265568e-02
2.808491647768840069e-02
1.014630533551101610e-02
-7.082422357794103049e-03
5.387002898252930827e-02
8.269730592701925176e-02
-9.998707172612764094e-02
-2.534944502049273907e-01
-1.057307245300724008e-01
8.376416076556419954e-02
5.294547108186683365e-02
-4.358439523837315949e-02
-5.046104633144598423e-02
2.809548773853892678e-03
6.310920001569095272e-02
4.104349789310130642e-02
-1.051785658680398500e-01
-1.930610456312438772e-01
-6.602186988794703226e-02
1.144363840579675495e-01
1.350522412013775153e-01
2.454643684664476605e-02
-6.823687762753810615e-02
-7.150601828818209382e-02
-2.095138043810781600e-02
3.619409508865463476e-02
7.838851524269735416e-02
6.091367907149701499e-02
-1.676316628490832211e-02
-5.149476316324337610e-02
1.670613925585928694e-03
3.465948936383136253e-02
-5.230336975818365708e-03
-2.600235691890832174e-02
-1.228383535627874251e-02
-3.514150133327102049e-02
-6.401863726517037501e-02
-4.436958125107075268e-02
-6.757043172905818906e-04
4.503712884315032305e-02
6.599021441470215299e-02
4.626497323112312328e-03
-7.618249869854898382e-02
-5.499125857000065204e-03
7.191501594328453262e-02
-1.187318417579448782e-01
-1.104464157881435427e-01
4.590022778798952818e-01
6.352772017045881237e-01
2.040211720395410100e-03
-3.623765238609034101e-01
-1.767378919974465223e-01
-9.816109561163879893e-02
-8.000547409753135109e-02
8.131331101012415075e-02
1.307166848684924165e-01
2.668366265882237548e-02
-2.770276398373204552e-02
-4.894675946553518620e-02
-1.162204867881972969e-01
-1.102171555896259703e-01
4.181883555574597566e-03
4.630281545292923989e-02
-3.354405945401969791e-03
-7.057483501152718094e-03
7.868265688026211679e-03
1.109257345009117754e-02
4.103452004369471939e-02
1.157208525356896722e-02
-2.728527053099554303e-02
4.253259215033197704e-02
2.663178525955488263e-02
-9.240322375317858161e-02
-5.358559759276815271e-02
1.148368174357190102e-02
-6.748399073136118753e-02
-6.677076725315660155e-02
3.255267497529824167e-02
5.544280400350952431e-03
-8.214845927310869544e-02
-4.041306384495307880e-02
7.971664705400550999e-02
9.680759613897020610e-02
-2.339151037328979221e-02
-1.066778881029092907e-01
-1.864855340478420442e-02
1.264714385853532574e-01
1.329155745107244435e-01
1.718131259764765773e-02
-4.832886726238433406e-02
-6.051304707428963037e-02
-9.963396226054342664e-02
-4.686483692288830744e-02
9.815724138000954391e-02
8.692576908764385046e-02
-4.055086399969086430e-02
-4.720760748086304942e-02
1.949793266945023390e-03
-2.141951855368168928e-02
-5.019471264795232618e-02
-2.219325775365756093e-02
2.545947343425165182e-02
-7.074344561547011787e-03
-1.364061023683307838e-01
-1.850660824160910711e-01
-6.528350023060731921e-02
5.609429113548531493e-02
9.502631108379867853e-02
1.568850443545162232e-01
2.273287783261409845e-01
2.080333959010605416e-01
1.732505588035743171e-01
1.922449564658718080e-01
1.598350791665095194e-01
5.184166885979789308e-02
1.762090441238692295e-03
4.353293884625136084e-02
6.294733007221604837e-02
-3.317126314010303972e-02
-1.957884408384046038e-01
-2.116530857439140878e-01
-2.834097261730779416e-02
2.466646309321704478e-02
-1.553727374301608899e-01
-2.263661881227780059e-01
-1.640991436813038495e-01
-2.041648750802163848e-01
-1.998142866202635981e-01
-1.894746440000720858e-02
9.745529822423255883e-02
5.478497067952980276e-02
3.826316456941716848e-03
-1.907479652645826737e-02
-3.789232270533376273e-02
-2.366550202144177342e-02
1.793554217655397853e-02
5.080568871049911950e-02
5.704338566844334435e-02
5.509317373477796986e-02
7.009908630100764038e-02
7.404519560302545711e-02
3.820065777221146736e-02
1.046438900098635091e-02
4.518856447428343248e-02
8.088527221007249524e-02
3.244642520051424506e-02
-3.253849899913861116e-02
-4.205641499691317731e-02
-3.780420649284754742e-02
-3.736314853655876150e-03
6.266117500839298027e-02
5.826780864179029185e-02
-1.621696301004772918e-03
-8.597215602214287183e-03
2.817003378811581971e-02
4.718253179997096425e-02
3.058956704022380152e-02
-9.485025148938864073e-03
-3.756868379721906015e-02
-4.160442828226373901e-02
-4.562206408333100566e-02
-5.052886777124433043e-02
-3.176840961981845790e-02
2.163942462040593234e-02
8.221478410117927238e-02
8.943843977230124531e-02
2.949131781025900872e-02
-2.633239833785478920e-02
-3.122933247772966686e-02
-2.827214506774947816e-02
-4.151470578146430196e-02
-2.629991536622790227e-02
5.318861616854009960e-03
-2.116801482939675502e-02
-7.606246359717919181e-02
-4.565304973215342232e-02
6.056829292345024263e-02
9.560187117849108795e-02
3.137851535167959782e-02
1.103248626255656437e-02
3.712024727486776081e-03
-1.323849175839996450e-01
-2.066944796095709358e-01
-3.160420896127460327e-02
1.323447016302186641e-01
9.181917484481955105e-02
1.919366947272342638e-02
4.282484580689021637e-03
-3.974075019280708804e-02
-8.643209802129019070e-02
-4.473762331879712478e-02
2.315847167095086423e-02
2.529850934994135048e-02
2.592730610727390222e-02
5.642260240983654196e-02
3.949631242142213894e-02
1.722808723880662335e-02
4.424618172925669918e-02
3.566639151971844057e-02
2.515021930626053226e-02
1.012704885919287617e-01
9.795896839727467886e-02
-7.025400723247335333e-02
-1.387629914975706813e-01
-1.061014840181345731e-02
7.923044734040103620e-02
4.151263223529483987e-02
-2.375276945392128941e-02
-5.762209676844183559e-02
-2.801808360790351837e-02
4.141443312990842479e-02
6.084768633345812028e-02
-5.389855952919690024e-03
-1.063295707131842599e-01
-1.454059837884884021e-01
-8.290187934849782558e-02
-1.326655025671125837e-02
-1.005039345382204366e-02
-1.428875251784068878e-02
1.241016389640244022e-02
2.154159578604333825e-02
-3.714902070875689827e-03
-2.305575710517900750e-02
-1.205024765384373961e-02
2.737931363921737929e-02
7.332234193859296645e-02
7.106912022912564852e-02
4.044713518170810207e-03
-6.445188013974093022e-02
-7.235885791877985640e-02
-1.317128225679767457e-02
4.872972263020174805e-02
5.038470907893954215e-02
5.366541378088836994e-02
1.156889064439709930e-01
1.140150412252587814e-01
-3.167253675438580496e-02
-1.222752779064125994e-01
-3.055672902033467614e-02
1.107570777406940987e-02
-6.633035970648541724e-02
-5.770482084215616120e-02
-7.193902704966603778e-02
-1.256819356368029106e-01
1.425430130508761606e-01
4.608050715558139609e-01
2.415397362391940028e-01
-1.665884244401365788e-01
-2.004214518397457179e-01
-5.270831129526420272e-02
-1.370073873007247867e-02
-8.492998289742134665e-03
-1.680548271920477912e-02
-8.738936787577425425e-02
-9.913974829289363966e-02
-4.528193914232284123e-02
-5.195923421335457010e-02
-4.922226994114608373e-02
2.682380237278698260e-02
8.895047792963459155e-02
1.095212825085023906e-01
9.666991922025754136e-02
2.415652111643663835e-02
-8.550581172311733091e-02
-1.063147294945169935e-01
2.595151220512306040e-02
1.431785427050110970e-01
1.077546917622659306e-01
-4.135392542745790906e-03
-1.030738854470680255e-01
-1.285843635789632455e-01
-5.266983842692725404e-02
3.502456030950686083e-02
4.636045219682981278e-02
8.840040488166389654e-03
1.206701156538399732e-02
7.266180277566831880e-02
7.046197357979344655e-02
-2.606601846067956030e-02
-5.578399564541841604e-02
1.262789538928724142e-02
1.831409376275579259e-02
-6.292255215899138221e-02
-1.017643545110711173e-01
-5.842311186376733523e-02
-1.148288898009192961e-02
-1.063109728894901830e-02
-8.674228655272606114e-03
2.942306443425925233e-02
6.306213953589742682e-02
5.220948053928134436e-02
-5.652498124389298412e-02
-2.222532972627474235e-01
-1.726410849745432796e-01
1.077844314978186058e-01
1.684238088172292092e-01
-6.821931494595830092e-02
-1.819146766157839212e-01
-1.159322824022705478e-01
-9.300492791256219360e-02
-6.950888404474499238e-02
1.591950510265489199e-02
6.922385493299698656e-02
8.455680281132810228e-02
1.130645764695378253e-01
1.707764011510481961e-01
2.876418887298936022e-01
3.934183459326976440e-01
3.430651267646667169e-01
2.001050318009820195e-01
1.538594412013100377e-01
1.856509812129412129e-01
1.407775142460007400e-01
-1.308546460751561918e-02
-1.724328314996961820e-01
-2.141637597601412646e-01
-1.723762494211117380e-01
-2.347591778391609763e-01
-3.496745200984386348e-01
-2.290818661979257542e-01
3.399972313111640498e-02
-3.071848449000080805e-02
-3.916453050940959524e-01
-3.940311448549741469e-01
-4.768105075847999669e-03
5.735578020322736059e-02
-1.407787005102603684e-01
-1.533243070734591901e-02
1.453006176080854084e-01
1.183515457347536493e-02
-1.099298466664953150e-02
1.657152422488215870e-01
1.918828565479021031e-01
9.134852471775134486e-02
6.449966738349455220e-02
6.390359579872406659e-02
3.077020683556508894e-03
-5.582135927341386888e-02
-3.494033888520595155e-02
-4.353409229156481042e-03
-5.049978703666228863e-02
-3.698644189136797433e-02
1.387222366842903731e-01
2.389301415143725293e-01
1.210876779349529531e-01
9.495425947426795049e-03
-2.440859236728776249e-02
-1.016446580150204143e-01
-8.913679559038178990e-02
8.532867529692897413e-02
1.561904052975965906e-01
4.354319997217388077e-02
-4.369573095911354760e-02
-4.579994761019259147e-02
-4.557343193427706995e-02
-5.230871236925706269e-02
-2.500699921666067055e-02
3.060973616205673112e-02
3.991408913845822387e-02
-1.205662416308452348e-02
-2.895615306787939144e-02
9.734446385241710825e-03
1.803109223749472384e-02
-1.857206894607817821e-02
-1.938516638384581159e-02
3.818686464256153962e-02
9.018542051402027651e-03
-1.762742999300086488e-01
-2.547839250740733252e-01
-7.204454257810052886e-02
9.907324737804151793e-02
8.837226884266549676e-02
3.565267944654048476e-02
1.543382053999578681e-02
9.775132436425538682e-03
2.725549841021591285e-02
3.453415284627813636e-02
2.610714431713031733e-03
-2.265620977181619089e-02
-1.891838545366202398e-02
-1.860711053809108173e-02
-1.450692985317633341e-02
2.592938498769004323e-03
-1.812927864297524377e-03
-6.847064379324448516e-03
2.740215065128954672e-02
6.111050524384069316e-02
5.321589223930571488e-02
1.705612808476249243e-02
-1.109574416272715927e-02
-4.203399576752593625e-03
1.555854894837492390e-02
2.416984983596425288e-02
4.022045060712998998e-02
4.381234175287746641e-02
-5.660112108564331265e-03
-4.026255369338505030e-02
2.165666234311718064e-02
8.813061636401540999e-02
6.456715884723861210e-02
3.370893255099156882e-02
3.866961703035652620e-04
-1.243627831774716253e-01
-1.856008949319895573e-01
-2.640666026412365197e-02
1.298086876145045365e-01
7.060799510891602182e-02
-7.137221260629741937e-02
-1.441436912163626682e-01
-1.631365034975210959e-01
-1.564114441650603093e-01
-1.077313103272232730e-01
-1.644550320876517202e-02
5.145461908088139191e-02
4.307781304779786935e-02
1.966479315951162252e-02
6.373454358458145730e-02
1.474273417024352939e-01
1.447203731324647746e-01
4.411874226176825536e-02
1.500812717018485710e-02
5.579913218167489170e-02
9.219079942344792292e-03
-4.035235209503773568e-02
3.692862752717303298e-03
-5.231448675602320270e-03
-7.340099359918837718e-02
-3.968121424370574940e-02
5.087429731695417012e-02
7.414619226345918468e-02
8.396120618530596158e-02
1.042031863271909442e-01
2.754740551344534230e-02
-5.671109389377425314e-02
2.474092489101368739e-02
9.106670163840718812e-02
-4.707324547826058359e-02
-2.047424662254336281e-01
-2.080760312478516505e-01
-1.073582684340159826e-01
-7.003848990587034293e-03
4.690996670922361472e-02
6.991733355495824420e-02
4.133227194704361396e-02
-6.128901466923777214e-02
-1.599966325382067012e-01
-1.180846043649625421e-01
8.531884900469775823e-02
2.246079491707492770e-01
1.517095906884805279e-01
1.420932470212315016e-02
-1.094066354794714507e-01
-1.767378234195636777e-01
-1.407828343124766651e-02
2.331399470725412926e-01
1.919499305031753533e-01
-7.889975088503936584e-02
-2.044758988332665561e-01
-3.274972874366631481e-02
2.266320161535498312e-01
2.646890745242193588e-01
5.745398045759111949e-02
-1.342321793959895260e-01
-1.378212205696919268e-01
-6.046646608373469622e-02
-6.478964365185095609e-02
-8.579184233508711788e-02
-1.158569923630759294e-02
5.299890690564135892e-02
3.220164364428555054e-02
4.288189673324166451e-02
8.742688667105721900e-02
2.950474367473606557e-02
-6.138403703067080164e-02
-3.030151016147739768e-02
8.483173196049222098e-03
-7.115203132870967506e-02
-1.036764874048798218e-01
-1.881040275523887875e-02
-9.743063073609139341e-03
-6.085075272293076487e-02
-2.960412797118962356e-03
4.625323994653030013e-02
-3.081943246620416285e-02
-7.033871962979923453e-02
-9.239860387211140669e-03
4.996452224294708859e-03
-7.026849613565977481e-02
-1.177763857016035504e-01
-5.374171103791314241e-02
5.523113658207243204e-02
8.570283174034035167e-02
3.748208553674561155e-02
-1.164208683019971914e-02
-4.031516135000482587e-02
-1.411447901170553333e-02
7.452507673428190871e-02
8.077162218827822759e-02
-3.012579482184817026e-02
-3.827426179621851166e-02
1.198276966696943668e-01
2.258131029930678380e-01
1.941687016177776615e-01
1.597911898360057370e-01
1.622132485226049359e-01
1.293168454977948745e-01
9.070429657989029226e-02
1.038067698270768863e-01
1.217837760556609306e-01
1.180737652625807599e-01
8.261521550081903087e-02
-7.617694253301349194e-02
-2.963719133096372471e-01
-3.732845750829831832e-01
-3.566152172686611332e-01
-3.138703409985921788e-01
-9.252877287268095052e-02
1.117138490361858361e-01
-5.070217288869413585e-02
-2.955047614929758870e-01
-2.430693450166060143e-01
-8.439161691532338916e-02
-2.424576068463974582e-02
1.854893161707183574e-02
6.766856375079233210e-02
8.570692461447965149e-02
9.171470511190416008e-02
9.954970860195144766e-02
1.121001771216461051e-01
1.212206884108316673e-01
1.209771175254623771e-01
1.196718211369455498e-01
7.444098203759957899e-02
-3.159288518830864756e-02
-9.662448007013176021e-02
-5.040576266154487423e-02
5.279431791718104672e-02
1.142997614162150344e-01
7.215640632848016600e-02
-1.891181985010970124e-02
-3.818701185409453802e-02
2.716954350952959993e-02
8.978085388983883530e-02
9.761643626339423785e-02
4.895185664169092454e-02
-2.686498180002725583e-02
-6.859300189578239337e-02
-5.669821190698127317e-02
-3.175149109932683122e-02
-9.529180053786992163e-03
1.369860385116393291e-02
1.455155326533934257e-02
-1.280775828822790577e-02
-3.767960008387070958e-02
-3.733627760951475916e-02
-1.867572658701911054e-02
-1.757069676829819960e-02
-4.737639151564992240e-02
-4.995634978552934008e-02
-8.899011259645759828e-03
-5.468374426960352294e-03
-2.362169340339220769e-02
2.509837527741559660e-02
5.088240170775436971e-02
-1.788161082961248899e-02
-6.927523827379514394e-03
9.189879067981300553e-02
2.462747629629548698e-02
-1.317285104261136652e-01
-7.601596193108153821e-02
8.370059343902093441e-02
7.968229872836898875e-02
-2.487666754055390880e-02
-5.824309987150619317e-02
-2.386375065095198283e-02
-1.900306368253008166e-02
-5.495909093254497391e-02
-3.566563733781026591e-02
3.971973197259429100e-02
5.392560573786522871e-02
5.223652451080780870e-03
-6.176501379037267758e-03
3.059540061615369927e-02
4.343407554540523741e-02
6.970227266567391271e-03
-1.475839937381078631e-03
5.096590241333334714e-02
3.368611019995197686e-02
-7.987585265431546011e-02
-8.273526920637994109e-02
5.811694444756845823e-02
1.230551246147861266e-01
7.793309990817465227e-02
5.662282849975189269e-02
4.099188134535940164e-02
-8.563824949782863731e-04
1.640293513372680090e-02
4.920580367012700185e-02
-2.392054462538732371e-02
-1.129201199910557091e-01
-1.085228073382479008e-01
-1.096907647183657242e-01
-1.462992166730146815e-01
-9.404234717266964083e-02
3.176892136224445523e-02
1.086192170201850660e-01
1.172134385267388224e-01
6.494445617251103087e-02
-5.255251094718350890e-02
-1.285096606687237131e-01
-6.046494722804326982e-02
4.148017474457856707e-02
2.837024563740962388e-02
-2.875594564509458342e-02
-4.017047387932818833e-04
7.388102109842811793e-02
9.600815099069741343e-02
5.781908151821447961e-02
1.534948960177674737e-02
3.748656592507614710e-02
1.266595752770295902e-01
1.166428282857391724e-01
-1.237861909630668944e-01
-3.311673482438878269e-01
-1.855366083182007353e-01
7.798196099184681596e-02
8.842154915143152216e-02
-4.679616293309915576e-02
-1.121546138485357280e-01
-9.952498584016718219e-02
-9.773476758146229515e-02
-2.007051961782470584e-01
-7.489010696916814647e-02
5.412431534424638757e-01
7.993890633926838962e-01
1.994479858669362671e-01
-3.009763696170141833e-01
-2.447962692318651212e-01
-1.191398425295077251e-01
2.025706828640090953e-03
1.413592318626710198e-01
7.626774679369102694e-02
-9.142106109833936234e-02
-1.395607325501103391e-01
-1.243597564342220213e-01
-1.053944576277497103e-01
-4.406172261047149735e-02
-4.452823829535694326e-03
-2.051672741852147985e-02
-4.519343826199987216e-03
6.649995674045190708e-02
1.165534278690289471e-01
6.905355488387393548e-02
-4.568437851617256767e-02
-1.064521013146962208e-01
-8.920699431737183493e-02
-4.883378051701605521e-02
9.473373791644944253e-03
4.677514668705737289e-02
1.325689663634501206e-02
-3.485204700725726135e-04
8.386322508442498047e-02
1.486557307727727761e-01
9.507307098680833901e-02
2.777840049401122252e-03
-5.557634007354781552e-02
-7.847363140710124363e-02
-2.829778505420776913e-02
7.416000344385306753e-02
7.657043515874134565e-02
-6.180104969047578445e-02
-1.483166163217352063e-01
-7.053169595791515534e-02
5.086831105521925911e-02
1.433062678344826368e-01
1.952979226445442362e-01
7.629473390142040012e-02
-1.830457266038670872e-01
-2.703988678044339511e-01
-8.349718262865073182e-02
9.921891200433589908e-02
7.654512879877670151e-02
-3.741765029829013933e-02
-8.165538586894105499e-02
-6.092969468527031918e-02
-5.199804333806251622e-02
-6.991444485719169877e-02
-6.474366606550722991e-02
-1.032671119737700767e-02
2.975298305797748066e-02
-6.123142960322704859e-03
-4.378154772819463358e-02
4.878753969877543291e-04
4.813426156971800651e-02
4.109872903164661639e-02
6.383017059240572721e-02
1.085988946883817002e-01
1.054343344318298681e-01
1.438409039729287020e-01
2.296664050390213319e-01
1.982469777617646978e-01
1.005890733700352535e-01
8.419889404859182136e-02
8.424507191809112172e-02
5.473048821360623067e-02
2.754398617279534348e-02
-3.957426975638742017e-02
-1.364543778294325937e-01
-2.119624682974303453e-01
-2.710748003464749090e-01
-2.797701389568448271e-01
-2.141490056110969542e-01
-1.325088260675443552e-01
-7.106116571459905606e-02
-2.870317484513826289e-02
1.608395085171479555e-04
3.360670991086867759e-02
7.944701226017886198e-02
1.155795897959191187e-01
5.267797079862218679e-02
-1.337647831814532673e-01
-2.210582208636230339e-01
-6.657346128782865025e-02
1.141308046176789381e-01
1.380668550925434612e-01
7.984235217682225660e-02
3.852541433932930165e-02
4.856237952854380868e-02
1.089912320389893607e-01
1.684515212008632079e-01
1.699697840899035695e-01
7.532534450601525988e-02
-8.670616992790347588e-02
-1.282615760232228563e-01
4.624768824220781144e-02
1.869250788142044484e-01
1.111539075488442857e-01
-3.408672884649569922e-03
-2.779157950981492320e-02
-4.889927665662185258e-02
-8.217181431895143051e-02
-7.561142724517484759e-02
-5.421144588268635156e-02
-3.485131225072063410e-02
-2.240200810437126960e-02
-5.031150875866005623e-02
-7.403976406062645621e-02
-3.751221557922184563e-02
-1.055489181470523063e-02
-4.012909981114596430e-02
-4.353958887625160312e-02
2.628943088803394751e-02
7.442359473456371111e-02
-1.522917771938923914e-02
-1.657639172254627702e-01
-1.430175976221040313e-01
4.802697589250556898e-02
1.291783708215527016e-01
5.564978953997676281e-02
3.317556050624148600e-02
6.789925625193719838e-02
4.370776176667950930e-02
1.067263194791638267e-02
1.621170470730107574e-02
-1.472559264495199374e-02
-6.937566880720064111e-02
-5.674714792506610483e-02
-5.544690381260869785e-03
1.151442692195357893e-02
1.625135537833239871e-02
3.988330655541675457e-02
5.211446531408819860e-02
3.440446343527076012e-02
2.140619462597420988e-02
3.432282074027962621e-02
3.463397310583823246e-02
3.568408092824576494e-04
-2.770458392537325162e-02
-2.567649458569586443e-02
-1.819994380039862553e-03
2.312111560740706326e-02
7.342927488313219248e-04
-2.397698735349965832e-02
4.754883902357899539e-02
1.109650595161565112e-01
5.691107423618106675e-02
1.009224548275296229e-02
-1.867190107271191751e-02
-1.271807743945902180e-01
-1.374268730103611058e-01
5.779784061837196091e-02
1.812554817927915785e-01
9.065262594678219488e-02
-3.016112742694292831e-02
-8.831945198358993887e-02
-1.407725159209344545e-01
-1.717135517498501740e-01
-1.257256250246407137e-01
-3.950941111919990117e-02
1.573568862214649866e-02
4.853577740281769803e-02
7.445190828592224142e-02
4.374424928997478618e-02
-4.528306320182660938e-02
-1.161702698184620408e-01
-1.022941743144421267e-01
4.430350288864926336e-03
9.099479148684087859e-02
3.767077840717043130e-02
-3.978009552260756976e-02
3.471580474607573186e-02
1.637142372359209896e-01
1.535897925972024014e-01
2.064970031542610537e-02
-7.472148183523316667e-02
-3.171625118468374138e-02
5.343169130334465833e-02
1.111171400703692830e-02
-1.008159113586399036e-01
-1.145712660327486698e-01
-5.558510649026505990e-02
-6.979683427511969816e-03
3.487547666942032026e-02
4.014555286244317345e-02
7.140754960469002099e-03
6.817646207189739446e-03
-1.214968651834307314e-03
-3.730776608294201352e-02
6.004736251230945870e-02
2.348376647249496574e-01
1.888447129496224064e-01
-5.577569143500778204e-03
-3.712034338318411647e-02
3.453859770170612797e-02
7.025971107637463825e-04
-7.557380513904159158e-02
-9.378183343778045966e-02
-1.098179526495827174e-01
-1.029882751325362777e-01
3.996057712583279964e-02
2.179928656872033577e-01
1.750533349768000901e-01
-7.203347967972470456e-02
-2.193884263356921382e-01
-1.151464863269879013e-01
6.923335849414838372e-02
1.232707621110574470e-01
5.298984396576962574e-02
-2.543737394960686460e-02
-6.824016702826507519e-02
-7.789549930863767790e-02
-8.611610521667274754e-02
-1.153546806469081809e-01
-7.978335028815243535e-02
1.475821548472695637e-02
3.983230599180816872e-03
-7.653677150093750325e-02
-6.091270952135691835e-02
5.045355923534443864e-03
1.733810595397940191e-02
2.083153296076154654e-02
6.927700588967769524e-02
5.536146164830661048e-02
-8.380029402575329966e-02
-1.002808994381483576e-01
9.987296361673422829e-02
1.780355751492584127e-01
6.049042092063233733e-02
1.303728437390546530e-02
3.919510600788579657e-02
4.293282589061057225e-02
5.458085710525226869e-02
4.961676538882588833e-02
5.012983484574234927e-02
9.629669417665945308e-02
6.780176255760400617e-02
-4.636234411859879029e-02
-7.528491940244780301e-02
-2.775630312033077612e-02
-3.398437285365836502e-02
-5.282218520440912224e-02
-1.345351324858735931e-02
3.225073267772499662e-03
-4.249870531152163955e-02
-5.073758650515097085e-02
3.101310185381987022e-04
1.221550290829949079e-02
-5.179864590294048360e-02
-1.358868357642220026e-01
-1.647391787957758202e-01
-1.124099060868103961e-01
-5.492573222834085112e-02
-5.603611539397100605e-02
-4.558659001993711768e-02
2.046853235822707062e-02
4.591462524056155736e-02
2.532102011095664976e-02
7.619143175800925649e-02
1.572292930855517801e-01
1.893222478495813488e-01
2.638949516813022256e-01
3.546488117790009276e-01
2.859236910132738063e-01
1.150820234989379798e-01
3.465680481881901198e-02
8.762201664857527383e-03
-9.352239237528089943e-02
-2.172363347566988734e-01
-2.483710454136310863e-01
-2.255052908243079801e-01
-2.359533651606907645e-01
-2.403892965449400954e-01
-1.740196830507659553e-01
-9.384510513856299252e-02
-4.980355889704497080e-02
2.845557279877314327e-03
6.858541823669087045e-02
1.022978543083808423e-01
6.590048131908884943e-02
-6.344299868345071314e-02
-1.441589025753333697e-01
5.538186644344860951e-03
2.056563689335949852e-01
1.865249655132018847e-01
8.172817934873499723e-02
8.156969318320245188e-02
9.560270353597101478e-02
6.821756425415037572e-02
6.970595909476871854e-02
6.982951713254638426e-02
8.807240848715286452e-03
-5.468763359942507840e-02
-6.074950031762359204e-02
-4.896607574405800745e-02
-5.571435775372622634e-02
-4.548452807773100542e-02
-2.534316467203076573e-04
2.551975549893371192e-02
1.949101767578672456e-03
-2.026267111549569927e-02
-1.208915458974497981e-02
-1.026402344619987278e-02
-2.643228768065567294e-02
-3.335196655382691167e-02
-3.455530150047454035e-02
-4.274695436540373178e-02
-4.169309912971306403e-02
-3.041197556022832982e-02
-1.234784647683384584e-02
2.569896109720670035e-02
6.309668008264321393e-02
8.157555927515534877e-02
5.299544697143902805e-02
-8.872287873807484238e-02
-2.045335405494022318e-01
-6.059153843197506717e-02
1.638168624595391365e-01
1.548152781756655105e-01
2.059918224131727232e-02
-3.516364255557159063e-02
-5.340981200108316923e-02
-6.083788407660642439e-02
-8.955928013033943869e-03
4.103325994062810567e-02
1.764285833418544058e-02
-2.179908153881470953e-02
-2.295521913043769430e-02
-1.211234269966750786e-02
2.949611449611730211e-03
6.307899162256331259e-03
-3.386550099647727546e-02
1.737582315885227366e-03
1.782170884934506094e-01
2.220999877262269107e-01
3.129646116632691516e-02
-7.605247826456174032e-02
-2.493774312566732210e-02
-1.593042452909654294e-02
-3.467090581744905475e-02
-1.112189213722101708e-02
4.943692393309077546e-03
4.402603631765203245e-03
2.210093183028065747e-02
5.928293768595141455e-02
6.729734693741952489e-02
-1.937469535959459796e-03
-9.730481922576120213e-02
-1.167320734785743108e-01
-6.368040032564778463e-02
-2.110493653581629880e-02
-8.358233727402014993e-03
-7.635622084020271538e-03
-2.611634664234254236e-02
-3.759978805176439343e-02
-1.862504261762294028e-02
-1.222981613572404758e-02
-2.850929635097224080e-02
-2.087137477935474550e-02
-4.666631019170727583e-03
-2.765621137389428358e-02
-4.544780946832924218e-02
-3.526606686951494658e-03
2.643407028768516090e-02
-1.830771247404168467e-02
-3.870069634636380540e-02
6.507610923597301200e-02
2.069471710280205434e-01
1.938862168854016133e-01
-3.104592393233732497e-02
-2.105757969670053187e-01
-7.809617831631683604e-02
1.318772988486072162e-01
6.296231723965797777e-02
-8.097885597038111116e-02
-2.362229583062223220e-02
2.144273274063978468e-02
-6.395946863711610142e-02
-6.685764948953494546e-02
8.767728713418170700e-03
6.328912936240095599e-02
1.817491972645307874e-01
2.517150038522407707e-01
7.925140197952840193e-02
-1.491888256734633378e-01
-2.151832504082330788e-01
-1.667182280008582818e-01
-2.875677602581063960e-02
1.458807135261321886e-01
1.281700974047684793e-01
-7.732106065479335544e-02
-1.315526170366238257e-01
1.799599971809131074e-02
7.433802220470303590e-02
2.836151751930304776e-03
-1.455692382712647434e-02
9.425598237828413523e-04
-3.146360115170974275e-02
-3.719548513622691899e-02
5.158006382871847817e-02
1.268547293780827312e-01
5.157409237958636428e-02
-8.171653513592042062e-02
-7.957922836467534733e-02
3.231859624780174245e-02
7.160148032165170040e-02
-1.182027602235683969e-02
-8.139479498344659447e-02
-4.877998154994190455e-02
6.171794930411908520e-03
2.520241131846780169e-02
2.584638234440823912e-02
-9.655625787855667136e-03
-5.009137729298349107e-02
-2.220137732067355152e-02
2.376118754613264911e-02
1.904002568848317534e-02
5.746517157897215733e-04
-2.819216909556396949e-02
-8.258324061944211092e-02
-5.697633259584530818e-02
9.731800294451987965e-02
1.990754949887165171e-01
8.948225495833811438e-02
-1.375144806467757386e-01
-2.579444160242113648e-01
-1.398860328623549587e-01
8.027832205441456925e-02
1.367992732837773062e-01
3.786320714940005078e-02
-3.659366663601253122e-02
-8.433349617533043852e-02
-8.708810920912080089e-02
4.251808624239207524e-02
1.267216311147209284e-01
1.322007807829314249e-02
-6.706687928942034471e-02
2.442365102295319945e-03
2.037628622819661131e-02
-4.643233775370764899e-02
-5.968104808235683012e-02
-2.084671480003874589e-02
2.752369214025397054e-02
7.737713731812843887e-02
4.246089104287211619e-02
-6.915842674979597038e-02
-5.676114510640570265e-02
8.868680856680398461e-02
1.546984211241853868e-01
1.520566982535261902e-01
1.916974314285025960e-01
1.813924555112166603e-01
9.523017949417715566e-02
7.367981602359872928e-02
1.326041923305308345e-01
1.516698303098802658e-01
6.608933310626817492e-02
-8.578241452200138784e-02
-1.950578633583557875e-01
-1.891436208523043783e-01
-1.716891892548119414e-01
-2.553498309945926303e-01
-2.882153499665650043e-01
-1.306293520901100902e-01
2.524132229705943614e-03
-8.659863732879821696e-02
-2.259374359441160274e-01
-2.040406238138622597e-01
-6.178015040186929374e-02
8.955644460823847242e-02
1.714190824092848842e-01
9.787632475990537539e-02
-5.015845837662063350e-02
-6.482082060589312855e-02
7.332686269829306880e-02
2.189094355416545679e-01
2.590435456224650657e-01
1.897403871054151869e-01
8.309824934972329102e-02
-4.932729502134118593e-02
-1.663334513207597731e-01
-1.103593202903707104e-01
8.074012697902054059e-02
1.729700692052680289e-01
1.254331868168535036e-01
3.259661694739322130e-02
-7.018717735473382902e-02
-1.137850723285931537e-01
-6.591400550398972269e-02
-2.869759725329427968e-02
-4.020446463263883247e-02
-1.843061082975379350e-02
3.153309206027629652e-02
2.279980883980384232e-02
-1.881263931780577728e-02
-6.934843993221704965e-03
2.783753435666511122e-02
2.514751872428055979e-02
2.418052653319830228e-02
3.683388607657937103e-02
-1.784205720025312109e-02
-1.128184951524013740e-01
-7.904905921433655336e-02
7.041830671123486263e-02
1.083961185914966846e-01
7.899333695980455261e-03
-3.533440749168653694e-02
1.450950341232088749e-02
2.904082039357917117e-02
-5.001373911632088325e-03
-6.948293941049319550e-03
3.695165641884168468e-03
-3.336323057683980575e-02
-8.434372466613324071e-02
-9.379367692239994059e-02
-6.415136988850887734e-02
-1.921550044187289238e-02
2.371318328134527920e-02
5.302839153705531106e-02
5.979704674224173289e-02
4.056048714825580270e-02
1.622360784809868603e-02
6.238039310905356925e-03
-7.816023715435634414e-03
-2.924926606574794127e-02
-2.883326278167440415e-02
-8.903431840839515915e-03
-1.545395771036075453e-03
-2.017289741614114798e-02
-2.616757350129849877e-02
2.031565437159867094e-02
7.115578425791031780e-02
7.240556162936326312e-02
2.248012039060390266e-02
-7.270101889018305841e-02
-1.095945939087275278e-01
1.299721105418227482e-02
1.594742189200554494e-01
1.644638087324647169e-01
7.639026303919228822e-02
-3.506042052353156545e-03
-4.862436721779741372e-02
-5.551915864417540647e-02
-4.519195896381819622e-02
-5.380600135857138006e-02
-7.430473107621615725e-02
-6.978364311956336552e-02
-2.252757727812614366e-02
3.692805526261789401e-02
6.257539676186343880e-02
6.099813875015241971e-02
3.596926647684255129e-02
-1.594095849447621505e-02
