3.425811264722923230e-03
-1.638552656039242439e-02
1.210140876443424260e-02
8.102410378304540639e-02
1.204559913592152531e-01
1.322196900126818564e-01
1.404533563348032421e-01
1.425441163980547821e-01
1.503285813908761537e-01
1.569972239805652869e-01
1.415636987171980110e-01
1.289312207062710269e-01
1.326813650078577100e-01
1.263093577444539539e-01
1.096736022164680191e-01
7.451523827430260594e-02
-4.311455983804744763e-03
-6.776980891885450720e-02
-7.973061061800726379e-02
-1.745023289988504034e-01
-3.870132852766320353e-01
-4.754990086954981043e-01
-3.366512128050419550e-01
-1.778716141342992496e-01
-1.042617595215973858e-01
-5.022600560492326838e-02
-2.593248986051362864e-02
-4.375133164694567506e-02
-5.444720008179600168e-02
-3.953657136665130606e-02
-1.072597547703774828e-02
5.314631277695595901e-03
4.889076388472420043e-02
1.882106987918328034e-01
2.831657195406853678e-01
1.858178553581353865e-01
5.081359981888819433e-02
3.108777339639284820e-02
5.038186156822801326e-02
3.647235941129373105e-02
1.991578617645219443e-02
3.479270545828644368e-02
4.754321201871824359e-02
-8.423146616806514997e-03
-9.113332223883191530e-02
-9.199076583628437720e-02
-2.793634564121005165e-02
1.769518403759596722e-02
3.560682955182720849e-02
4.193442579071228471e-02
3.756556679170709040e-02
1.794686286470384418e-02
-2.173058943449309235e-02
-4.292250538879235910e-02
-4.505481910658283573e-03
4.834114441902294390e-02
4.914250601178266065e-02
1.220031744472590586e-02
-1.606869117388531193e-02
-3.293259260721322773e-02
-3.594877029445889965e-02
-2.337150000364286370e-03
3.479990005836395423e-02
2.384948116576482077e-02
-1.057144751061926680e-02
-3.107626978086549391e-02
-4.115566086033866505e-02
-3.450521817008975201e-02
-1.188142217944151112e-02
-1.260092769729061549e-02
-3.332738342661890896e-02
3.580828560392605459e-04
9.133765330812276817e-02
1.355993705012274453e-01
9.245368546939466969e-02
3.327622648746340894e-02
2.314764657746115270e-02
2.709160538856367206e-02
-6.867875774227008567e-02
-2.462069890853051390e-01
-2.904972712732757367e-01
-1.345690570263357588e-01
3.008400073876630471e-02
9.968468737917493550e-02
1.173392424244117382e-01
7.214021942108456154e-02
-1.295198109077254009e-02
-9.476932588378806158e-03
8.619071365621079617e-02
1.103671387793555836e-01
3.040945050325649657e-02
-1.019121773133450926e-02
9.367538433843615453e-03
-1.343660581427429460e-02
-4.749478519690396305e-02
-1.223185535263649967e-02
4.613352948563289452e-02
7.953489067013613800e-02
6.591134295061680526e-02
-3.563970974257834462e-02
-1.052337240988405892e-01
4.797078786847808890e-03
1.097591798550149461e-01
-7.947796321280328757e-03
-1.427672308775856658e-01
-6.793142486048753259e-02
5.408486405014576240e-03
-9.256321840132053502e-02
-1.457817997812407840e-01
-5.101374287268203855e-02
1.193362204307021369e-02
-3.201376600716612786e-02
-4.556135390077487024e-02
7.578207511634885152e-02
1.601861579849143125e-01
4.236398799246331170e-03
-1.653537845168882581e-01
-8.031819735894424328e-02
3.712069112305890067e-02
1.004276330104534112e-02
4.083150781316970124e-02
1.270687306243344916e-01
6.509287512167181988e-02
-2.437377209719628068e-02
3.876492789423814644e-02
1.160862263170906600e-01
1.046485510830298393e-01
8.067391211732172218e-02
6.762612544173259715e-03
-1.099752979995701208e-01
-5.806470248327193912e-02
1.398046472507627480e-01
1.935829789923098343e-01
1.022638359912087513e-01
8.768230189659319274e-02
1.309089708338656843e-01
1.025559278791071671e-01
-1.976024227231061928e-03
-1.811481363765162778e-01
-3.616751381926263664e-01
-3.374958851144814753e-01
-1.114530749300035595e-01
5.132969450139730078e-02
4.096811784993861089e-02
-2.558496647790009515e-02
-7.676362715407603066e-02
-8.760091008369828847e-02
-5.911478537195986871e-04
1.034726254635734144e-01
4.538725120426089638e-02
-9.803880293572299343e-02
-8.147621750592781709e-02
5.593645728608110518e-02
9.088045889252653609e-02
2.722567208172887998e-02
1.711371340277012890e-03
1.945567941783333740e-02
1.228266714733699562e-02
-2.951997890506549010e-02
-4.795819535397889688e-02
-2.277825888712554578e-02
-3.426098910426560173e-02
-9.398264382749073331e-02
-9.651004050269182399e-02
-3.305411719574056356e-02
2.411407357619296116e-02
5.389155111433071438e-02
3.469028923248306667e-02
-1.716312582233391060e-02
-2.717307413038275860e-02
-5.906176055754620499e-03
1.472070022220994985e-02
8.174801932523666215e-02
1.506381000740120712e-01
1.159297636988162739e-01
5.585469718682967155e-02
9.106388101956344738e-02
1.549961454174274278e-01
1.621990530002960229e-01
1.564829735646106890e-01
1.816733452416853523e-01
1.912924778652773661e-01
1.305705632924182569e-01
3.175465431909307856e-02
-4.766724777251696993e-02
-1.189051983161056036e-01
-1.873341385922223101e-01
-2.160512111808601532e-01
-2.150349192381466601e-01
-2.136912464044257720e-01
-1.891261519793923651e-01
-1.165529978767001901e-01
-2.839757747137483523e-02
1.976070867113989549e-02
3.341231229604399444e-02
4.198049316842770301e-02
-2.106991104002375881e-02
-1.717624575824276967e-01
-2.279945060423565761e-01
-1.130689842385990129e-01
8.627622696910908912e-03
5.506801525710475903e-02
7.606446896263502344e-02
7.611872090669863367e-02
5.795782197263630448e-02
4.709335138638498508e-02
4.382662175343721156e-02
5.062527766659409567e-02
6.141512915615270768e-02
5.281891800832064221e-02
3.212099949469809923e-02
2.573103161913941478e-02
2.764107879042234511e-02
1.143563834411979487e-02
1.487969568899502604e-03
4.224184416565330419e-02
7.851069757520340309e-02
5.279059430416729870e-02
3.112939916065279172e-02
2.650251756953356588e-02
-3.280274812619259767e-02
-1.041973595920687307e-01
-1.026582530703742391e-01
-4.499159709010319697e-02
-4.700342040243351768e-03
7.711742112361625809e-04
5.049251689942201721e-02
1.013099375111040229e-01
7.996377915914266998e-03
-1.041848595981055281e-01
-5.704355598169670583e-02
8.629722030657080434e-03
-1.621284979778537388e-02
-1.138338610901801912e-02
1.732182166381171853e-02
-4.785560655050522666e-02
-8.781379263513383604e-02
6.264560027913017304e-02
2.098238316169127593e-01
1.260731510997511740e-01
-1.810579137768917810e-02
-2.983610868607978334e-02
-1.025270614981601061e-02
-3.161203217384296604e-02
-2.201296300632816366e-02
-6.861831425909611926e-03
-6.269890061136292048e-02
-7.831806302659671815e-02
7.443868299427514046e-02
2.273316816649160188e-01
1.958230374542993535e-01
9.032195659582616110e-02
3.738761047125484932e-02
3.906174856786867600e-02
5.681693630441273651e-02
-5.225486492734054966e-02
-2.905318379404100981e-01
-3.618423124072740471e-01
-1.874434799723357914e-01
-5.469478930877468698e-02
-6.386028877389998692e-02
-4.854096583150367683e-02
1.170733731588413651e-02
-3.544405651612549113e-03
-4.856525321199685330e-02
2.094316925914617780e-02
1.388050977033241373e-01
1.519366354014446419e-01
1.042300937939072136e-01
4.005474232936993145e-02
-7.675005671269888308e-02
-1.163716463039874277e-01
-2.449356892193795335e-02
7.839773658672929968e-03
-1.975362571386311134e-02
4.439024379583362406e-02
1.323498155404941590e-01
1.439852739975492346e-01
1.170986970816542405e-01
5.634948839351722194e-02
-6.419797565006075957e-02
-1.475377868805818615e-01
-7.813110820946105040e-02
2.830622555745537436e-02
5.491827027768189998e-05
-6.780120681121579174e-02
-5.181969681699410968e-02
-4.214414745816993935e-02
-6.971145413938842350e-02
-3.660797482397684655e-02
3.254541577021814736e-02
6.588438354004538811e-02
9.187213381815564905e-02
8.699891367497165906e-02
1.269532682285896830e-02
-2.321019467779320000e-02
2.373587598297595067e-02
3.640511011312687339e-02
8.671212986948301921e-03
3.795816941821830715e-02
6.946009291504480487e-02
-8.667053222615538066e-03
-1.064119809770315145e-01
-6.673378096453522201e-02
3.999301931453233538e-02
5.093986410682149052e-02
1.736263470974414025e-03
1.460276814647751276e-02
7.867394427209288554e-02
1.190527533947187272e-01
1.200189418766110239e-01
1.080058786854248276e-01
1.051770919448552360e-01
9.185893417386943594e-02
-2.305414964403336778e-02
-2.601223495284157861e-01
-3.881877267993040226e-01
-2.253297119836125129e-01
-1.056852988208491564e-02
8.724779802833648734e-05
-6.178647239491737164e-02
-6.467367098096249434e-02
-8.310770972203185281e-02
-9.357421013937836096e-02
-2.099026975680526666e-02
4.854880174627664718e-02
2.979574225415502348e-02
-4.056709844439041618e-03
4.510521753662796729e-02
1.281232687208751497e-01
1.131596679421407597e-01
1.330109739223964485e-02
-2.728545549631278960e-02
1.151543387915147931e-02
2.026360459475867737e-02
-2.679028179400920300e-03
1.770487994256313147e-02
2.528462997355438585e-02
-4.799354409379154307e-02
-1.051163590020776362e-01
-7.664100126536910196e-02
-3.468154629852954196e-02
-6.088206964508628867e-03
4.126384958435354300e-02
7.513683729490919228e-02
5.367247808816913435e-02
1.877369877269385867e-02
5.452154335530080831e-02
1.444995943713078546e-01
1.680005806471376317e-01
1.079313833549737506e-01
7.566112929503440721e-02
1.127911957611580085e-01
1.557076421884762418e-01
1.426062735780402879e-01
7.885984114335681250e-02
2.717683692450370905e-02
9.513597627927479483e-04
-5.503507014532441066e-02
-1.357078117271706685e-01
-1.847570903275790599e-01
-1.987351964248127711e-01
-1.990175599786088434e-01
-1.927138739092017494e-01
-1.889823843079223020e-01
-1.732799556275219088e-01
-1.125897489371791849e-01
-3.605522651023555791e-02
-3.900494509795127129e-03
3.617086072915316058e-02
1.648475001501399084e-01
2.764176113310442551e-01
2.088584249521879821e-01
-1.098188183690951975e-02
-2.083516588046275542e-01
-2.251652286261511260e-01
-8.482043690803287017e-02
3.889898809543521768e-02
7.718153934483060197e-02
7.212288589802506866e-02
3.521664172655504521e-02
-1.409931094605385710e-04
5.509871554862993612e-03
1.631452474945587969e-02
1.561656673553534630e-02
4.907466392481515255e-02
1.045355708905761211e-01
1.059198000459931205e-01
4.555656639330206426e-02
1.561077117587517625e-02
6.108276123180190337e-02
6.351236635490056792e-02
-5.206772640854340217e-02
-1.181989086017875279e-01
-2.352201923249834514e-02
8.402273744844299119e-02
7.380732679440200894e-02
-2.905498912712405069e-02
-1.036909151389034944e-01
-4.778753830422996507e-02
1.162488657543991541e-02
-9.239752790236148428e-02
-1.967349073191445030e-01
-9.912096780990160838e-02
4.107268733050970649e-02
2.720400027836164525e-02
-3.028232052366881463e-02
4.320227945126251835e-03
5.521977705549996340e-02
5.025305635276761107e-02
4.185418213784478092e-02
5.138706138605517865e-02
4.278332051481185255e-02
1.665711009808296464e-02
-2.437822015444569314e-03
1.219227668428382941e-02
5.710754456324024231e-02
6.392002317780605403e-02
1.050484720713529795e-02
-3.298249519740988761e-02
-3.431154481050623095e-02
-2.382698977071402366e-02
-2.085143600491631138e-02
-2.491257792573314117e-02
-1.637286710312452903e-02
3.052151789357110054e-02
1.033062787301874536e-01
1.584361033487913795e-01
1.530073913822139475e-01
8.380914534044991981e-02
2.628642698389014459e-02
1.003166578320771087e-02
-7.536940525005134117e-02
-2.334173706633257406e-01
-2.634593602553996217e-01
-1.067036447874181171e-01
3.990813180580536634e-02
2.658531258053498103e-02
-8.190173124551491934e-02
-1.466347443641576875e-01
-1.368026163575362109e-01
-9.300689733436535989e-02
-1.361498888918629552e-02
8.026371488269691545e-02
1.186008119796162497e-01
9.937797793952699021e-02
8.446365500742715471e-02
9.161123240974897164e-02
8.151673642889953331e-02
4.274955010363545166e-02
1.799051244091994309e-02
1.024139019978993759e-02
-1.332978502484250156e-02
-1.760140209141999174e-02
2.764134707680252628e-02
6.063753759450186270e-02
3.363548104621857937e-02
-3.076535336167771431e-02
-7.216788511695967911e-02
-3.467208060798701585e-02
1.884168790776098723e-02
-2.145388709269494681e-02
-1.068576829248648746e-01
-1.437162587366577760e-01
-1.258937200206189655e-01
-3.783907117595835395e-02
6.955889262069914203e-02
5.809841189091070890e-02
-8.253010593229800212e-03
5.231561314417675079e-02
1.271991673141655288e-01
4.578382820984361334e-02
-1.435434314919921059e-02
6.701487626726328195e-02
8.828043765762244588e-02
6.831805250521906861e-03
-1.107901064050452640e-02
5.643137675186052360e-03
-2.838845200561960352e-02
-2.022662078357646137e-02
3.736764324593908060e-02
-9.149601216463933845e-03
-1.173594645630608724e-01
-6.482456465915754917e-02
1.231945232466485352e-01
2.143638954420673814e-01
1.749337269146553075e-01
1.195322422225875703e-01
8.030176405904822234e-02
7.510643807180082676e-02
6.742807782794901783e-02
-6.654288931026156040e-02
-2.421300581429525478e-01
-2.634722697107360623e-01
-2.246950204145131691e-01
-2.367838223884455862e-01
-1.716551460551908048e-01
-5.396679962746881581e-02
-2.941190227826614989e-02
-1.139035621715862173e-02
6.844386977694832952e-02
6.363220709681031984e-02
-3.021285618060201572e-02
-3.674647843573262962e-03
1.391568852938592227e-01
1.541676181502840692e-01
3.175790591117325090e-02
4.834817233940360941e-03
8.408108027959639019e-02
7.625693890825728516e-02
-2.336957384124447278e-03
4.561333045312965934e-03
4.540040881030221742e-02
8.903305384025056793e-03
-3.773636211881537667e-02
-5.465152716742431582e-02
-8.920109406216004955e-02
-8.901213550743997116e-02
-1.974073511058387076e-02
1.973801429623534345e-02
9.402642534831362475e-03
4.725392078006287327e-02
5.758873089865328837e-02
-1.201812200470764314e-01
-2.698263899780919961e-01
-1.138024011860711421e-01
8.305600232120448345e-02
4.291743546105226959e-02
3.327842689605519516e-03
1.236383492251875577e-01
1.819116639735721963e-01
1.078105957448860786e-01
1.079208720825944601e-01
2.135049808095161872e-01
2.387895662399388552e-01
1.577291140766898248e-01
1.036044679808061225e-01
9.916368555499240067e-02
6.619621568741526629e-02
-2.654182850073762492e-02
-1.314971636435765534e-01
-1.844664170103005318e-01
-1.799847396009544021e-01
-1.496626379021563646e-01
-1.137117464028739033e-01
-8.436182122215028778e-02
-5.241742657814422307e-02
-1.012409406243287152e-02
1.291874177907670340e-02
-1.912981801535468263e-02
-1.248336443558331760e-01
-2.414925895569360326e-01
-2.307451842657393393e-01
-9.692580769155810516e-02
1.569145379102976356e-02
6.139446585461277861e-02
5.960378053673123094e-02
1.937889244873509595e-02
9.037632362564208127e-03
5.346929777115476401e-02
7.035028870440927784e-02
4.370281490313171480e-02
4.022888475993384449e-02
5.689532829913444140e-02
6.401789669682390882e-02
7.637038259953456143e-02
6.902106893022756651e-02
2.208425864737019462e-02
1.409872745850858020e-03
2.651735516843883173e-02
3.737990825990892413e-02
3.529094964719783900e-02
5.322194977433241520e-02
5.453995509858193536e-02
5.255852914455301506e-03
-5.248580685007211283e-02
-6.870018796596624733e-02
-4.349704479731675982e-02
-1.603320499031748309e-03
2.967079304575916121e-02
2.800813231342445461e-02
-1.880150274463219650e-03
-2.373586368913234435e-02
-1.714554918845984099e-02
2.996209349593934208e-03
3.439699739235763803e-02
3.728343994426441127e-02
-6.070279950935852237e-02
-1.637982372380553941e-01
-1.212016161329448338e-01
-1.024158936821853785e-02
4.413546187937592014e-02
5.857653793775310924e-02
5.601353899463820674e-02
3.093865248233809012e-02
-3.703374880129037088e-03
-1.893959227700767189e-02
8.483293189295290637e-03
2.608280304524864326e-02
-1.791794737597736387e-02
-4.535078600245248670e-02
5.907735182732848714e-03
6.541271249981867042e-02
9.542948959990689428e-02
1.271185879393090523e-01
1.220345108035924414e-01
6.137438501567686611e-02
3.287787855141106885e-02
9.073826234405850746e-03
-1.269090561266411898e-01
-2.529641911776654428e-01
-1.835207347469337558e-01
-1.966928542315399958e-02
7.325473280795608000e-02
8.510975756372153589e-02
3.378272024367744153e-02
-4.771442609058287182e-02
-9.159378877693855059e-02
-8.628638737087686306e-02
-6.316960439522058268e-02
-3.652879012068561970e-02
-9.348072525013290460e-03
1.733762044937358499e-02
3.778541553678298193e-02
3.710350690218253145e-02
1.922147832202014336e-02
1.275291255486569325e-02
2.542843064318946536e-02
4.394851628415854389e-02
5.606574130364603420e-02
4.147259630582777329e-02
2.591221878708657375e-02
5.512178125470975493e-02
5.287457411449619088e-02
-4.499733374808869563e-02
-9.222883962347099007e-02
5.429809530534141643e-03
7.194474753481908125e-02
-2.462671398793593244e-03
-7.139899634258213557e-02
-5.799037451729824322e-02
-4.985257846231476442e-02
-5.661837761661526330e-02
-2.549278217038410121e-02
2.242636924479656998e-02
5.081623113326967645e-02
5.993130372546352086e-02
4.236869293757585669e-02
4.405613754972318233e-03
-6.154796647703421851e-03
-7.866321513026934206e-03
-6.024474222944110890e-02
-7.325869799575199237e-02
2.684977303479203076e-02
8.401546682315848280e-02
2.590237195692425554e-02
-7.057338404403939829e-03
3.974125453129983415e-03
-1.018574875813442991e-02
3.671416734972849337e-04
4.730379298049464110e-02
7.730429879802915016e-02
1.150877641149957720e-01
1.398722417588675604e-01
7.426066154652984086e-02
1.123189021832585524e-02
7.257808297547668763e-02
1.039067804760471642e-01
-7.817843824515416373e-02
-2.970309440757865072e-01
-2.828539178331302972e-01
-9.521561935334951765e-02
4.764367212181669364e-02
4.280492372843431453e-02
-8.460574176297053217e-02
-1.609447499369254242e-01
-5.455477094192808657e-02
8.026075005664054518e-02
7.059543104754456566e-02
4.865686340585560765e-03
7.917772530537140266e-03
4.049642350617332909e-02
2.791987166951104965e-02
-1.930123515958158051e-02
-2.736608085128134152e-02
4.139835501493789593e-02
9.891930179918102806e-02
6.769046582502680209e-02
2.331739010240313145e-02
1.225387756628936245e-02
-1.573505964082687683e-02
-2.909047241882552898e-02
7.663236463303883458e-03
1.832284184183178080e-02
-2.265085517254292885e-02
-5.787051722609405646e-02
-9.022441012961160411e-02
-1.422959999793325658e-01
-1.607040813394507994e-01
-1.051996084417550076e-01
-3.378914094735770146e-02
5.503805031119477290e-03
5.414853512298289234e-02
1.090314462151812241e-01
8.866663665680335482e-02
2.510982654757704796e-02
3.299683001642658015e-02
8.233787891350512200e-02
7.240888674089192290e-02
3.084452289324317309e-02
3.896973198307079889e-02
8.779776234241640220e-02
1.159427003012798163e-01
1.029787763327247585e-01
7.923946941879116135e-02
7.783250515151401983e-02
8.955531537923452912e-02
8.469232207169130611e-02
6.981284189723874212e-02
5.988908805403593549e-02
4.046513565714392885e-02
1.322772808423217268e-02
-1.036994513367183596e-02
-4.307613828852195625e-02
-5.993683055933834297e-02
-3.652816230679702125e-02
-8.575098719481237530e-02
-2.834138182983821919e-01
-4.278335889966939920e-01
-3.430506579454207228e-01
-1.698704625465076723e-01
-6.160652850898018507e-02
-5.238207128270735979e-03
7.464297304398494204e-03
-5.395892576447354483e-03
-4.802533089535834798e-03
-7.980994682999786871e-03
3.449757134189491287e-02
1.715374695014248163e-01
2.424839408899842064e-01
1.603520736743918873e-01
6.207446718710059319e-02
-1.706110153924433881e-02
-6.397356497441746004e-02
4.023256376869007583e-03
7.364195669104926789e-02
3.694382313821457930e-02
7.292503364412282127e-03
3.576381813354072292e-02
5.576686320740348313e-02
4.391582192786790823e-02
7.305546654235535106e-03
-3.472417987677682560e-02
-5.468211180802660942e-02
-5.340938635314079752e-02
-3.938873418649238567e-02
-7.575258863090799863e-03
2.074333364352702602e-02
1.020719751009605165e-02
-2.538170961658165956e-02
-5.023880491234319901e-02
-1.913260621265731182e-02
9.821347626285906185e-02
1.782831367781161080e-01
9.467577062429195778e-02
-2.791825617139749235e-02
-4.862211460294860177e-02
-1.898132388018453770e-02
-4.851052289681856422e-03
-5.483056975330575025e-03
-1.432094974741989282e-02
-2.623908070748596361e-02
-3.539898403745382616e-02
-3.367378169973665042e-02
-1.898942140019927935e-02
-1.265186358344841042e-02
-2.961853841264928608e-02
-4.048215758063556519e-02
-6.594365090945558845e-03
5.770081124812490025e-02
1.014348936292128744e-01
1.010885966441065348e-01
6.940945088760967774e-02
4.038788448430547656e-02
2.977191415260377685e-02
-3.670101633760990828e-02
-1.929339713012319935e-01
-2.705184574936058128e-01
-1.607629223475368074e-01
-1.826614993222059474e-02
3.211278495824078372e-02
4.379242122815600602e-02
4.262745668435531654e-02
-8.991310909121513067e-03
-3.324087926925669428e-02
8.491139591553832633e-02
2.124994343661319174e-01
1.635231196560563982e-01
4.189540499777458238e-02
-1.559286988931134904e-02
-3.788405089827699690e-02
-3.812686609928989806e-02
-3.228356723586565252e-02
-6.467524359347583129e-02
-8.913256160454050003e-02
-4.928544327149241011e-02
-5.596986170075089403e-03
-5.731233241939493253e-03
4.539225831988520643e-02
1.350710408933195883e-01
6.609300401608791953e-02
-8.458721134567505351e-02
-8.364244421713823430e-02
-5.519544849999739183e-02
-9.041122794897447912e-02
-1.717951247359878614e-02
5.863478928233859661e-02
-4.698876952801332718e-02
-1.172697281640903422e-01
3.910789679336305197e-02
2.340623475245469931e-01
2.111019659162798878e-01
-2.137808503528486337e-02
-1.739523488451570621e-01
-7.904060274062225944e-02
4.012040209470518759e-02
2.608897065569059509e-02
2.147091258004212022e-02
4.793647972009646568e-02
1.287524611378297427e-02
-1.282398910666013130e-02
1.941920284921263423e-04
-3.009201871204235726e-02
-6.975267584861248593e-02
-7.417210674481966581e-02
-8.363533816636778417e-02
-3.109039577276092106e-02
1.331514956828625529e-01
2.095595554012739115e-01
1.067031458404252564e-01
6.220006079592864390e-02
1.356754312261139184e-01
1.309228016601631794e-01
8.100731994540949499e-02
5.324072141515677481e-02
-1.183526204878916077e-01
-3.445187406552837617e-01
-2.991424070169704796e-01
-7.158152619268801087e-02
1.015380271403937273e-02
-5.280299532477732150e-02
-9.726238395857232655e-02
-9.088452843950041438e-02
-3.097837900125017044e-02
7.732077433816059164e-02
1.467164932382964970e-01
1.189525293038433962e-01
5.390283057910033593e-02
2.610590871618249584e-02
2.388252496227052588e-02
6.252136708707192909e-03
2.680259687024797235e-03
3.653172223462591850e-02
3.375692155617274898e-02
-2.151513718796515401e-02
-2.541355612342070108e-02
3.726963998910124559e-02
5.837850244225664675e-02
-6.913345564427745421e-03
-9.328230264130606131e-02
-1.303767895815825806e-01
-8.699769201211393632e-02
7.769622946198653617e-03
3.072030762581916957e-02
-5.774041041582288203e-02
-1.031884029775425177e-01
-4.853939052084520200e-02
-2.332351065195548828e-02
-4.566628121688663666e-02
-4.432947578743594297e-03
8.463902764129668799e-02
9.584812069268675017e-02
3.576446217221281032e-02
1.929629682506434421e-02
4.143941993557856418e-02
2.381784656423010030e-02
-2.982459991495347434e-04
3.543776980536102184e-02
7.622325278200281495e-02
4.340919774008138859e-02
-6.030653888063362833e-03
2.122465570882550029e-02
8.882185066959560893e-02
1.093753204894167969e-01
8.452569734015888403e-02
7.551716195358769423e-02
1.069800172115086961e-01
1.421772834533591157e-01
1.442267937428465541e-01
1.123504642249237712e-01
6.020616395292133910e-02
1.637822471737306398e-02
-2.903059583552131465e-02
-1.563631520980541811e-01
-3.423032275985265493e-01
-4.068336609886672450e-01
-2.925325895441108215e-01
-1.527509263817445895e-01
-8.950642556047011533e-02
-7.199853123833641066e-02
-7.005317149441543656e-02
-5.933658419140735996e-02
-1.149424861160271844e-02
3.592921184105892646e-02
4.083926355611768033e-02
5.493117568503080167e-02
1.107223380398098811e-01
1.256017977767802662e-01
6.530781956532152877e-02
2.649571212614786758e-02
5.488001744072523724e-02
8.328299857093322822e-02
7.117527397811133916e-02
5.868130855637027771e-02
8.431555074721919230e-02
7.890471915678488879e-02
-4.193480254396006468e-02
-1.679175046842639185e-01
-1.561853880327257471e-01
-7.197601586997064149e-02
-1.557937999566843049e-02
-6.024257651059091931e-03
-1.037206218758203458e-02
6.458112446418290409e-02
1.373471796420023816e-01
2.883952940197433840e-02
-8.466953565946340465e-02
1.337388957156485092e-02
1.406185990603284475e-01
1.563565212682977434e-01
1.340372806316299237e-01
5.614098401253471426e-02
-4.256273617246978530e-02
-4.172190945962848951e-02
-3.190022260275107713e-03
-1.980006578974722459e-02
-3.952294319356785407e-02
-3.993715019132619559e-02
-5.780682207735364508e-02
-7.234039749107898376e-02
-5.421583111788143283e-02
-3.118926734351486207e-02
-3.183947875556188828e-02
-4.248676696137445447e-02
-3.746340105854741725e-02
-3.482608746447068970e-04
6.910987808456900416e-02
1.304619061216204245e-01
1.356278881296752725e-01
9.781670196672326290e-02
6.373859912846499554e-02
1.872056620146235126e-02
-1.004144717570147755e-01
-2.442767283374331633e-01
-2.523854592938886698e-01
-1.094690011202401614e-01
3.130128357557034058e-02
8.303993877753867991e-02
6.089148249403263102e-02
8.695781271701452653e-03
-1.339483193202177860e-02
1.494143727024499664e-02
5.845952554596128142e-02
7.558326249984022305e-02
4.802871024439980818e-02
7.421555376803615905e-04
-3.235658448281533706e-02
-4.710812059425640436e-02
-4.189185524695077101e-02
-2.195024843529982256e-02
-9.297721283622072119e-03
3.587665614525603446e-03
4.003747225019507749e-02
7.123571464606245907e-02
6.342018703172917771e-02
5.459766137677130732e-02
4.502915568032909988e-02
-4.067765555977175679e-02
-1.325974831531492870e-01
-7.785996027678820930e-02
2.612408951163920634e-02
8.758816981842996660e-03
-4.072723110453119882e-02
-3.220353395398265622e-02
-5.577325842844944176e-02
-9.258062275625195126e-02
-2.361303583595878580e-02
1.056593519293161365e-01
1.593654959482144751e-01
9.662802881047700965e-02
-1.397788411648630789e-02
-6.764268992557502524e-02
-5.069957817795582578e-02
-4.479468474102577674e-02
-5.115721757760640503e-02
5.969714971248499258e-03
8.227423491730589955e-02
6.743692075534483965e-02
-9.704955896127392262e-03
-5.206509247953761133e-02
-4.324953712629800440e-02
-2.462369901706850522e-03
6.101212027710884583e-02
1.097973155407001022e-01
8.809260287606845985e-02
2.797265530792405336e-02
5.871291787837618070e-02
1.624131095657128376e-01
1.482181339258298314e-01
3.628097933130100539e-02
2.759687609966369679e-02
2.782651854958089269e-02
-1.788265297026829515e-01
-3.568627849028307431e-01
-1.700944593863490950e-01
1.082313129702379695e-01
5.171858701424372762e-02
-1.580377749055276171e-01
-1.815326934322975816e-01
-9.755099479144010988e-02
-4.378410242754748882e-02
-1.684114302037464928e-03
5.374546195597788845e-03
1.049263542359157864e-02
9.293892252362989659e-02
1.496117124828620359e-01
8.351488562735562282e-02
2.059028507208281178e-02
5.597081853399028112e-02
9.717679502821691129e-02
6.162128336302154924e-02
-1.407602641193610865e-02
-4.354527310993087930e-02
1.358907076084800783e-02
5.754145709356596472e-02
-3.790885248558683446e-02
-1.706906552876945038e-01
-1.607952523543484113e-01
-6.225364090144196172e-02
8.748008949115747626e-04
2.752539592832785667e-02
1.351527959465609330e-02
-5.173514895814697312e-02
-1.147556502548823659e-01
-1.332451029587803371e-01
-9.205327279474447011e-02
6.942925535918778937e-03
8.308398214816659078e-02
7.467525644387429384e-02
6.005273590517641591e-02
8.808034649435252106e-02
8.491272927469804832e-02
4.017479537744127194e-02
3.578386083449605626e-02
8.334551776873687368e-02
1.075019943877990047e-01
8.409049088262809946e-02
8.051583033922329879e-02
1.155560032435709594e-01
1.237991125148053817e-01
1.036901709708062669e-01
1.027033627855385711e-01
9.253352309909590456e-02
5.452163843945269373e-02
4.865368358055059683e-02
6.301150557046680811e-02
7.292834740983210329e-03
-8.074156986218763987e-02
-8.417094979443501268e-02
-7.855949564338869651e-02
-2.328988857459810824e-01
-4.371495647310580934e-01
-4.240288744979765490e-01
-2.259690320989539147e-01
-8.518602593514111587e-02
-5.296814597281650216e-02
-3.510272638685113522e-02
-2.997798116333566520e-02
-6.532202356033289803e-02
-2.913471180904392971e-02
1.498443354563853414e-01
2.616176289864978743e-01
1.735134369640762841e-01
9.977196097921836593e-02
1.292889956561543985e-01
9.462168534674401943e-02
9.380495411485154089e-03
3.883598026872304987e-03
2.603085736962407887e-02
6.353417330467382718e-03
1.797121702278737382e-03
3.238372500439349461e-02
5.065583158015796172e-02
3.723371324874893973e-02
-9.657378195749398778e-03
-5.927807241888334577e-02
-6.392689532325074309e-02
-4.322638531995007249e-02
-2.440596747481565271e-02
5.872820579649051798e-04
1.278568968312776381e-02
-2.231510338611279124e-03
-2.852165724931472746e-02
-4.432696396925056570e-02
-2.573031567280521098e-02
1.927848366947284772e-02
5.313749721890805716e-02
5.486708661931002928e-02
3.042734618556985557e-02
5.742362088362222040e-03
3.498620245412611268e-03
1.597489129420928688e-02
1.818791473800379643e-02
9.946473385760178088e-03
1.152337050702071167e-02
1.502438855355031286e-02
3.134353784695906656e-03
-1.667031308012755647e-02
-3.994036778998266701e-02
-5.910314611992539130e-02
-5.388878169798514556e-02
-2.436769644564344001e-02
1.934239224774645521e-02
7.292914113549038568e-02
1.119705045667375998e-01
9.862010696495086826e-02
4.960431310463097460e-02
2.301699626452017103e-02
-2.376772776244970992e-02
-1.660320810660419755e-01
-2.936123400795080940e-01
-2.568049336331457155e-01
-7.008656828892304014e-02
1.540027935859981378e-01
2.223672525953679924e-01
6.757290836274287837e-02
-5.613258138063155489e-02
-7.755435784142380995e-03
3.363860083060046108e-02
8.643499956766189513e-03
3.526363093665868531e-02
1.000229359128325252e-01
9.980099657645148670e-02
3.713983632634680621e-02
-5.829738547497187451e-03
3.175233950205910011e-03
9.008691653853765496e-03
-3.321506852574761248e-02
-8.309629201127124998e-02
-1.082574788068568911e-01
-1.052796969634803154e-01
-1.539285463460818987e-02
1.227027620881975534e-01
1.108103144318891564e-01
-3.925654720821485089e-02
-7.172336424390428344e-02
2.167856143962240342e-02
2.586749822970126067e-02
-3.999117241464366507e-02
-3.404569734301951534e-02
-3.126346364578947573e-02
-1.272086609376857358e-01
-1.774044554820085884e-01
-4.831571328746027405e-02
1.148224265269605082e-01
1.268729629991603436e-01
6.098714721611508960e-02
6.847608173516733787e-02
8.950513752369483600e-02
1.349172034559820328e-02
-6.068492510224469949e-02
-2.176330825586858184e-02
3.349931527939295148e-03
-8.375705259765062194e-02
-9.420683679501816454e-02
6.405010521605654372e-02
1.417463828485585886e-01
4.003955647936636997e-02
-2.548484003033958320e-02
2.312651008891284179e-02
8.275300749978607706e-02
1.187641264284092224e-01
1.304091402440223646e-01
1.102144006599771187e-01
7.673166965332675615e-02
3.344494465313382903e-02
-1.618101049566187874e-02
-6.277673069661812710e-02
-1.351381239342477059e-01
-2.191216677871230534e-01
-2.198236052690847597e-01
-1.129233836838726135e-01
6.157551617622701937e-04
2.347290082662622027e-02
-2.368429650875267592e-02
-4.173237949769927763e-02
-1.794861563011299066e-02
-2.005290188582837044e-02
-1.548891955463349568e-02
5.885789657304507649e-02
1.167339433945892291e-01
7.588271911753799448e-02
2.342210756290688534e-02
2.942007650085646728e-02
3.629325680390130954e-02
2.560153208647571177e-02
2.509513579574376707e-02
1.622862736373852609e-03
-3.192380445304375536e-02
-5.302317984842555565e-03
2.810347487358300783e-02
-2.239664319672983114e-02
-9.734497924250594403e-02
-1.156271186100936432e-01
-9.656293673079305306e-02
-7.570782008807772079e-02
-7.816107359905542784e-02
-9.392234375602551144e-02
-5.952095200470708392e-02
8.255741126045167827e-03
5.305243260258066251e-03
-6.078433379777659074e-02
-4.458977935175401086e-02
8.834977175387527526e-02
1.636706605550573845e-01
1.055052636531147170e-01
6.333166225045994135e-02
9.211281495061622582e-02
1.017621801137800347e-01
9.940715398242502832e-02
1.250372876979653214e-01
1.384347157244621151e-01
1.402528288293587999e-01
1.603890475156970197e-01
1.557154772493977712e-01
1.094725147033147328e-01
7.102472821845914885e-02
2.751492279504497152e-02
-5.110610569262519221e-02
-1.046799061204730930e-01
-1.001188179702602321e-01
-9.481488146570923869e-02
-1.113359744047178884e-01
-1.243599828089159559e-01
-1.173356736780703097e-01
-8.487042086054488732e-02
-1.034935022670967347e-01
-2.444645991306024224e-01
-3.490497614047949893e-01
-2.477757134906225789e-01
-6.974344024235953898e-02
1.787374948063516489e-02
3.928679079885476211e-02
4.300486790622497918e-02
5.593708947078297050e-02
1.043546575417625133e-01
1.035802556168543553e-01
-1.108426043117363008e-02
-7.660977882750989731e-02
2.064795663744451587e-02
1.189974224438330452e-01
1.178750232367096196e-01
9.863331666190168490e-02
7.834668312256896916e-02
4.319942072932917571e-02
3.493987089833482107e-02
4.932662877335941554e-02
5.743187067192106338e-02
7.097238483311288371e-02
8.116383651063077687e-02
5.115157326367777285e-02
-3.061302187759816495e-03
-1.817266534837013586e-02
9.159587335697900318e-03
-5.759582758918673634e-03
-7.916056725245254611e-02
-1.151253413396996772e-01
-1.125613855651916295e-01
-1.266445515697341428e-01
-8.946456769997457315e-02
1.176365714250107199e-02
6.119281058316491245e-02
3.685999068494175829e-02
9.810178233057898628e-03
8.645431784762522623e-03
1.617932057535674019e-03
-4.236175372816007589e-02
-3.775981793275785120e-02
9.885321229967103385e-02
1.977955801679101011e-01
9.705939016998391122e-02
-3.069208988638804508e-02
-1.490584301318656144e-02
3.083700346265288647e-02
-6.756551919081575132e-03
-4.713610168717183302e-02
-3.253534933300308851e-02
-5.174870849599656764e-02
-5.452317652926969710e-02
1.270528665816179070e-01
2.792087841585386143e-01
1.034394691349353468e-01
-1.200708744038162940e-01
-6.784525550892075985e-02
3.221553308116936742e-02
-7.219745659970455698e-02
-2.487952295367333033e-01
-2.628724879425397565e-01
-9.421583796056594295e-02
8.075606011564409603e-02
1.290137252165965143e-01
3.877452056211544429e-02
-1.061622702699694665e-01
-1.542611609244476378e-01
-1.033717967479809846e-01
-9.605975470791948412e-02
-8.092319455663515848e-02
7.912996267439868781e-02
2.322876121567745977e-01
1.808012803905034438e-01
5.283822513394915987e-02
5.359375577243914723e-02
1.380801686297539743e-01
1.455803344770009167e-01
8.727765980544406610e-02
4.756354010811244398e-02
-6.484751563809879049e-02
-2.185777413196636210e-01
-1.277178161090185282e-01
1.078980909748357975e-01
5.601567751490827557e-02
-1.665084395556667707e-01
-1.322351512440263777e-01
2.129311978047573883e-02
-7.178990489754157045e-03
-5.618879174859518072e-02
1.938806489099000399e-03
1.398365985318116879e-02
-1.198760594795651030e-02
9.870301801207497644e-03
2.016096463148667629e-03
-2.952785518750757413e-02
8.938373870436163576e-03
4.991141552138781551e-02
2.672843991115077950e-02
2.124660936522580756e-02
4.422960401146500131e-02
3.500280388876546994e-02
3.702785704212709084e-02
6.915534617897362013e-02
4.977561798493448236e-02
-2.600775199811566560e-02
-7.592676718651113210e-02
-6.562201303305333078e-02
-2.971913619267231577e-02
3.925479790069051796e-03
5.670318565786195558e-02
1.181427991434593761e-01
1.371425394946581000e-01
1.382157785021140561e-01
1.452482406740365495e-01
1.082041514980838226e-01
6.630490319064123728e-02
6.187368508402152356e-02
-4.502221841053097307e-02
-2.648614341301757658e-01
-3.361625290850202563e-01
-1.727008836509876244e-01
2.320254597366338406e-02
5.712412749537480045e-02
-1.009228153710800407e-01
-2.292169807836471340e-01
-1.275617183227922002e-01
5.272519148649087647e-03
-2.970931089600665348e-02
-5.649619193041702236e-02
2.568272155356619846e-02
4.258938864969584459e-02
-2.827946228213982366e-02
-1.091260603698282136e-02
8.549296802964106989e-02
9.465079036691244341e-02
3.739194318489186958e-02
4.357401647946208129e-02
5.567921955798506295e-02
-9.977015094114027871e-03
-2.516287236211738748e-02
6.904281155637878586e-02
8.143528625281518107e-02
-5.210439368719843589e-02
-1.380876613638456762e-01
-9.648068916206756218e-02
-4.748114363185405862e-02
-3.401513356251961023e-02
-6.772646609832806870e-03
-1.256166502790546577e-02
-2.627997800051809843e-02
1.174025800501480310e-01
2.733643624008975093e-01
1.703432774201819599e-01
3.244588783147791394e-02
1.282922440725517976e-01
2.428771553285995199e-01
1.888287312269969487e-01
1.090324675956267086e-01
1.060424825603488719e-01
1.095139993948489598e-01
6.594828293803639552e-02
-1.442938225702108598e-02
-1.089250555266104981e-01
-1.872721919634928178e-01
-2.285453425447359077e-01
-2.316850301108941967e-01
-2.211831410148765165e-01
-2.253232039273084242e-01
-2.071786474514699106e-01
-1.208303917537101174e-01
-1.571848491104343992e-02
4.417837024304486354e-02
6.583393231766226927e-02
8.247618808230289256e-02
1.142638508816369303e-01
1.033123620203671988e-01
-4.065853718940472955e-02
-2.007950446935395927e-01
-1.694737267621588273e-01
-2.333017757123064667e-02
4.763192555814675655e-02
6.512780683572000351e-02
8.342186355361638772e-02
6.076793916898085013e-02
2.088885122197793945e-02
2.146838466744428395e-02
3.896027439965975975e-02
3.983345466652284811e-02
3.239461514812550652e-02
2.794599868639432647e-02
3.440536199318103977e-02
4.238762030643820206e-02
2.126412134557473244e-02
8.581764648805311965e-03
6.973671761877525688e-02
8.907704077787022279e-02
-5.392691958975578959e-02
-1.410410427949110312e-01
3.011797359626033899e-03
1.032045363768108182e-01
-3.180535275970512027e-02
-1.559629704753710266e-01
-1.248226558573925782e-01
-9.641848996117667603e-02
-8.560675194911475383e-02
1.770788881331930575e-02
1.312486297859507822e-01
1.573301566377738325e-01
1.127390463263978071e-01
1.742045028259673473e-02
-4.116734718531442350e-02
-3.191390465026283652e-03
4.591320252745931252e-02
3.701803812673417488e-02
-3.382288897947899331e-02
-8.318464314909851387e-02
1.465172593803067136e-02
1.360358526404374657e-01
7.530609860437641190e-02
-4.194192754809368540e-02
-3.937734736361654664e-02
-6.974081091286967599e-03
-2.763803615746568756e-02
-3.343362589025616893e-02
-1.227780292449866771e-03
-6.725377389590064467e-03
-6.723374036367747719e-02
-7.614524480141146578e-02
1.854724942279459624e-02
1.158476691541861503e-01
1.378123960447343865e-01
1.182283683148787901e-01
1.070797864686809514e-01
9.448082247445691029e-02
-6.120164149137112368e-03
-1.855606795062953729e-01
-2.376294001404576084e-01
-1.074533751788800257e-01
-1.136522982529076901e-02
-3.381641560502811339e-02
-5.980638130255737372e-02
-4.582118481008722738e-02
-4.238223829771833179e-02
-7.626445796112187037e-02
-8.158853065618029698e-02
2.613973285767705670e-02
1.276012726613683368e-01
2.734522818903164371e-02
-1.186752344381664936e-01
-3.804699051447746339e-02
1.210826851918262170e-01
1.224881105986505847e-01
7.039452549844546492e-02
6.405425275989198863e-02
3.116850751136268291e-02
-1.040591627633324044e-02
-1.122654473252423894e-02
-2.156181228843331507e-03
1.556019733801786153e-02
2.508807107168118528e-02
-1.328291214933033718e-02
-5.246189623035927424e-02
-4.829716282582138809e-02
-1.294376116942645011e-02
2.486854395033779100e-02
-1.005175894902845569e-02
-1.147275624511051861e-01
-1.368473468349349076e-01
-3.138463697638580602e-02
6.868429706520484679e-02
1.220852794392083135e-01
1.615741583480264643e-01
1.044392203873820979e-01
-3.755303052318081924e-02
-8.617188998088744223e-02
-3.853763087469412596e-02
-9.364802222328522108e-03
2.254814306056026132e-02
4.550507839006641408e-02
-4.563640222029484092e-03
-3.204580541008934108e-02
4.200402543686970053e-02
1.030809242421562300e-01
7.588585872433803448e-02
8.822905535939713426e-03
-7.401053094439116742e-02
-1.194628927302531368e-01
-2.336923108754917697e-02
1.676660614042621289e-01
2.611343971139091780e-01
1.972930328309348558e-01
1.104924741787599307e-01
6.948210725999166837e-02
-3.303598694347961023e-02
-2.370506926574821316e-01
-3.521931680045610746e-01
-2.517717525632406916e-01
-1.157426213595150744e-01
-8.226284085100554755e-02
-4.516569141620235817e-02
-4.157167268021465939e-03
-5.999886154502311747e-02
-1.093629994950125750e-01
-4.089219133245004106e-02
3.919164076169225075e-02
5.175773562136527783e-02
7.119785829302879843e-02
1.081227936197276529e-01
6.797684217296623421e-02
-3.420537306572451336e-02
-6.914740174345414270e-02
-1.980129823253709218e-02
2.984907681433958751e-02
6.183913775999588108e-02
6.133650666775907617e-02
8.094045167355656475e-03
-2.392656246325258057e-02
-2.896270511666489134e-02
-7.759463899113887286e-02
-8.401607290453004528e-02
1.195766454801043197e-02
6.136246301182894658e-02
2.010574396410665446e-02
2.659219299003958217e-02
7.890264935568179483e-02
6.798655206120629568e-02
4.137666557728585798e-02
8.400819282076607553e-02
1.367949629060808414e-01
1.388595760494551745e-01
1.322728546690196405e-01
1.528445865770655387e-01
1.554694415227904636e-01
1.093308244145698993e-01
7.316147521924583341e-02
4.869783523857210139e-02
-4.535091641779735033e-02
-1.491115685320277551e-01
-1.498737687889070136e-01
-1.227227080548320692e-01
-1.587569762250793937e-01
-2.010746165310409173e-01
-2.026050876143660751e-01
-1.917227057828415349e-01
-1.627586371736136350e-01
-7.409160123898983485e-02
3.670398322780033668e-02
8.304855274486089289e-02
6.561033497089406585e-02
4.839538269204888415e-02
7.510431275579665389e-02
1.126870127666253496e-01
3.750904939827084950e-02
-1.393388998564364656e-01
-2.017314505018481530e-01
-9.526711090374036239e-02
1.533954054775794537e-02
5.850252633805148178e-02
5.048305991664955861e-02
3.787908042416972265e-03
-1.263772867628091406e-02
2.001968288331629903e-02
2.673358810210349143e-02
2.262129500413290195e-02
5.332580765338769402e-02
4.041507017421194087e-02
7.000752124455211604e-03
9.917429358932472461e-02
1.966239180323419156e-01
1.022981883817719179e-01
-2.037212175078640525e-02
2.175896861158488349e-04
2.519336670116317789e-02
-1.997435955651639256e-02
-1.589537221439812215e-02
3.142457031105591603e-02
7.779675020924194453e-03
-5.797176733064414444e-02
-8.767977246524860657e-02
-8.803448026840164642e-02
-5.423047188806110613e-02
8.502443715356767032e-03
4.338727558305484344e-02
3.314833413802579370e-02
-5.636279729878644618e-04
-2.334112606919892460e-02
2.602689427650845336e-03
4.750218845807672313e-02
2.591137612048160371e-02
-6.879307166593076617e-02
-1.169723778784303031e-01
-5.583637200085177221e-02
1.551248619650808479e-02
2.832824871814864157e-02
2.470003474751948300e-02
2.214819561974125384e-02
5.430133663114638902e-03
-5.164482305372921148e-03
2.058275882038788397e-03
-1.082577845133152628e-03
-1.024465391362956550e-02
2.829001530228909649e-03
8.590232693855847507e-03
-9.506362369165128126e-04
4.450831288901380828e-02
1.355956524521476081e-01
1.680020875441519956e-01
1.244063024395349742e-01
8.778308915053813222e-02
1.008526860355821314e-01
5.674431473205453214e-02
-1.553185132612457386e-01
-3.472104858625853496e-01
-2.722548001543473317e-01
-5.510394633657303420e-02
7.802781650758146281e-02
9.567053525004820536e-02
1.492874235573949521e-02
-9.552035242746223509e-02
-1.245946095460144232e-01
-1.029526874479713139e-01
-1.067336916105841027e-01
-8.171754292415399357e-02
2.098264677361185923e-02
1.117291568331236634e-01
1.004858424328326227e-01
3.569547580467911235e-02
1.295355201063791081e-02
4.420470291010819563e-02
8.592519226679243283e-02
8.729095889696159016e-02
1.385298803095242476e-02
-3.655571269384998850e-02
6.402205784296918778e-02
1.727807965730425444e-01
9.489555599398992458e-02
-6.168053292556185951e-02
-1.366762841358954983e-01
-1.105112631419183089e-01
-4.581508995405811357e-03
6.860387557670724612e-02
1.369981451577228018e-03
-1.122440870688255488e-01
-1.213536704717668446e-01
-3.579301042995705617e-02
4.147974455049763254e-02
6.737414466937359514e-02
5.795517790454624008e-02
3.649521067631830706e-02
2.486858144105058913e-02
2.938017134162591165e-02
3.074591072927706017e-02
-8.021704636509379219e-03
-8.509722630686133993e-02
-1.041202405317396690e-01
-2.236617262299453457e-02
2.349589495924414920e-02
-2.292943307380305301e-02
-1.350161319164907246e-02
6.184934138009087756e-02
5.214265075468760280e-02
5.327140838953071250e-03
4.222043951911025328e-02
7.456334535860760504e-02
6.972810156784049751e-02
1.299574611732775276e-01
1.473875543092413865e-01
3.609851986119547163e-02
1.422757453626410928e-02
7.079759558575593470e-02
-6.003091580910665387e-02
-2.344589656940692102e-01
-1.816199560775851041e-01
-6.179044335277921601e-02
-6.037962432562903048e-02
-8.360116120370759962e-02
-6.662824329567589021e-02
-4.679054677662774359e-02
-1.784399945545979069e-02
1.155641549001520420e-02
-6.764820295270885381e-03
-3.355788445308782036e-02
1.037215362759172366e-02
7.667631660808033045e-02
5.777761129545286312e-02
-1.520815965104225717e-02
-1.365366003379982554e-02
6.234127576474480376e-02
9.229203878975249242e-02
4.942881237294086127e-02
-8.710560034323166709e-03
-4.920248548093787699e-02
-2.762078653376065854e-02
4.493794564073559650e-02
4.927085321903444670e-02
-2.792556818706897620e-02
-5.722178919647705198e-02
-2.651321992381372450e-02
-2.626164832929267848e-02
-2.941773300394805515e-02
4.803880365856147416e-03
-9.632843236395769587e-03
-9.461798286426020832e-02
-1.490893641019252480e-01
-1.225185114846301382e-01
-4.159043955994760206e-02
2.491515548143851538e-02
4.147626857703971825e-02
5.966748544446204283e-02
7.583305707078583091e-02
6.361161292739048179e-02
1.013491960863893843e-01
1.848641790434834564e-01
1.988091737792516134e-01
1.700814383400933161e-01
1.927472155042626312e-01
2.059571690157665225e-01
1.346418522199292755e-01
4.338547255145637493e-02
-1.761464140963106551e-02
-6.909851459288704478e-02
-9.698057729492537415e-02
-9.822787144907460521e-02
-1.045550163425380819e-01
-1.018078109942572029e-01
-7.852470399958076663e-02
-6.056953259984292071e-02
-4.026621291601339969e-02
-5.679343642405510623e-02
-2.076138169959829971e-01
-3.551653639243256277e-01
-2.450256889722889353e-01
-3.696212139320784879e-02
-2.914380363334747454e-02
-7.300519162819152363e-02
1.044396588202235049e-02
5.680662609897587506e-02
1.872646013374364149e-02
3.675241136582121232e-02
8.762214072611319848e-02
9.542527873925672754e-02
9.130175659811888556e-02
8.042980513714310942e-02
4.457893350653789610e-02
3.186124436440856272e-02
5.758577083846971867e-02
5.556663117608592883e-02
2.249488492640739495e-02
2.330332602177044923e-02
5.009657344849220706e-02
6.305453723158566115e-02
7.456520214425917115e-02
6.843319349597265511e-02
-9.091813022689011065e-04
-6.267903398032248496e-02
-4.322430983922820324e-03
5.301582711256541680e-02
-6.704498984344660351e-02
-1.747113775229983401e-01
-7.055621060067585049e-02
9.207232483018402275e-03
-7.160345224719820434e-02
-6.769304027309792915e-02
3.495794003975338099e-02
2.428174637434700467e-03
-4.311568647667975152e-02
1.084837719467860451e-01
1.951235823808930570e-01
2.433232763721811243e-02
-8.395459038245844940e-02
1.705955354879849784e-02
7.232909005532399405e-02
1.278554875301640865e-02
-1.816234957856473903e-02
-5.840845035056604212e-03
-7.591253891561022989e-03
-2.361938104519002712e-02
-4.435343643750604137e-02
-6.179361427785998173e-02
-4.538951051087224131e-02
9.020137366826294287e-03
6.873347765868766113e-02
1.169867657497146995e-01
1.292846763180016123e-01
8.126371401498030944e-02
2.940485098299133737e-02
1.381750341321651143e-02
-5.708189125487581755e-02
-2.028539541129236734e-01
-2.526470173948189291e-01
-1.466606167781253911e-01
-2.366104495610517333e-02
5.544602477848938754e-02
8.759050079771057984e-02
3.099597632796183971e-02
-4.030811037626597787e-02
-2.372575199015273043e-02
2.692566007193170768e-02
4.405839989900846299e-02
4.992858648799013144e-02
5.880045365272784652e-02
4.955279959765308134e-02
1.296716015484455919e-02
-2.013352422234320274e-02
-2.949900136926084798e-02
-6.027819579314137172e-02
-8.647735651511911925e-02
-2.002958003519056396e-02
2.736324449160474487e-02
-2.647079396463093356e-02
3.674963215013530432e-02
1.952878211999475866e-01
1.032556499785954318e-01
-1.355987776118405264e-01
-1.178927784181279526e-01
6.770944376592649694e-02
9.312706103402471070e-02
-1.777914738577485165e-02
-1.030026242104749579e-01
-1.468858172616862301e-01
-1.348001186832933351e-01
-1.597562701404412616e-02
1.359044520660367128e-01
1.514205852688080833e-01
2.731533522287290724e-02
-3.158873009211666388e-02
4.101759759791122339e-02
7.426611622809908830e-02
1.157249645903992569e-02
-8.187864669850646732e-03
5.590588797904968293e-02
9.645068690363446662e-02
5.457901280469593802e-02
-1.640559414374310673e-02
-5.889583870522378806e-02
-1.066112260724976918e-01
-1.662709945636900721e-01
-1.368255291071766022e-01
-3.427079857233211735e-02
1.650497582752195186e-02
6.626830304020092655e-02
1.908248117940593847e-01
2.409311033605872621e-01
1.308350952572019665e-01
6.150594528668799216e-02
1.394811396544770044e-01
1.103738280544816486e-01
-1.754602009965604281e-01
-3.919141797052410614e-01
-2.710784641552398400e-01
-5.607785202223327520e-02
-1.333316720561912583e-02
-5.786433122892471748e-02
-8.488000299352194133e-02
-1.053846160614835270e-01
-6.424920827801244849e-02
4.646926631456002599e-02
9.884667264558208433e-02
6.485994824090354771e-02
4.824340188293047699e-02
9.795053547056961629e-02
1.742316045532909252e-01
1.758814229517823013e-01
7.199373083109038285e-02
2.373221675355121491e-02
9.355347347296971705e-02
5.094730538600044517e-02
-1.572344030197145304e-01
-1.943975988578835468e-01
1.012172120503698758e-02
8.353044613151078268e-02
-4.626821799528940682e-02
-1.243901755833426298e-01
-1.432235659640804792e-01
-1.256080855206629376e-01
3.709356647333469925e-02
1.718172215451031770e-01
4.309983061893182810e-02
-1.556234486296464992e-01
-1.417189699022053662e-01
-1.932730219959227780e-02
-1.576110813517720560e-03
-2.439887759380160448e-02
1.575369902084329532e-02
2.093104675439583229e-02
-4.813465343770106930e-02
-7.476393138287913687e-02
-2.570807060705493363e-02
3.642511725503149583e-02
8.099990457768706242e-02
9.512280354513691361e-02
7.402072279428305313e-02
5.526490222283601123e-02
8.027248526370561743e-02
1.179563059658086110e-01
1.039681370757869067e-01
5.131490294981995437e-02
2.102706760526050142e-02
3.363975109107822381e-02
8.682404215721686858e-02
1.659782676712329152e-01
2.164990700121748324e-01
2.055127371745292808e-01
1.763211151387376607e-01
1.259807644928740977e-01
-4.860920048867187204e-02
-2.813762180159795623e-01
-3.189584027925806975e-01
-1.927261706423070153e-01
-1.538666403073600530e-01
-1.801830208244608045e-01
-1.678065183590354281e-01
-1.828338534752174671e-01
-2.071811464739471420e-01
-1.589864999926130784e-01
-8.552945086782090534e-02
-5.063382835977305735e-02
-3.982950636407363298e-02
-2.231569096519426393e-02
1.329208561400900546e-02
3.927076460507286648e-02
1.751532181190734033e-02
2.292006133028913484e-02
1.542175215105879293e-01
2.757668437921726445e-01
2.182706969260642949e-01
1.195514977611651236e-01
1.331154701627418335e-01
1.294519158284107574e-01
2.397981554858464107e-02
-3.915572600176338292e-02
-1.722221698982418642e-02
-3.008112929659129131e-02
-6.323977969350771944e-02
-2.507839320880001638e-02
2.432976806392043306e-02
-5.492709895111210112e-03
-6.494747946043388787e-02
-5.854345405216601628e-02
-6.303287739257128902e-03
1.434452532224760046e-02
2.484267944721054583e-02
2.152857259160557285e-02
-8.058613887931673214e-02
-1.704092978254801716e-01
-7.568590519321874432e-02
6.351592571209117855e-02
6.931013513839752449e-02
2.962419988393361764e-02
3.422076799625626414e-02
3.489076748806763106e-02
3.045636634258595300e-03
-3.026040476389793912e-02
-2.855557963802919652e-02
7.654076969051691430e-03
3.656038413832551903e-02
3.553978185328220130e-02
4.422021885985391587e-02
1.108911836824824776e-01
1.495611356220200028e-01
2.452475843445424408e-02
-1.074301207506783290e-01
-1.738101175629414019e-02
6.796957740441172957e-02
-9.276621851159110033e-02
-2.161932406314332200e-01
-1.050049828727524781e-01
8.108003256762037758e-03
2.502983438924413773e-02
3.367011719366215516e-02
1.562436277828633743e-03
-5.506086767182315211e-02
-3.651042368220601408e-02
1.215132415856722513e-02
2.765384260556211227e-03
-1.558002833362106404e-02
1.291067079642043217e-02
4.112688905802291267e-02
4.526414235556146248e-02
6.352337416205348919e-02
8.050485899167936221e-02
4.991680232756523505e-02
-1.056836915151143034e-03
-2.630345422813934117e-02
-4.763140484089022769e-02
-7.644609999925672250e-02
-5.937046305171413824e-02
-9.678954705117820065e-03
-2.417894248974329988e-02
-9.193954884566007957e-02
-9.943200318305524255e-02
-2.102235457534949031e-02
8.220245049586644148e-02
1.453070495507987336e-01
1.001367993895755509e-01
-3.598385259376400691e-02
-1.156119801598504138e-01
-4.375227129198001191e-02
9.795461918476489060e-02
1.555541078062831206e-01
8.674103292650245378e-02
1.018883494792970773e-02
1.183142882299967336e-03
-1.336154719796741122e-02
-5.538383772359365548e-02
-5.094931583163531119e-02
-1.112993548226920079e-02
-1.669077254219753989e-02
-5.782630144897609598e-02
-6.510180240180475641e-02
-6.143171680026638520e-02
-8.674543200285214639e-02
-5.029988058791162731e-02
6.651036211829250422e-02
9.039205226140910321e-02
3.549295071079410641e-03
1.287638132080165185e-02
1.422851455576779889e-01
1.815738616723425181e-01
6.307794185934303965e-02
-3.949871764339658864e-02
-1.802143218092800564e-02
8.412220361426088477e-03
-7.532694866954417479e-02
-1.766880182865706861e-01
-1.382547188589999809e-01
3.348971246093533638e-02
1.794408800229219947e-01
1.671352034242659379e-01
2.678416752210827784e-02
-8.906105567606983908e-02
-1.076319069743359169e-01
-7.953339795547188784e-02
-2.083090126778241319e-02
6.090487845298555442e-02
7.579321646656916878e-02
3.088047482399380872e-03
-3.309930795279041743e-02
2.278366729828728773e-02
5.965760431319372392e-02
6.275115515222438878e-03
-4.361773264018709712e-02
3.090279004287776327e-03
9.021124734669695722e-02
1.221316024899201796e-01
7.999710790887995526e-02
-4.746536813485824347e-02
-2.213751837125045308e-01
-2.719642607709478743e-01
-1.309199786126374332e-01
2.603173411910007437e-02
1.905973351030971347e-02
-1.065696024685419963e-01
-1.429964071108515422e-01
-4.814285541835629928e-02
-2.064437546605501703e-02
-8.062604964228811677e-02
-2.056320667096830923e-02
1.244518497826954950e-01
1.384260070959700273e-01
6.410113942620997152e-02
5.283307338388108093e-02
7.133088102067754177e-02
6.323029067262081471e-02
3.754024990932987998e-02
-5.654007304119867267e-04
1.211136017221649264e-03
5.155576964493151226e-02
5.409861612457379093e-02
1.401998880456262198e-02
2.257175022038685960e-02
5.034013560282965538e-02
3.664596089930839684e-02
3.275338313694642345e-02
9.661714078741076572e-02
1.897633275893159110e-01
2.433604881835059186e-01
2.372137274418286701e-01
1.870829277122597611e-01
1.204576041784760770e-01
5.062705434800694043e-02
-7.529496749948005885e-02
-2.858031676501768814e-01
-4.317840397540828601e-01
-3.717524654201102008e-01
-2.219499167823486274e-01
-1.397339922113841892e-01
-1.046017682214354094e-01
-8.703606844491672268e-02
-1.029338518116129086e-01
-9.897023645915696555e-02
-4.192992370678686603e-02
1.827139542608364337e-02
6.214331238617941400e-02
8.496323809104025515e-02
6.381567279083263933e-02
4.881367436604240606e-02
7.400915873836132197e-02
6.735569318453793475e-02
3.634248021262059813e-02
5.560969509939606842e-02
6.099659024524519552e-02
9.677567651500854767e-03
1.958465790868254772e-02
8.843909074640868284e-02
5.954845095039424524e-02
-3.046746059738823439e-02
-1.007573918396067331e-02
5.475410306195284404e-02
4.805092723460934780e-03
-6.092990992267731387e-02
-2.199213307185877292e-02
1.246664437831150954e-02
-1.271331119888547551e-02
-1.086955355957340205e-02
1.550119119699716781e-02
1.595210686163123920e-02
9.402036111243624456e-03
4.514191130971142649e-03
-1.957454296954670714e-02
-4.468410673244092857e-02
-4.330084134976970589e-02
-3.056005907494026286e-02
-2.149480103046488497e-02
5.061066289168024077e-03
4.676668580897416078e-02
5.200197952515835109e-02
1.418740264387374946e-02
-3.778596612347310396e-03
1.678251863838346389e-02
2.525611935386721033e-02
7.661958850843321976e-03
6.936473723786580441e-03
3.908325646054876257e-02
9.308677945773388696e-02
1.502693281041846129e-01
1.427892606482254190e-01
7.721245835916842881e-02
8.518328288522117320e-02
8.727418626255652179e-02
-1.407898462010810092e-01
-4.032659652185959231e-01
-3.500899139043802677e-01
-1.271423927035888468e-01
-7.352704850158472971e-03
4.187480244654618461e-02
4.509707124948340862e-02
-2.530364387290152256e-02
-5.969751888071676837e-02
-1.415398020432453996e-02
2.437944375261352423e-02
4.724238084827329931e-02
8.064303771296890688e-02
7.957953281239618648e-02
4.335720637565985969e-02
3.308554480407659149e-02
3.164322311276098615e-02
-1.380513359513349872e-02
-5.029195080281680802e-02
-3.844992911430117344e-02
-6.870288611129739265e-02
-1.083641560443321383e-01
1.719835612972732408e-02
2.012826784502917687e-01
1.631238250359842157e-01
-3.676887490248321316e-02
-1.168138652480563144e-01
-1.779939405962199100e-02
9.378553082500416804e-02
1.065337437032301826e-01
4.124934283077125174e-02
-7.441032805132120898e-02
-1.872209205501624840e-01
-2.038070023303567568e-01
-1.089442923493652432e-01
2.018629713607181936e-02
7.454058884135503216e-02
5.577798489863670939e-02
9.128197601622979607e-02
1.557785567209723776e-01
1.221249332188162062e-01
5.530335081424073845e-02
5.980515924605599165e-02
6.746344255551127433e-02
-1.627638229138173714e-02
-1.340741522954179699e-01
-1.385412168495953056e-01
-3.782134980844848587e-02
-3.115504386651240382e-03
-6.843383500412518472e-02
-8.513509196804201762e-02
1.205775450846011121e-02
1.095494257563046359e-01
1.136861395396844970e-01
9.698996259332098857e-02
1.235658929483305912e-01
1.066851628850051803e-01
1.406295247194255110e-02
-4.555231875488870846e-02
-7.233344351827664109e-02
-1.555216246673159497e-01
-1.870840819271518685e-01
-4.864707879120745704e-02
8.499349820244887777e-02
6.011410740306949441e-02
-1.689871760273464751e-03
-1.127868876254806661e-02
-5.468486712086770979e-02
-1.366024211807337352e-01
-1.315135466762093752e-01
-4.728554958565558963e-02
-1.037591848233767114e-03
4.474561358953683954e-02
1.247071132329319598e-01
1.029028857691596799e-01
-4.341932937954390975e-03
-1.753728831244761449e-02
4.064518520243518701e-02
4.826400429713361556e-02
1.401789836195196579e-02
-1.219769964512736060e-02
9.975041183803903116e-03
5.516921163146756846e-02
1.828816623580231671e-02
-6.084983769333252024e-02
-5.307832835448615671e-02
-1.652683865662913504e-02
-4.490022333254217041e-02
-6.347751298621950866e-02
-2.028693816682099887e-02
-1.411037994974909462e-02
-9.426520703216154096e-02
-1.566917188278499351e-01
-1.215427219999242192e-01
3.474877650362874146e-03
1.608211881024733947e-01
2.135192394587289433e-01
1.154295567300979014e-01
9.494329601967811672e-03
-2.431758287741539806e-02
-3.222438146073068610e-02
-2.302626764828757944e-02
1.036503558372489295e-02
4.668195542773704437e-02
6.384969242353981389e-02
4.215874374552197601e-02
3.141100277062748580e-02
9.406969679195889555e-02
1.498034542925142654e-01
1.379626364876523903e-01
1.254199796863711414e-01
7.100625461167024699e-02
-1.671286066514593438e-02
1.159719167570097131e-01
3.675615250424114633e-01
2.585680219076668118e-01
-1.093556699286363093e-01
-2.943476347871383791e-01
-3.872550746886042061e-01
-4.741569691465891134e-01
-3.369947993812505982e-01
-1.609963515697948877e-01
-1.952927529465798284e-01
-2.038271718738408345e-01
-5.125505181261484633e-02
1.053928666493572364e-01
1.762123808060277463e-01
1.439688814683064977e-01
8.386869733710761166e-02
6.529203312868264719e-02
-1.265523092503434768e-02
-1.180425747491470334e-01
-5.235200341760658932e-02
1.015116819967501610e-01
1.075123540355718554e-01
1.973772073193580390e-02
4.666663846712741301e-03
3.191571952966251041e-02
3.354892143115614789e-02
4.538702962518206124e-02
6.630583364633202414e-02
2.910129306180777101e-02
-5.017701030093617287e-02
-4.330703793102115562e-02
8.576866720910877873e-02
1.610595876857685571e-01
7.050415895579117964e-02
-4.189533184634507829e-02
-5.046615677343337797e-02
-1.791700280349192709e-02
-1.432557113157232817e-02
-2.497781320570189104e-02
-1.143852802542844049e-02
4.892349492537630823e-02
7.405313293118566398e-02
-4.496842380609697432e-02
-1.600802696209126796e-01
-6.978705722470897321e-02
7.952022443731049384e-02
8.895432387878524083e-02
4.152276798480117326e-02
4.101992984657887309e-02
3.330997861858474990e-02
-1.955605547661546512e-02
-5.619435465711695304e-02
-4.831261235687833028e-02
-4.809964721950654026e-02
-5.740126158239455822e-02
-3.360640714738800938e-02
-7.116138215971687733e-03
2.416202562425105033e-02
1.370001084926611157e-01
2.221615826804560212e-01
9.133686115658543048e-02
-7.923344578219618239e-02
-2.231084486125407482e-02
6.451001383992084615e-02
-9.569708617755832980e-02
-2.977365751381170211e-01
-2.452269506403964572e-01
-4.681094555841402299e-02
6.246464520730686532e-02
5.998800264312952046e-02
1.327876471841855227e-02
-3.178676226489313833e-02
-3.438210714425178616e-02
4.174417348554654468e-03
5.909852123314913996e-02
1.068834399740704183e-01
1.183243640722915213e-01
9.395604135215611386e-02
3.022470658952561978e-02
-5.336141096679314355e-02
-5.845058163430352088e-02
-2.902617845465424798e-02
-1.104829012235591379e-01
-1.575482891453142409e-01
-4.236519704472533482e-03
1.312029984669806915e-01
9.189240816754214169e-02
3.121975550110443060e-02
1.179636900363784796e-02
-1.618586084095365724e-02
-4.154116949929936159e-03
5.333178215538124378e-02
8.028804484235806116e-02
6.656951810363578859e-02
8.484126867255345483e-03
-9.619209961724999036e-02
-1.442249334631468261e-01
-6.844880512569100073e-02
4.992094595352171427e-02
1.062453954303629877e-01
6.110097659707977580e-02
-1.440118609895245198e-03
3.521709741596230903e-02
4.657255043902112923e-02
-1.294088286132230869e-01
-2.679326291298785856e-01
-1.213356474623395187e-01
9.516452276656642284e-02
8.773222508115779972e-02
-4.807248765885668851e-02
-5.010826248950676215e-02
7.986754992989657242e-02
1.175304840117605554e-01
3.152889252599638120e-02
1.665272371761759157e-02
9.721560950096290454e-02
9.970534154740079424e-02
2.960037063675653030e-02
6.249512422618108687e-02
1.320320948432495978e-01
4.664520277046245444e-02
-3.714990395422348296e-02
2.963206340161358976e-02
-3.912485250618148030e-02
-2.896022044465360046e-01
-2.929316019640280655e-01
-3.270959822495547731e-02
7.250167396736718894e-02
-2.250461355217896198e-02
-8.382042480120940886e-02
-7.875301412649658717e-02
-5.581272613690094198e-02
1.642249028956496715e-02
1.232514296513916863e-01
1.540147888943865506e-01
5.519566090076114678e-02
-4.149480178227382687e-02
3.747641839396992358e-03
9.443484715856689804e-02
8.135248349588505845e-02
3.301986100826307530e-02
3.795390564534731337e-02
2.680705731524772248e-02
9.593776776270301551e-03
8.626336845191420744e-02
1.347652276656584325e-01
-1.922429235286100824e-02
-1.994005355862742968e-01
-1.788070358010216410e-01
-8.404750321225318288e-02
-6.341511631435169105e-02
-4.000342235185569417e-02
1.086056073340651781e-02
3.907954166121174050e-03
-6.422446466031708767e-02
-1.332104852578321064e-01
-1.641912979363959468e-01
-1.157300162142366334e-01
-9.230458506822235634e-03
3.592757182361580592e-02
6.389990032397922792e-03
7.968432212847853177e-03
4.815336461828559345e-02
8.592507980346732188e-02
1.107556799214584609e-01
8.220903578750811402e-02
3.500077427528018592e-02
6.218460069682672092e-02
1.194376733008662289e-01
1.198606202626610884e-01
8.818524088277952810e-02
6.755841159228923032e-02
6.898751494165852871e-02
1.021271956392517943e-01
1.379943574729716738e-01
1.368804875980153546e-01
1.286149840038976477e-01
1.490514913962868448e-01
1.462294891194735880e-01
7.784104161035139413e-02
-5.295955142208055855e-04
-8.746943491783475133e-02
-2.621072392147435481e-01
-4.281501372025368068e-01
-3.938553959157499174e-01
-2.269186966374351910e-01
-1.201354105087790031e-01
-9.161398195858526383e-02
-9.068045690725949626e-02
-1.023346620125977768e-01
-1.000373427246121494e-01
-7.966682958286455674e-02
-4.907050979601441931e-02
1.145046531783933813e-02
7.710417998970227338e-02
8.263486640250142234e-02
7.755101524754692832e-02
1.564449864865537498e-01
2.108000024709057452e-01
1.162437968366409474e-01
1.155946991002392357e-02
1.726080164747161722e-02
4.056412930056736005e-02
3.334811880487685565e-02
4.498939011325425730e-02
3.419922936758632015e-02
-5.659423031247099584e-02
-9.351328551991135163e-02
3.745938039077038872e-02
1.331004820186789672e-01
4.244848554858306200e-02
-3.255682924653816035e-02
1.502027719919096088e-02
2.686249356320138254e-02
-3.466038136208223625e-02
-4.947751895864496707e-02
-8.850198828826325373e-03
3.529264029195717731e-03
-1.113394404117373608e-02
-1.146006843836885891e-02
-1.322697615228919307e-02
-2.222037662585028481e-02
-8.055848840131728944e-03
2.650022758783524349e-02
4.435997453223239351e-02
3.022020795045576164e-02
6.544147196334926773e-03
-9.619162816266860205e-03
-2.511454587287852147e-02
-3.439345990686705490e-02
-2.541789735916455406e-02
-1.266867648552459473e-02
-8.920464505076646650e-03
6.134356334573021728e-03
4.919456663062866941e-02
9.148510017517996751e-02
9.229063206437557176e-02
6.519524764296699693e-02
5.834204236863844983e-02
4.631085379079864089e-02
-6.910098383169251124e-02
-2.492083610479499667e-01
-2.767976482521333770e-01
-1.005622992597472593e-01
5.832584139909167964e-02
7.467726179828027000e-02
3.961010381668732261e-02
1.359028126341713799e-02
-1.494899594453677483e-02
-1.192611801625699693e-02
3.052063716714946764e-02
4.025202167450957214e-02
-8.193667295187424815e-05
-3.841797987324382241e-02
-5.620055504116573675e-02
-4.852150754752673767e-02
-4.260095346530502411e-03
5.519000783002873251e-02
9.546376415078183797e-02
1.023566454902417461e-01
7.044184156848865008e-02
8.572344412081935386e-03
-1.651592339429708289e-02
4.016009713803299352e-02
5.460930974109953762e-02
-8.083618531068269275e-02
-1.997840817942447278e-01
-1.402044866414302593e-01
-1.351147294905996610e-02
7.297260180940318142e-02
1.123004228655096193e-01
3.039089518573798859e-02
-1.138008401842189599e-01
-1.038922825906024583e-01
2.454523878234504686e-02
7.108493328047531257e-02
6.185296541506295209e-02
6.833760569288367670e-02
-6.483056203742204593e-03
-1.260507910954609401e-01
-8.814288156140395736e-02
6.623040333177418471e-02
1.337103882347476236e-01
1.176871900696826456e-01
7.329504159444708011e-02
-1.161425266224876823e-02
-1.738936200334405616e-02
6.283216812954642294e-02
-1.614719931340093118e-02
-2.048871357588012976e-01
-1.776599910887483869e-01
3.515507393464301078e-02
1.590111389398147779e-01
1.591976766282913458e-01
1.566378229806263678e-01
1.492270845890709130e-01
8.735686255267371969e-02
4.387819893460750964e-02
6.074792375148913709e-02
8.979709773649365706e-03
-1.732745116316162515e-01
-3.037524067102891911e-01
-2.128313473044355364e-01
-2.355223333330614191e-02
4.442740683506538057e-02
-1.594384968179191758e-02
-9.186053867785323734e-02
-1.048181999317920471e-01
-2.228356403388516427e-02
6.645301039743423122e-02
5.326528192702784104e-02
4.991296361980413626e-03
1.400314452488459621e-03
-1.280426881133726533e-02
-5.357764924105670734e-02
-4.913342027682179175e-02
3.835253895516498035e-03
2.608414242911790207e-02
-1.042415013632674858e-02
-4.215817065342473968e-02
-2.257065893423848904e-02
1.891254968438658632e-02
1.390798522259389935e-02
-7.327734207552322188e-02
-1.452108825401948189e-01
-9.516245406058344847e-02
-9.837851867753513030e-04
4.314994999392605252e-02
4.939212205027715408e-02
3.317172928652121350e-02
2.105605564459510012e-02
1.610933935116692917e-02
2.003274206611916144e-02
1.121015382107155567e-01
2.278126682799418712e-01
1.888129965416424361e-01
8.971965656036781644e-02
1.189852770744686400e-01
1.805647576361005813e-01
1.502199881648971502e-01
1.225793588688991881e-01
1.582223087098900693e-01
1.556437296119048685e-01
5.937708046421127928e-02
-4.829052035406702914e-02
-1.034641160523967207e-01
-1.541644501177764082e-01
-2.273217892526564476e-01
-2.629977500110388666e-01
-2.442079461158885023e-01
-2.051168818538229577e-01
-1.420176960934824151e-01
-5.898944273080572454e-02
-3.475151224458891686e-03
-2.873883768101173630e-04
2.756336329423111908e-03
6.603738423285190895e-02
1.046967806078798330e-01
-1.172230612534468780e-02
-1.856603973686224707e-01
-1.993618198176471956e-01
-4.505374849671752585e-02
7.475475244535181862e-02
2.801014717828652356e-02
-6.871759252524570205e-02
-4.717571452758068107e-02
3.788749836784308100e-02
6.223462890301451056e-02
5.713189773969477858e-02
8.068291176786762664e-02
1.073868118091451523e-01
1.070237154590889805e-01
7.450499381745397109e-02
3.220338563494910128e-02
2.698304316775015921e-02
4.963457945820334838e-02
5.038984252196938851e-02
3.577359000231974950e-02
3.510036977038721862e-02
5.620957411719078312e-02
6.366882797694610463e-02
-1.894107825497785835e-02
-1.345646604927454859e-01
-1.300386878369568788e-01
-4.936272190556777184e-02
-1.849660822252466308e-02
-1.155376596695890934e-02
-3.416957284340486900e-03
-2.066055127871217756e-02
-3.665702980314089476e-02
-3.708003849306194810e-02
-4.015806912592503192e-02
-4.773349324356947199e-02
-1.601749728049959784e-02
1.037733187078068442e-01
1.865148240746295483e-01
8.835681789414776000e-02
-4.180468778555944398e-02
-4.041004602896690334e-02
9.612336092136193610e-03
3.288929321924369958e-02
4.511161384689392484e-02
2.827712479777852450e-02
-1.380768353639269357e-02
-3.704779711963152034e-02
-4.465734057268190560e-02
-5.622765112952799599e-02
-5.297228458819056712e-02
-2.420051531368434122e-02
1.220080115253098507e-02
4.559941362701593753e-02
8.013283378671565149e-02
1.116288821502806616e-01
1.190328456330971563e-01
1.057060144426005543e-01
9.908268706310516261e-02
4.701449829045691725e-02
-1.228090567782704617e-01
-2.863329463545236653e-01
-2.611427197822777102e-01
-1.134852557586640970e-01
-2.220623128237943222e-02
-2.615556423351844337e-02
-6.507416946385578826e-02
-7.184507363992727325e-02
-2.164736830252766975e-02
4.357550534358514693e-02
7.385456471061027650e-02
8.092516865566434792e-02
1.171831552228611295e-01
1.593055037974317467e-01
1.044502583354197656e-01
-4.108533600505544919e-02
-1.026757504469940907e-01
1.031008513837876686e-02
9.461899327880714250e-02
-3.881433586915152001e-02
-1.869860221832397307e-01
-1.149634379309736054e-01
4.249071402030137057e-02
9.088931959257381954e-02
3.082399050071465627e-02
-2.338297522162745973e-02
4.051147788162082208e-02
1.219503768981409775e-01
4.080059316027488669e-02
-8.918135218642493645e-02
-9.383542423614349426e-02
-7.864738658464023868e-02
-1.327538422913015492e-01
-1.130816290204439967e-01
4.055220318359964438e-02
1.656811778847201988e-01
1.577617338577458062e-01
8.211991466655248206e-02
9.805860644669402507e-03
-2.558799911056555340e-02
1.669264310301534632e-03
4.371531310155397226e-02
4.296727999738285397e-02
2.970672510347826742e-02
-2.002927443658623907e-02
-1.285527638004402839e-01
-1.123078649549771879e-01
8.305809798846890135e-02
1.797249916715988605e-01
7.627535475283706012e-02
-1.235260003559565667e-02
6.649992572228091703e-03
4.144823240060584169e-02
7.129205912594524519e-02
1.354541482004764097e-01
1.661699289662200707e-01
9.575487517568809226e-02
3.132363864666243974e-02
-2.337999275375076541e-02
-2.514718766920421289e-01
-4.746345329702800764e-01
-3.275126335596906246e-01
-2.771791761032667278e-02
2.736560367805123545e-02
-3.567407997025545674e-02
-2.035820284117549964e-02
-4.582663316229955430e-02
-1.513351417083094730e-01
-1.654508034085659385e-01
-2.500432201277758351e-02
1.127388004543231625e-01
1.018656168975797943e-01
1.715526444257054958e-02
1.075984570642664513e-02
5.793944585118968038e-02
5.788773845651364047e-02
4.881880413241196370e-02
9.088160743238715700e-02
1.155583503957049452e-01
6.484421785469238197e-02
1.494168466694020987e-02
4.605188086426452443e-02
8.813674330558179948e-02
4.897489269772970638e-02
-3.114555989798491187e-03
-3.038786721046363160e-04
7.640483777793166675e-03
2.551373293218711646e-02
8.017407239096635552e-02
1.050254188335900257e-01
6.874933715375555754e-02
2.394347794428179285e-02
2.107331658387971707e-02
6.223384930300840390e-02
8.099948302057817517e-02
3.269577957099411430e-02
-2.551150454786429989e-02
-4.831829479287402807e-02
-7.566093982420493691e-02
-1.290878878537026764e-01
-1.617105880742216173e-01
-1.476917580936003838e-01
-1.266987646944206514e-01
-1.232435317137132169e-01
-1.052369699682209891e-01
-5.254156543675268798e-02
2.080919564694680424e-03
1.266547504874042385e-02
-2.217923907465463307e-02
-5.328544724003023147e-02
-3.415607554622378250e-02
4.289222696322997352e-02
1.355537752961032405e-01
1.737374692658565645e-01
1.389171898865441679e-01
9.489569780550488609e-02
9.923083538176211138e-02
8.252041661791072180e-02
-5.648391049320895807e-02
-2.082361930085373236e-01
-1.959350968901759638e-01
-7.198810967511302950e-02
3.264510103247304090e-02
8.178731574831456241e-02
5.760533859278557656e-02
-8.240425944978629208e-03
-3.008449392648633938e-02
-1.448234278425119398e-04
1.594213586286707257e-02
1.205273990192457303e-02
5.175488464727065474e-02
6.833247813099395385e-02
-7.630585388109913103e-02
-1.783446416862325412e-01
1.911244912445810018e-02
2.079391364196235825e-01
8.831327854820458789e-02
-5.157612804642928983e-02
-1.162965221550315426e-02
2.021915590514547501e-02
-5.466955550062687144e-03
7.821136272558412705e-03
-6.626338078423386554e-03
-1.099036364083642442e-01
-1.439271546216044639e-01
-3.554252076620932621e-02
2.098942034998569489e-03
-5.525992149622146327e-02
3.040373824771207961e-02
1.558051114194293485e-01
8.755814919880772207e-02
-3.228435567008140078e-03
3.195585456311861305e-02
5.376260793483050859e-02
2.879294978961206841e-02
1.770561548732214885e-02
1.007639537369726251e-03
8.820781859645004247e-03
3.204792633529589263e-02
-3.893250769953787715e-02
-1.162992696842973517e-01
-4.461370086256228468e-02
3.538457405343020667e-02
-6.628230500680717951e-03
-3.301710971101851078e-02
2.055678506245258580e-02
4.891579155279131980e-02
1.746150966392447101e-02
-1.244341454847184940e-02
1.743630526040842663e-02
1.013025509204725089e-01
1.521804118407688033e-01
1.168268350759510549e-01
5.357200694940938979e-02
2.389580666204094150e-02
1.785928704360128377e-02
-3.711643658749909369e-02
-2.092826045133099611e-01
-3.801036273354836958e-01
-3.310328151679022279e-01
-9.950433508227643498e-02
7.008849509019215995e-02
6.342867471839491733e-02
-2.266721857577515958e-02
-2.541778591400699339e-02
7.032353910099668759e-02
1.107574204282647523e-01
5.381591026505752606e-02
2.765463184425311430e-02
4.930691267849228454e-02
2.475016254175271824e-02
-2.541155301825217747e-02
-3.279695351093045441e-02
-1.926387379862710622e-03
5.053390814687689497e-02
9.783016350915293979e-02
1.058999131146561024e-01
8.055582823009803384e-02
2.784485285460616688e-02
-2.008401054561876134e-02
-4.537790894104314771e-03
2.876917037396072019e-03
-8.217475959353526260e-02
-1.203591758477322721e-01
1.808623702529484761e-03
1.261557195729754166e-01
9.113621786998003793e-02
-3.897824479239703904e-02
-1.236368680428406863e-01
-1.246120385191080426e-01
-6.913441058817595963e-02
1.558280489012156197e-02
6.508851371951263065e-02
3.879381996459326659e-02
1.061878748888827120e-02
3.016916701498235237e-02
-2.036712755703640708e-03
-1.278762838590966622e-01
-1.666497126232021619e-01
-3.409607647717131929e-02
7.298911198215045359e-02
7.795850598521023023e-02
9.809524115244599995e-02
1.025209356925616128e-01
3.874573059534530683e-02
9.034976362731182015e-03
4.210868686581509257e-02
5.600623761025948222e-02
3.119692212593293962e-02
9.595555975161838835e-03
4.139123265314213068e-02
1.341372431242055796e-01
1.957224815376245597e-01
1.581269393929126688e-01
6.790613723534513757e-02
-7.004106356582184834e-02
-2.581004737352951550e-01
-3.292632965867377526e-01
-2.076627071066912966e-01
-7.450023939490556246e-02
8.238963886882385429e-03
6.542185857014605477e-02
-4.631534432957378628e-02
-2.316622072942084443e-01
-1.710367534311061921e-01
2.946678551023297621e-02
7.816700380545485438e-02
3.809534970836387507e-02
2.144710421485831325e-02
-1.592024260690833373e-02
-2.622889790617821335e-02
4.489410057589451886e-02
8.956034090480265164e-02
4.710199015139926448e-02
1.036271496576383552e-02
1.266190362018016283e-02
1.935023629177477604e-03
4.294095450459277027e-03
3.751719948858661668e-02
2.658943357664363474e-02
-3.100237672077532647e-02
-6.047105107959716008e-02
-4.474663863801525698e-02
5.323559444852944689e-03
5.629273473097359815e-02
6.113263029972426654e-02
8.010189874828256562e-02
1.546999330055642274e-01
1.655384196398388963e-01
9.103478920134705499e-02
6.873394042539912596e-02
1.060691017542431253e-01
1.073909917611028803e-01
