5.135007931943037091e-03
-3.542274961732572169e-02
-7.263431194481365094e-02
-7.480519667221273428e-02
-1.227890178829988202e-02
8.352302732950350750e-02
1.359517071494122376e-01
1.351893268142658755e-01
1.440227645805072787e-01
1.615017395002327494e-01
1.320297696109150321e-01
7.253916878796988488e-02
2.522418470028521889e-02
-2.792365393188336875e-02
-8.339859507371724656e-02
-1.039745068418103102e-01
-1.126664916539981687e-01
-1.347696830406682200e-01
-1.282351013236990023e-01
-8.034551470130973927e-02
-4.043003228995784709e-02
-1.649335863722757242e-02
2.199530407737470064e-02
4.536509885636340333e-02
1.255711455977225055e-02
-2.662052388349396559e-02
-9.848488310305181584e-03
3.441532846831259207e-02
4.818278500698017219e-02
2.534118179063258799e-02
-8.889607093180889111e-03
-2.393554099364891830e-02
6.157539253443002764e-03
5.432681717987132564e-02
7.193410577458674016e-02
7.489427654587083039e-02
6.576023862534455255e-02
-8.971751412204208298e-03
-7.454497557293540688e-02
-1.620475229172885223e-03
7.821803233167240466e-02
-1.032747254146090983e-02
-1.357693098265403964e-01
-1.554786441274408348e-01
-1.281813330469857015e-01
-7.154483820202915678e-02
2.633884518033299815e-02
8.160119283769609599e-02
7.391210887950082353e-02
8.062138753401336400e-02
9.533954772182801074e-02
6.840789684768616707e-02
3.269446457590707844e-02
3.302487561580722680e-03
-2.137304025995588608e-02
1.124159339316517514e-02
1.798705727781337721e-02
-1.349900474143067575e-01
-2.696771723677222621e-01
-1.644108006862600446e-01
1.130244835073999574e-02
4.954904733243596648e-02
5.561943700822289532e-02
1.228769981308728554e-01
1.893351429628404581e-01
2.447314745697714844e-01
2.643490563906780721e-01
1.763936424506524214e-01
4.298182865034205768e-02
-3.053189660198761535e-02
-6.854830832002094254e-02
-1.173255770574765100e-01
-1.658363479653828243e-01
-2.103116498786992139e-01
-2.341848811827320631e-01
-1.978859627206633887e-01
-1.128318075482612759e-01
-3.368341357821957177e-02
1.071853937423525305e-02
3.995613396084009977e-02
8.639819660667069634e-02
1.283744773889640423e-01
1.033188752548916400e-01
1.627812643138267304e-02
-3.481071602970492451e-02
5.221052472399930269e-03
5.543955356852237754e-02
3.312681420540120741e-02
-1.610058878930573784e-02
-3.269401189769202687e-02
-2.771375593773066359e-02
1.988991535541208451e-03
4.928465294202832164e-02
4.731588981616653006e-02
-1.898220291476867758e-02
-8.303842626493199153e-02
-9.997042917598240874e-02
-8.243441596239639568e-02
-5.672155576838771446e-02
-2.108552631033220118e-02
3.180427145758348700e-02
8.551204944984203138e-02
1.217020680872902827e-01
1.263059208292539315e-01
1.013365353413832604e-01
7.164434024470060780e-02
3.539219749257627168e-02
-1.336863632656414176e-02
-5.216756235625304161e-02
-1.228438642039017537e-01
-2.494814698095095262e-01
-2.769918937596440034e-01
-1.249144451423425950e-01
4.575720337955311440e-02
1.479782107924142998e-01
2.314493622673294282e-01
2.922621654485785814e-01
3.348243988226615730e-01
3.595133658381662323e-01
2.933805081698938610e-01
1.588854747592993166e-01
6.395458287821992327e-02
-3.978008684061083711e-03
-1.105273823127673472e-01
-2.305212773593424691e-01
-3.090517737792672359e-01
-3.343929056692229174e-01
-3.285481281985369040e-01
-3.248310497331776681e-01
-3.281552198756357286e-01
-2.842558243936154083e-01
-1.600929875950308223e-01
-3.709046502333786244e-02
1.393059142460303934e-02
5.555840978230308647e-02
1.240395150483565717e-01
1.528707151795738461e-01
1.410370484422351911e-01
1.532991901706455828e-01
1.811635380420501817e-01
1.757110117583524367e-01
1.417088331455481909e-01
1.173575155407992898e-01
1.187565376945775575e-01
1.294741983093514459e-01
8.483104702585167467e-02
-4.630805802725167231e-02
-1.243138932338963415e-01
-4.239785689880046921e-02
5.230437934027851177e-02
2.898524881803099182e-02
-4.194790852660033875e-02
-8.694495660705865714e-02
-1.076158021901053585e-01
-1.057194940874878059e-01
-8.510717982957242966e-02
-7.091004611561088633e-02
-7.234197780260319399e-02
-4.835093026982312248e-02
3.221169252325795096e-02
1.169914054276094822e-01
1.430021815345472458e-01
1.226305716694168768e-01
8.136226688721935607e-02
2.297035027844901781e-02
-2.274174981256758821e-02
-3.584135394141170494e-02
-4.686166623105524759e-02
-7.640224686497965045e-02
-1.004995005125042667e-01
-1.058106309395689948e-01
-1.173754554626945390e-01
-1.089579987149362356e-01
-7.351585546363783533e-04
1.461567817651733825e-01
1.709793762064958089e-01
1.067488329546139036e-01
1.042212168251354654e-01
1.411737390998382136e-01
1.086422725055874727e-01
2.711554907677378098e-02
-2.006816530829446873e-02
-3.987116895579942422e-02
-8.295669095702487561e-02
-1.204075085317078131e-01
-1.164188667744163325e-01
-1.233609613791694648e-01
-1.273944122866719486e-01
-3.567197545072151726e-02
4.168581258332645922e-02
-4.984405003183421667e-02
-1.168729039110186219e-01
9.416047093863422549e-03
1.085164621304816612e-01
5.829761085923221287e-02
2.183570528238576100e-02
5.230931105830483041e-02
8.209374070806875479e-02
9.560661614882121073e-02
8.123091263141543616e-02
3.256773563800021559e-02
-8.299439202313669758e-03
-9.557239169683630353e-03
-6.221335659704124374e-03
-3.286177911921128042e-02
-5.598892662294754907e-02
-6.131297134751727274e-02
-7.968360318138686949e-02
-9.224472284172610670e-02
-7.346368156886023959e-02
-4.996204003679361599e-02
-2.740538407623125186e-02
1.723082386914387421e-02
7.577252100177291061e-02
1.156787236415075248e-01
1.200537630030623915e-01
1.029591145810179048e-01
9.041532336551090510e-02
8.777538602942296098e-02
6.343914242614510923e-02
-3.828870184115536895e-03
-5.791479723629627818e-02
-5.352605473850808454e-02
-4.786203405801194022e-02
-6.250004929895813799e-02
-4.605915205081591302e-02
-2.774144509067940148e-02
-6.015226267495910745e-02
-9.375031283537434146e-02
-4.545181481913827815e-02
8.626783335569003508e-02
1.402202954544065905e-01
-4.648051123800931578e-03
-1.229090310141282422e-01
-5.471997922444037099e-03
1.285885747596267892e-01
7.252420376013529735e-02
-3.698179119330578801e-02
-5.969440900577254600e-02
-4.020658201527715914e-02
-4.458595036744358170e-02
-6.829862797388641660e-02
-8.780953071319713699e-02
-9.299015771099097827e-02
-7.274915409507656805e-02
-2.986086324029019537e-02
1.551673475205124497e-02
5.133473758193955738e-02
6.660571743183676952e-02
5.726911337694856607e-02
5.337234002351132212e-02
7.730646240208767506e-02
9.671300769659645080e-02
8.428368071938775741e-02
6.474271475102080786e-02
5.190127809895064837e-02
2.661723110638206796e-02
-4.935829888866160448e-03
-1.936441315146750566e-02
-2.283887069248964272e-02
-2.906485225606788778e-02
-4.280949422346255751e-02
-7.541396685854465098e-02
-1.040770006131627456e-01
-8.188045678306425657e-02
-3.516281657864797627e-02
-1.959840805899548677e-02
-1.716812159628165746e-02
7.128853812242954419e-03
4.960469542535585197e-02
9.200185738944877123e-02
1.072020542272794363e-01
8.891146643635743085e-02
6.466398878924083105e-02
4.386260856908253541e-02
1.862551387995083074e-02
-2.906488298864664394e-03
-1.782394276784206311e-02
-2.711601716984426980e-02
-2.577592249132254487e-02
-3.321923022484591509e-02
-5.244952063301352996e-02
-4.444687041877853906e-02
-3.595046122020696677e-02
-9.603942704372035732e-02
-1.633133926653438928e-01
-1.189218036181818733e-01
-7.343856647851959747e-03
3.289059622913427516e-02
-8.878314147855982663e-03
-3.025456674762624226e-02
2.106324466197581277e-02
9.995449554204435816e-02
1.339428369987973877e-01
1.058844799121326230e-01
6.413721980281417157e-02
4.639334250767421924e-02
4.073651685065562272e-02
1.595536510720793610e-03
-1.044964844959589134e-01
-1.712279615111581832e-01
-6.125951125916041101e-02
7.598992810405694187e-02
4.167820694703687490e-02
-2.310043186667345982e-02
2.373272729515049986e-02
6.599159464437023837e-02
4.193220774471971557e-02
1.795140616312818765e-02
2.294030866725874085e-02
4.437595202304666503e-02
4.257017823921125516e-02
-5.256558198756105041e-03
-5.400498214901422456e-02
-5.871123240684807121e-02
-2.468987935216987797e-02
4.018062010518550636e-03
2.510013059976116262e-06
6.529574291075760512e-03
3.766024337158768720e-02
2.664026666397049936e-02
-2.805982494783783657e-02
-6.444793972913645530e-02
-9.921180348782854264e-02
-1.560934970302422509e-01
-1.553538558963929450e-01
-6.884910564502828845e-02
4.919537298140128773e-04
6.133650594573622494e-02
2.025821530870825782e-01
2.834679594638085942e-01
1.756092754592176175e-01
6.329870711868312849e-02
6.573194277191099499e-02
5.847233057310784188e-02
-2.353233120217767746e-03
-4.944682947500272929e-02
-7.560390317425307039e-02
-8.711500026820093168e-02
-6.363003225294175391e-02
-3.777228857798770045e-02
-7.671806491704345754e-02
-1.425804521706418027e-01
-1.076895491234879793e-01
-4.745706706430066930e-03
-9.286968212162988179e-03
-8.352814928712501419e-02
-4.768948647034702837e-02
7.167399497953687304e-02
1.572728486578876261e-01
1.907973228777901931e-01
1.572647067056132664e-01
4.986078309515208640e-02
-6.070149962602863075e-02
-1.151047646871731223e-01
-1.287695861510816386e-01
-1.405411320286062693e-01
-1.696806141235960852e-01
-1.874872261232515269e-01
-1.432772452709851763e-01
-5.947411092197159993e-02
1.978049032143342628e-03
5.764996668678060154e-02
1.385492453159923865e-01
1.781016554809475017e-01
1.318216814596305242e-01
8.828154361738094202e-02
9.079910243619568333e-02
5.165617094342495053e-02
-2.761267175465887541e-02
-3.035490324030817866e-02
4.647991195620841676e-02
1.058451493660123727e-01
1.377887223361169422e-01
2.061824812195785783e-01
2.985219758521083788e-01
3.211227169906564760e-01
2.707457305603152564e-01
2.152115834848863374e-01
6.419739213518016463e-02
-2.533031228006848989e-01
-4.837615660145644925e-01
-4.428579393871646674e-01
-3.400354942368534750e-01
-3.171692145025192811e-01
-2.604831546382349039e-01
-1.545773252530190656e-01
-7.823708510333536592e-02
-9.459472591881942782e-03
6.732922159151040475e-02
9.179719507931054234e-02
5.398512297160973361e-02
5.105975568720853841e-03
-2.477673313473134284e-02
-2.571186102681742580e-02
-9.914568054761440513e-03
-8.029905240972044778e-03
-1.583028039177116625e-02
-1.330324295317819767e-02
5.872547263264950301e-03
7.053725965886015192e-02
1.844873186354427652e-01
2.569824843499919353e-01
2.181707658989870680e-01
1.447175586490520027e-01
1.274146386648620788e-01
1.211250201960856893e-01
6.509193321482803496e-02
-7.856031999555451728e-03
-6.364412265418667447e-02
-9.941940623678839628e-02
-1.074620686170074668e-01
-1.155470650145904582e-01
-1.453855549804534686e-01
-1.346031840302817362e-01
-8.056151840436159839e-02
-9.039310582809853556e-02
-1.057160748278988954e-01
2.053634491262090050e-02
1.481337377228335028e-01
1.097720044356464975e-01
4.060829581859488890e-02
3.919596018974152996e-02
4.689183433142520702e-02
5.894998798724216532e-02
5.214713360217941573e-02
4.874591499777094876e-04
-2.790873498225382443e-02
-1.939469132337802784e-02
-1.999671668125738849e-02
-1.239602934913323212e-02
5.708317442123782108e-03
-7.226044439667196791e-04
-1.277345427244817172e-02
-2.033075455079982538e-02
-6.079733008867672234e-02
-1.131404586001135276e-01
-1.139700650920998232e-01
-5.948954683095953461e-02
3.441043840717861180e-04
1.713957109463144085e-02
1.059585193327114427e-02
5.227004938692538655e-02
1.183596655712774448e-01
1.160575087776872238e-01
6.884928032740132708e-02
5.305393399391658549e-02
4.052789599744850008e-02
-2.403164991414400396e-03
-3.018411499801799264e-02
-3.343378290970747124e-02
-4.426986060691699698e-02
-4.554259239969123824e-02
-2.560118495864609212e-02
-2.799034278327972719e-02
-7.422267645066454866e-02
-1.083729421696631584e-01
-6.151580312348355756e-02
4.084424924881456531e-02
1.032797858717724171e-01
9.278981192813978707e-02
7.180230003162788033e-02
8.566149738037955041e-02
8.281656662712087724e-02
2.037225114898776751e-02
-3.580484106684526241e-02
-2.571928674758292011e-02
6.857396301095641453e-03
1.295635966041298881e-04
-5.629231017724592445e-02
-1.300151995311613906e-01
-1.574999000400841564e-01
-1.083759476710878522e-01
-3.224640094843598398e-02
1.328396546379815267e-02
2.084748198082097062e-02
1.913391204445139687e-02
4.350615763710317246e-02
8.083555872335168591e-02
8.025592831096035884e-02
5.275223390415809122e-02
5.962060554350514380e-02
8.742774772473861644e-02
6.457022549570555492e-02
4.197973779893678092e-03
-2.596707555404352899e-02
-3.068137195267698833e-02
-3.471709413472439526e-02
-2.236521413531393845e-02
-6.648013450794824572e-03
-2.669574534680405759e-02
-7.172238150783280530e-02
-8.974369021380168565e-02
-6.573365662623902039e-02
-4.091338312564850310e-02
-3.975733089487549360e-02
-3.326704515148192626e-02
2.227258199608089795e-03
4.644729610561362104e-02
7.673172443753903393e-02
9.181910750690498724e-02
8.118596049350297605e-02
5.019376341641028361e-02
4.813048603108259493e-02
5.875238706577896874e-02
-1.244974613989230372e-03
-5.307031762822797538e-02
4.787901632155680542e-02
1.490503013894301787e-01
4.991585706375318426e-02
-8.942602434066668216e-02
-1.045634836670200074e-01
-1.176709910467521325e-01
-1.838043645152392380e-01
-1.811650318178109065e-01
-8.634324631050938059e-02
1.718810406615277689e-02
8.432733890932130050e-02
9.524105713889610692e-02
6.991362518220875510e-02
7.254182332095611418e-02
9.637575234583101169e-02
9.542397669232445534e-02
8.235130456375606978e-02
5.866958402661406197e-02
-1.645509268109452902e-03
-7.390645035851213518e-02
-1.140107240719669957e-01
-1.197775051017279935e-01
-1.064715423198835248e-01
-7.688167461688341642e-02
-5.099191931359772084e-02
-6.876570046793258062e-02
-9.696060303722199569e-02
-3.272238168535461511e-02
7.781090843749620400e-02
6.009670673409109320e-02
-1.859487724583075430e-02
5.721621090465782433e-02
2.045658793040354695e-01
2.132098052077077699e-01
1.181461984621301059e-01
4.252454408832431754e-02
2.463651720179111521e-03
-8.827922798873451965e-03
7.794856058289740403e-03
5.854285916043269755e-03
-4.810537671166881246e-02
-1.012975061881723482e-01
-9.164455412165563308e-02
-5.481159781904411388e-02
-5.558638074918501037e-02
-6.650220838338012641e-02
-4.120117120667098065e-02
-1.878428413043127868e-02
-1.261093655514640421e-03
8.342849038518826421e-02
1.586031285799281987e-01
9.456730279207622991e-02
-1.029755160529168337e-02
-4.150496273063479513e-02
-3.371523002342162456e-02
2.314259432648699353e-03
3.601260428036531791e-02
1.578935935655656486e-02
-1.629556518900771717e-02
-3.926168482987343888e-02
-7.229336022202632883e-02
-7.824000312504666987e-02
-4.655935526702076332e-02
-4.308206676624513204e-02
-8.837331718612055631e-02
-9.174813776042194113e-02
1.109564556102288560e-02
1.260458564349641319e-01
1.543832109953709453e-01
1.557663341879155228e-01
1.542502250388465279e-01
6.311832047534483847e-02
-4.573941637121026887e-02
-3.835643076473939372e-02
-7.153604684632323962e-03
-5.883384942663162642e-02
-1.219555401019200014e-01
-1.379551715469862216e-01
-1.397888398193106729e-01
-1.474491367020585586e-01
-1.316932657358103609e-01
-7.660925601858557810e-02
-2.228829495264413735e-02
1.099407627450567360e-03
2.199967180032988759e-02
6.460988837478137681e-02
9.260603610953729858e-02
6.073244209944697602e-02
8.631348053015493529e-03
1.446695386086729873e-02
6.870047253632194373e-02
1.246302876770404161e-01
1.890508831004479862e-01
2.547628070670706624e-01
2.804001221972580171e-01
2.650212058622019029e-01
2.256169175382247982e-01
1.529185783751611238e-01
6.376478396786955383e-02
-6.350413125019389871e-03
-8.849708405774520115e-02
-2.337379817435156493e-01
-3.880048530525512240e-01
-4.034549070151682848e-01
-2.453494944425643753e-01
-1.223211977881425438e-01
-1.668557106127141199e-01
-1.934281605506375790e-01
-8.490346812319568559e-02
1.723807736521929673e-02
4.232177528546507417e-02
4.030592445815048275e-02
2.644970281538137902e-02
2.965553023240197206e-02
6.443920748837454748e-02
6.305466196136688684e-02
1.296665348024220003e-02
7.738266597765788846e-04
4.721504869262212190e-02
7.711876167697641338e-02
4.162366868064831804e-02
-2.668520486590169813e-02
-4.145194295053720307e-02
3.785143521849983206e-02
1.269527260728978424e-01
1.371783100431030467e-01
1.135744240561651908e-01
1.229980561676985301e-01
1.338802088857340145e-01
1.057859027100929716e-01
5.025821445139219690e-02
-1.199843296203872284e-02
-6.017896942823608430e-02
-8.950326599590766041e-02
-1.217924800129221163e-01
-1.586413522305968327e-01
-1.744436223475508974e-01
-1.533949387617949411e-01
-1.044227523197984869e-01
-5.581372920939389054e-02
-1.690439235899553194e-02
2.192511288102819492e-02
4.125261852835546139e-02
3.719403129799217500e-02
4.666942360377938914e-02
6.091928208205457662e-02
4.867152322074465992e-02
3.360432092294512313e-02
3.591956758415097706e-02
3.969708188712663816e-02
4.360281004544916406e-02
5.032864770696603846e-02
5.166540175136213886e-02
5.385812443556928231e-02
4.516679249346604308e-02
-5.971925786685096729e-03
-6.495126919537101695e-02
-7.790196990424200219e-02
-7.963681698444027846e-02
-9.846984400452002406e-02
-8.605963729311076615e-02
-3.364856251152921474e-02
6.308009832500665465e-03
1.517630981575594090e-02
2.816760731829932168e-02
7.212371368473606548e-02
1.109147023117195707e-01
9.891150616629157399e-02
5.643993690176998118e-02
2.267346697519869586e-02
1.005310530927887303e-03
-1.792377456376077066e-02
-3.832637259192572809e-02
-5.841243467304151060e-02
-6.229794594057450063e-02
-4.226043075884598765e-02
-4.594946195393388721e-02
-1.120554719716090053e-01
-1.474032888232599536e-01
-4.967200897489271877e-02
8.919119318260980422e-02
1.294957364323135185e-01
1.087972854473540640e-01
1.219862220634327088e-01
1.481327976318115580e-01
1.423179785098327710e-01
1.302658080293495058e-01
1.141759804168600012e-01
4.697481050900018107e-02
-5.416057526074230521e-02
-1.260497104927970624e-01
-1.785611209903911201e-01
-2.575034727715694305e-01
-3.279732281394200366e-01
-3.015306756838058155e-01
-1.685408810402592439e-01
-2.656121228126418626e-02
4.069670405640389566e-02
5.190240969416252959e-02
7.845410167527400169e-02
1.370823920583814914e-01
1.674576121659062389e-01
1.490011750240778088e-01
1.416969755962494415e-01
1.375534935573458906e-01
6.023627221664834552e-02
-3.269359151292283716e-02
-8.630005324825829049e-03
8.837523918869499839e-02
1.115593975366590274e-01
5.182562698194841111e-02
-4.428335186640763865e-03
-3.879650767303059744e-02
-8.543764725538684213e-02
-1.363039724698025257e-01
-1.553686320395853138e-01
-1.528657042710065139e-01
-1.481214478693841652e-01
-1.052296469966057246e-01
-1.802739448689838833e-02
6.250075534768818886e-02
1.311805949465998655e-01
1.821887699049923315e-01
1.646302383531938474e-01
1.080201470569387839e-01
8.526151988940047777e-02
7.254104507219286124e-02
2.863518140621759689e-02
-2.191095132998559583e-02
-5.268343263319991143e-02
-4.985608782237530012e-02
-2.423002973974030735e-02
-4.032223471312099128e-02
-1.212917944771337714e-01
-2.018120611676058607e-01
-2.124894964063002711e-01
-1.184358828365996291e-01
4.057929506490808025e-02
1.374170423563089993e-01
1.208226813923627269e-01
9.953688058370585567e-02
1.491822256708214001e-01
1.873444901396046636e-01
1.304245979703922143e-01
2.741400713941473388e-02
-3.626843019442933802e-02
-6.503027952537054901e-02
-1.116944396087533042e-01
-1.701108632672007626e-01
-1.874390959828937109e-01
-1.425831980537678734e-01
-6.821136492324671174e-02
-2.184826898316134802e-02
-1.542461628369640181e-02
-2.548988996621590411e-02
-6.627205101289175559e-02
-6.911139891388479173e-02
7.866400585606156404e-02
2.072025568474964996e-01
1.172955630236214852e-01
1.410561620341144184e-02
7.487284660025930738e-02
1.205111139999058556e-01
5.183856199978145729e-02
-1.801997772269711001e-02
-3.614901097879748282e-02
-2.576461770405014465e-02
-1.565364628846554335e-02
-2.924135960829645289e-02
-4.039488885522288242e-02
-3.600452613885656017e-02
-6.256292644948234505e-02
-1.150091725842998236e-01
-1.322229789831979585e-01
-1.076311187961255522e-01
-5.740474917236826347e-02
3.726493231902471004e-02
1.697740498533576725e-01
2.976141777127067622e-01
3.833287044569438917e-01
4.009212779379391911e-01
3.705868433884876301e-01
3.229652333024793376e-01
2.162386119440773136e-01
3.549350483759074193e-02
-1.259944750857315277e-01
-2.234381065226835883e-01
-3.118540033860413563e-01
-3.872761093999121940e-01
-4.034772426424494407e-01
-3.983644700620270207e-01
-4.022216774696812935e-01
-3.438511543049356800e-01
-1.882806388613014192e-01
-3.363427761986079179e-02
3.788607287983519756e-02
7.852274738525737152e-02
1.373570826886270635e-01
1.722352806831573546e-01
1.625322748979402820e-01
1.364956854295791278e-01
1.142867390225168200e-01
7.567395096492739170e-02
-3.358990523565007214e-02
-1.480072946952445123e-01
-7.798760589969158663e-02
1.459510423953135072e-01
2.218441262209969178e-01
6.896614253015108387e-02
-8.689469640668415901e-03
1.263653071211232604e-01
2.023845842777721726e-01
7.989478126079704867e-02
-2.876656362349985091e-02
-1.328036337478667034e-02
1.768259370990328538e-02
1.793750224887799907e-02
1.201949342340950452e-02
-6.992503858896648855e-03
-4.282614642456297749e-02
-7.927941810720351423e-02
-8.579217776694759989e-02
-5.074226148925968516e-02
-1.534914151792555678e-02
-1.873556253209267752e-03
1.049630459450081113e-02
2.043392000396541518e-03
-5.768756257721192188e-02
-1.191869905904761467e-01
-1.341816785032858006e-01
-1.402900962117605010e-01
-1.137313190741869040e-01
3.587106884560984504e-02
1.896297271269636875e-01
1.610845937377192172e-01
7.438184384953108741e-02
1.015462028135110800e-01
1.393701573757660794e-01
1.042019201479380264e-01
8.039776556812372466e-02
4.748922402378363827e-02
-7.731825524719576626e-02
-1.799983914366038162e-01
-1.439564088816724097e-01
-7.062261888101924179e-02
-4.836719919470780504e-02
-6.123059774270259159e-02
-1.061619966496018252e-01
-1.216492557058880541e-01
-2.983952741882918772e-02
9.970714858719731399e-02
1.501463958640148755e-01
1.249611336491374541e-01
9.856998199282546169e-02
8.758888167709778794e-02
5.366603810542391190e-02
6.475273662870167750e-03
-9.182753553420188244e-03
-1.744863255831299864e-02
-6.222346232862953352e-02
-1.070465218588746298e-01
-1.148419628643629342e-01
-1.121413070646831711e-01
-1.036594833228637880e-01
-6.558812347412770749e-02
-9.655241144882297302e-03
4.324640244996501293e-02
7.634979059554074243e-02
6.227054950626147861e-02
2.640409268700642451e-02
2.987010360380316573e-02
4.688245559581954991e-02
2.416440241495467975e-02
4.762521694733579287e-03
1.079608970548698484e-02
-1.583003815249722779e-02
-3.658014448658389317e-02
2.979997192868055755e-02
1.243438679969432747e-01
1.704923119523343855e-01
1.375655037693511162e-01
1.108671237001231449e-02
-9.271490583384353612e-02
-9.295970503629663595e-02
-9.577470058253369223e-02
-1.233649451120122365e-01
-9.679624562630720352e-02
-4.965818288241964640e-02
-1.805684337603488676e-02
2.949853991063731279e-02
6.902087077623592082e-02
8.122875367890204645e-02
9.937847554320683452e-02
1.039741862379872095e-01
7.185589406201789431e-02
4.010106176175566584e-02
8.751047631440404817e-03
-5.670349895179367661e-02
-1.155251315252884825e-01
-8.912099690386565687e-02
-5.503091086608305482e-03
3.416810674190841335e-02
1.200428395146844671e-02
-4.212389744206459369e-02
-1.327116604280090539e-01
-2.017620725115535363e-01
-1.393942453551366978e-01
1.050244019017713797e-02
7.992970915005803700e-02
4.896724702175623417e-02
4.454044364230570069e-02
9.747574384146411031e-02
1.246039233101546295e-01
9.500075255947582065e-02
6.209374634712452878e-02
5.081611379308233201e-02
1.412869194677765332e-02
-5.333154218823281389e-02
-1.004980852147166759e-01
-1.411530314206844716e-01
-1.577313120853671702e-01
-6.209968090008011199e-02
5.196528710801276429e-02
3.783709003639560559e-02
6.041779923134482644e-03
6.270848384891616889e-02
9.745104137662521926e-02
6.016460915005829996e-02
4.636459301118264764e-02
7.944865315030889830e-02
7.855695478867852355e-02
1.803822621326211378e-02
-4.544000658287233874e-02
-7.666878996421036541e-02
-7.537022640564770837e-02
-3.762354596417499114e-02
1.487571116256806991e-02
3.299197423516724709e-02
1.091152171371339089e-02
-1.128627083619638920e-02
-2.042502966499297815e-02
-2.811135724133227015e-02
-2.878887166006975640e-02
-2.380747539205046309e-02
-2.592045908261568152e-02
-3.056228493713037536e-02
-3.801032095276270228e-02
-4.825873356878632170e-02
-2.925891888412685340e-02
3.499456913283323367e-02
1.085349665393933322e-01
1.477468799359464569e-01
1.307602483179751696e-01
6.834272496715391998e-02
1.211280045849055277e-02
2.929087401372196253e-03
2.176596156026300646e-02
1.816339333076107468e-02
-3.978550787226180219e-02
-1.248367560425812095e-01
-1.678714316715305965e-01
-1.538188960611975575e-01
-1.286965378592635489e-01
-9.418561947364043063e-02
-7.005870502904888719e-03
1.029294572538873437e-01
1.381423124352582632e-01
1.205624348135839741e-01
1.771368712741600848e-01
2.326117750915569216e-01
1.015042287572608115e-01
-8.185901103340870177e-02
-8.034848820493596666e-02
-6.267866914811841272e-03
-5.246597075583634556e-02
-1.628224969096678520e-01
-2.212477754499109772e-01
-2.106574347137096515e-01
-1.629770749482649106e-01
-1.123407498997483905e-01
-5.702319008480546958e-02
1.799397392452913372e-02
7.785959878437800907e-02
8.957110965576838002e-02
8.905143836185738793e-02
9.366148345937125308e-02
6.142382821925403830e-02
7.946391336319101606e-03
-1.602291516914208097e-02
-3.648397160685559054e-02
-6.681531932211852431e-02
-4.275303196577855125e-02
5.998686320275162936e-02
1.900304908640456369e-01
3.038875869176516642e-01
3.888016053785874893e-01
4.161562549088858587e-01
3.502196150106663408e-01
2.094944867389222920e-01
4.247978469037256427e-02
-1.258285409219722928e-01
-2.611023317689653567e-01
-3.223551604854011932e-01
-3.239340726981412288e-01
-3.049261941376822937e-01
-2.666465888852493360e-01
-2.037791344804789628e-01
-1.359240395001275747e-01
-8.260701323705452181e-02
-4.761619821080727288e-02
-2.134671110833448460e-02
-5.332893292112408923e-03
-1.218729442333894852e-02
-2.328583069300813047e-02
-2.199179381431156516e-02
-2.447158748549969551e-02
-2.400518154374911561e-02
-1.262656809382441472e-02
-1.593209121767770464e-02
-1.944395362105707376e-02
3.362662707300683590e-02
1.493963209625083499e-01
2.515217321078123125e-01
2.521184853872824316e-01
1.742437354747191081e-01
1.309154164586496527e-01
1.430380967240821033e-01
1.213382719878742383e-01
4.359378327431613631e-02
-1.323189786461795997e-02
-2.601665526226821373e-02
-5.660555259394652733e-02
-1.164686099033545585e-01
-1.469215206698654963e-01
-1.315884547514846181e-01
-1.051637090197519442e-01
-8.628926941682896201e-02
-7.369472140200923616e-02
-5.651035620716205604e-02
-1.977932010018848899e-02
2.107289238689753069e-02
3.607693316162907671e-02
3.236215188889103589e-02
2.805582942299622226e-02
2.390080943182167766e-02
2.233490457002272611e-02
1.858614688745529805e-02
1.205983990281410748e-02
1.620104196597169435e-02
2.400834003485936147e-02
3.022123375522043839e-02
4.522053946381793949e-02
4.905726324285560741e-02
1.996710265661235176e-02
-2.109046902142056729e-02
-5.363713396105408010e-02
-8.038790775605537953e-02
-9.868674431062135488e-02
-9.508910865598940720e-02
-5.914544521990361403e-02
-4.063144776036810638e-03
3.674450606597710195e-02
4.911698451926960196e-02
4.850646922342011225e-02
5.997731223898100650e-02
8.583850074319562817e-02
9.111928541077607413e-02
5.967065332997240068e-02
1.730629409084146961e-02
-1.885533525547106182e-02
-4.625166084170430347e-02
-5.859010568760668336e-02
-5.245148623877107091e-02
-3.488320945789016164e-02
-2.658085151598572199e-02
-4.028176423024425884e-02
-5.915931483749350267e-02
-3.714823340225448245e-02
5.122555197638495317e-02
1.229257682808229668e-01
1.075701091753729771e-01
1.071002157718826675e-01
1.361681497616873404e-01
4.054882503616128592e-02
-9.525859824754140392e-02
-7.687116799361377872e-02
-1.280413874560366524e-02
-3.184311340679561730e-02
-6.675604764894045584e-02
-1.005915797357517100e-01
-1.390006882752949091e-01
-1.200412323230661965e-01
-5.906480988537028687e-02
-2.381345654304389825e-02
-8.237255165929040224e-03
2.864510670721924848e-02
8.321522806342457335e-02
1.062907569142757802e-01
7.314633911482018580e-02
3.229064042413563179e-02
3.725851631878726589e-02
6.136938404901107896e-02
5.636047511853675002e-02
3.986751947297486470e-02
2.412307641976315156e-02
-2.088976768978751536e-02
-5.999467584751076721e-02
-3.584002456033186929e-02
-2.542412626013556068e-03
-2.688011697426658658e-02
-6.417358415839306829e-02
-6.607134096178478300e-02
-6.318449800087856671e-02
-9.060011666055635404e-02
-1.303090232922323455e-01
-9.324224324409011166e-02
5.998458999954542348e-02
1.590462784326115153e-01
8.657551871130324261e-02
1.201094179911836937e-02
4.471987820144413678e-02
9.054322504152154116e-02
1.021047784508277295e-01
7.344697849258943756e-02
3.865047628586861655e-02
9.329170707171455246e-02
1.422442716632706938e-01
3.072517575554540442e-02
-9.969695859831669005e-02
-1.018734238725800545e-01
-7.734651496972946849e-02
-7.951095990382034406e-02
-6.853209133998774960e-02
-8.592506741510361201e-02
-1.307707908702644140e-01
-9.358049215474746607e-02
3.761832599267075222e-02
1.239523392260103440e-01
1.046604791568652437e-01
8.251167078936468002e-02
1.028980048265957375e-01
7.891393320158059110e-02
3.977461006285289841e-04
-3.238472767016084553e-02
-8.814442062254975938e-03
-2.417828040285165125e-02
-9.252152517883338589e-02
-1.344760233193953158e-01
-1.336496798689510712e-01
-1.220966924131035303e-01
-8.357558411957557998e-02
-1.427023256139572753e-02
3.055543902558432307e-02
3.215018855181395185e-02
4.798274547292818992e-02
1.016260860816103340e-01
1.291848754161290525e-01
8.281316307327667159e-02
-1.482421374853614554e-04
-5.514638628747692978e-02
-5.497802466109918268e-02
-1.062017295343194168e-02
2.821843635276464687e-02
5.196669533805898036e-03
-2.005173387162150281e-02
4.688496529161832738e-02
1.049751113724827767e-01
4.734993961047780087e-02
-1.066764660312660359e-02
-2.357064562159331966e-03
-1.213131196282006205e-02
-4.748777928766662049e-02
-6.748548310766996905e-02
-8.480427644386405450e-02
-9.624040451072440883e-02
-7.292772697797390846e-02
-8.545639140368155307e-03
7.834171707176960930e-02
1.472049512791978876e-01
1.619586680638862020e-01
1.400097700950737045e-01
1.115461717381977663e-01
5.312394173953725179e-02
-3.332766938209799634e-02
-8.314949215409533911e-02
-9.608321199871797114e-02
-1.224249282160816965e-01
-1.391985571548320089e-01
-1.048982587597475369e-01
-5.495670090290314530e-02
-5.975737370646060781e-02
-1.116102869663290476e-01
-9.199380252668236391e-02
4.964333906385677564e-02
1.663821443013123735e-01
1.445455091799077718e-01
9.371986658648752411e-02
1.217505364736557044e-01
1.586918724970417527e-01
1.335295009575309944e-01
8.438187537549318717e-02
4.365922300355831731e-02
-8.977657559832832868e-03
-9.104867044138180432e-02
-1.778131658973869378e-01
-2.060985455611934747e-01
-1.725762996514194902e-01
-1.447178301154406488e-01
-1.078294003609205909e-01
-2.860616686410860296e-02
1.977083573691703830e-02
5.225150509468302201e-02
1.571808515284520424e-01
1.915587406765135725e-01
2.474073204666305675e-02
-9.434016302477052363e-02
4.765766091870744792e-03
8.403603350141267136e-02
2.789389541892837304e-02
2.780487811746439053e-03
2.137254002237317513e-02
-1.081104286222205231e-02
-2.978774140599247527e-02
1.407334767466366515e-02
2.961646720876467617e-02
-2.103794065695023877e-02
-7.822840813593587295e-02
-1.222916261607340099e-01
-1.532599345365482923e-01
-1.217133537599139476e-01
-2.102011227137303220e-02
5.024311633258403409e-02
3.623140642008003398e-02
4.293580023569404380e-02
1.564712028728125481e-01
2.331167619229989607e-01
1.265161785114568560e-01
-1.594624141360932029e-02
-2.923616709565253838e-02
-7.398206088529472868e-03
-4.158335500245418509e-02
-8.452509770551326629e-02
-9.690797197902460691e-02
-6.946025523813051383e-02
-1.575046560839239718e-02
5.257594122658812430e-02
1.456344909797309684e-01
2.123640024694798401e-01
2.025851215920967952e-01
1.646418415925116618e-01
1.236996357822869042e-01
5.561303903246503366e-02
-1.390705842929916558e-02
-7.226801060006500521e-02
-1.406813239691140638e-01
-1.829437883041765689e-01
-1.705130616457617154e-01
-1.541726389667679165e-01
-1.657347823824105171e-01
-1.747017561671882491e-01
-1.587458082852554186e-01
-1.277977027020440748e-01
-1.014307975474786488e-01
-9.110252595380650964e-02
-7.328540694288224189e-02
-7.966961680526997436e-03
8.002898562108803904e-02
1.161792082681012694e-01
1.043033875623254059e-01
1.258984570865059605e-01
1.919463409524097275e-01
2.211235592790451177e-01
1.750342131533427492e-01
1.202814361028761020e-01
1.197147197964014559e-01
9.214155249025370031e-02
-4.578690922133855923e-02
-1.457754786476094244e-01
-8.676431126944053607e-02
-2.434867072982617453e-02
-4.691980446011566330e-02
-3.910067803715417539e-02
7.279420614183854804e-03
-1.937650063338767353e-03
-4.657220575820946590e-02
-6.380470619397901610e-02
-7.635798626983472670e-02
-9.956279247880393812e-02
-8.641137123594724856e-02
-3.966426350660550576e-02
-9.197802813608640243e-03
1.091930245076023868e-02
4.180813527135265190e-02
6.656325243052028939e-02
7.940646758757138879e-02
8.800494990898505288e-02
8.887589497986181364e-02
7.786178944296508198e-02
4.659809933514840602e-02
1.849769854756124626e-03
-2.454426212558555309e-02
-3.109883291277603518e-02
-4.096190534313040588e-02
-3.641668961375170432e-02
-2.844105919673607652e-02
-9.793969788807209420e-02
-1.475009610410579208e-01
3.572123355234215619e-02
2.338212863234243599e-01
8.541994234781569162e-02
-1.353220138810960482e-01
-4.728961177020123835e-02
1.185905667449711903e-01
1.014396327957181182e-01
1.703086075121804793e-02
-2.596890348126742326e-02
-3.652844151909621223e-02
-4.089326788665414991e-02
-8.151251317040425493e-02
-1.353951172885560217e-01
-1.365845684743123845e-01
-9.377427229519591512e-02
-4.452026384845322871e-02
-5.130688054623857089e-03
7.305503693158958700e-03
1.996033344558122841e-02
5.492883785664466612e-02
5.336155670435935305e-02
4.284849499435722242e-02
1.196359940123590399e-01
1.806783700324519626e-01
1.140216350506725734e-01
4.442004914962040252e-02
4.008840673728704396e-02
1.292566239070344798e-02
-2.666759512468472315e-02
-1.259121332124578385e-02
1.270689367834762495e-02
-1.160639908121849882e-02
-6.745429845998547613e-02
-1.209761508949485642e-01
-1.490025580408641248e-01
-1.226805542147884343e-01
-6.467176416112363491e-02
-3.133730693560483893e-02
-1.788562194630868157e-02
7.087438162659099455e-03
3.755817275112888209e-02
6.701685775462251637e-02
9.492892287170157095e-02
1.034780060820032904e-01
9.352968395905782162e-02
7.936349826851654687e-02
4.941081015846784941e-02
1.225010656343446941e-02
9.128488218205325910e-04
-7.802610387140489559e-03
-4.777573794550871167e-02
-7.783859590378312820e-02
-6.255456141954512939e-02
-3.725741590321846042e-02
-4.037783689013173943e-02
-7.604978343688707787e-02
-1.069898226093354415e-01
-6.950119301752884227e-02
2.782975674051842152e-02
1.040203361367323942e-01
1.295990528221332982e-01
1.320602924588106519e-01
1.309745749862938902e-01
1.392351788561473347e-01
1.443873465013642277e-01
9.090759284207432234e-02
-2.477174598527268068e-02
-1.128670527930789036e-01
-1.448711359349823535e-01
-2.015820453277752111e-01
-2.926548550225469558e-01
-3.228331396069539783e-01
-2.560424322892023152e-01
-1.460366163440803278e-01
-3.710954221905420070e-02
6.653029847860425505e-02
1.635529933157442162e-01
2.159377180537929708e-01
1.900602234617201347e-01
1.387335713309423846e-01
1.330844148911969338e-01
1.643125447458092803e-01
1.840292231073586693e-01
1.408184693858702263e-01
3.278544737230580652e-02
-3.716335934348106995e-02
-1.226810297071790484e-02
9.206667050565414678e-03
-4.888621313987698974e-02
-1.339270974597024932e-01
-1.726459589112504245e-01
-1.495842315953807011e-01
-1.052847083362627723e-01
-8.536587896834681166e-02
-8.273750631070994621e-02
-5.917977416298694782e-02
-1.351664648537469204e-03
5.752065636987801350e-02
8.088698524745413510e-02
9.617599147391489578e-02
1.404914861886786270e-01
1.710543959098902445e-01
1.399869613799167301e-01
7.570516394853071818e-02
1.545303562660361833e-02
-4.033212793753213066e-02
-8.968414669035115749e-02
-1.136867716215714808e-01
-9.630569286238221949e-02
-5.976641504235596924e-02
-5.172158490192981656e-02
-7.259728548261039360e-02
-9.534007008526695914e-02
-1.209748959283143271e-01
-1.132666066127920312e-01
-4.581174035317625050e-03
1.523007199823339375e-01
2.112332766903735060e-01
1.555280955851003899e-01
1.148892364053825527e-01
1.410132367869768033e-01
1.503307077292215244e-01
9.599922917494735364e-02
1.245734129101825315e-02
-7.957989778387847268e-02
-1.641918744102411343e-01
-2.066601663882098316e-01
-1.999319973812656304e-01
-1.579887785787460752e-01
-9.655231663933955266e-02
-4.306554815382627327e-02
-1.255534304725787476e-02
-4.964046287102008570e-03
-1.767822862403600759e-02
-1.537344984474938586e-02
2.940674757735801254e-02
6.373344270531014488e-02
4.474080026593941356e-02
1.934019867967369521e-02
9.246499788160394626e-03
-1.492133599129318207e-02
-2.288357965433748809e-02
1.077888233086782971e-02
2.411589782014015790e-02
-1.863022142081361202e-03
-2.073157045935941287e-02
-3.530474779008099112e-02
-1.987641380627017812e-03
1.571178695279320525e-01
2.946625671659011680e-01
2.360076406093736257e-01
1.315590520173006706e-01
1.478164309050312708e-01
1.881607734194536696e-01
1.596208381589442060e-01
9.459656972571797717e-02
1.730069781668779755e-02
-6.044873630144446952e-02
-1.162670944716395205e-01
-1.588857010583684115e-01
-1.933542504160270792e-01
-1.929484504838532843e-01
-1.718451385086358363e-01
-1.670134508683126240e-01
-1.592962986386249336e-01
-1.434328585995084948e-01
-1.582746371143118336e-01
-1.801529392586536660e-01
-1.709992475834780645e-01
-1.727038152770828672e-01
-1.764367340179150978e-01
-8.330769902968235274e-02
9.204163406136969816e-02
2.047089451143453975e-01
2.019218915259874403e-01
1.791206683202807848e-01
2.142569883603743786e-01
2.656729238416171146e-01
2.516547776321762520e-01
1.722764831954791687e-01
9.872312683538488065e-02
5.350639574129241460e-02
-2.998991047855482928e-03
-7.239339193463492639e-02
-1.229470521658437843e-01
-1.472294833963810889e-01
-1.370951480890041374e-01
-9.196750438297052188e-02
-4.523601011814692985e-02
-8.610857614716383238e-03
1.712302138081067682e-02
3.494024470482291235e-03
2.691141129188903691e-03
8.748316814946502373e-02
1.560336958858191403e-01
1.256288486007209881e-01
5.416906812395268916e-02
-6.233121565350869392e-02
-1.627618429833578018e-01
-1.082614139377978679e-01
-1.784122731715565707e-03
7.811985176404377673e-04
-3.387239374417747723e-02
-3.118743511776833968e-02
-2.919471696130696362e-02
-5.249335016244768143e-02
-6.705078841964139114e-02
-6.565706555027349400e-02
-9.412923941494380498e-02
-9.296150176101944385e-02
3.536526351386343886e-02
1.478889093783154474e-01
1.000592604738289038e-01
4.547331592034066505e-02
8.963100645111540810e-02
1.222423412684414679e-01
1.069385219502279605e-01
8.756534628823900435e-02
5.468713108612651558e-02
9.622398591770397330e-03
-2.713431209098836686e-02
-5.780801738256474698e-02
-7.135914147758165571e-02
-6.665870263151960073e-02
-8.118950514132433627e-02
-1.160031043498299524e-01
-1.333603053100177738e-01
-1.247603245105813330e-01
-7.607327442144007357e-02
3.206864513827308028e-02
1.304859984437248821e-01
1.345655620987065704e-01
9.307048387967170600e-02
9.261183090085212122e-02
1.087873613273594164e-01
8.217443901044416132e-02
2.632387279608276037e-02
-1.530342125091901581e-02
-3.855627179152017192e-02
-6.217555449408292134e-02
-8.843855996460434077e-02
-1.090906322109943538e-01
-1.194114366266690319e-01
-1.078960648529531247e-01
-6.444127599408153162e-02
-1.515978613514820661e-02
6.030649727391135945e-03
2.405985259836796938e-02
7.081442952106382915e-02
1.053285944402578833e-01
9.476875185007312130e-02
8.919039215349919281e-02
1.165339253381384027e-01
1.257433262215897907e-01
9.051509406880821340e-02
2.990816065146131505e-02
-2.230040215913693669e-02
-2.054165474390572121e-03
3.608311394236146663e-02
-6.805795966045563583e-02
-2.185312154256180694e-01
-1.961158261762696031e-01
-1.022604885896208071e-01
-1.075740846416488317e-01
-1.227314439457123929e-01
-6.360865245877835028e-02
-3.822941617802999570e-03
4.831725661108402653e-03
3.501763203712825873e-03
4.731211746612086488e-02
1.078300963326958573e-01
1.054738471421132751e-01
6.210184699671073005e-02
6.467088567686149481e-02
9.804933209414581907e-02
8.666697330908540442e-02
3.000295696164861914e-02
-2.184398092331216873e-02
-4.931224126854800993e-02
-5.192388500805086154e-02
-2.844430667279538444e-02
-4.652911643478354828e-03
-2.340449741158902655e-02
-8.826912375850307080e-02
-1.305030625016900259e-01
-7.640158354834428178e-02
3.567055064465866898e-02
9.887122741841597451e-02
9.601748470074081276e-02
1.052430258400348234e-01
1.535088261351050809e-01
1.629080214856079289e-01
9.373952673141226766e-02
3.395860437362845097e-02
4.905730090193812648e-02
6.449726946466828592e-02
-6.690473455581585210e-03
-1.234697831800348478e-01
-1.960210336749502735e-01
-2.220031078126276924e-01
-2.294392905772478231e-01
-1.772660127927495610e-01
-4.950745547979669425e-02
5.607192551547864057e-02
4.936290831622333619e-02
-8.341789069895515218e-03
1.004747948555343579e-02
5.252160913762221606e-02
-1.388093986600383301e-02
-5.842416681214051416e-02
7.243626526846605462e-02
1.933474042750636668e-01
1.437401006338451526e-01
4.968981547790001646e-02
2.169496230907159290e-02
3.272761966521590266e-02
4.021920944826701955e-02
1.125426459806201304e-02
-4.995247899735572039e-02
-9.223673498712223195e-02
-1.063370842848213316e-01
-1.091396545299072179e-01
-7.447282907050800649e-02
-4.489978967191539036e-03
4.905680808710614904e-02
5.573041574207132642e-02
1.917287027975681651e-02
1.218499030311855080e-02
1.045799097935338068e-01
1.582558005084351294e-01
2.504481182859430444e-02
-1.069186198214408107e-01
-5.770698523248764256e-02
-1.156865913012409749e-02
-9.401936104076963341e-02
-1.413033492583261608e-01
-8.639173503260587361e-02
-4.870691973657963886e-02
-5.928464131596614117e-02
-5.868534595085195260e-02
-5.368609143352101598e-02
-5.975221622924543896e-02
-3.362022549143467431e-02
3.409486150983281894e-02
1.023440281202883662e-01
1.601573385033954744e-01
2.259631863508082261e-01
3.212259161725832812e-01
4.398075313194455549e-01
4.562071570892277106e-01
2.597567975532896201e-01
3.759830499334277515e-02
-1.805128618690116094e-03
-2.850364253878838461e-02
-2.025315044381103546e-01
-3.637850470014301063e-01
-4.176911114868729902e-01
-4.314380357914261999e-01
-3.903638009045340973e-01
-2.811855148294393203e-01
-1.725795008825206367e-01
-8.007278198233767907e-02
-9.717130300885418182e-05
1.744060814561533557e-02
3.081611751904342333e-02
1.327782501614223065e-01
1.672207034253949121e-01
5.892455977359624397e-02
6.085925758290872817e-02
1.651639525155255694e-01
1.098621043193585001e-01
-1.099575613160024695e-03
2.999573144903339150e-02
9.674531183205671570e-02
1.035829225391760172e-01
1.034604386100775181e-01
1.013894661330567298e-01
5.367765320732702239e-02
-2.278429199904895633e-02
-6.618855142143539871e-02
-5.697422777520083637e-02
-4.232438783293373391e-02
-5.440075308130292581e-02
-4.747137642208627828e-02
3.924892912248231086e-03
3.679924601649382093e-02
2.838409665820504357e-02
4.066724214976637913e-02
7.740272543456064303e-02
6.475615370793957881e-02
-1.732987248453078492e-03
-4.444530872698566892e-02
-4.409065229850436807e-02
-5.022103277194995413e-02
-7.149067975697530331e-02
-8.190620663789148492e-02
-9.319421479641089301e-02
-1.135468649055935697e-01
-9.550070764605551876e-02
-2.059433295937973529e-02
5.294490021659586237e-02
8.674233243282451766e-02
1.010071291407474425e-01
1.116416786232799496e-01
1.096286538762547003e-01
8.447978729127111897e-02
3.871273981666125547e-02
-6.103058521275585811e-03
-3.099980237475633352e-02
-4.698678052492046009e-02
-7.065533634663619111e-02
-9.427415751810505617e-02
-1.004656154255518796e-01
-8.493552656155396730e-02
-5.732910851775001315e-02
-2.121143876932827729e-02
2.251569843639081303e-02
4.581784096126127054e-02
2.887861081514139436e-02
1.561844606294965701e-02
4.477752290208615593e-02
6.853082784433581209e-02
3.864825643294370061e-02
6.554681996841794575e-03
3.418155118034582607e-02
7.082125743002842810e-02
4.236503592673837582e-02
-5.496085523966356794e-03
-3.171499087364915148e-06
2.435306141883056968e-02
1.611055843462075657e-02
-1.151366365069137268e-03
-1.070534407541953552e-02
-4.197914621801344948e-02
-8.991522946409405415e-02
-1.130370851440404001e-01
-1.035791948714388094e-01
-7.521176221781460114e-02
-3.314291536311688574e-02
1.132235968579230374e-02
4.818881279063758072e-02
8.020260244803793792e-02
1.066855830597652766e-01
1.166131887736149286e-01
9.996134420863958536e-02
5.416639009438266317e-02
-6.198857724590634347e-03
-4.839356417180756126e-02
-5.623033800141759991e-02
-4.348820966645902675e-02
-3.158794154711236368e-02
-3.405747956396592419e-02
-4.199260510939471086e-02
-4.687659222979313756e-02
-6.245109366910918391e-02
-7.231927266001808574e-02
-2.926811962268881240e-02
5.430007174270486819e-02
9.960567436017914167e-02
7.886522440523302535e-02
6.508478371515802330e-02
9.748630807704738999e-02
1.014712725560764500e-01
3.536692110529723876e-02
-3.058356943989418847e-02
-4.871922959582040275e-02
-5.604397183937554622e-02
-8.275540804549165463e-02
-1.154075740697242947e-01
-1.331274451608574494e-01
-1.159296251311068143e-01
-6.549214176583380287e-02
-1.677563348184318501e-02
1.851491209475381386e-02
5.602434512534275324e-02
8.982778457455282972e-02
1.066538013780703453e-01
1.012269251851011381e-01
7.982637191043695513e-02
6.861880907259104712e-02
6.460264387409556108e-02
3.907573033340579205e-02
4.148994682214334970e-03
-2.441576503115389790e-02
-5.102688794690825314e-02
-4.727438906493095644e-02
-1.077822827830722183e-02
-4.102421957492159536e-03
-3.176006680811737509e-02
-3.442201557486362223e-02
-2.060072305177777438e-02
-3.130583000596740689e-02
-4.032931395376523204e-02
-1.839172094953145722e-02
6.759819832718460403e-03
6.193692835090885973e-03
-1.629018653886793802e-02
-3.022206170995362512e-02
-4.302827470885388361e-03
3.438847510326296236e-02
2.129341923766242886e-02
-4.294915629109828659e-02
-8.204175632678414876e-02
-4.588819296621492183e-02
2.181913136008201137e-02
5.235266349072123515e-02
5.221906302241807046e-02
5.224349727497844265e-02
3.744095784410791938e-02
2.226349595462561934e-02
3.445639709473861251e-02
8.736567309006933527e-03
-8.894416181935763110e-02
-1.460135907173001069e-01
-8.436227276918487061e-02
2.608180260813971335e-02
9.920953225762553507e-02
1.235516591987085577e-01
1.265960232485754400e-01
1.329508401158546738e-01
1.326612182926645012e-01
8.386371590942284793e-02
5.385213396445417966e-05
-4.848809380086521736e-02
-7.393028098650152036e-02
-1.292796999405824154e-01
-1.641156658275535474e-01
-1.420221529095693769e-01
-1.266857121991796509e-01
-1.267064020894711762e-01
-1.002132096487294149e-01
-5.664691172134930786e-02
1.202859420887308906e-02
1.122777938938188114e-01
1.683301814124031626e-01
1.366310837820680635e-01
7.192480609136206460e-02
3.118539381644685332e-02
3.545495617025820612e-02
6.154997968196848634e-02
4.170386394728547302e-02
-3.164103550782971369e-02
-6.154287557124370200e-02
-2.966984231093650060e-04
6.258341845905524004e-02
5.769699914613035663e-02
2.611973576113960777e-02
-8.345568694060412698e-03
-6.475547351374931482e-02
-1.117991501992876002e-01
-1.133740661417523277e-01
-9.498803782119022432e-02
-7.728506978928821602e-02
-3.631584622580399935e-02
3.225098485280634281e-02
8.842349909575787648e-02
1.065772920467686485e-01
1.031339318951291079e-01
9.978154768646489703e-02
8.466727361613543557e-02
3.412673836990159221e-02
-2.396651281059750116e-02
-5.137880981989555174e-02
-7.716283727777184520e-02
-1.121514555659110512e-01
-1.103104287630943536e-01
-7.836721892464973416e-02
-5.340547745276898184e-02
-4.426787645449774961e-02
-6.737938381606087268e-02
-1.022413143918627781e-01
-8.481209819953475226e-02
-1.005945914192993285e-02
6.552114376019947672e-02
9.510309010664409757e-02
8.683626761695488472e-02
9.622533708286677701e-02
1.308750325819788007e-01
1.274774376268729692e-01
6.907833794389173221e-02
1.305606896648558828e-02
-4.673100914297255437e-03
4.013505406871450271e-03
2.883670799822755926e-02
6.986410031350129279e-02
1.163802050803270510e-01
1.510831329331863149e-01
1.576274699461086282e-01
1.308204589919658434e-01
8.474624682725918901e-02
2.225370210805210566e-02
-6.344275818952137269e-02
-1.473328171331246272e-01
-1.999249645527564623e-01
-2.203712448631440779e-01
-2.149099991151139089e-01
-1.970805498861863680e-01
-1.762622929872599276e-01
-1.373256177519865673e-01
-8.452012998362203045e-02
-4.486748128119623369e-02
-1.138275461538407196e-02
3.007258796707296816e-02
6.179205520756213266e-02
7.445359594852160590e-02
6.722276986954278666e-02
2.693066466693330718e-02
-2.212674388107098433e-02
-2.408894924694085157e-02
8.582341166050021231e-03
4.582169426663920860e-03
-2.572310306507777367e-02
5.857304551138391678e-03
9.738878016417469585e-02
1.575247254159563848e-01
1.623843510141610158e-01
1.556504567408529549e-01
1.421686012777768626e-01
9.682402387958440049e-02
3.534340965191098971e-02
-1.140422375398682936e-03
-1.628908755031045763e-02
-4.669403039269994643e-02
-8.208205695555727266e-02
-7.829549997523785332e-02
-5.828492832651485656e-02
-9.250750159036580378e-02
-1.538801071846058743e-01
-1.373863562171023789e-01
-3.923528389420283952e-02
4.676998892427859655e-02
7.746034874398662062e-02
7.759573663229242524e-02
7.105840706235515281e-02
5.846056026882913426e-02
3.513543749266036936e-02
1.561415286134946317e-02
1.560951095802598498e-02
6.378530984651098815e-03
-4.138209300805704982e-02
-8.181623451244260381e-02
-7.364909941161688900e-02
-6.067229368617707563e-02
-6.368551597869220871e-02
-3.991344961340811959e-02
4.932871190735195997e-03
2.871670949430146780e-02
3.563103668293438747e-02
3.929261433705301398e-02
3.253079277489800969e-02
1.985625044169872164e-02
1.204161099872140539e-02
1.860716907451845717e-02
3.954160686498776889e-02
3.747480264993238025e-02
-7.422316268634340884e-04
-1.389379888195584403e-02
1.687183545870458296e-02
2.610058892119496501e-02
4.464718122106386099e-03
1.572954075487077198e-03
3.241464148725195678e-03
-2.980729242892041914e-02
-8.146805090617045830e-02
-1.080722024592751102e-01
-8.318620205521215505e-02
-3.464625741890174637e-02
-9.231931245482008497e-03
8.365386541016570782e-03
4.430599177044691750e-02
6.609638911178072895e-02
5.563702168450863905e-02
5.315711165934555726e-02
8.021768584268926250e-02
9.940478914395206589e-02
7.497402454873759725e-02
3.428412637128269019e-02
2.291718605988878055e-02
8.399264832217962981e-03
-6.536046655556904117e-02
-1.363966818124759395e-01
-1.047775579200245777e-01
-2.506122698736049786e-02
-2.190589749429219107e-02
-7.873170895781643475e-02
-9.933416773673334199e-02
-7.052780103425587699e-02
-1.575804281627077655e-02
6.917851262402145707e-02
1.377330588865736116e-01
1.174572854351675077e-01
5.892172476234183720e-02
6.151409473885413592e-02
8.317607677102363539e-02
4.314108874727164145e-02
-7.862404364648290650e-03
-2.884399398489011918e-03
1.450979139816947414e-02
-1.703480263141326015e-02
-8.237198621191682557e-02
-1.216875153682620420e-01
-9.814774172702225852e-02
-4.053240727689905176e-02
-1.491419559585783518e-02
-4.199105640750883106e-02
-7.359469931486455063e-02
-6.719347521328242201e-02
-4.887231355501490959e-02
-4.327573860004838013e-02
-9.546489824212179426e-03
6.544468236295826469e-02
1.340146172906111766e-01
1.655998157728623688e-01
1.377445523179883780e-01
5.166361572339069064e-02
-9.230074613283040241e-03
1.066124281097889648e-02
4.604924301436676137e-02
3.459792430210946457e-02
-2.802945914484288037e-03
-3.250334866716960563e-02
-5.175283368475867840e-02
-7.760052445027715295e-02
-1.055834553231280171e-01
-9.053326655653018418e-02
-3.542833325039278225e-02
-1.673422704329610364e-02
-3.843386177424026190e-02
-2.139410872933626348e-02
3.232131121571746313e-02
6.405081546461488529e-02
8.419717684864466700e-02
1.153266629893932721e-01
1.239190283434741940e-01
8.089507127733015779e-02
1.121420755235909977e-02
-3.951374161473387991e-02
-5.865016379065107754e-02
-6.343390044008684336e-02
-6.281816175264486046e-02
-5.184129887746236065e-02
-3.964057082865206361e-02
-5.527539217909432229e-02
-1.053444644671598651e-01
-1.482571343903378580e-01
-1.210000759936001036e-01
-3.379204593937273730e-03
1.283865046531161291e-01
1.781382915643015263e-01
1.642148509600681594e-01
1.735530816455289616e-01
1.939885130288709070e-01
1.345972419195606562e-01
2.193904146198395744e-02
-2.174446148022025557e-02
-1.731510093836555186e-03
-2.678338436082913429e-02
-1.186521160215221471e-01
-2.137226956672784173e-01
-2.446336366523211014e-01
-1.791814048055143660e-01
-7.535873372096646428e-02
-2.078644105640440470e-02
-2.386478673528171640e-03
2.962114098870107307e-02
5.283476885186031563e-02
4.326506420771840389e-02
2.792858602391520492e-02
2.839592288228227554e-02
4.889508134862617650e-02
8.951245311032215990e-02
1.255794461853795840e-01
1.224939728578527259e-01
7.908461489060482352e-02
2.947010436189008431e-02
7.014553944854904147e-03
2.159962394522121215e-03
-2.549149156413488965e-02
-8.080164220214852699e-02
-1.322263539797259579e-01
-1.662033555249845251e-01
-1.849079138111250631e-01
-1.776574019517697112e-01
-1.407519115865569770e-01
-9.761709047358962943e-02
-5.353285485595765669e-02
1.448745884580476123e-02
8.123311233000378440e-02
9.758174611251707598e-02
9.950896034938641610e-02
1.275243215414779696e-01
1.228638504179092317e-01
1.110048504385403867e-01
2.208362691445909798e-01
3.620098003030268741e-01
3.346676415322504261e-01
2.109019622318544229e-01
1.546292122165690286e-01
1.273429259394829316e-01
4.230901827456343134e-02
-7.170047009802943405e-02
-1.695458535260118693e-01
-2.687193543334410739e-01
-3.549571749784318775e-01
-3.490219718551911265e-01
-2.548997834271758411e-01
-1.837448387483856249e-01
-1.603325501834710898e-01
-1.078212967231185065e-01
-3.279378347712017666e-02
3.787232716193633664e-03
7.248098393032850750e-03
-1.058117130173477638e-02
-4.076891886992488334e-02
-3.505787374189962835e-02
9.228547799973549348e-03
4.295719935181995658e-02
6.154067670065179602e-02
8.658371390643578025e-02
1.103791404652941510e-01
1.202986528711822989e-01
1.243565771769347128e-01
1.308107361987290440e-01
1.319443989807519979e-01
1.135578809402217476e-01
7.003009916645987210e-02
1.953066184829788110e-02
-6.295399867128768229e-03
1.695815779964744696e-02
7.022756995385959211e-02
4.013969042145312804e-02
-1.168985136375255418e-01
-1.959736127432650521e-01
-7.587177063970954038e-02
3.046193996142144630e-02
-3.401800822741130395e-03
-2.786272292873102907e-02
5.578638845604361185e-03
-1.601422959947833985e-02
-9.301733739682505053e-02
-1.224828632882470070e-01
-7.836821371875077324e-02
-3.120996912859912847e-02
-3.775018676633159348e-02
-5.315759924160366745e-02
-9.093464223689423642e-03
5.863693350839111612e-02
8.175636153275663009e-02
7.625091597986959069e-02
8.782412021014025794e-02
1.039053987852969207e-01
8.558435222861922320e-02
4.440781148820637653e-02
1.401150971260660752e-02
-1.107637558111107014e-02
-3.120639409492264801e-02
-2.090484404312334399e-02
4.870728537213396547e-03
-7.863417878241933320e-04
-4.765428875504439804e-02
-1.022941396665741215e-01
-1.156412762085702456e-01
-6.206856019764715737e-02
1.826404698435396892e-02
6.895907128307048051e-02
9.598688495045371027e-02
1.152754106130803591e-01
9.705606937008207091e-02
3.964645397303984825e-02
-7.136616677410572221e-03
-2.574716308167059736e-02
-4.240041421574163721e-02
-6.289620453651446896e-02
-7.619072291229492255e-02
-8.569183803070137828e-02
-7.937824092002282450e-02
-4.389906465578242989e-02
-1.139615371976876804e-02
-5.726251242436444094e-03
1.782597930136995551e-02
9.866797859147409533e-02
1.303070033992314580e-01
-5.382714070548175189e-03
-1.357761092215779009e-01
-5.910938002904248673e-02
6.830646601246784244e-02
7.349592650023073492e-02
4.162440713580353724e-02
4.066902055507099628e-02
3.198776438875223366e-02
3.243969607851243490e-03
-2.920418077130863821e-02
-4.179818737448587340e-02
-2.108468833254152977e-02
-9.692741952107902445e-03
-4.316471370773960342e-02
-6.316823087751155530e-02
-3.299982136557563783e-02
-2.132160750292066628e-02
-4.223590968404095092e-02
-2.846727151106542841e-02
1.194719495501688454e-02
3.405354332161211056e-02
4.644471365806163848e-02
5.806086912743543132e-02
7.587911190782850590e-02
1.134836915790781858e-01
1.291318318662681985e-01
7.877378848033912695e-02
3.129106984885028121e-03
-4.663555675756082125e-02
-6.966883268553343556e-02
-6.619293131796334662e-02
-4.541373612438075191e-02
-4.400830049240347930e-02
-5.932196722587122079e-02
-5.790233216059145760e-02
-5.782797895854013132e-02
-8.598288107115663326e-02
-9.540861961196890617e-02
-2.771765486510127663e-02
7.816759488389715682e-02
1.223801987044048634e-01
8.934209888904076635e-02
7.497598707292835174e-02
1.292675630722814606e-01
1.595829390287472893e-01
8.432741799852613851e-02
-7.655816685310025058e-03
-1.519015508717799084e-03
3.523107392429184609e-02
-2.572245953577094110e-02
-1.506411959473684115e-01
-2.244776644414703815e-01
-2.205992816502228282e-01
-1.647187760164886550e-01
-8.252040452101548629e-02
-2.327826356461574694e-02
-1.453455317859589369e-02
-1.354642753765979840e-02
3.070013630707945848e-02
1.034991776188347451e-01
1.482258362614932157e-01
1.393970135191083259e-01
1.072997841011935349e-01
8.733868845078239518e-02
6.611530521115878412e-02
1.774600251288220229e-02
-2.219263230686753172e-02
-1.755081577309039464e-03
2.494824857241415006e-02
-3.594473983646852278e-02
-1.256811460388285451e-01
-1.181258539779797001e-01
-4.861268825282577533e-02
-2.304955463406890143e-02
-2.374214683063528841e-02
-7.888051000805860243e-05
2.047688945261143256e-02
2.429349819767965407e-02
3.991247856411583861e-02
5.316942763162543079e-02
4.369518938096878663e-02
4.830795065587161624e-02
7.272516563367971421e-02
6.307930365575388498e-02
1.978033506433139743e-02
-1.018335304443303453e-02
-2.842338319168328381e-02
-4.680280619004511394e-02
-3.236692877944165325e-02
6.515988895352521626e-03
-4.905309551342585360e-03
-5.927489364405183481e-02
-8.116371994457530215e-02
-9.077790360700803418e-02
-1.305990438841172496e-01
-1.520002232260145858e-01
-9.762320776480026829e-02
3.526444012413915141e-02
1.733016460662465952e-01
2.087338500258701657e-01
1.609061393573184284e-01
1.485179911169383915e-01
1.659777204611426471e-01
1.142130124081340431e-01
1.832154089890112789e-02
-2.764233928437660054e-02
-4.983316459011619126e-02
-1.040350471363367391e-01
-1.482138583959040634e-01
-1.654737370816046216e-01
-1.859339521160933428e-01
-1.654545813820545719e-01
-8.019502595260893929e-02
-1.285290705655294310e-02
9.646001486206812192e-04
1.875681964146022618e-02
6.122698420980730860e-02
9.862043892489917585e-02
1.191088262466656611e-01
1.269121490963715793e-01
1.253138655612910657e-01
1.004277298370504223e-01
2.418340133000396880e-02
-7.073135425394895537e-02
-1.102562572517659101e-01
-1.012632930292342581e-01
-8.699704675438903190e-02
-4.706728490737777104e-02
1.600144472113512739e-02
2.834449366064524523e-02
-2.403550381904519251e-02
-6.267312497995802811e-02
-5.212986679219387687e-02
-4.147967491761925946e-02
-5.131703561130893099e-02
-4.147560378512821222e-02
-2.217105119136393576e-02
-4.294914737940226657e-02
-6.049429289279713295e-02
3.288605500290869496e-03
1.239737585033669487e-01
2.303521118258510525e-01
2.934066425679584533e-01
3.182701894830795020e-01
3.287294295808288469e-01
3.278079983100327666e-01
2.746473224358749188e-01
1.445155920752415335e-01
-3.103048936703140664e-02
-1.868469934115037090e-01
-2.808533496603151103e-01
-3.437615459269845464e-01
-4.053890521080635301e-01
-4.042777493091615493e-01
-2.954183443194516867e-01
-1.589801145710628416e-01
-8.330428732021308291e-02
-4.668105371469682963e-02
3.653350866458723867e-03
5.248564637688173107e-02
6.223988921927964268e-02
3.478301391911654827e-02
-5.526303350980428519e-03
-3.520192304935551575e-02
-4.952686423822383333e-02
-2.165051333104438952e-02
9.260550312103589532e-02
1.977585832056411863e-01
1.708474132942801593e-01
1.060977776253886617e-01
1.019270136394700987e-01
9.256002797519291558e-02
7.522111693777377983e-02
1.160161351380024214e-01
1.222877929255444251e-01
-2.753886583777761382e-02
-1.611328788977942073e-01
-6.857185612799407415e-02
5.870290014193987188e-02
8.387945987798427205e-03
-3.950987184204239611e-02
2.354632591690448626e-02
-2.483303177911871940e-03
-8.239927515159985172e-02
4.294316729430643770e-02
1.828352471807350721e-01
1.723190640653633754e-03
-2.210515104567397360e-01
-1.491002895448310661e-01
-3.086323123550217123e-02
-7.717610908232694356e-02
-1.148492535334745546e-01
-7.433575817908570638e-02
-5.577638273418355358e-02
-3.920644580236907345e-02
2.349721115343658684e-02
6.640251570609063958e-02
5.645938515007302427e-02
5.917620226192883692e-02
1.020638336320203315e-01
1.134128283287390293e-01
3.915015925368803273e-02
-7.758381765693824275e-03
8.766230806277205967e-02
1.608139511539272148e-01
5.541646494521566130e-02
-5.257729438487288715e-02
-2.943062925027066859e-02
-1.166957190756174115e-02
-7.706369955555410212e-02
-1.334202146809554679e-01
-1.097872256490735193e-01
-2.241107659787477946e-02
7.125611897220207602e-02
1.060502506155002328e-01
7.049858814819021102e-02
4.693475554570218644e-02
8.351668278057909622e-02
6.040168381396826547e-02
-1.005568233886968699e-01
-1.979487247028722807e-01
-9.205270223287853604e-02
-5.052409039199828172e-04
-5.695325431197272026e-02
-9.862872328203460548e-02
-8.864529194448590721e-02
-1.309205036943777434e-01
-1.288368491638306190e-01
2.645505115221131326e-02
1.531672964813166338e-01
1.054360991344592408e-01
4.034665658331378080e-02
6.150256050508198791e-02
6.703702160581720415e-02
3.053764392701397920e-02
2.644979919797397355e-02
4.801780152824169923e-02
3.723373690703511013e-02
3.701542141214778786e-02
1.099604736578409375e-01
1.422434931501289357e-01
4.029078877929881397e-02
-4.957353499815000952e-02
-3.484519229669656715e-02
-2.557347864775386462e-02
-6.206301654289155673e-02
-8.850750067140530919e-02
-1.113299642452297289e-01
-1.231954845765749484e-01
-6.973670500428680308e-02
9.739853588136660606e-03
3.450452330178260807e-02
2.755334784089878003e-02
3.121455701559067153e-02
3.178401419617843393e-02
3.440576416863961456e-02
5.069897373448815220e-02
5.279711556517821536e-02
2.963272028137785633e-02
7.957902428079774090e-03
-2.230205594856811240e-03
-1.444401970214034651e-02
-3.510716544327675825e-02
-6.109990805016114745e-02
-6.877675606565092359e-02
-3.257712506753104864e-02
4.502127798316147428e-03
-3.044018437246730213e-02
-1.092342601225501086e-01
-1.184983024833630022e-01
-2.399463591398511356e-02
8.179817624199373083e-02
1.191867079778147764e-01
1.091289671800895339e-01
1.081574864771816386e-01
1.265927348546044828e-01
1.277542587427784038e-01
8.795750532484121476e-02
2.553121092164888431e-02
-2.250061520628957035e-02
-3.861083088049349632e-02
-4.947666437904808812e-02
-7.885735209218797115e-02
-1.013381179907168333e-01
-9.585970087122284988e-02
-6.342451476156805990e-02
5.126901667865340836e-03
3.700537730429576816e-02
-7.393419537023537824e-02
-1.912596566452860469e-01
-1.201182437617346888e-01
-1.023528299646076292e-03
-8.387930484710925949e-03
-2.185774070289704663e-02
4.711313989368238336e-02
9.304714658684770656e-02
8.358795981280275900e-02
8.826000234407579970e-02
9.862046773081577233e-02
7.690234008669158405e-02
6.212439253434075964e-02
6.934294952798779332e-02
4.286965746813217737e-02
-4.910183081828485216e-03
-1.367565552859760850e-02
-1.984944891434776981e-02
-6.144527217789803875e-02
-8.078013778574645587e-02
-6.848611427675063701e-02
-7.767384699918605806e-02
-8.885672583778780886e-02
-6.783838697788388550e-02
-3.688965158976980491e-02
1.512701994360040637e-02
1.025771383190363373e-01
1.421382203499745589e-01
8.671833330664638351e-02
3.134288087685681984e-02
3.083047532174357577e-02
3.292113518310119807e-02
3.021651095465645656e-02
2.779407189464565275e-02
-2.497925976833760553e-02
-9.514693539015919854e-02
-9.270888798249142526e-02
-6.573454589810695525e-02
-1.056937995615065684e-01
-1.514004127429891822e-01
-1.055663368999265050e-01
-3.792720670320476068e-04
9.093181372485382996e-02
1.374212560776740255e-01
1.281919338087548210e-01
1.375306719211060735e-01
2.293974615356186297e-01
2.455727323714631538e-01
7.269516652673828350e-02
-8.851207013584556915e-02
-9.259896107618363625e-02
-7.207064097366885913e-02
-1.405548892168174968e-01
-2.403686212741313610e-01
-2.627460457052976928e-01
-1.714812392683107145e-01
-4.438599284153505603e-02
2.267929984112849670e-02
3.286186111453238967e-02
4.931336368241907853e-02
8.922257230082952795e-02
9.422415193712399550e-02
2.520982475980258070e-02
-1.806118364649964524e-03
1.258485392494894106e-01
2.344233390423175190e-01
1.221741287061085673e-01
-6.974380733246864084e-02
-1.098655439357928282e-01
-7.009968848535330643e-04
7.560505326351119049e-02
-5.825634230710616951e-03
-1.065249769920580125e-01
-6.999390655802681382e-02
-2.812708014169498436e-02
-9.347175246366472290e-02
-1.490992039354789855e-01
-1.254962569050961374e-01
-7.194725325606743382e-02
-2.275133347152021035e-02
3.516889674056538490e-03
2.814054853445884657e-02
1.083103014379887541e-01
1.685200507818956916e-01
7.840166205990581338e-02
-3.854374935112748340e-02
-3.001588754636769218e-03
7.315114365660844997e-02
7.410285429611382368e-02
9.531609818183545135e-02
1.577800349592766715e-01
1.752456269926772892e-01
1.698501242501162523e-01
2.015994782608507008e-01
2.026625097785514917e-01
7.532480647625833248e-02
-1.069937733299316240e-01
-1.827768210752820366e-01
-1.608336410992432519e-01
-1.617053925985922069e-01
-1.944416467334680876e-01
-2.142672815447352330e-01
-2.146776403700393632e-01
-1.770257625140489177e-01
-1.198670646353102581e-01
-1.024798024920589162e-01
-9.958898610340807811e-02
-5.819573699704787273e-02
-1.637030790651054085e-02
-1.230387420500529683e-02
-9.697081250600397828e-03
1.542638220731567394e-02
3.997772674808041521e-02
6.269539437784678315e-02
1.031864916425263012e-01
1.345119838713562110e-01
1.260812117193010340e-01
1.232125360471582193e-01
1.584301081778229925e-01
1.644713033942352964e-01
1.015557543055881917e-01
4.251418783073695334e-02
3.491094399703940920e-02
2.956164690775974976e-02
-9.335526078461477140e-03
-5.049941552566255404e-02
-5.654645748392935628e-02
-3.695966332173959701e-02
-2.522049378213970031e-02
-1.778731546133985666e-02
-2.730047850680922608e-03
-1.482906068431651472e-02
-6.410631781261512396e-02
-1.001412371407085361e-01
-1.055892863044212981e-01
-1.002201932955487373e-01
-9.650421959939871341e-02
-1.141659464464112594e-01
-9.013469763237014210e-02
6.242232788603000598e-02
1.840965340435270492e-01
1.097462347705092794e-01
3.074953898795544302e-02
7.140954005945449046e-02
4.215279976069567780e-02
-3.241866755802454148e-02
5.842757102825796300e-02
1.675749077005867504e-01
8.049366535720010873e-02
-4.526828435081820673e-02
-5.543282145171064129e-02
-3.071023687707733277e-02
-4.487892768253910064e-02
-9.650497155988531361e-02
-1.299940624926147481e-01
-7.544920953792572105e-02
2.837703900151489211e-02
8.238992446626974830e-02
6.888276663881633122e-02
4.825897082223354340e-02
5.932013560225242454e-02
6.774097774463821997e-02
3.729360680117364824e-02
-9.518508320241234749e-03
-4.388202919327004181e-02
-5.822390646182945551e-02
-5.888051941045090165e-02
-7.182331300415648045e-02
-9.259104347861049633e-02
-8.763758931126477969e-02
-6.419183481705396932e-02
-3.160292359242847932e-02
2.389785951218479504e-02
7.003692413789427973e-02
7.272311723025387531e-02
6.161871245274751219e-02
5.853834522195418277e-02
4.905525731476950008e-02
3.097303121930644609e-02
1.945863786504299989e-02
2.498378858608127362e-02
2.963681240791698340e-02
7.463212526980487344e-03
-2.962571409072230558e-02
-4.807272870164638889e-02
-3.331563902467556126e-02
-2.411425354270451543e-03
1.505436180040387387e-02
3.373554286520780588e-03
-3.716242000965869902e-02
-8.516521620728639830e-02
-1.092108819297004513e-01
-9.467664098466235800e-02
-3.943547154506080177e-02
2.962153565392884602e-02
6.457374580145933129e-02
7.100745206815450850e-02
8.088667902493486273e-02
8.104697612526032269e-02
6.413870577851053800e-02
5.289984685396672409e-02
4.870235162409425334e-02
3.763696005289651064e-02
1.197299049712447980e-02
-2.911674007794055885e-02
-6.272107620512869242e-02
-6.083206594316177551e-02
-3.388448844728011305e-02
-1.019231411877440444e-02
1.193043326911010600e-03
-1.658471085250979790e-02
-8.045134374832052515e-02
-1.320813679431468435e-01
-8.485759223616119729e-02
3.424324990076205860e-02
1.134846047818972997e-01
1.093993205669454849e-01
7.344148072915987480e-02
6.693976544750618318e-02
8.917833627834291510e-02
7.747859366998924302e-02
2.488592870544941923e-02
5.967052556887302364e-03
6.403740959677762384e-03
-4.594168508812366408e-02
-1.047738830948403005e-01
-1.239880480764695009e-01
-1.490832478426053487e-01
-1.544054297396471043e-01
-8.451025737823344985e-02
-1.715510967861203460e-03
2.510126866853491789e-02
1.997897429424332766e-02
2.566217497140596548e-02
5.319846764832328323e-02
9.510184691310211158e-02
1.362057140948240153e-01
1.374773792038483655e-01
7.044726849033089433e-02
-1.234445131727466075e-02
-4.407429451805185139e-02
-3.909972362809947810e-02
-3.638917251053572222e-02
-3.775759086182942786e-02
-3.498844757902174613e-02
-3.653026976991871622e-02
-4.950421212151467215e-02
-4.613146889900406056e-02
-1.498770844651446318e-02
-1.348213650919743642e-02
-4.399965092646061782e-02
-1.785694146752912770e-02
5.296918756352440860e-02
7.030022409626818236e-02
5.020306051117846141e-02
5.963996173677466039e-02
6.586980379546572562e-02
3.066603650521619595e-02
4.619958162199436572e-03
1.491817491682493994e-02
1.033617106051161819e-02
-2.057385977539123723e-02
-3.379478065277073673e-02
-2.772107075190076431e-02
-2.397069753846909138e-02
-2.413252127386109752e-02
-3.283218818772894176e-02
-4.177202707678361049e-02
-3.237531069419751634e-02
-2.517155925833065855e-02
-5.498162491728787044e-02
-9.409101059248260734e-02
-7.556579133850398200e-02
-3.441910997028517320e-03
6.425752493250241892e-02
1.205527209259255883e-01
1.729655476865000763e-01
1.903097916602513318e-01
1.659987523490141503e-01
1.237815297057443670e-01
7.089822950522753353e-02
1.304578131459212254e-02
-4.684713721750621840e-02
-1.161729477334389748e-01
-1.884268235779186784e-01
-2.381937575393529016e-01
-2.101564059068430357e-01
-9.237218114116552137e-02
-1.805509688007826338e-03
4.839208625165257460e-03
3.279101876134247334e-02
6.416113777087961711e-02
-1.777924922610764347e-02
-8.207507048625323209e-02
2.394696026077951234e-02
1.380631231918245383e-01
1.212042213883414155e-01
8.160494967890094542e-02
8.259259734767882000e-02
5.260553888214918733e-02
-1.838434402371366683e-02
-4.379502093233927917e-02
-1.683748036202449561e-03
2.080945524091975390e-02
-1.167380104700731398e-02
-4.023008492115060647e-02
-4.133265962450986819e-02
-4.634090722862833911e-02
-6.890412237065703105e-02
-8.494060215744846098e-02
-6.704450551816819315e-02
-2.915180803769737428e-02
-2.166940446879814415e-03
1.670140753225212230e-02
3.807596716000512249e-02
5.510351221036888930e-02
6.952590655907793515e-02
6.840105618138046795e-02
2.650797412006429543e-02
-9.405027833629677272e-03
1.231612340321569521e-03
-1.398690590050979607e-02
-7.583345853834962125e-02
-9.577310232713476257e-02
-7.414267318204482982e-02
-9.824972712381646600e-02
-1.619199390856111698e-01
-1.576605315188145950e-01
-5.832264691688140990e-02
3.490594066892268449e-02
1.101421552268439241e-01
2.399060488322364848e-01
3.572466947433733386e-01
3.923131135827488958e-01
4.155482933205204010e-01
4.224740115159374976e-01
3.213281644780309754e-01
1.477963982712099389e-01
5.531279018566093164e-03
-1.103935016873251046e-01
-2.509097358940027278e-01
-3.839990086810788350e-01
-4.534862098015868259e-01
-4.642891299465707888e-01
-4.358028542910651892e-01
-3.666367213070289566e-01
-2.566156431762355306e-01
-1.203348819419368110e-01
-2.332912868404785067e-04
7.272505881924989923e-02
1.208438806679985184e-01
1.454808172761214990e-01
1.098811058635017629e-01
5.370687732923695723e-02
6.319894819978899569e-02
1.148874009769466353e-01
1.156735585434304492e-01
6.988125442433375245e-02
5.021844452889855093e-02
7.250258490238402354e-02
1.004477857361746468e-01
9.607587504269340939e-02
9.294450273799999274e-02
1.472382850890423811e-01
1.500137990619024309e-01
1.009312786447274374e-02
-1.213637644685368472e-01
-1.412396706392891610e-01
-1.153118794141987369e-01
-9.123090406336892277e-02
-9.559558610780996557e-02
-6.859566574881055534e-02
7.943249119169619454e-02
1.833708564057425217e-01
8.062232120139151137e-02
-3.106653218048004844e-02
1.954592657353012436e-02
8.799922217052660867e-02
4.354299100570824255e-02
-3.773456716231494978e-02
-5.988420889046574408e-02
-5.284552750828688111e-02
-6.835549752128000645e-02
-7.234926779814276898e-02
-5.334101954564083453e-02
-7.421627453279089348e-02
-1.278568344149254576e-01
-1.160043326782140560e-01
-1.221283267201979210e-02
9.163391617298746739e-02
1.208964283621796060e-01
1.056765152595863788e-01
1.039166057751358674e-01
1.106761803002009881e-01
9.056865784644033135e-02
3.873304414999674539e-02
-1.889883242597410404e-02
-4.949527725364322173e-02
-5.467624297805458861e-02
-7.450444111134887915e-02
-1.168614142143264562e-01
-1.415587955363100114e-01
-1.262257472356674848e-01
-8.584043208876322717e-02
-3.475074644266589602e-02
2.654912645029804466e-02
8.689162866032081045e-02
1.100987470713268024e-01
7.626903154974826182e-02
3.641404716764414656e-02
4.355742258678661771e-02
5.857220850202384671e-02
5.119857556658798103e-02
6.462131159040186701e-02
8.090736552862111408e-02
3.637346813291372077e-02
-2.765160524962843175e-02
-3.362074237949626287e-02
-9.984191969861437588e-03
-1.871434235746007035e-02
-3.761796578981180250e-02
-3.020757495603123427e-02
-3.905736980526613306e-02
-9.656445556070755720e-02
-1.352490510515063638e-01
-9.293918696619801745e-02
-1.984863473974438422e-02
7.581255767950751887e-03
7.708226557058332068e-03
4.252144716576031214e-02
9.827913466451648761e-02
1.249633478887527127e-01
1.249690588945257808e-01
1.020724736557042794e-01
4.887900063305281734e-02
7.726307915897407362e-03
-3.861699222866703946e-03
-3.787067290071580855e-02
-6.837843618009023516e-02
-1.228984444640973672e-02
2.749544133383263755e-02
-8.568134048836233141e-02
-1.816452382822161538e-01
-1.062028650506700450e-01
-4.514830314100266861e-02
-9.060455885194386438e-02
-7.416540545292006625e-02
2.918636416772821263e-02
8.940729834701242884e-02
8.866049996151587065e-02
8.949543289085898357e-02
1.052124997086955893e-01
1.032987779995872546e-01
6.328353179010860752e-02
1.124889469341051190e-02
-8.115271893226378569e-03
2.509071059269936052e-03
-1.387834328812878257e-02
-7.947352670922472329e-02
-1.340795888400895253e-01
-1.275171788508391857e-01
-8.009837699368940744e-02
-2.451746012719801734e-02
1.852235479271786139e-02
3.510902877189532589e-02
4.426302510330740181e-02
6.921372619405877225e-02
8.989369392995597008e-02
8.001922442201885033e-02
5.027317883276954946e-02
3.007974573892579009e-02
4.074954319387528306e-02
5.983476047444217377e-02
5.058859257855295721e-02
4.310326151774229037e-02
2.099740071625023213e-02
-9.437502754877319378e-02
-1.759162844173749463e-01
-7.586891209364474142e-02
2.058552161714374135e-02
-1.961950867960423131e-02
-3.544014663322195974e-02
-2.769444679746052573e-02
-1.232575313366006398e-01
-1.639245317528795765e-01
-2.484332789731626828e-02
9.046704265508523357e-02
7.823992703083058886e-02
6.125666913467511798e-02
8.016740323887028286e-02
1.081847893482102141e-01
1.274671744256502814e-01
9.238816704652022538e-02
5.230165041611888055e-02
9.048800196433121057e-02
7.949536648962393648e-02
-9.357165785477755682e-02
-2.219009501200965573e-01
-1.575370947879158323e-01
-9.299717277974121898e-02
-1.378004134714446161e-01
-1.593431329181608236e-01
-1.125153551232902088e-01
-6.282444958958370573e-02
-1.873734002044123020e-02
3.590975147121487632e-02
1.028497357934531620e-01
1.702091521772972627e-01
1.936489459962900950e-01
1.578997904824496756e-01
1.178573635780151146e-01
1.062431645445652689e-01
8.423828997951053610e-02
3.218378071050646133e-02
-1.587518474662440171e-02
-5.934780637838821954e-02
