-4.095166134344213615e-02
-5.865145777778420222e-03
3.523599637791546141e-02
3.007275120121025852e-02
1.521209940808404548e-02
1.554121238729202006e-02
7.019288029298466694e-03
4.287381041470291441e-03
1.855798833128583653e-02
6.653937531377520503e-03
-2.700576694981099424e-02
-1.818729724959484290e-02
2.921140935267693348e-02
5.506846055072730367e-02
4.764621022621973873e-02
2.321391795970546151e-02
-1.091971105540781237e-02
-2.911700917112539089e-02
-1.240412364953852667e-02
9.942900617769177135e-03
9.478032604127339250e-03
9.166695510484880807e-03
1.488188434803196236e-02
-1.786264154606716920e-02
-7.262726017540414858e-02
-7.116298231079874748e-02
-2.001313169114754542e-02
-4.795087788793234683e-04
-1.385766845743646204e-02
1.550426606343441663e-02
7.602141913031668086e-02
7.972582219697051109e-02
3.383946477815741316e-02
1.873007213104142116e-02
4.499362356491863613e-02
5.350651227370652185e-02
1.370293764536591706e-02
-3.394355974148959704e-02
-4.903059835056927662e-02
-4.548175023354670415e-02
-4.122165731830709084e-02
-3.516947703913421430e-02
-3.794818475941959257e-02
-5.198222340865207153e-02
-3.923933356191591088e-02
2.870719769258929174e-02
1.136590574754049732e-01
1.523911722331904028e-01
1.186762885951087865e-01
3.907767406826812007e-02
-3.038681006049083824e-02
-8.066757784404886278e-02
-1.216311381537602543e-01
-9.327590299426255505e-02
-3.445767090697821056e-02
-1.004037173395876947e-01
-1.949981724500439439e-01
-1.030747324129707848e-01
6.172807562462184761e-02
9.535450959124858183e-02
5.027619730846959178e-02
4.468166878898269939e-02
7.989569822731787396e-02
9.927228160515200184e-02
7.887380568270385695e-02
4.918664256772192073e-02
1.945360518378192599e-02
-2.458164547292365429e-02
-4.402478629743738353e-02
-1.019677073843323206e-02
2.773682290351897270e-02
2.824113281429245156e-02
1.035914186194808462e-02
5.185107982289846248e-03
-3.404757804894726833e-03
-5.004159138911200289e-02
-6.805529867588160087e-02
1.678033261472688942e-02
8.106915661604172096e-02
1.187332487525927238e-02
-7.956416597092580423e-02
-1.083969341716872065e-01
-1.153949342253254295e-01
-9.951820344317774403e-02
-5.931824337254184426e-02
-2.987245054010112533e-02
5.858343300626170022e-03
5.604614115613381492e-02
7.877622435205179630e-02
8.411835556781138701e-02
8.913671476357151735e-02
4.032683626343874783e-02
-3.950162967577108136e-02
-2.615120204999146075e-02
8.161197586048858643e-02
1.557239870777966662e-01
1.491726432028629146e-01
1.011924445863631172e-01
1.829964370636527615e-02
-8.340818176872782930e-02
-1.228449249020948791e-01
-7.573847656931972927e-02
-2.569462732020869056e-02
2.562740058871762917e-03
5.863024426431032166e-02
9.972683173420615610e-02
6.148021030365975748e-02
-1.176086220158860385e-02
-6.961584013125446391e-02
-1.048315539114584721e-01
-1.093216983033822587e-01
-1.040912106737865439e-01
-1.116605402340391795e-01
-1.120293532145187065e-01
-9.576122708871305511e-02
-7.333420994015264760e-02
-3.251096463060830499e-02
3.208524475519192176e-02
8.066975455533104133e-02
8.469898293651437204e-02
7.652248033418329598e-02
7.820409302542979946e-02
6.388284107267434841e-02
3.986124898680948325e-02
3.095367585620686576e-02
1.830526208148558487e-02
1.225135995647577865e-02
2.519170562203424529e-02
-8.352508014596022115e-03
-3.685637323544171257e-02
7.492843064600170078e-02
1.795700953459499205e-01
8.042804362090608117e-02
-5.834751864973145019e-02
-5.743343991597309184e-02
-6.765276906143612157e-03
-1.163045394023211332e-02
-6.903548734545231214e-02
-1.169172183027617912e-01
-9.418288825517753815e-02
-4.201596492126996596e-02
-2.671307688583755835e-02
-1.282116674760824110e-02
2.563349649201927816e-02
2.651579753503182507e-02
-1.783166025463601978e-02
-2.309222362621366972e-02
1.454452701331265980e-02
1.652940646798867208e-02
3.630892477210452551e-02
1.555213173213660371e-01
2.167562512049783785e-01
9.126929786993280558e-02
-5.653165466463631883e-02
-1.017576140126133094e-01
-1.103377743382377291e-01
-1.249887305459690401e-01
-1.394073126375952043e-01
-1.168611411330566646e-01
-2.765428655863032964e-02
4.136656975762405958e-02
5.604495991746602512e-02
1.206378312524606089e-01
1.835210533347091388e-01
1.016621130259805772e-01
-3.188546442617837262e-02
-7.702716472926093849e-02
-8.529486239469778741e-02
-1.071998354028508155e-01
-1.028609550919906829e-01
-6.987423618267368797e-02
-4.406827273208994283e-02
-4.081722593014786016e-02
-5.519095681917047386e-02
-5.441286446889768980e-02
-3.532205445259627846e-03
5.805002835772267444e-02
6.374529875028162040e-02
6.215096675583199615e-02
1.314068095682182635e-01
1.675475894578905833e-01
6.221238532729524845e-02
-9.168133275168740409e-03
1.023705580514028407e-01
2.101747566907951892e-01
1.792537993234045723e-01
1.440410447720330001e-01
1.616169099936457243e-01
1.225825537620605643e-01
3.506219748225260918e-03
-9.695813163027364179e-02
-1.333652250352459490e-01
-1.531888064036250885e-01
-1.739432196931222085e-01
-1.688664945530295169e-01
-1.641171182015941921e-01
-1.935383216193949374e-01
-2.124443935388015126e-01
-1.884646240443993981e-01
-1.599506405326193981e-01
-1.371596811028281404e-01
-9.201077045312174019e-02
-3.812020774418899138e-02
-3.059146501751416891e-03
2.708578142799600991e-02
7.255760320209217462e-02
1.237656485774602799e-01
1.612035474616872466e-01
1.792210161278565417e-01
1.864211508041231091e-01
1.864870240932847145e-01
1.692215818072384248e-01
1.348809908716739892e-01
9.367570366263672232e-02
4.254693161512578675e-02
-1.114878641398376474e-02
-4.899683918080752904e-02
-7.072497067086819245e-02
-5.448566429393612853e-02
2.565539561204783700e-02
1.019955485565970932e-01
8.512195737102673521e-02
5.519668452179491910e-03
-6.300350600190135486e-02
-1.195688523538076808e-01
-1.684272909039455091e-01
-1.754894364791569072e-01
-1.475863155727452913e-01
-1.214982211119602917e-01
-9.186720050276658833e-02
-5.096632386357902861e-02
-2.223664575007665983e-02
-4.627149006178839230e-03
2.519293626520891644e-02
6.805009098339073748e-02
1.086856755001400499e-01
1.145583098635242214e-01
7.500230878613727004e-02
5.544804632090644808e-02
7.677322234992749184e-02
5.748312855524391474e-02
9.416335115318178687e-04
-7.201163077449303923e-03
1.128791806135059916e-02
2.541076511873730653e-03
-2.643490934101931297e-03
4.099432031972188861e-03
-9.970372046337321048e-03
-3.477592447387613250e-02
-4.694273068739272109e-02
-4.014651055552258957e-02
-1.409462474649888185e-02
8.806604831030415484e-03
9.316690547789184540e-03
6.830263500110518582e-03
1.041935689841512122e-02
-3.579999261597497078e-04
-1.381119485975778466e-02
-7.387204591312495142e-03
3.032116484426678523e-03
1.503567247591538168e-02
3.742206050043533905e-02
4.630461143456160444e-02
4.450850290021723249e-02
6.040908479475954468e-02
5.660090837816945941e-02
6.473895191410858861e-03
-1.060389746775711184e-02
-5.605767952926533904e-03
-1.008691196426734632e-01
-1.886217009865596428e-01
-9.706668291158601636e-02
7.099566085998971696e-03
-3.969859591336251381e-02
-9.927229145553426171e-02
-7.458934953142445923e-02
-1.498017877547251284e-02
7.373865454738702530e-02
1.652723076846918104e-01
1.753151512776744414e-01
1.115897938495133690e-01
4.738933016545766874e-02
-6.160242763062895657e-03
-6.618375230463120762e-02
-1.129905237892755432e-01
-1.089315297420552359e-01
-5.235128254197804476e-02
-3.735115962239343550e-04
-2.667156059143358134e-03
-2.783807453037155308e-02
-1.199891108540502432e-02
3.290847511671018966e-02
4.801401363779003728e-02
4.331881584797518669e-02
5.079940633382323822e-02
4.226398475397086241e-02
2.109692591633278991e-02
2.942251191699282731e-02
2.225905782610611283e-02
-4.065207558592153630e-02
-6.400048258503616971e-02
-7.770433454122906147e-04
4.040262548048651620e-02
9.681621603548625637e-03
-2.031915699760741476e-02
-7.409764435708942124e-03
2.467440417919952028e-02
2.826789339776424395e-02
-1.124700300486426024e-02
-3.211011580286291661e-02
-1.029485338716537926e-02
-1.429382530715048172e-02
-3.955245585084663645e-02
-1.583859677156481544e-02
1.539284307142642361e-02
-6.202151528233390554e-03
-2.891796090451879270e-02
-2.555079568970672690e-02
-2.776056204342988026e-02
-8.384347943576495044e-03
4.966742325296236160e-02
8.636156494225481761e-02
7.660607694533901058e-02
4.753205728560010168e-02
1.711984078248652771e-02
4.948552795619560844e-03
1.765722247944937970e-03
-2.132159217584831887e-02
-3.740782907174723670e-02
-3.398150166508169534e-02
-5.730740835975399461e-02
-9.327357576530463656e-02
-8.419208431656305391e-02
-4.084917605951221553e-02
9.891697895505632832e-03
7.485064125599553975e-02
1.290918945237601312e-01
1.247328484682847377e-01
6.388883728168365250e-02
-1.070153307661473284e-02
-8.190300161488253683e-02
-1.506527937790890781e-01
-1.386067564732282875e-01
1.086774883339806236e-02
1.163606651008603915e-01
2.372322939591787333e-02
-8.348842354458305137e-02
-4.920943756304491795e-02
3.915084091119094140e-03
1.456389126488974450e-03
1.712841807352890808e-02
5.583242342052756324e-02
6.371287388892435399e-02
4.736001814379671437e-02
3.016407149902218879e-02
1.245574897738638102e-02
1.199125615958571492e-02
3.738905295406244611e-02
5.512724619647808855e-02
4.619066261951278868e-02
2.840617944152477869e-02
1.032954835946483033e-02
-1.509561923532343024e-02
-4.058159311006167419e-02
-3.449555440503028481e-02
1.036102570728866280e-02
2.596847690475916071e-02
-1.947633067102405927e-02
-4.312733776671537345e-02
-4.113091084995879054e-02
-1.062357282145241777e-01
-1.761910250612118978e-01
-1.431264942183878286e-01
-7.904955705741903427e-02
-4.681357130425616020e-02
8.157580918901098654e-04
5.311142044034825732e-02
7.408020274344878642e-02
9.367994229029744102e-02
1.165997834539222455e-01
9.995667385847910313e-02
4.162519677320172112e-02
-9.246651252190228598e-03
-5.925279852090287527e-03
4.033508385819135206e-02
7.067201239349750475e-02
6.801037692580590155e-02
2.680026189730891004e-02
-9.805405215637287564e-02
-2.261021240869741378e-01
-1.797375934195887259e-01
-2.143803189442180374e-03
1.290844985588364691e-01
2.172287238137474708e-01
2.885077606461233790e-01
2.324034745451784567e-01
6.983953431747014218e-02
-3.387990916300220867e-02
-7.101635124392141618e-02
-1.220193770505852704e-01
-1.476388913542495684e-01
-1.134919002210264816e-01
-9.124667817998792507e-02
-1.241177838245960396e-01
-1.668065538005346904e-01
-1.673683562143824521e-01
-1.233732299044152381e-01
-6.633270002374899721e-02
-3.901239359925458283e-03
8.056826585976797905e-02
1.485935465929722477e-01
1.305575856057116513e-01
5.780254753759869746e-02
1.294282828643389220e-02
-3.165304019692168763e-02
-6.871550789817339189e-02
3.505374422693231101e-02
1.929418810214046653e-01
1.729709329592009903e-01
6.712477206027563092e-02
6.683109499481003357e-02
9.217607698596559651e-02
4.065360037267565230e-02
-2.975114885243463486e-02
-6.079987951478550007e-02
-6.657161869572725266e-02
-7.265464760068152117e-02
-8.398217570244602415e-02
-9.087275145920171993e-02
-6.830905834007067190e-02
-1.701010236741258563e-02
1.300308119025833480e-03
-2.453238760505564373e-02
-1.318567396901708377e-02
3.752338806892881878e-02
4.105599731782326456e-02
8.430047812641700000e-03
1.338244478108723858e-02
3.006591770830823254e-02
1.073822671367470095e-02
1.155513626440340946e-03
2.441027965543862699e-02
3.561436771510648192e-02
4.258543567537065311e-02
6.675180979271913562e-02
5.135646598246487032e-02
-3.949729370486979724e-02
-1.353722075210173903e-01
-1.508124838352225827e-01
-8.289849057617350303e-02
1.520801396442689885e-02
9.845554902874012471e-02
1.437398465241175038e-01
1.239266382448626080e-01
2.963362653102829050e-02
-6.717798077488418285e-02
-1.012658660175402014e-01
-1.178265296382929456e-01
-1.326994902785980646e-01
-9.233324874874036803e-02
-4.343164821360597644e-02
-5.654012897869812454e-02
-7.467274664980015630e-02
-5.350761379893703706e-02
-4.349187606491439900e-02
-5.220854234298485941e-02
-2.328781434432428132e-02
4.988712546003518794e-02
1.039989514507117518e-01
9.354904017742773914e-02
5.267393344668235000e-02
3.997460101857567422e-02
5.496947442456148747e-02
6.658790175963115454e-02
7.834690412769293455e-02
1.136634875113244902e-01
1.603768871716467481e-01
1.722807030285143370e-01
1.556056561825999718e-01
1.595703960601382032e-01
1.531270831060436710e-01
9.239957230358078477e-02
4.341349271884425987e-02
4.640870989594559487e-02
2.976781633582077299e-02
-3.643114262296677508e-02
-9.740454028338633996e-02
-1.369402621025406497e-01
-1.897571766463360676e-01
-2.465778589348184557e-01
-2.591784687005399546e-01
-2.366354469616116230e-01
-2.213468615760581792e-01
-1.799444814543465776e-01
-8.128653310320432812e-02
-3.443485218735643089e-02
-1.085965542508985499e-01
-1.358548430248348593e-01
-2.936507876514376364e-03
1.226350711103457169e-01
1.238902405784709920e-01
1.001532166888370878e-01
1.109437492855374352e-01
1.030425313918364172e-01
5.697408081541255331e-02
2.163459477913156487e-02
2.489870838468734304e-02
4.587565597870527784e-02
8.765739745780622150e-02
1.626944243378127819e-01
2.252420365482419862e-01
2.273246537817087964e-01
1.627832443796628503e-01
3.525384725514939255e-02
-1.055937618588275312e-01
-1.704040792518692338e-01
-1.475685972203264473e-01
-1.233940591869226583e-01
-1.620228671498244177e-01
-1.758375788239683046e-01
-4.708976721827508316e-02
7.835906350538276999e-02
1.324539453689164634e-02
-8.607625678591343532e-02
-5.295963577882664003e-02
4.591153791713293610e-03
1.941771361626432740e-02
4.741791766969845334e-02
7.400746036477136303e-02
6.397509824149416602e-02
4.424956268179012359e-02
4.535434801146463052e-02
7.110222405280985924e-02
9.166735556391174267e-02
6.775743927992433635e-02
2.456324865934698259e-02
1.028053953351916287e-02
4.410581549230305556e-03
-3.388854497580295888e-02
-8.312452362384634141e-02
-8.118435525833464506e-02
-4.844193199042644282e-02
-8.314723053569542111e-02
-1.156237366104553438e-01
-3.359797539129407221e-03
9.172275280404207365e-02
-5.271911253162113453e-03
-1.011931924754504997e-01
-5.361225389193641222e-02
1.304196761497090733e-02
4.295539452080914672e-02
6.182885933297943559e-02
5.224200363847736339e-02
4.122700948368983320e-02
6.800445849824804379e-02
7.964759525839100462e-02
1.270766540724218782e-02
-4.179470275011762381e-02
4.748957621320527150e-02
1.475283673601116008e-01
5.873490559570392067e-02
-9.393975409247282138e-02
-1.309924631408279361e-01
-1.240382393039134723e-01
-1.388811930487335866e-01
-1.051433135583276501e-01
-3.209661937432972331e-05
1.115573820132884919e-01
1.738407847187644351e-01
1.787602693773178153e-01
1.009493676621554398e-01
-7.664868211474054616e-02
-2.101108876871062292e-01
-1.718692601965918221e-01
-8.324318748850834115e-02
-5.093669979980049861e-02
-3.028995682635786044e-02
-1.500110016363574716e-02
-8.897778841996068638e-03
1.097477319329670346e-02
3.124240331764829848e-02
5.644100079687713878e-02
8.851642600806544636e-02
8.826807580291140543e-02
6.602308523586924993e-02
6.262564783163027116e-02
5.988094495991341804e-02
3.476295138241657090e-02
6.088377617898547284e-03
-1.845079446305306417e-02
-3.462260807928068534e-02
-1.749068772485756068e-02
1.359290077065549926e-02
8.128920276775055548e-03
-1.561970631551219506e-02
-1.554570231831559936e-02
-1.402321388650793095e-02
-3.036037754015244450e-02
-3.616165355876216347e-02
-2.718418990297459537e-02
-2.714015174200930594e-02
-3.211994007344026042e-02
-2.882824172028555093e-02
-3.229104133654814995e-02
-4.831611700793696229e-02
-4.444159966935973954e-02
-1.125219880907323694e-02
2.071027202322289762e-02
3.850076365931254241e-02
4.287847596743833006e-02
4.258818511599640061e-02
6.963993546659404121e-02
1.091136252764933756e-01
8.958751594813126051e-02
1.715036816177799989e-02
-2.183073028355848530e-02
-1.202211548894603285e-02
-4.704976258203976899e-03
-1.399944789067796881e-02
-3.582519397176982257e-02
-6.809241501117803408e-02
-8.530144448307104554e-02
-7.127594948981874623e-02
-3.189797482837618270e-02
2.340627293708266027e-02
7.692569595956413875e-02
1.158435558569760743e-01
1.176795604245282623e-01
4.721553949592494775e-02
-4.916158396847761236e-02
-9.276937561993642278e-02
-1.232833569272299701e-01
-1.376495632008731262e-01
-3.515831418427758231e-02
6.797887779865688374e-02
8.046355900069013939e-03
-7.246388948663844143e-02
-4.639729229203318206e-02
1.671972567926908928e-03
3.385225511932790643e-02
5.947940034956414324e-02
5.865530060404482854e-02
5.467002786468116993e-02
6.870515347597243305e-02
7.135446637758786903e-02
4.567315235345366375e-02
6.841455837158050106e-03
-1.795111496146489100e-02
-4.320691654802562634e-03
2.048410268603505224e-02
5.877265146863817555e-03
-2.404191930403066016e-02
-2.867235277458578604e-02
-2.886876972998825980e-02
-2.382113627927699012e-02
-1.546355238640585716e-03
-7.965065746499319296e-03
-4.142065675724256046e-02
-3.975465112848826366e-02
-2.505555917814003206e-02
-4.207953635176945456e-02
-2.458646812641030605e-02
5.843666816920772833e-02
8.587688019487320357e-02
4.377277252130370999e-03
-7.970663717002622606e-02
-1.049294603858491881e-01
-7.922862648320824763e-02
-5.533294824062602243e-03
5.731684697824689090e-02
6.083823450798989119e-02
5.661815148425929783e-02
6.791241564479212622e-02
5.334348369082630992e-02
3.005985011796228484e-02
2.266682130260271044e-02
-2.556896727513058298e-02
-1.191898642947936543e-01
-1.285943513057765109e-01
-2.119656531703463520e-02
1.101536925325011414e-02
-8.815802684457905991e-02
-8.422004314373518485e-02
1.011497810697250255e-01
2.647631690632378798e-01
2.920038708607896605e-01
2.284114903672938290e-01
1.177369433363356088e-01
-1.840238699739309841e-02
-1.526209925524179001e-01
-2.039974885648070113e-01
-1.194963949086630117e-01
-5.152324349179138868e-02
-1.179776490178665038e-01
-1.610464538750679131e-01
-9.444544203145216477e-02
-3.048509630900179262e-02
1.004229842527282549e-02
5.916592678267859617e-02
7.561075312746792787e-02
4.538092208881061573e-02
7.091760780822296481e-03
-6.090144793105179213e-03
-3.260997226801022261e-03
-2.283538873899936678e-02
-4.522688583876821600e-02
-1.345891960810745996e-02
4.602470647431089468e-02
6.565213224345277376e-02
4.636426370720632406e-02
3.188089125567186710e-02
6.162674739794632428e-02
1.299599551748366888e-01
1.443377733079949654e-01
4.484325379356018243e-02
-6.988676053296664914e-02
-9.176989686980030481e-02
-7.596749583054046573e-02
-1.064803803926816506e-01
-1.320640372333765911e-01
-9.843161822738183409e-02
-6.068036377992386265e-02
-3.770071772618412143e-02
1.674690432868936735e-02
6.970813087159320742e-02
7.189447010943467165e-02
6.728129530185554541e-02
8.071152129544514886e-02
7.768201152613163352e-02
5.696808352607637266e-02
3.602648824972522895e-02
2.224107362412206315e-02
2.554828760741822968e-02
3.579049846682160613e-02
2.588068367733695890e-02
-2.400058097963360740e-02
-1.017650616862223883e-01
-1.434460935022790484e-01
-1.048811148676921934e-01
-3.936418123707535049e-02
-1.094836641400379063e-03
5.759023893152126483e-02
1.479772809368390951e-01
1.559232895768990768e-01
4.807606820483380228e-02
-6.378065797108851964e-02
-1.261496977224056404e-01
-1.581138625298423028e-01
-1.436065398601924226e-01
-9.647354597182941638e-02
-7.084252175515595717e-02
-4.714201088500841880e-02
-1.167782039335048781e-02
-4.429017995902810589e-02
-6.886987997889439106e-02
1.000016675932746263e-01
2.457907714372808972e-01
6.304483506693212003e-02
-1.364615934086688132e-01
-1.554935386334337089e-02
1.396419375791331241e-01
8.677019044556617822e-02
1.136348961400665894e-02
1.731123043218668264e-02
-3.473714420999928637e-04
-4.286222227853185573e-02
-2.722146464128550117e-02
1.178924239765231224e-02
1.573827527747477875e-02
3.200345123429691047e-02
8.340802602916044806e-02
1.217830178379914474e-01
1.494826320294187216e-01
1.830855196624885939e-01
1.715132936683845255e-01
9.488942087797475056e-02
2.513150427320625518e-02
6.905975499613286467e-03
-1.531931859310818600e-02
-7.979139731794661350e-02
-1.202683125879851211e-01
-1.026853752985999318e-01
-1.007165184967303284e-01
-1.349064280761392565e-01
-1.361733630367849279e-01
-1.037301040037360012e-01
-1.026373456085406949e-01
-1.304439754144754993e-01
-1.286014446119510268e-01
-8.994088312549908260e-02
-5.914972855547915437e-02
-4.295518784912252808e-02
-3.938350773000047489e-02
-9.259107027275666202e-02
-1.252551186791037163e-01
8.308955637510054976e-03
1.637588410943171535e-01
1.424834449251687618e-01
1.085851374756740262e-01
2.041837361311889532e-01
2.706219723355092754e-01
2.140736858896861716e-01
1.090022774261322214e-01
2.291019953629440387e-02
-2.125451171335576706e-02
-5.827685070676572737e-02
-1.028218277037263872e-01
-1.020314703381105664e-01
-7.476944413761449360e-02
-8.281498253311171676e-02
-9.403824297951313138e-02
-7.766118131672497538e-02
-6.905530084928604428e-02
-5.743154257310136013e-02
-5.788200007800803695e-03
4.945456581918113853e-02
6.805522212913343860e-02
6.985023566227918645e-02
6.155780021551571224e-02
3.471215918989977584e-02
2.115848438750872820e-02
3.443715338219168615e-02
3.961241419990304408e-02
3.652152848754568887e-02
4.547202446425719496e-02
3.923944594375314981e-02
1.569070174526309563e-02
2.766520169419643682e-02
5.977204911447502045e-02
3.638465172613970094e-02
-2.229177998988991771e-02
-2.870480265691043031e-02
-4.545193014130258918e-03
-2.399993114662042279e-02
-2.661436071435525907e-02
1.139971491527510053e-02
-8.766482532231757718e-02
-2.923514776661700343e-01
-2.733498735811719094e-01
-3.659849925445241708e-02
9.980819318354727798e-02
1.044935452672905440e-01
9.397080858275172477e-02
6.691948785566084745e-02
9.568398213110969330e-02
1.357203830863948080e-01
-2.962636880510426465e-02
-1.947040772574196721e-01
-1.688748229141600471e-02
1.942792420220720295e-01
7.709511472312766123e-02
-1.078757816116479445e-01
-1.099427022286431355e-01
-5.991882413553806241e-02
-5.412137717685550770e-02
-2.417085295080354662e-02
6.754992429197383130e-02
1.598244686903918521e-01
1.689704384594373221e-01
8.711004814465038437e-02
-2.191874279334859316e-02
-1.050066538667882715e-01
-1.395974925867438099e-01
-1.189073374086757895e-01
-7.175820015279180120e-02
-3.603183276238636212e-02
-1.630022356701398695e-02
-1.564870067828890224e-02
-3.071317482410422864e-02
-2.461152316977671325e-02
1.114283160749224288e-02
5.151271274396503758e-02
9.554494543574304499e-02
1.250049951766077083e-01
9.620058024179098388e-02
3.449445688471387134e-02
8.659160992571527521e-03
3.424210998465052405e-03
-2.754854591401563468e-02
-2.756433331795810765e-02
3.703758027369259687e-02
6.133770617935384306e-02
1.267310889643886475e-02
-1.359665914454162572e-02
-1.285233324357555953e-02
-4.231921059062125623e-02
-7.513182785330958791e-02
-7.299587326014210509e-02
-4.792239174369521126e-02
-1.686694742817268500e-02
-4.520002513015938285e-03
-3.355318801114481886e-02
-6.730570690955928193e-02
-4.763117541135043764e-02
1.114956209674280475e-02
4.338036816685540004e-02
3.069186119886805134e-02
2.029124302918128286e-02
4.365218053697417916e-02
7.415047244260836168e-02
8.381143098752419363e-02
7.224407309588330717e-02
3.931731451426657975e-02
1.097013215049562340e-03
-7.965186667676139171e-03
1.004648986286093768e-02
1.973435498350496059e-02
-9.541785190314800921e-04
-4.966600819881906992e-02
-9.337632889364731736e-02
-9.658207629480518308e-02
-7.427667118773181865e-02
-4.652231513425492127e-02
1.608761860073183725e-02
1.027324042886217925e-01
1.251666982386960281e-01
7.211921768145022893e-02
3.620785390909927320e-02
2.664442956950641150e-02
-3.144406697861183014e-02
-1.129641381461790328e-01
-1.236838413215223947e-01
-7.673543600902731077e-02
-5.385911975144849068e-02
-4.970912758489810096e-02
-2.329524835395276744e-02
-5.982973161634895509e-03
-1.687889908727155386e-02
-3.572859065170890663e-03
4.661035586127228181e-02
7.048875222777790939e-02
5.163582675971115088e-02
4.434319778745867552e-02
5.412728032903135061e-02
3.363977815799910898e-02
-1.374498911935504060e-02
-2.693324901955472528e-02
1.834087946342580211e-02
5.814042188070144695e-02
3.806529167306344635e-02
2.581155296889167672e-03
2.311362494983012009e-03
9.633758729970340329e-03
-6.831385221138583722e-03
-2.101652657829658141e-02
-9.530823643977420767e-03
-2.270009233035080731e-04
-2.008111106458310147e-02
-5.107220908854111230e-02
-6.106063630170714684e-02
-3.987659303707418584e-02
-6.726661393755233379e-03
5.704557325177384008e-03
-1.384124101762271297e-02
-3.341523189482273337e-02
-1.038278884352831014e-02
4.466488851537266797e-02
7.682128683298963812e-02
6.331708416264453243e-02
3.646379316997822723e-02
3.491434955466217460e-02
4.589524432857098463e-02
2.582699042924874872e-02
-7.446133309148759288e-03
-4.828917155464906852e-03
9.069786476373072753e-03
-6.903931363983475608e-03
-4.131441284676289072e-02
-7.442046786162687111e-02
-7.872213186750184888e-02
-3.089208922169395591e-02
4.022894014680804958e-02
9.587793898043589502e-02
1.240454414329353605e-01
1.046348129970447183e-01
3.278157117389011999e-02
-2.735201224497633976e-02
-2.879614224591228386e-02
-3.619111269247725360e-02
-9.887461208378736655e-02
-1.527471186405058856e-01
-1.549768880059773091e-01
-1.494982523696374022e-01
-1.571036158377348557e-01
-1.320832673740833796e-01
-4.755116354987768551e-02
4.593359566665473903e-02
9.338069694598927217e-02
1.137853637423435205e-01
1.355247017854364078e-01
1.368178899811529625e-01
1.065376039528343199e-01
5.260540349164079255e-02
-3.248132536571726736e-02
-1.082754550183078757e-01
-9.486931657626976322e-02
7.225776605007047659e-04
9.577594562940047740e-02
1.491554563817356349e-01
1.712737891730806428e-01
1.709256390097982359e-01
1.402820537981953053e-01
6.262580644402106211e-02
-4.710068246779411383e-02
-1.200059699628894250e-01
-1.173137428777385194e-01
-8.289261611608063351e-02
-7.478520266941254824e-02
-1.130262180661399940e-01
-1.537608782373903193e-01
-1.269732557442152521e-01
-7.860735017002423719e-02
-9.161640482889266135e-02
-5.571767145175577501e-02
1.180582845975557682e-01
2.185263880863440866e-01
1.130026404973892840e-01
5.387238620351023077e-03
-6.799241711232450677e-03
-4.840973108982658812e-02
-6.041457964090028721e-02
8.812049480702792426e-02
2.150913468773438253e-01
1.150597248488062774e-01
-5.756635746161603562e-02
-9.880035557486416264e-02
-7.699780682894656614e-02
-1.034447501483035103e-01
-8.174706843819067037e-02
8.282083791876408696e-02
2.319808905190504089e-01
2.158928479907825104e-01
1.192337400034912676e-01
1.671224705253617632e-02
-9.979121122163889246e-02
-1.755114630563473777e-01
-1.695088910903788659e-01
-1.295437077775324908e-01
-1.048456922297124894e-01
-8.611052811393028750e-02
-4.812912877179136018e-02
-9.613440725614784410e-03
3.451660115340662860e-05
-8.918038772314080403e-03
-9.460382465048882902e-03
1.084794338029205704e-02
3.754079535951458657e-02
4.080058385643898361e-02
2.873072167985590841e-02
5.001799144944062137e-02
9.632297903212201640e-02
9.773461262515696635e-02
4.894398169533867304e-02
4.887807870018626676e-03
-1.632483426377090777e-02
-2.437468404755709431e-02
-2.740256146468117091e-02
-3.397782978001227805e-02
-3.315266274259805190e-02
-8.084936600983456609e-03
1.603656154818480783e-02
8.482311408663945757e-03
-5.829348380548677461e-03
-1.112218985712516359e-02
-3.198204521261871491e-02
-5.116618313760473713e-02
-3.898329155560103371e-02
-2.194966155716086484e-02
-2.518275101150665649e-02
-4.102383909039281767e-02
-5.219087114221503121e-02
-2.941343173032876651e-02
2.326037263966738988e-02
4.924334468340737375e-02
3.577941191463726578e-02
4.248620007813833782e-02
9.377469355925881211e-02
1.326719998177547655e-01
1.265593999205295861e-01
1.338968762341274099e-01
1.792274701141027271e-01
1.806038296865842829e-01
1.035010146970402889e-01
2.250587403856497276e-02
-2.256933983702077984e-02
-5.490737875669784995e-02
-6.943897644652488599e-02
-4.929227114453477165e-02
-1.710138316782863765e-02
-1.201912882469241030e-02
-5.044788740949562866e-02
-1.297916153848457099e-01
-2.324930805570896986e-01
-2.726063732036193565e-01
-1.848434744956089226e-01
-1.010872796539906138e-01
-1.463042140875684405e-01
-1.993140587346629578e-01
-1.493785397495113187e-01
-7.403673760243334456e-02
-3.713538799190164302e-02
-4.938681358342709993e-03
4.898934164868111452e-02
1.025314515287858302e-01
1.350843825048557156e-01
1.635694629372176911e-01
1.931792405314948780e-01
1.821448027370680400e-01
1.287026761001830166e-01
1.087743300688035347e-01
1.357989476556495378e-01
1.289150447828558144e-01
8.516446946143949037e-02
7.109581836257622411e-02
6.020343960751504270e-02
6.626708007309561194e-03
-3.942307393644090691e-02
-4.762879020979800954e-02
-6.013496400222017452e-02
-7.468687091479339624e-02
-5.108439788261100178e-02
-2.731996855725882592e-02
-4.734545699515491785e-02
-5.138937031615195550e-02
-5.301688689132340315e-02
-1.475920760626683870e-01
-2.133071726991615513e-01
-1.065497694878667356e-01
1.509133162669071618e-02
3.297086990611870772e-02
5.342926877713802258e-02
1.000169144255563247e-01
1.030070720007315449e-01
7.658558596652201289e-02
6.111655682823492058e-02
5.213607953671534762e-02
3.809446905692781549e-02
2.343375874829465785e-02
1.239560711088055073e-02
-1.144013861601809838e-02
-6.601080115255134051e-02
-1.172854972542702046e-01
-1.094921281729193396e-01
-5.985410825192537254e-02
-1.601878738038464700e-02
4.193070228139667011e-02
1.210528022245712931e-01
1.428573696647647273e-01
7.903319407542026831e-02
6.355329308215050543e-03
-3.564994914164970607e-02
-6.598180707018398705e-02
-7.718207874769666965e-02
-7.052746720430860816e-02
-6.570534838965753910e-02
-3.918986040951812078e-02
6.501508557193723045e-03
4.809719978468239218e-03
-2.943266722169775307e-02
-7.162009882570817207e-03
4.856186460129648802e-02
4.681638617696307070e-02
1.388491757195760637e-02
2.729361399326865611e-02
4.835074580997576060e-02
9.002990760456392946e-03
-4.265406469996689542e-02
-4.029437465050034195e-02
-5.954228209663320337e-03
1.539717518419267926e-02
1.317771934468527431e-02
1.105621341236276076e-02
3.155026599881695371e-02
4.508575342241231271e-02
1.335553263654380186e-02
-3.309220841854629280e-02
-3.714231436582204893e-02
-1.174380863736021290e-02
-7.846378576626133333e-03
-1.502703429976929260e-02
-1.226725965179368411e-03
1.302385796449445632e-02
3.567170104496824971e-03
-1.102462626622344177e-02
-4.616849929386149763e-03
1.028628158934048048e-02
6.563555924033239244e-03
1.323388970365601061e-02
6.342547220242870931e-02
9.504062214224016925e-02
5.776910682810783987e-02
2.094940602862190374e-02
2.760486324134937483e-02
1.593186240828311021e-02
-3.070251189260685132e-02
-5.743286203230757447e-02
-6.412357231119891754e-02
-8.246831074843548326e-02
-9.094820934530298273e-02
-7.458479596246117560e-02
-6.615325182656152381e-02
-6.573295633688726325e-02
-2.218282232689553629e-02
7.368104554453791533e-02
1.485628432784705799e-01
1.379066308055774126e-01
6.603102355232420839e-02
-3.250262751721256713e-03
-3.807198185943155844e-02
-4.848900806480765935e-02
-6.138881570758223521e-02
-7.097811212607747777e-02
-4.830791127894781128e-02
-1.237975017963593126e-02
1.593254220909489163e-03
9.326856348281271566e-03
2.688622125190326395e-02
3.940539802316717771e-02
3.662093096005089587e-02
1.864852256480321185e-02
5.622303350694567506e-03
1.576793034400341895e-02
2.663997199263361260e-02
1.773833217272366425e-02
-9.195765649555509916e-03
-4.291333529107617395e-02
-4.177367744574553982e-02
3.835441095231829564e-03
2.888070491485426189e-02
1.674881093933756546e-02
2.732065184095799210e-02
5.345736912863073564e-02
2.125665280255045059e-02
-4.975525769498652384e-02
-5.846261207955980727e-02
-6.753777667569571541e-03
1.936659305477019324e-02
1.831856866571953193e-02
2.321110980496845014e-02
1.880340704220463720e-03
-5.926776999588802969e-02
-1.069901934876620192e-01
-9.683636814063839582e-02
-4.741830685516103261e-02
-1.041279688848029822e-03
4.241324599545015506e-02
9.136186831198947478e-02
1.162286060566223023e-01
1.035169514564502902e-01
7.337520279329161343e-02
3.122069896094751065e-02
-1.788505974130090437e-02
-4.108987284577644838e-02
-2.621946052938757543e-02
-7.540676877847268464e-03
-1.897649536084537736e-02
-6.613486361657407164e-02
-1.129356541330060332e-01
-9.813236555984353182e-02
-2.534233628714794434e-02
4.324102676665862732e-02
9.927452835566714928e-02
1.519634422180865529e-01
1.453176803259177141e-01
5.533786148622065609e-02
-4.244333787853489526e-02
-8.170221116526893423e-02
-7.471229468921040950e-02
-6.345785582383663137e-02
-7.004164236963947299e-02
-8.134751870050914435e-02
-7.457591999593900234e-02
-5.896965283473629832e-02
-4.928522687100894695e-02
-2.460384388392920785e-02
3.281041222217654513e-02
9.469088791569306440e-02
1.143195964753231236e-01
7.766264198475889002e-02
1.685092034110759196e-02
-1.982011051877421645e-02
-8.664653275024879198e-03
2.473402939034446274e-02
3.613116319282737299e-02
3.068983207212990297e-02
4.582997214986061357e-02
7.305761707644124747e-02
7.356434737555166137e-02
3.546151993650602241e-02
-1.928818456402456305e-02
-4.928915964865298455e-02
-4.697004253393769618e-02
-4.413383620045257388e-02
-3.612017863463511114e-02
-1.103564609709462192e-02
-3.251853103225497022e-03
-2.505182031706237530e-02
-5.080522499262836444e-02
-7.493946298204638701e-02
-9.701798221810532807e-02
-9.092257633253512938e-02
-5.976255812603347567e-02
-4.840181369177586762e-02
-6.863672542899707310e-03
1.390199959189987733e-01
2.320793080576286915e-01
1.239420546755977126e-01
-1.186939779463765804e-02
-2.458794426561997787e-02
-1.402688522276977767e-03
-4.489386540503827183e-05
-4.046652195501557192e-03
-2.645088527825311536e-02
-6.782444144287400056e-02
-1.099453419149327565e-01
-1.343298473479269117e-01
-1.078066293579868912e-01
-2.536140143733960767e-02
5.632206508826809871e-02
1.020992946722420885e-01
1.426355287741744304e-01
1.628269049099684007e-01
9.326832126221337727e-02
-2.854706980220594881e-02
-8.342552693189653201e-02
-6.217210882150756013e-02
-4.592670722678640627e-02
-5.563535975154351720e-02
-6.683912116246366886e-02
-7.490877191680835046e-02
-6.096514025579426871e-02
-6.767857041531322171e-03
5.684557189560666968e-02
1.126369202247151785e-01
1.818399983396467579e-01
2.424794042235454417e-01
2.431086755724271298e-01
2.110874620428793147e-01
2.091226274100401461e-01
1.526043649806513580e-01
-5.794478992530364969e-02
-2.235973726527099026e-01
-1.496366510668478700e-01
-4.561320571039483018e-02
-1.010392913859124442e-01
-1.721229341421790238e-01
-1.752043623705478448e-01
-1.932753686497578061e-01
-2.201250237877614979e-01
-2.019749265839290431e-01
-1.589387075402443061e-01
-1.250188480382588563e-01
-9.304361360405455361e-02
-4.429963455581743120e-02
-2.704843812851874529e-03
6.095319083978416319e-03
2.653886421543578955e-02
8.353968759228562468e-02
1.236827445292609517e-01
1.300682940069976257e-01
1.362667944269570774e-01
1.513228185556456662e-01
1.763832993377996428e-01
1.903849997190677767e-01
1.534321158563357046e-01
1.017395196997649409e-01
9.324045835404812244e-02
8.418464938248931828e-02
2.182173453392522583e-02
-4.604857276912548147e-02
-7.155744196617190578e-02
-9.191307890714991990e-02
-1.392129000811702377e-01
-1.709389154378347653e-01
-1.468176663126561088e-01
-9.207138852960175535e-02
-3.105079646644411454e-02
4.929146488876966214e-02
1.125199402673444649e-01
9.371645482081575329e-02
3.497266681548075878e-02
-6.974176115883554822e-03
-7.717286853098954957e-02
-1.190298181574038217e-01
-8.736668737628574058e-03
1.038706195505908619e-01
2.894449827702569658e-02
-8.117181108741262918e-02
-5.996934186760759233e-02
-2.252971975612323013e-04
7.698089505150330393e-03
-2.797546813830814084e-03
-1.943587945252836166e-03
1.062668430207838743e-02
3.166380625921830921e-02
4.120251531104462961e-02
2.854463057276985724e-02
6.605533589259458306e-03
-2.086046646008234140e-02
-3.728675703661586682e-02
-8.215704635130572156e-03
4.110032893816590455e-02
4.604063750243182068e-02
1.148377819317916715e-02
-8.179109250607070197e-03
7.989941659142414665e-05
1.111773204440074866e-02
7.973180188141686109e-03
-5.833533973199645992e-03
-1.813743447006772869e-02
-3.636159801637049022e-02
-7.406229264506976329e-02
-6.940936753536908199e-02
3.211261977256966993e-02
1.026396105029644262e-01
3.700411744484620458e-02
-3.729455947387785159e-02
-3.085637977883862876e-02
-9.818182932370944291e-03
6.319183311457213237e-03
3.400886251927871112e-02
5.025012908565210101e-02
4.789933468122205273e-02
3.479353957260108987e-02
6.192561154227389612e-03
-2.963014132488012847e-02
-4.524797233072045538e-02
-3.120510242649738447e-02
-9.332322232172677451e-03
-2.701334317997609695e-03
-1.467410308959594956e-02
-3.280670994729472517e-02
-4.194834874802962771e-02
-2.169676087558639055e-02
4.695501252007444615e-02
1.307944447301621904e-01
1.720442248382726136e-01
1.679632082835257334e-01
9.576479410984645169e-02
-8.169126278414783060e-02
-2.227657140861972196e-01
-1.722188283881105064e-01
-6.406166488761093347e-02
-6.492782146425114809e-02
-1.000024789885829296e-01
-7.817739974682118287e-02
-4.504766463437372831e-02
-3.688393418103127347e-02
-1.432874082721502171e-02
2.952759636003682298e-02
4.250409339713390883e-02
2.599482685173615595e-02
3.128556462059307874e-02
5.654036318905886899e-02
6.611116874746465755e-02
5.482065859373096151e-02
3.527325842538789336e-02
2.399188553619328174e-02
5.326490105368930639e-02
1.057741709046372686e-01
8.471083799778805767e-02
8.468178294038355980e-03
2.302572360710227611e-02
5.034022352718152404e-02
-9.096034041501786793e-02
-2.118637131947968544e-01
-9.695549557042551503e-02
3.747661861141156348e-02
2.768509410309279509e-02
1.325965252077214787e-02
2.178695335591096169e-02
-1.213859272685742334e-02
-3.166834397636009851e-02
-2.208249776948906923e-02
-4.483014106363018142e-02
-6.075562830622271288e-02
4.518219810951559778e-03
9.998204103469729431e-02
1.365404712798862774e-01
1.166543004976960535e-01
7.524861534492435777e-02
2.335102824761389403e-02
-2.864934859720371513e-02
-6.361201900864188463e-02
-5.802142439550438124e-02
-1.944241419195900586e-02
9.437877081078282007e-05
-2.355993357294113022e-02
-7.597317556286027618e-02
-1.359610022753341974e-01
-1.568181122069972344e-01
-1.022178106070500136e-01
8.475281782409986933e-03
1.328188800827962701e-01
2.066016116548120563e-01
1.691010221318886564e-01
7.082608015013698577e-02
1.520221384116872930e-02
-1.502807677793206904e-02
-7.623420460904135887e-02
-1.192395098228192091e-01
-1.243832300522429990e-01
-1.717860006112860993e-01
-2.450258697856436962e-01
-2.210722629898227709e-01
-9.080481677904743421e-02
5.001741871582719018e-02
1.599124350930649918e-01
2.331953599253546727e-01
2.583623282562506063e-01
2.513818112092634505e-01
2.207259446598913710e-01
1.413146903989272452e-01
3.184998899213628554e-03
-1.400045473805414109e-01
-1.766789136398455862e-01
-7.250734176016099264e-02
4.651296177283062439e-02
8.127035365633825115e-02
7.481432533093439197e-02
5.662556218906801553e-02
5.913082953591846172e-04
-7.067879759031858722e-02
-1.142713561498737429e-01
-1.282572468720676040e-01
-1.217656273599933003e-01
-8.994560036012300142e-02
-3.745821319663931309e-02
-8.068164933183602505e-04
1.732802633896780853e-03
2.209065860564322567e-03
1.053177194766156954e-03
-2.256484039302474737e-02
-2.589616836291280810e-02
1.464414182074860737e-02
5.613099439704893195e-02
8.363411929092778863e-02
1.012696018038740098e-01
8.976574900956252323e-02
5.312985667514037724e-02
2.461598498325231338e-02
1.494390354226914422e-02
6.021444111845063521e-03
-7.533641263575486732e-03
-9.865447534440130450e-03
-4.680322620028523964e-03
-2.051411741994465729e-02
-4.581485610439356426e-02
-3.562141271750900173e-02
-1.292403625722319573e-02
-9.156107878824801261e-03
3.559880230133081330e-02
1.031630614478890595e-01
6.618509277070211416e-02
-3.630840164857136732e-02
-7.061683519452321978e-02
-7.867794362962704513e-02
-1.167169070369111633e-01
-1.212503448636710890e-01
-9.808486587159959136e-02
-8.887278933615939958e-02
-5.082440457720896476e-02
1.229689907230711865e-02
3.588987313762515008e-02
2.047560518807517091e-02
4.237433104486931779e-03
2.286148670981216768e-03
3.901187378228518354e-03
-5.812758192116134967e-03
-1.123071991247019674e-02
-3.229964334554343095e-03
-1.279289287222876853e-03
6.712943033919539781e-03
4.047235364686577186e-02
6.414124248485257584e-02
5.110156624042169055e-02
3.945360413743648209e-02
5.299647206062628457e-02
5.307553064462949138e-02
1.326287675365587365e-02
-2.106780004513390814e-02
5.773755979157847024e-03
6.875803189057803910e-02
1.058686489381695656e-01
1.255347861402573151e-01
1.644162494441481770e-01
1.873535570570002695e-01
1.672021416963753726e-01
1.579094843900959166e-01
1.238686141258253520e-01
-3.152881432567280345e-02
-1.664158770086830164e-01
-1.098594728442436191e-01
-2.377744246044413701e-02
-7.159351800504543117e-02
-1.462312252833487536e-01
-1.564285852372794827e-01
-1.463497074563503975e-01
-1.582180978622432788e-01
-1.933378032964858106e-01
-2.167352625206015182e-01
-1.934670285581860660e-01
-1.548038394580897870e-01
-1.419689774128937432e-01
-1.265025119109478013e-01
-8.357644811656408934e-02
-3.203525045879694610e-02
4.458321576204773290e-02
1.614608846000451514e-01
2.531495996617073585e-01
2.666323344707626219e-01
2.314791713754418279e-01
1.809543530707061754e-01
1.266451787727912726e-01
8.049746800270177194e-02
4.021880198019872621e-02
1.374493333116522456e-02
3.626492923726645778e-03
-1.105152252569212290e-02
-7.301686943915079719e-03
-6.178283041557798561e-03
-9.644892198653343129e-02
-1.790075519087679090e-01
-1.003009718057885635e-01
1.452085616419516653e-02
2.472787732772113722e-02
2.585794887023802266e-03
-2.656520987523480412e-03
-1.236307357344326903e-02
-1.785508499977353850e-02
-2.094530571453413412e-02
-1.135325257917043501e-02
3.945791609264817645e-02
8.601995714671176185e-02
7.079165414094774900e-02
3.398241536991999240e-02
1.801419830275366105e-02
-1.981189025209832005e-03
-2.528310562322184235e-02
-2.171991108553065694e-02
1.707235100497379171e-03
2.156189414892892287e-02
1.128703951962337602e-02
-4.183297582248515778e-02
-8.731265410335475874e-02
-8.217630788901941763e-02
-6.283420307502468605e-02
-5.358355465739308293e-02
-2.881238550305719945e-02
1.159741615338976892e-02
5.120640737001202342e-02
8.828578532365458087e-02
1.009388787165495516e-01
7.559069468269580261e-02
4.923155914797797128e-02
4.104550666688835947e-02
2.663770664314767805e-02
7.907621619863698659e-03
7.114217094379236134e-04
-1.299564512155007047e-02
-4.330066765399074452e-02
-7.248782816651670735e-02
-9.334245711576000248e-02
-1.015010555025896433e-01
-7.557769140472783698e-02
-5.833899338826488597e-03
7.998926060265301730e-02
1.323401878073529880e-01
1.201559218321448103e-01
6.090172701486288448e-02
-9.916118101574613111e-03
-8.165392734476906167e-02
-1.311889122807218810e-01
-1.194280860430956825e-01
-7.117465849267382016e-02
-4.647035849194217777e-02
-4.636864646422586556e-02
-3.908604711004080856e-02
-1.919983953727046402e-02
6.285625528438547674e-03
3.546927502462032117e-02
6.306621704599445211e-02
8.212974816851276172e-02
8.766870215413086198e-02
8.270669753106456301e-02
7.727517778520685832e-02
6.147457897760891937e-02
2.163097702542311415e-02
-9.983569080552905789e-03
7.444978573666168054e-03
4.747272560954728104e-02
5.136436760561174236e-02
1.417736433006948522e-02
-2.678701394269788344e-02
-4.744602770374314882e-02
-4.389732850084729354e-02
-3.499689310949595511e-02
-4.833340173501494280e-02
-6.678324501307728034e-02
-5.336989166377952010e-02
-3.077544699255564328e-02
-3.794268024344580464e-02
-5.175519502418268747e-02
-4.337948049256706851e-02
-2.843509943004259022e-02
-8.995559577748455174e-03
2.693660653520140238e-02
5.161349722529459672e-02
4.865799924557892564e-02
5.592091148566999403e-02
8.141837063859755363e-02
7.806845979025496540e-02
3.725398834745918819e-02
7.618768248436987717e-03
1.468216608930283419e-02
2.620632293087196696e-02
3.648650081306992199e-03
-3.767245176099973114e-02
-5.558822594304305142e-02
-6.194277560859649812e-02
-8.636500042830680401e-02
-7.873105691936248263e-02
-1.365311849228710919e-03
6.989645399983947238e-02
1.065640313621956103e-01
1.569479063833640331e-01
1.292987125021786143e-01
-5.521087311293317729e-02
-2.025134426306500757e-01
-1.685101392714100921e-01
-7.994459651666234457e-02
-4.103356560791500407e-02
-5.707925755268740409e-02
-7.164316079459800979e-02
2.301969399850946341e-02
1.184241004914739354e-01
4.598369266682947321e-02
-3.053823067237347935e-02
3.715300285133381342e-02
9.608993943798478654e-02
6.073544512737708706e-02
2.854425306991006245e-02
4.791364120290964035e-02
7.416806861086824854e-02
5.392372788662192634e-02
3.323169484945879409e-03
1.953807876717353342e-03
4.613499477586948533e-02
3.979892618180284197e-02
-1.872062960894366190e-02
-4.827421378225072585e-02
-4.975958184707249266e-02
-5.944168057962595508e-02
-5.458518919301093980e-02
-2.828115812293120063e-02
-1.746380368103038136e-02
-2.569470953544074343e-02
-2.613239540648445644e-02
-2.410559239678027391e-02
-3.855486208226602263e-02
-4.785070630833901384e-02
-3.741989125179725345e-02
-3.712224310774575597e-02
-4.273721586975066933e-02
-3.346385902047847860e-02
-3.480766698229093015e-02
-2.442431319631595266e-02
6.124334346518039984e-02
1.655644185945678859e-01
1.561118755686911053e-01
2.618820198053717352e-02
-8.812188605585835610e-02
-8.918781044878665298e-02
-2.336634070228824425e-02
2.596468562230597188e-02
5.850258722916842902e-02
9.690367497852464540e-02
1.054701766066644536e-01
6.258817905722480202e-02
1.320315104372942611e-02
-1.034630592560679962e-02
-1.026497623939505791e-02
2.368120859949175705e-02
7.205624171315913595e-02
6.925752762365137982e-02
1.511260056030901307e-02
-2.150980054184613646e-02
-3.696191159492639988e-02
-7.132448749043236724e-02
-1.066174660128439283e-01
-1.201633537573863625e-01
-1.313691256529988804e-01
-1.423218573492764649e-01
-1.289872715560916594e-01
-8.081095470880096665e-02
-8.965368982648515978e-03
5.770792437673781528e-02
8.685245694160534380e-02
7.006464055782868350e-02
3.361560698849927475e-02
1.560315518962971347e-02
1.664658559331594345e-02
9.512727953512331927e-04
-1.489962618997992157e-02
2.325259041058179432e-02
7.986405433983005675e-02
1.172094045228525561e-01
1.835871571914143019e-01
2.099421414197152613e-01
9.100835516601532560e-02
-3.406698266994385299e-02
-3.955349347606948451e-02
-4.325544099950091870e-02
-1.019400790488149688e-01
-1.148145874383043746e-01
-8.086305662253109872e-02
-9.034883523900279212e-02
-1.201718924778680392e-01
-9.294401275404819140e-02
-3.417465641167492796e-02
7.444288476949762964e-03
5.055108859177152858e-02
8.764206113433943568e-02
7.522618213693146871e-02
5.191280541702021634e-02
7.351228398389909879e-02
7.633320954850435214e-02
1.634475916577595930e-02
-1.546998057669328464e-02
-3.283540409840281227e-04
-2.647990020540483616e-02
-5.756401249386572383e-02
-2.250306467359291726e-02
-1.247979232932973533e-02
-8.827648164371236505e-02
-1.544957256112718669e-01
-1.549441868811832768e-01
-1.138122399451369782e-01
-3.959427776672846955e-02
3.768662752610736633e-02
8.487965102024529196e-02
1.222552338349944534e-01
1.264590701515349580e-01
4.892709756253396658e-02
-3.192093778648973784e-02
-3.310295966829514269e-02
-2.013105987771760322e-02
-4.150959840015366192e-02
-5.147425928165107883e-02
-4.106403269600612110e-02
-2.297455003514670829e-02
2.758371734884457888e-02
1.041725441241020816e-01
1.626990118217611081e-01
1.921998792787897314e-01
2.142378426738031916e-01
2.367951151514435248e-01
2.267486989334676906e-01
1.598823625754699218e-01
8.453272517966375910e-02
3.199875204989570399e-02
-3.829911549780458391e-02
-1.218964862762394463e-01
-1.727571029248753942e-01
-1.988160687491877521e-01
-2.197235343298722665e-01
-2.265427698420622582e-01
-2.185703936528961278e-01
-2.092566557486238987e-01
-2.010947088245731984e-01
-1.785163290383420254e-01
-1.348279452173763160e-01
-8.297833652972910756e-02
-3.127418213403110325e-02
1.403687375678562554e-02
3.794336717004367227e-02
4.445552119013421177e-02
5.832365001897708845e-02
8.018649274106236235e-02
9.726765080318383605e-02
1.219903792162897876e-01
1.588878403261586025e-01
1.852818928848299629e-01
1.908396759501258810e-01
1.843255156296329522e-01
1.667091510509483010e-01
1.264598265186109849e-01
6.932060792650089620e-02
2.568785794481940471e-02
3.723915063731007835e-03
-2.048737938464398334e-02
-6.553521656412554519e-02
-1.350852749661799468e-01
-2.013571432797814920e-01
-2.084716047988637577e-01
-1.551485241443527618e-01
-9.285329993989817343e-02
-2.032859821423364105e-02
7.594505692416866904e-02
1.330271226499416537e-01
1.063292999781063897e-01
4.415189005706101483e-02
-2.803475372971727872e-03
-4.198861130945747561e-02
-8.916002823498161978e-02
-1.157782090197488206e-01
-9.018123337681231699e-02
-4.414951459190306904e-02
-1.862130509981005030e-02
-2.436996492763807490e-03
1.061231783026529187e-02
1.052182900051450674e-02
1.883776963356486450e-02
5.258638678539039046e-02
8.402008047928591350e-02
7.928727228035509222e-02
4.959955094018834304e-02
3.526951844229343769e-02
3.564245422766334354e-02
2.563769688537112512e-02
2.535561661799722727e-02
5.285503639764883854e-02
7.602699221887709857e-02
6.818739685301911102e-02
4.727413054459414510e-02
4.404321253137255532e-02
6.643425473847941465e-03
-1.266322162222304204e-01
-2.090521636985637755e-01
-1.057913901848113597e-01
6.328359669398132825e-03
-1.898646730144913988e-02
-5.522527110057172395e-02
-3.200071479359900550e-02
-3.654985799357471365e-02
-7.029656678490876776e-02
-5.339992507527413501e-02
1.673530436506967187e-03
2.993269746178773769e-02
3.059248470700479117e-02
3.146923344794907984e-02
3.725561602948702228e-02
4.558966459556610534e-02
4.226709931987867458e-02
1.905884571547978440e-02
-1.503635990257222704e-03
-1.461611239350641203e-02
-2.147205503291743992e-02
-4.987068451959205187e-03
-5.785408798405011939e-03
-2.637519977411440300e-02
3.319078263340476120e-02
1.056195407983047257e-01
3.247490045248945661e-02
-5.528135259458936274e-02
2.607774730425972687e-02
1.461583599795694410e-01
1.429475003206146511e-01
8.866099068178963372e-02
6.031758505641653806e-02
5.163933563385349548e-03
-8.405637002514788902e-02
-1.330932675491522943e-01
-1.268877647126561425e-01
-1.135172258237500953e-01
-1.063178593882071199e-01
-8.679858514416610715e-02
-6.398171839836348795e-02
-5.175148282225096319e-02
-3.218102158099188370e-02
-1.161685308696354044e-03
2.292077013928002852e-02
4.460733812509559693e-02
6.040184398526322190e-02
5.349972905010744878e-02
4.128918610313022514e-02
2.470396396956413276e-02
-1.482317078558333286e-02
-2.671767100877036824e-02
2.783249734767843236e-02
7.168452465540296747e-02
5.241929620399431167e-02
2.865334598638125813e-02
2.339495481785710401e-02
-3.327262154677471453e-04
-2.048097672333192704e-02
-3.151514026444961897e-03
8.441382872368279056e-03
-1.418156182370684977e-02
-2.263551740756039946e-02
-1.124667062976468339e-02
-3.300434091426569100e-02
-6.052338689139397793e-02
-3.624614768839994755e-02
2.177270978076885789e-03
1.194628153583128689e-02
1.832660220134117030e-02
3.978578873846584651e-02
6.444790352526424959e-02
7.859365668950384076e-02
7.169449586005963160e-02
4.720713030614383243e-02
1.679750729400618717e-02
-6.571322955234357860e-03
-4.103448474689000772e-03
-1.353719258606743414e-03
-3.541256957149577916e-02
-5.256153337448171009e-02
-3.466870861242540153e-02
-6.625088079240910865e-02
-1.149656346396388112e-01
-7.675799045969738943e-02
3.911756348843514579e-03
5.978516728404299763e-02
1.096524845000393239e-01
1.377758993340386096e-01
1.049967561299826047e-01
2.183053197442570703e-02
-7.058075922109662004e-02
-1.168338613619097355e-01
-9.795566306823286218e-02
-5.878308488203623505e-02
-3.082490420409255208e-02
-3.619843391808526267e-02
-1.164149944097490341e-01
-1.827140882489317331e-01
-8.919496883563367284e-02
4.151321752041370328e-02
2.926738119058589632e-02
-6.156118710826437995e-03
4.716780898257481869e-02
9.361194860188896960e-02
9.607954646671082455e-02
8.473118207762138365e-02
4.752944503145269811e-02
1.802800235214054025e-02
4.071288959839175492e-02
6.193648581081073745e-02
3.393635132052016945e-02
9.056356199796881945e-03
1.577200493515975438e-03
-4.143330561101640080e-02
-7.394755460244013812e-02
-2.113269429693639262e-02
6.476613215496809794e-02
1.287540334499963079e-01
1.786798798737205263e-01
1.694039212005876427e-01
6.647851708742727461e-02
-4.737502513953874977e-02
-9.751701869781179144e-02
-1.153178869606533152e-01
-1.370977944561173056e-01
-1.409212760069916970e-01
-1.006993996630529548e-01
-2.579778162779447839e-02
3.763541596605014111e-02
5.097217332247985788e-02
3.260339590657246323e-02
9.431527989846611240e-03
-2.747057275856707240e-02
-6.553119813216740086e-02
-5.820839595408685424e-02
-8.357411864031433560e-03
2.265699688448893218e-02
1.021136704938502976e-02
-2.262118758676595273e-02
-6.236641510855252951e-02
-7.845533573072464850e-02
-4.059861324513705516e-02
1.291679844514895779e-02
6.320304934926183893e-02
1.449070402323013873e-01
1.988475444214093391e-01
1.350792419892757334e-01
2.670917645346682079e-02
-8.330216970360479131e-03
2.309359159397724598e-03
-2.474658013397405820e-02
-8.427306367675453658e-02
-1.137024863444738160e-01
-1.022344108065210422e-01
-9.028662848907038907e-02
-8.658352871036388565e-02
-7.289334534906115326e-02
-3.090480213520893985e-02
5.043248450475340539e-02
1.130209644560323523e-01
1.100427448789459417e-01
1.262057767362985139e-01
1.557241560299028049e-01
4.721388903409873272e-02
-1.058061441250294499e-01
-8.164308414987492268e-02
2.458929535606995190e-02
4.184738443678842623e-02
2.080112610871846096e-02
1.580365160703810570e-02
-3.181759519470393066e-03
-3.158688606001151117e-02
-3.415276552496513546e-02
-8.242711697130474663e-03
-3.402229052889070397e-03
-4.600153207264756627e-02
-9.151494660854153640e-02
-1.147583727053823194e-01
-1.221221405234086954e-01
-9.717751037315000562e-02
-5.689390262548679050e-02
-3.671540572867846436e-02
-1.546494837387523552e-02
1.740836898838016983e-02
2.985334188652767617e-02
2.121658481300721377e-02
2.644033427947162576e-02
6.672739144125966471e-02
1.071791845818131639e-01
9.248817727510189046e-02
5.284968445434616580e-02
4.545026530374839807e-02
3.713681971714118124e-02
4.512261176401025781e-03
-1.334261024737190549e-02
-2.755666523831196493e-02
-5.084682983879429408e-02
-1.957560536774185372e-02
7.282210068008562742e-02
1.469805553731561298e-01
1.976202362894035058e-01
2.743483362612598175e-01
3.312990686257741291e-01
2.794664159182634333e-01
1.443981594674873525e-01
2.844447022283990573e-02
-4.754680107959595448e-02
-1.359886638224801769e-01
-2.337559174463966771e-01
-2.833739818438996139e-01
-2.823172161840116212e-01
-2.874132996931972883e-01
-3.061900687581510239e-01
-2.905495236666877368e-01
-2.394968830187656217e-01
-1.972590305829160784e-01
-1.673702537888505648e-01
-1.157225900246918737e-01
-4.057687794768159717e-02
2.445970531636866563e-02
6.721944751837671816e-02
1.003390626044647904e-01
1.281612100202128013e-01
1.501540523654594783e-01
1.675309786394186817e-01
1.831649877564755502e-01
2.009110764601041987e-01
2.034067089141219642e-01
1.727966140658741545e-01
1.360035863696056890e-01
1.182903466299441153e-01
1.003624364143228670e-01
6.992916255268319392e-02
3.584398638030914658e-02
-2.229017738418027916e-03
-4.174065619852255354e-02
-7.594345675931825357e-02
-1.094413597318144304e-01
-1.318427247453145823e-01
-1.143753170083533638e-01
-7.779085186490666826e-02
-7.853321528430064202e-02
-9.268385241796686658e-02
-5.305868371380385862e-02
1.584508981434464003e-02
4.709093136869012264e-02
3.678038089568626268e-02
2.265393128775086348e-02
3.787838304436073195e-02
7.150743973234982565e-02
6.588842346427048469e-02
1.860426716747693235e-02
3.427167869016428756e-03
2.416930147816503255e-02
-7.416789351647952964e-03
-9.771099423758787539e-02
-1.405769364098212737e-01
-9.377243841577911909e-02
-1.612759880939469356e-02
6.270491562071495162e-02
1.296326085448981646e-01
1.229940511317493546e-01
4.259387162150476969e-02
-3.215155149130942414e-02
-9.226261145721659229e-02
-1.419994566580028150e-01
-1.254471689093819842e-01
-8.650511738217747659e-02
-7.502988085455400413e-02
6.011336802928115425e-03
1.139326816386336816e-01
8.431765198424054364e-02
4.101242779173872727e-03
1.663226607764275305e-02
4.771426516103154103e-02
3.424522874375814097e-02
3.087068184228879825e-02
3.812942796270452073e-02
1.817033987227356737e-03
-2.163256802488012706e-02
4.852256065881090097e-02
1.029129183134713243e-01
4.675555322177721296e-02
-4.549838405786130885e-03
5.951620763332901576e-03
-6.356013543118217701e-03
-5.005001871764400145e-02
-6.425518130977873887e-02
-4.653931819692917055e-02
-3.172229639929059763e-02
-2.942071403675017988e-02
-3.750899025059314940e-02
-4.457751569582867057e-02
-3.267002305741021490e-02
-2.415307558587212119e-02
-3.293123748424957309e-02
-1.674396077421076018e-02
2.730777892496986936e-02
5.410181569844378646e-02
6.397165841789366481e-02
7.615137227745646942e-02
7.976406406680802696e-02
7.227835982885615074e-02
7.738632113669041690e-02
9.782522781091015918e-02
8.176796762466502499e-02
1.661133719094095088e-02
-1.223541995536526518e-02
-1.585303366388518195e-02
-9.946678461881292010e-02
-1.688559886019502243e-01
-1.096216819385225777e-01
-6.971418863182349268e-02
-1.156152395494006307e-01
-1.000014862904179264e-01
-1.591234035793443261e-02
4.147338584488959035e-02
8.696226222475600398e-02
1.236873774301533307e-01
1.064603662611099399e-01
5.425355705312803756e-02
-5.944036048558511143e-03
-7.142055359270829684e-02
-1.062773814522720850e-01
-9.817199116371891354e-02
-8.280081699326412303e-02
-6.568389010029822284e-02
-3.610991008748799802e-02
-1.546392015448565943e-02
-9.966753136647870173e-03
1.594455414831562334e-02
7.212339763658147385e-02
1.136996334626824007e-01
1.113602360561308513e-01
8.986149028694499774e-02
7.569584960665957929e-02
6.051203769380507358e-02
3.478509130483607714e-02
1.725470167936221655e-02
1.988962818435949589e-02
2.094524828194144206e-02
2.480460860944879928e-02
6.195018579824700805e-02
5.141220000718151051e-02
-9.971560089991607367e-02
-2.218600122974477007e-01
-1.391305093631154677e-01
-2.198016413432730617e-02
-3.090067814810504992e-02
-5.477320048135746189e-02
-2.220732871053732876e-02
3.915832061610370618e-03
-1.003227859828976012e-03
-1.162324307100472479e-02
-1.094142933193082562e-02
-6.470653429831447166e-03
-5.096756753634898440e-03
7.084988214833568866e-03
2.893763037686675893e-02
4.719529268538012051e-02
7.225516507311230407e-02
1.061816030474421191e-01
1.095479653170718659e-01
6.128917974501464638e-02
8.187614606580666948e-03
-7.703130771401519791e-03
6.919847457280206560e-04
1.497217016868060413e-02
1.987481629947535772e-02
-1.232446504418875655e-02
-7.478966980567369749e-02
-1.004701236473077852e-01
-5.201667181934684081e-02
5.497075863347225880e-03
2.755994472854652461e-02
6.632890745416131217e-02
1.131679140397426758e-01
8.305395715316554739e-02
-5.189165035829368042e-03
-5.482844210224761816e-02
-4.896806875113270813e-02
-4.726416138663847022e-02
-8.310493375372850211e-02
-1.248176462606422760e-01
-1.510735430724269024e-01
-1.868818187210449233e-01
-1.971219819929107830e-01
-1.141090586054450406e-01
7.767783646885408413e-03
7.428314393747113831e-02
9.655775346842143669e-02
1.219862668867870842e-01
1.383510084756348901e-01
1.092132245815457259e-01
7.025118426963061768e-02
6.996290226997074757e-02
3.510727336526413278e-02
-7.054986541217320162e-02
-1.041637711911108932e-01
5.350207642143486875e-04
1.201836239592795896e-01
1.789327598971998390e-01
2.000076934801994222e-01
1.865153124245926552e-01
1.324732911057071583e-01
4.505373794163076984e-02
-5.530641211007687741e-02
-1.238583854936819162e-01
-1.528823889380382384e-01
-1.754523167078676227e-01
-1.764705185764830764e-01
-1.231978159925731647e-01
-5.786322379025361784e-02
-4.169570760104235330e-02
-4.881651138268600087e-02
-1.481218294484817205e-02
4.124813791488749631e-02
4.664722741196591915e-02
1.112957030355960983e-02
1.137517687733111474e-02
4.914797245824280986e-02
5.458634446615620583e-02
2.286644325936490821e-02
1.817326550879817815e-02
3.884590889547724635e-02
2.499408106355410428e-02
-8.877566214477137368e-03
-1.675882355798740536e-02
-2.830572211915057673e-02
-6.214256855788423406e-02
-6.112681927099679335e-02
-5.505485116836997608e-03
6.055306785189608354e-02
1.146013881093605885e-01
1.308862033150436643e-01
7.810819649714258184e-02
1.134385698052951287e-02
-3.159750457953599753e-03
-9.864432793901114355e-03
-6.019301308671147488e-02
-1.124472100936778213e-01
-1.254106049693468061e-01
-1.098035475012456297e-01
-7.096206190608775333e-02
-2.943681403169789643e-02
-2.734524447176036807e-02
-3.241859413589054384e-02
1.777011833994817172e-02
7.608413882629813663e-02
7.283234153759503282e-02
5.615122422171277272e-02
7.428970800651178708e-02
7.745415557395225747e-02
5.014325250814383184e-02
4.362694348297899150e-02
4.727326034218026773e-02
2.273336060784124368e-02
1.284558639566794891e-02
4.145149754743770315e-02
4.368918686043860022e-02
-1.258231212023093806e-03
-6.735186546048921308e-02
-1.407310525958695158e-01
-1.467973402886545431e-01
-5.888028737517307654e-02
-6.237552659757695031e-03
-5.181025949379283735e-02
-1.021640558393142051e-01
-8.814471741314021391e-02
-3.565191687401968179e-02
1.163783843148649688e-03
1.877875255436179530e-02
5.068560770791055714e-02
7.962471621705108360e-02
7.148242679963569268e-02
4.662364627819391705e-02
2.825082433717515315e-02
9.553002785515116169e-03
-1.571972765100065894e-02
-4.071720893527231572e-02
-4.292331205172902897e-02
-1.990401757131989718e-02
-5.045390433299834672e-03
-8.485580295037223331e-03
-2.419261232567022912e-02
-6.389014161043292395e-02
-9.122061740472345304e-02
-4.402472828800339105e-02
4.725727566400846069e-02
1.287621419722084215e-01
2.282327714015783271e-01
3.459541209315048493e-01
3.947976826480750212e-01
3.333368236983768607e-01
2.278499648049676085e-01
1.413481181772785200e-01
5.256138321484912779e-02
-6.322858269318690216e-02
-1.521455055871124284e-01
-1.568291610717372220e-01
-1.547564990735927348e-01
-2.767293916503433815e-01
-4.173305398020725199e-01
-3.632828229818249044e-01
-2.143924983166865528e-01
-1.831951792723147399e-01
-2.111125650605851223e-01
-1.792407622298663461e-01
-1.159493553286177064e-01
-6.331650052026610576e-02
-3.073741998064120906e-02
-1.447165841710643108e-02
2.588948528004861305e-02
9.330650552483299442e-02
1.352584286460881691e-01
1.551693961864387128e-01
1.821983217749494621e-01
1.868930948446584639e-01
1.639088639766692335e-01
1.517967659697534444e-01
1.431861201546819062e-01
1.214185001923054896e-01
1.023500120147023962e-01
8.785485655944950956e-02
6.581017405168251844e-02
2.231469861668008980e-02
-4.261407611159427622e-02
-9.132101664514731543e-02
-1.020864971697591078e-01
-1.047723582621688521e-01
-1.139803839364946086e-01
-9.080146173129732823e-02
-3.850820664424951800e-02
-3.979725178447716255e-02
-5.786647831595445601e-02
4.518255660870523771e-02
1.693707172809525152e-01
1.224092715852397456e-01
9.688332294562730998e-03
6.456550838499566791e-04
4.237014819058461390e-02
4.587767239303758987e-02
1.304373285283243547e-02
-3.087805560461003018e-02
-6.871114179071990957e-02
-9.166418765743720998e-02
-9.405803455374184274e-02
-6.442826025465514528e-02
1.015965656196587963e-02
1.041030460750002884e-01
1.389284026963487073e-01
7.293446902111035135e-02
-2.660921494732809006e-02
-7.028673911252680817e-02
-8.273330652333055202e-02
-1.357023603714772042e-01
-1.739990756818039497e-01
-1.170811084282248893e-01
-4.306662811975303651e-02
-3.799591389565788735e-02
-4.038090012734578405e-02
5.952407420292142939e-03
5.464586096905567347e-02
7.367744967907452480e-02
8.884427605064869338e-02
1.034867239397364996e-01
9.931822139521909176e-02
9.900140595205128569e-02
1.125298406788697858e-01
9.185254289846989106e-02
3.723694530804080860e-02
7.899172408199806733e-03
2.353950678511310818e-02
7.027065045651498254e-02
6.603611776666977462e-02
-7.860340410120505994e-02
-1.975058484049563856e-01
-9.108601730959811626e-02
2.165265413666823610e-02
-9.726019447175582311e-02
-2.159036975138373393e-01
-1.217527811320910369e-01
-2.914812810548282271e-03
-8.061689795832813199e-03
-3.431398049648509696e-02
-1.857434648680850175e-02
-6.286160737044004659e-04
2.129686134301688599e-02
6.446252343922626027e-02
9.086363612256154187e-02
7.041586887597231503e-02
5.218019864054558588e-02
8.961448053197965113e-02
1.304878061428709768e-01
9.944882878672597903e-02
3.666590854406494293e-02
1.510694162249415218e-02
1.825969553312090099e-02
5.819162063486222475e-04
-2.451099285267284086e-02
-2.415536796511771195e-02
-3.177054562694046902e-02
-8.027275582255959108e-02
-1.021432729806188711e-01
-5.839976712671848119e-02
-1.270232342232474783e-02
2.089221806387805275e-02
7.470793203083349321e-02
1.077538521899998603e-01
7.466223114962367013e-02
1.487784915058583401e-03
-6.562189979734785183e-02
-9.182708312847670529e-02
-7.753360939211273450e-02
-5.095970003757739619e-02
-2.144522251134183335e-02
-4.588929540310950073e-02
-1.623929030376101701e-01
-2.039243422366037450e-01
-6.626119228561724861e-02
6.251457429570622670e-02
7.662963196173816494e-02
7.732228364472334969e-02
8.826583901493753603e-02
6.706731313064795419e-02
3.503600728339504450e-02
3.333657954675289109e-02
5.632252127549420423e-02
5.511814215480395629e-02
2.283980275058783774e-02
1.231652590874243725e-02
3.003252512385515272e-02
3.041632462590151964e-02
1.823813349917163124e-02
1.171635300715350748e-02
-3.078281107417604745e-02
-6.742303776375063729e-02
1.600811496757850727e-02
1.167225321648415332e-01
6.236702566542776105e-02
-4.475770829756815783e-02
-6.080412914025047633e-02
-4.104221996119661320e-02
-5.016265958070576653e-02
-6.269455739676414729e-02
-4.947025225570991086e-02
-2.901441710555910727e-02
-3.196640642814110866e-02
-3.047402333580241651e-02
1.089343643687893347e-02
6.120073641593491709e-02
8.041210807762375068e-02
5.830838940588357194e-02
1.291961605934383722e-02
-8.802327711161654286e-03
-1.900266415427122671e-03
-2.374103172516812271e-03
-3.983724075274498559e-03
-6.442687804411791411e-03
-3.792032669509546455e-02
-6.220557294049543912e-02
-3.507270953021602439e-02
5.791900653377533500e-03
2.732422919269256179e-02
5.076229213350725439e-02
1.036477192309052386e-01
1.696553265479974759e-01
1.346641314364303843e-01
-5.522193443992204354e-02
-1.943206283341587515e-01
-1.306030331489877461e-01
-4.834375630593240603e-02
-7.977160296425371555e-02
-9.100276477095722849e-02
-3.030707649416624835e-02
-1.634219415889022128e-03
-1.004674333025911206e-02
1.735289341693493914e-02
6.032052479340160867e-02
6.126820974992474439e-02
4.682820330611160015e-02
6.504733389813924238e-02
8.941162744816034957e-02
6.937097435060450568e-02
1.448552508803817307e-03
-7.232325263152579453e-02
-9.018449166822739560e-02
-3.887871008616181068e-02
1.401581970479905820e-02
2.302073468810460211e-02
2.870117876168973292e-02
5.152942240083514813e-02
3.940056429571433400e-02
-7.815748442409703456e-03
-1.949784369143885837e-02
-5.798202405506922008e-04
-1.594608519433668090e-02
-5.351775144397690614e-02
-6.346268495649272368e-02
-6.249874769992269652e-02
-7.354695398749352964e-02
-5.640673335839287844e-02
-9.701826898308037531e-03
-7.978935451217179439e-03
-4.475777110891566990e-02
-2.843391158045137715e-02
2.597190666217982086e-02
2.912349763539585912e-02
-4.286765321917535704e-04
-1.326953959833466687e-02
-2.573180632542515847e-02
3.171152995993187923e-02
2.179851005415839316e-01
3.167517193532358721e-01
1.657045683199960262e-01
6.643594007857008508e-04
1.018919605962580882e-02
3.555924613259196787e-02
-3.695622222529043599e-02
-9.969054318679554383e-02
-8.738666129193622956e-02
-6.084532378392153162e-02
-5.019152773122005640e-02
-1.798855292095937961e-02
2.918434159168248332e-02
3.427713053769786827e-02
-4.751204707478150907e-03
-3.904184874447280684e-02
-5.264666324562315008e-02
-6.067638625976654737e-02
-6.699143142142098550e-02
-8.023700831454795568e-02
-1.084973843057104037e-01
-1.063397448012292495e-01
-4.646430458442860761e-02
5.051245491914987257e-04
-4.600504448453175688e-03
-4.652107144328305327e-03
2.905661565492709611e-02
6.571861767206024774e-02
7.938467479091460000e-02
7.689872465956117120e-02
9.379301447278808046e-02
1.320086034144398179e-01
1.303767641708064584e-01
6.070630648406931396e-02
-1.914168437742514231e-02
-5.255954068128193546e-02
-4.580970055582461731e-02
-2.541046099610484721e-02
-2.454034700155002455e-03
1.449891094460949853e-02
1.964360157713816030e-02
2.006180243519034567e-02
7.299511984338523732e-03
-4.806131289940435147e-02
-1.258273655790195233e-01
-1.568210150134180525e-01
-1.217942709867129714e-01
-5.291416184726781269e-02
1.906912296870885704e-03
-1.034822686058915059e-02
-1.719999406042806503e-02
1.084729268796969653e-01
2.315197899395448899e-01
1.491425967902556271e-01
-6.963782659718312923e-03
-3.644074919096477322e-02
1.219333149268669175e-02
4.683059537165515374e-02
6.389788426582150571e-02
4.573359441303816164e-02
-1.476278435664487958e-02
-5.183876187058186757e-02
-3.528712218878264639e-02
-4.548655385862176992e-02
-1.158284922170988440e-01
-1.475756392814996099e-01
-9.867273597541952046e-02
-4.126605384207620436e-02
1.781893575547341402e-02
1.232206110315163528e-01
2.105989994847747016e-01
1.726330861616826584e-01
3.287499167309375359e-02
-9.022882702432279134e-02
-1.531582420556482083e-01
-1.846997152932980946e-01
-1.671571956029562767e-01
-9.673748665689896331e-02
-6.029175362883455735e-02
-8.406550571929538584e-02
-7.939938499562868013e-02
-4.980925897409545222e-02
-7.997793433320461720e-02
-6.018669676215636366e-02
1.472535942010852195e-01
3.274270130565914427e-01
2.740318979101138974e-01
1.905836394610251339e-01
2.294606838970278673e-01
2.352442741805319260e-01
1.518201062785733690e-01
1.038320416333398249e-01
1.145855794630005475e-01
9.900447724260338922e-02
4.432632012094713664e-02
-4.528035309011906040e-03
-5.574221852088148688e-02
-1.183962634921109647e-01
-1.637682100152315634e-01
-2.065225899091517325e-01
-2.563847039269503969e-01
-2.549782941781557621e-01
-2.029041573886993799e-01
-1.762921382719338237e-01
-1.802855480080617079e-01
-1.671111256271100576e-01
-1.298417932675459407e-01
-8.451709795069864417e-02
-4.740109178934806544e-02
-1.571063670243342397e-02
3.949958927493092686e-02
1.043213040601999320e-01
1.397462086057463249e-01
1.681501330214804080e-01
2.012991995436605730e-01
1.922418363900645077e-01
1.572083014574307824e-01
1.547056601724090263e-01
1.510838717765556338e-01
1.012347472685186101e-01
4.776883489738381616e-02
1.549677251020280949e-02
-2.946937095146133501e-02
-8.597070671745633830e-02
-1.199341784591015925e-01
-1.222329266377823742e-01
-8.905503436771393388e-02
-1.114496542513220695e-02
7.475803438005521051e-02
9.183201799557444422e-02
2.301994453319255313e-02
-5.461464461541409854e-02
-7.545721331810331667e-02
-7.008665121576071466e-02
-9.034705928462309632e-02
-1.063187711588507722e-01
-7.259285733530826401e-02
-2.784305614979063967e-02
-1.881583552784528782e-02
-1.790314641236025878e-02
-2.750151382539239159e-04
1.435063467095589775e-02
3.502973919325727548e-02
7.379558462227188420e-02
8.764337772150604389e-02
7.064751463368798556e-02
6.590058741995531710e-02
5.478694181830435356e-02
5.299704216689331976e-03
-3.951309295031012192e-02
-3.324036365166463391e-02
7.311606618341400660e-03
4.129450799950047657e-02
4.089146020637452611e-02
4.841134308378686711e-03
-2.788967543062137455e-02
-2.786215957947200950e-02
-1.885258779960205522e-02
-2.206869751236759103e-02
-2.735160755044283368e-02
-1.801184134450226071e-02
1.063534146740685929e-02
1.861996310536202445e-02
-1.792161050453571630e-02
-3.459589516745640442e-02
-5.282015941826367911e-03
8.548136765869769962e-03
6.267505723685768901e-03
2.599815550048530793e-02
3.885356165496925418e-02
2.916755128748002579e-02
2.871927572808489690e-02
2.933166016082262850e-02
8.221392804949418862e-03
-1.596424848802867336e-02
-2.649416814472554602e-02
-5.851975292904699338e-03
5.407444381935109373e-02
4.358983760153908871e-02
-1.131871310882466286e-01
-2.145320943344361520e-01
-1.131836904189731374e-01
-1.687451264923569422e-02
-5.064173074206911040e-02
-4.327944934095297180e-02
6.896693271269430103e-02
1.571887952740440020e-01
1.697461832461622799e-01
1.486054446973632814e-01
9.984255244148991515e-02
1.280283369253283447e-02
-6.908767036025131869e-02
-9.174351179444228954e-02
-7.979590957503346349e-02
-8.037785432002551855e-02
-6.619191320707888682e-02
-2.207702281855290077e-02
1.760619666059072205e-04
-1.914730458071929250e-03
9.091660199086051136e-03
1.365425674980787554e-02
3.011702953468284143e-03
2.100401948878434163e-02
5.887191537402976238e-02
5.326811691162536971e-02
2.597793170777740190e-03
-3.690937239288272220e-02
-4.532638373337461585e-02
-3.133346438578109294e-02
5.170998468330244811e-03
4.264043338231672531e-02
5.344685900391760169e-02
3.797371545053290082e-02
6.837460311939495133e-03
-1.728691341844344753e-02
-1.852406427136951694e-02
-1.638672341745701228e-02
-1.948154927936676661e-02
-1.036503649238857544e-02
1.307635335023438379e-03
-1.187079721520252137e-02
-3.327174317593022818e-02
-2.197640638536111149e-02
9.882009700532861513e-03
1.387381294267153384e-02
-1.150544311517054039e-02
-2.087097204835131753e-02
1.011451523996934401e-02
5.706257037079977279e-02
7.856977657071585741e-02
6.580929231118760880e-02
4.553788828519940435e-02
2.776187326789529217e-02
4.581000656801942697e-04
-3.215009992005074535e-02
-5.427682438075823179e-02
-4.917224003502002061e-02
-1.568827670837350668e-02
1.942848220851182452e-03
-3.175287451516176085e-02
-7.587632291567120157e-02
-8.253034357177833902e-02
-6.637054267774630811e-02
-2.977713823180604819e-02
5.820030091002469791e-02
1.476374205177803101e-01
1.402470559438019626e-01
6.396024562560881366e-02
1.516946940914570482e-02
-2.983255239736103820e-02
-1.122668007553924291e-01
-1.426988815432965185e-01
-9.502438948091629367e-02
-8.740026354218774496e-02
-8.726478164278986260e-02
3.895362282731339165e-02
1.521264220096675002e-01
7.910515125630407374e-02
-1.560076502158655107e-02
2.209507460488696964e-02
9.404155542701866932e-02
1.185775138431184039e-01
9.875522634519018350e-02
4.858711551250472632e-02
1.109132991052245304e-02
-1.457111466423390705e-02
-5.711596604803643312e-02
-6.820325870012060310e-02
-2.102487320183678288e-02
1.591836234337905276e-02
1.165512356930617499e-03
-4.414699512132607556e-02
-8.293686900206671819e-02
-7.081045407661717972e-02
-2.053025875357871247e-02
-2.052100234292220451e-03
-1.309445844696918715e-02
1.932505573415776827e-03
2.534287852650559530e-02
2.019632379177981052e-02
3.988919571131160219e-03
-1.775705076472078314e-02
-5.420551982432238874e-02
-8.238744991890081804e-02
-7.920105709922570236e-02
-3.894252198176088864e-02
2.758022480431280427e-02
7.136610695509690294e-02
6.026426379309730852e-02
4.204865027329398458e-02
5.849609432340358017e-02
7.470713132140414936e-02
6.770610774427740508e-02
5.756409621795822995e-02
2.296168972584267803e-02
-6.161296950780303927e-02
-1.364508352966550542e-01
-1.397829480475651642e-01
-8.452173415229333187e-02
5.983592859288720291e-03
1.034734347465691012e-01
1.549948791913777213e-01
1.660205730250650102e-01
1.796572683722447994e-01
1.572930826318686137e-01
6.430063748491440800e-02
-2.231925350986108114e-02
-4.848457676522124199e-02
-6.081144509533238651e-02
-1.017692799775227058e-01
-1.567525703505725787e-01
-1.806766588411939933e-01
-1.535908350177786486e-01
-1.194924155694032930e-01
-1.071502895052501014e-01
-7.012919583112030286e-02
1.966466903132207955e-03
4.219433853213643004e-02
3.419302675852213536e-02
2.122666124952864858e-02
3.872603737791840972e-02
1.127037365604278418e-01
1.551991922728555851e-01
4.139754317259315697e-02
-7.854732901888268615e-02
-9.729666332159683101e-03
9.722524474251054150e-02
7.431307388724872620e-02
9.938697953100652030e-03
-7.462860411564129978e-03
1.970597005234339671e-02
6.945176772917818764e-02
8.024904429017490348e-02
3.393953037189181843e-02
-8.325787118025375355e-04
-9.141294744418156787e-03
-4.856123193731404220e-02
-1.176480245470482300e-01
-1.614479143042095999e-01
-1.504898969608221004e-01
-7.478845577525629340e-02
3.392737500942930723e-02
8.232330174660346112e-02
4.616231575880772736e-02
2.925062604389636750e-02
7.083281559399570715e-02
6.888352947445235130e-02
-3.221920449926892263e-03
-3.331603197288946633e-02
7.992868319701652499e-03
2.340491572764183403e-02
-8.996475629093184101e-03
-1.289555259203173723e-02
2.400832216891281984e-02
4.250222031883482687e-02
2.389183068391666914e-02
-2.930218551357160073e-03
-2.756515046408164471e-02
-6.964694352883429862e-02
-1.171373389106367818e-01
