-2.121193051178609998e-02
-6.540581946156730220e-02
-3.609521597683688909e-02
2.954116956229778726e-02
7.145444657471045069e-02
5.854061978264310517e-02
-1.009903467816706570e-02
-6.175741137570130157e-02
-2.995022867722717946e-02
3.084318032334673609e-02
3.572124031130693989e-02
-3.059513431994224930e-03
-2.487381453912904800e-02
-1.696012075416020214e-03
4.504050041624655526e-02
5.208381630651432587e-02
-1.811418649241538364e-02
-1.378881552406596989e-01
-2.453284347599056781e-01
-2.420306648090354007e-01
-9.339810125188738321e-02
6.901331314107031489e-02
1.521511809452670838e-01
1.970590355834382912e-01
1.823359072643451484e-01
8.548539354456247130e-02
-1.341761996282392691e-02
-9.278324184953178067e-02
-1.270129024692258357e-01
-2.610499748612854151e-02
1.005835114831489380e-01
7.102413934946119611e-02
-2.365621926038717973e-02
-5.031907136944190062e-02
-6.772294207929485665e-02
-1.094491035521673317e-01
-1.125073398166611949e-01
-6.206055530019136818e-02
6.072504189319127485e-03
7.529158875182129229e-02
1.445996902042123167e-01
2.018234360583911480e-01
2.299242504896393258e-01
2.239335542304737581e-01
1.924914817767920949e-01
1.399137360633873617e-01
6.153967921381992001e-02
-2.470046497284923009e-02
-9.348181565178120822e-02
-1.475858640045099035e-01
-1.758526679241284030e-01
-1.589274037652264326e-01
-1.338823901241054659e-01
-1.314724753654883116e-01
-1.060382074548482517e-01
-3.924026957886513067e-02
9.711194441137278865e-04
-2.021977730260887673e-02
-5.285373518756791150e-02
-5.300164846512522843e-02
-2.893905863602877840e-02
-4.454040726016642027e-03
8.999653337580619528e-03
8.822842620730011673e-03
9.188714397577804616e-04
-1.351026850734772522e-03
-5.426862077583674907e-03
-3.876516853052432154e-02
-9.416043698599670109e-02
-1.222722507302585332e-01
-6.921188016857929282e-02
8.228434572939632985e-02
2.519573276900615721e-01
3.237608737576036511e-01
2.912583446317302260e-01
2.140324870068445740e-01
1.088337508615948440e-01
-1.552423325053630884e-02
-1.191531053345432772e-01
-1.642064705947104963e-01
-1.507298713179737459e-01
-1.105531224185433425e-01
-6.165258949311452213e-02
-1.017386150775043650e-02
1.617228337279585232e-02
1.054921178218050024e-03
-3.126095170881768026e-02
-5.107031892629544656e-02
-5.730678313809513952e-02
-6.974094853191399601e-02
-7.795023095168404637e-02
-4.229654777811351490e-02
1.387916095716219822e-02
2.866285266679671068e-02
2.721538979581838644e-02
5.778637461984180435e-02
8.211210901158400022e-02
7.412620674168572676e-02
6.764505991471714275e-02
5.642771856686077531e-02
1.840149504819744639e-02
-1.437632256052608429e-02
-1.984913668241496815e-02
-1.093152708904816112e-02
2.837839001734879241e-02
1.064118569789050256e-01
1.483124883651644466e-01
8.311283713150002805e-02
-3.197105878873086199e-02
-9.888945263169657274e-02
-1.176919758794164883e-01
-1.152319518899485029e-01
-7.642325699076914225e-02
-3.035499249055545468e-02
-2.262423469005868382e-02
-1.942007917236620446e-02
-4.410435920525559300e-03
-3.794140553846463843e-02
-1.103763248343037351e-01
-1.449041217130851433e-01
-1.572874391227914170e-01
-1.640955474286608651e-01
-5.175660364289899618e-02
1.883100887218669972e-01
3.322423708118870112e-01
2.757408227501137454e-01
1.701655292843441414e-01
9.174604402007580095e-02
-1.234203135596108857e-02
-9.530032957342124411e-02
-8.369792991803989834e-02
-3.591343273276709214e-02
-2.805325208455217850e-02
-3.064626998247505646e-02
-4.376081172777021404e-03
-1.048106888627407807e-03
-4.931778788012602943e-02
-6.379988536660337328e-02
-8.569745914315425594e-03
2.803347245600532056e-02
1.107983031999524443e-02
-1.731285008406581363e-03
2.590959370253067238e-03
5.215910116832564274e-05
5.626127984382518071e-03
2.401429029416300362e-02
3.165303967029356458e-02
3.591549948285900629e-02
4.000388599450822175e-02
1.740353666714013550e-02
-2.038681084245014263e-02
-3.774407806155175710e-02
-3.324455043785123909e-02
-2.145538113408895081e-02
-9.270447705070475330e-03
-7.504132637769716325e-04
8.922717527017981487e-03
3.704836841559849825e-02
7.085503623586152100e-02
5.478906752607899666e-02
-1.401651635507562832e-02
-5.808016044739386374e-02
-4.076008820067503202e-02
-1.035978359871896418e-02
-6.658651688119092762e-03
-9.014457064623445509e-03
1.447158240132635429e-02
5.227134261507643265e-02
6.049931316322722935e-02
1.453234818525337042e-02
-5.744751624721416983e-02
-1.179372330400309254e-01
-1.768477651101721115e-01
-2.043189878278492411e-01
-1.035750823733050108e-01
8.414853777168612714e-02
1.973508436295741686e-01
2.165756259490096147e-01
1.960333326703367074e-01
1.024279235154206685e-01
-3.874599326989651427e-02
-1.197490645345553051e-01
-1.308927489728184956e-01
-1.369976371646320079e-01
-1.503258881569447536e-01
-1.386955058858312939e-01
-1.036889946113904032e-01
-8.147606160066628300e-02
-5.304206461100141601e-02
3.131480560112788469e-02
1.440525202478746269e-01
2.372190077237829042e-01
3.053003561094591034e-01
3.072158779867031342e-01
2.068954509339147041e-01
9.010504892112625175e-02
4.435812326109016268e-02
1.711572973988754326e-02
-4.546159117934755328e-02
-9.711449569298068185e-02
-1.081615154852539756e-01
-1.027180785149540976e-01
-9.425582150307297569e-02
-8.079778523433707449e-02
-6.723182937735790177e-02
-6.490998130798003585e-02
-6.804001926971015024e-02
-6.636503550183235622e-02
-7.256146140991040494e-02
-8.057204225447262003e-02
-6.471579574295567572e-02
-3.214370655806814137e-02
-3.697367755907898790e-03
1.425354767287537530e-02
2.245767552182717161e-02
2.589119191785577145e-02
3.355082159840561823e-02
5.241035981957915119e-02
6.385779587396844814e-02
4.647642480143020227e-02
1.865349333811198301e-02
-1.664870484525587946e-02
-8.646038782464354755e-02
-1.611950096704463098e-01
-1.605446133883114412e-01
-4.326049298188765213e-02
1.365447591053818022e-01
2.722109715784850614e-01
3.120965799906976201e-01
2.604254481559301060e-01
1.368641622393946822e-01
-3.073378683925858529e-03
-1.045513701500704190e-01
-1.589690175023393826e-01
-1.727401565904070346e-01
-1.379364266158219776e-01
-6.136075886551272535e-02
-2.360487596920454560e-03
-7.270132942307596866e-03
-3.732961169665929141e-02
-5.054558065443431197e-02
-5.794545397762802114e-02
-5.088636725920651915e-02
-8.719645488286680013e-03
2.907291171238336747e-02
2.443882543683584610e-02
1.874054464794357860e-02
4.574633061535847423e-02
6.989974709124155416e-02
7.513145880995576731e-02
7.525784129918722254e-02
4.827563095800052606e-02
-1.412319877637320661e-03
-9.993779033448509097e-03
2.101512572406202470e-02
1.978305006898221224e-02
-4.493293553719865732e-03
1.475012750723187806e-02
5.729848166605990001e-02
5.384066031307867262e-02
-4.568057942109645005e-03
-8.204921183407849761e-02
-1.365666586427867202e-01
-1.313266617757049837e-01
-9.477095782999873930e-02
-9.954315681672021299e-02
-8.266886081956874299e-02
7.748015399923977031e-02
2.337215932922034056e-01
1.688672853453685452e-01
8.573344842958990908e-03
-6.089237269669267594e-02
-1.039244462436435118e-01
-1.668806298653482956e-01
-1.819664743240018145e-01
-1.546446212208132942e-01
-8.469387298008471121e-02
8.424117303547794255e-02
2.605128716420937462e-01
2.923696305406009444e-01
2.241977831213999572e-01
1.546647977946195018e-01
7.363337411246863307e-02
-2.328397176547834097e-02
-1.064674914258014887e-01
-1.480795358262016470e-01
-1.241878912716632422e-01
-7.788928719657729760e-02
-4.579292892969594186e-02
2.938885999438413041e-02
7.534346511646508593e-02
-7.396358279233694599e-02
-2.131324158090492082e-01
-5.101525009336639604e-02
1.411455389373678371e-01
6.855059449814954187e-02
-3.329246723166814914e-02
-4.459080486902300411e-03
1.352834220073020899e-02
7.479086215035065516e-03
3.590128669760738606e-02
5.174533314017104590e-02
4.052661006509875041e-02
3.881739013112401465e-02
3.159914059583635720e-02
-5.302508659351164860e-03
-3.700434665211126128e-02
-3.510710275735362540e-02
-2.229975810795990776e-02
-8.999941743344990613e-03
6.325948756980791059e-03
2.857770800395101254e-03
-1.465183215432303704e-02
-9.476989533887446304e-03
2.088387882090744427e-02
1.776436135999033203e-02
-5.318904246284724552e-02
-7.887436378283185778e-02
3.875579693002372678e-02
1.412130689436588704e-01
8.622000344575261876e-02
1.474185638928149876e-02
3.418279915455223888e-02
4.077424434224984767e-02
-2.242591484979356356e-02
-9.033543926244688715e-02
-1.452941901407800163e-01
-2.072202762586984603e-01
-1.896789703923656978e-01
-3.368064195898771984e-02
1.142583904021425151e-01
1.532163572709289712e-01
1.709807569059469123e-01
1.659313538697603785e-01
6.295615406457705232e-02
-5.374574779334323482e-02
-9.249427420420527901e-02
-9.783020194706160133e-02
-9.793855780292959334e-02
-8.037157073647398231e-02
-7.866933502096812303e-02
-1.073990361345904809e-01
-1.214728891464619126e-01
-9.687081650476045414e-02
-4.556089553760536009e-02
3.377284355915764757e-02
1.379146465267300226e-01
2.289835618784511473e-01
2.651567630176724366e-01
2.411192177727181085e-01
1.900974332535564082e-01
1.448822765856208894e-01
1.018135140393585519e-01
3.564427710616213663e-02
-4.266747928208407953e-02
-8.564870003460317571e-02
-9.984970968215083065e-02
-1.232617679829773882e-01
-1.221746749572746177e-01
-7.573395351482925530e-02
-4.642502128216033364e-02
-5.552482069351441507e-02
-6.882799854147798879e-02
-8.817870430499516465e-02
-1.030500441529471761e-01
-6.012708164108471198e-02
2.516719592012208254e-02
5.838671652941587742e-02
2.991809551863778421e-02
2.621703180965508431e-02
3.761382899467635710e-02
-4.451464174483610314e-04
-4.347284985332926927e-02
-5.094131055647321826e-02
-3.845707676929095709e-02
-5.598241355579881839e-03
-2.341867694102760591e-03
-6.532073315826109061e-02
-1.357436317147001081e-01
-1.499909567414075828e-01
-4.665901603564613642e-02
1.661177431208007427e-01
3.226685443542608445e-01
3.095864999749592394e-01
1.953830146522599343e-01
6.204641038035581257e-02
-4.981958823063915853e-02
-1.025739157154117870e-01
-1.159862957224354757e-01
-1.178364095409152046e-01
-8.096244195438895286e-02
-2.602903699504252599e-02
-1.718884644623385610e-02
-3.039596246815407660e-02
-1.198176983762588507e-02
4.241881036694654557e-03
-2.293140287935706984e-02
-5.390989137504151318e-02
-4.037788154095087872e-02
1.701611576828709373e-04
2.431236996828792934e-02
2.617295768426004809e-02
3.373735959306989329e-02
6.310639592855522839e-02
8.768988321456169799e-02
6.982463963718811562e-02
2.867892183304051115e-02
1.376071963191896966e-02
1.587109296554622961e-02
-5.063242792810335527e-03
-3.689187993558054601e-02
-4.529511732049693040e-02
-3.681153722826631391e-02
-2.225040212684716023e-02
1.652018772187467330e-02
7.126999284915089272e-02
1.079185505726870387e-01
1.253535200809159922e-01
1.157103208705551473e-01
3.283272299353225121e-02
-1.063683879662994380e-01
-1.862876365787341226e-01
-1.445603789286556695e-01
-6.523939639153458758e-02
-3.434487609741136011e-02
-2.952140088417209290e-02
-3.748423348288846407e-02
-9.024560014089286208e-02
-1.493366131343393799e-01
-1.656117508544131811e-01
-1.596528378380998869e-01
-9.291955383500569154e-02
9.255769642420029475e-02
2.846008474076427985e-01
3.436394030791381504e-01
2.986511202367175266e-01
2.145356887068111118e-01
9.129925518005974072e-02
-6.062125636286347374e-02
-1.738557747909896256e-01
-1.563311862680325792e-01
-7.999551202177471176e-02
-1.401840861848829556e-01
-2.064288346366026372e-01
-2.007881715016969146e-02
1.902450794743409668e-01
1.352009474250715770e-01
-6.586295995402370596e-03
-6.640492277062394477e-02
-1.040104895003243213e-01
-9.105031496545151759e-02
1.857859061454320698e-04
6.528930295748996970e-02
7.328990233713053581e-02
8.526553168178854780e-02
8.734274372254224872e-02
4.464722341967272690e-02
1.354676673149248986e-02
3.380165299360586573e-02
2.912860896262647534e-02
-5.072906789164283170e-02
-1.194243368186772153e-01
-9.651817872813259203e-02
-2.746268088302513885e-02
1.170290087666524259e-02
2.435631653705884123e-02
5.498643221034199557e-02
9.139661781496312420e-02
7.467148589434220718e-02
7.535298871202446291e-04
-6.708197376537787526e-02
-7.605555991428990248e-02
-2.062652730054050434e-02
5.848198437832494156e-02
9.812126401087949146e-02
7.617202425231302254e-02
3.255051522285497267e-02
4.035781207351840129e-03
-1.502363628533705600e-02
-3.754406146112627962e-02
-7.916193539020573156e-02
-1.493714847685904679e-01
-1.862266709105217799e-01
-1.199121851770448971e-01
4.742856580099584843e-03
9.063723021673560087e-02
1.057063411745788745e-01
9.498043995741678458e-02
8.317268417428029526e-02
1.772603321162041085e-02
-9.483723835944701808e-02
-1.496014759883060596e-01
-1.059052320665498925e-01
-2.852335433581568852e-02
1.235971425813194718e-02
8.053164855212119680e-03
-2.344448955350375563e-02
-7.565511257390290789e-02
-1.063363773738633944e-01
-8.117611572416366661e-02
-4.272046121881915154e-02
4.423999679536987084e-03
1.137984466335205946e-01
2.370117674174043731e-01
2.754199250890035922e-01
2.547588012149523684e-01
2.463439522242175661e-01
2.263830073269359477e-01
1.528321742960311036e-01
4.962186289757281737e-02
-4.731777835080274580e-02
-1.128964206906650225e-01
-1.343610541052452367e-01
-1.485514338671170831e-01
-1.752090509246122529e-01
-1.601062644049338624e-01
-9.721919464363451557e-02
-6.435198091873002568e-02
-7.527728035097085157e-02
-6.981744358434915920e-02
-4.189342835739806592e-02
-3.549824888546827123e-02
-4.972378765857926597e-02
-3.928895660790913957e-02
-2.780605204573474709e-03
1.203059605577566811e-02
6.081392131869541029e-03
1.995031474657232504e-02
4.776392062938758509e-02
5.609297637388518248e-02
2.337640733282965108e-02
-4.427516104000001063e-02
-9.905404172156137554e-02
-1.146093785825554046e-01
-8.981124065374486432e-02
1.813721679322093105e-02
1.903965566619514882e-01
2.925018561885806001e-01
2.550271793996036762e-01
1.370981285394669569e-01
2.521234832190871744e-02
-3.593541344863463577e-02
-7.253900834123008790e-02
-1.095946390649234770e-01
-1.049735959031020405e-01
-4.705676596942065526e-02
-2.318227527910910260e-03
-4.245377959658923339e-03
-2.060719461543472283e-02
-3.454994372005330827e-02
-4.463174656286635067e-02
-3.560659521536435612e-02
-2.067433113499102249e-02
-2.645236847736649397e-02
-4.048133001373089429e-02
-3.493518084360988651e-02
-2.660914411252861093e-03
3.524580558198332075e-02
5.676483860969374490e-02
6.480184056538765280e-02
5.686062637038157008e-02
2.991576429843238044e-02
4.870233291765487492e-03
-3.910788777237004035e-03
3.505893594563149959e-03
-6.265110966701932863e-03
-7.384345019262303356e-02
-9.491850868006557196e-02
5.759418905767298147e-02
2.289294372585935489e-01
2.068898904675845751e-01
5.804679580821694995e-02
-6.677562644562462513e-02
-1.150226554914982602e-01
-1.067755754820753078e-01
-1.179076826004082368e-01
-1.012888989909204590e-01
5.798805656610236947e-02
1.802248636464638953e-01
5.321425178773376424e-02
-1.113122821650922023e-01
-1.042477213699337935e-01
-8.702887583906945834e-02
-1.641210254498163823e-01
-2.183524029913842812e-01
-1.875228706110363408e-01
-7.239492045158529843e-02
1.122122160194364143e-01
2.745610666754916274e-01
3.428361398322072318e-01
3.129189220106425862e-01
1.829319343392375452e-01
1.035851430683568108e-02
-1.028430294320504396e-01
-1.421524928798466592e-01
-1.503686849179773632e-01
-1.237246868021524837e-01
-4.268096011988992827e-02
4.518573138838557351e-02
6.768816325841282844e-02
4.058359459602232933e-02
2.297008798791081927e-02
5.219063258605609063e-04
-6.156878867057857807e-02
-1.223951876903663361e-01
-1.221133974595019767e-01
-7.201830487528251834e-02
-1.779024092587492070e-02
4.124242686565977173e-02
1.168533874424680513e-01
1.581041600911849698e-01
1.211267462762778829e-01
4.756255062792832944e-02
-2.275728641953823211e-02
-8.626179855245946770e-02
-1.031583566237470606e-01
-5.270894802463900464e-02
1.340683938879628362e-02
4.805914666690670745e-02
3.299860712751331859e-02
-7.557632540387168932e-03
6.519136974205545255e-03
6.264798697487446166e-02
3.586967755242614214e-02
-5.641026717532286044e-02
-8.678912563761503884e-02
-7.744824880151629509e-02
-5.393831103450220238e-02
5.302356418207466310e-02
1.260008946439904187e-01
2.955247108676125820e-02
-8.244258802321993707e-02
-1.046928077283837966e-01
-1.002241200447324121e-01
-1.748628017309274835e-02
1.378079943141782560e-01
1.992033589159047102e-01
1.562944138948529904e-01
1.013935864172345741e-01
8.393739280578150011e-03
-1.099672550733062637e-01
-1.535388177216280292e-01
-1.264687855493623614e-01
-8.951377097187980525e-02
-2.942259807249158338e-02
3.592195394503855388e-02
1.867574211927363823e-02
-6.193522898676639271e-02
-8.961620035918034521e-02
-6.100499882546515928e-02
-4.961820827799766354e-02
-4.240261313452128866e-02
-1.589974847156648899e-02
-1.078856099182176446e-02
-6.886079998052248297e-03
7.256475702857689836e-02
2.008068184857206839e-01
2.783628095653448153e-01
2.723407094906232784e-01
2.077012794213024816e-01
1.108550917487060444e-01
1.298795306536544222e-02
-5.766616117975167932e-02
-1.013105045604807825e-01
-1.269742678102574462e-01
-1.248596370673384082e-01
-1.006567234559667123e-01
-8.691933460459726202e-02
-8.784329841445205622e-02
-7.861828690079827875e-02
-5.143370359133650482e-02
-1.879551115001786704e-02
-1.456781918731938491e-03
-1.035950559481690902e-02
-2.603057272487466212e-02
-3.279209481133892046e-02
-4.522054357882542008e-02
-5.221723271395242727e-02
-2.698171027470758557e-02
-1.957555924309541812e-03
6.980674510273548322e-03
5.219714757491120127e-02
1.150077941862080733e-01
1.024128266806711568e-01
1.413029074420139169e-02
-6.039865831333708635e-02
-8.789966251952502363e-02
-9.682751206350372064e-02
-5.421960622214447301e-02
1.060187522427543938e-01
3.116755342895512482e-01
3.506347825400124019e-01
1.442523648275010895e-01
-8.241512363012223896e-02
-1.315533274336315450e-01
-1.106252371568532678e-01
-1.334379178455268600e-01
-1.351361371099705777e-01
-8.242991799274476672e-02
-3.132031227800542716e-02
-8.630042252114746709e-03
3.287322744725573384e-03
-7.242408866245900190e-03
-5.444443580416154227e-02
-8.059689600058979331e-02
-4.633696176515300635e-02
3.406485022117566354e-03
2.828537262414737227e-02
3.382570281409383317e-02
5.123318410151607438e-02
8.558450105370171701e-02
9.153569867182916042e-02
6.429390191872957905e-02
4.908764948862390232e-02
4.890996595421390897e-02
4.118119838251489001e-02
2.503319344710622923e-02
-5.392072171815556064e-04
-3.553598846306067760e-02
-5.209703780738348528e-02
-3.040968001273702120e-02
8.956983646116802381e-03
5.230322257698979266e-02
8.369130614328920692e-02
5.440293870086818084e-02
-2.565451764822488170e-02
-7.344907746147891214e-02
-6.590986690325925657e-02
-5.834256142593091665e-02
-6.940029297755546944e-02
-5.055957501423422734e-02
6.481012307846357318e-03
3.501167509060314209e-02
2.327048008351431316e-02
1.908790546359045298e-02
-4.934623840547163083e-03
-9.069171749512350278e-02
-1.778801699904060396e-01
-1.976571322783171047e-01
-1.606236682674831717e-01
-7.577349999462439090e-02
7.675829795100563846e-02
2.292647753264650257e-01
2.682005452958169944e-01
2.201772890667076932e-01
1.703177990674017706e-01
8.871078393215771352e-02
-4.816880343553867072e-02
-1.397928588028278796e-01
-1.319908896288218281e-01
-1.163570494267542471e-01
-1.028896876865602605e-01
1.190219522862979301e-02
1.284673543496022974e-01
8.048166200668506465e-02
-9.983384250789413203e-03
-5.543397055428164050e-03
4.314821402505327613e-03
-3.025798677216299734e-02
-4.698659038293822449e-02
-3.481553703850760739e-02
-2.149559118887910125e-02
-3.422890878322717989e-03
2.443561928797680777e-02
3.843275175494315771e-02
3.635150207214186274e-02
4.418818279016436396e-02
4.302960105496834997e-02
5.254910758675013227e-03
-4.506344375730291646e-02
-8.738694508696001617e-02
-7.321561442396404273e-02
4.061707159738334877e-02
1.102552715998102589e-01
3.008566316975681831e-02
-1.781802303808875665e-02
4.413731373475589248e-02
4.232332928970830577e-02
-3.042138923075302787e-02
-2.844570716692836065e-02
2.398783269798130183e-02
2.426958997519935990e-02
-9.689533446486181534e-03
-2.054748775418430151e-02
-7.648689164318001228e-03
1.152502555787065369e-02
2.421091876669465362e-02
1.688754997908771191e-02
-5.121339615808455370e-03
-3.364274659428494879e-02
-1.042229154901432031e-01
-2.263925185952992691e-01
-2.748151929115936198e-01
-1.402648203194218068e-01
6.395853431177815629e-02
1.821762877079145526e-01
2.231257382435506975e-01
2.024868494705770461e-01
8.819760186635233756e-02
-6.097859161256143079e-02
-1.736997051642962808e-01
-2.411482016526472760e-01
-2.294375214117761741e-01
-1.209280014398744219e-01
7.368333960654718448e-03
7.965879316129750864e-02
1.549457468021731010e-01
3.193237560807352660e-01
4.395510003465517013e-01
3.405450846819823019e-01
1.474817580441336595e-01
5.288947203917645362e-02
9.551911483865187236e-03
-7.191486144660935720e-02
-1.510721616659521926e-01
-1.862078562903253243e-01
-1.827337528938502986e-01
-1.268885175648703234e-01
-3.495191878808963371e-02
2.283270051931075850e-02
1.765662274223045794e-02
-2.061031444140303676e-02
-6.084663338152254686e-02
-8.773429140324280617e-02
-9.137420242566381134e-02
-8.190329334384731375e-02
-8.253276272987540574e-02
-6.641915430001538168e-02
-3.542691894618756054e-02
-6.699820555698611513e-02
-8.130476896732262426e-02
5.325411055636687652e-02
1.749524162552492379e-01
1.383736770942524397e-01
1.000751631726605612e-01
1.291879037283108211e-01
1.118149949705055657e-01
5.354950063689378759e-02
1.133882668109783588e-02
-5.357709355250382666e-02
-1.314443890206614673e-01
-1.530895970391578931e-01
-1.463110201927965148e-01
-1.309387867022530072e-01
-1.735971398109641822e-02
1.680333297137648618e-01
2.603844743598439648e-01
2.342827819198125550e-01
1.778333726468215026e-01
8.895662388437210188e-02
-5.104764347524975987e-02
-1.639634732716778454e-01
-1.854284283141730827e-01
-1.509907060939084389e-01
-1.031802580806552155e-01
-4.418117912263459790e-02
-5.620531808706666528e-03
-1.644618736223207867e-02
-2.186003656460134420e-02
2.433975091648614072e-02
6.046213144261196326e-02
1.481852521902168526e-02
-4.696952477277866606e-02
-5.244852996783341131e-04
5.350992747165571328e-02
-7.674369434766523113e-02
-1.796130564189487577e-01
2.793448183053867315e-02
2.469235344749660110e-01
1.600662595580852610e-01
3.142641913807717874e-02
5.462687400609081423e-02
3.405434474774585163e-02
-1.552734711671067795e-02
8.679431998496506262e-02
1.691111106061415348e-01
3.691613623350536305e-02
-1.247766618409080208e-01
-1.642096146707816284e-01
-1.610886177037852973e-01
-1.414011403471825135e-01
-7.458302743509766242e-02
4.790006956730069598e-03
5.123378767059444394e-02
6.352422529253046179e-02
6.892809267321625688e-02
6.773382553163673214e-02
3.115794743109964043e-02
-2.380314885328807528e-02
-4.304480150618168049e-02
-3.532290971563742388e-02
-5.382328297387280192e-02
-8.738736688863150970e-02
-1.012265243924727609e-01
-9.278475412903533504e-02
-1.867807464613042631e-02
1.213012044306777532e-01
2.123598425974515536e-01
2.285535302803064772e-01
1.946741625426302857e-01
3.969319572754411579e-02
-1.486588721436533089e-01
-1.681217423732296046e-01
-8.894457243768459642e-02
-9.482206892767625073e-02
-1.607015127864229731e-01
-1.283833458519283155e-01
4.295937963768924062e-02
1.502368487961025789e-01
7.228529917827278273e-02
1.424670945027288471e-03
2.701779673124577244e-02
6.031724099390832830e-03
-6.114326928969555236e-02
-6.000257021712367134e-02
4.258411221872895197e-04
5.174129972176191861e-02
6.499925387236353547e-02
5.435031985572236907e-02
6.310690134299321019e-02
8.794800735153646132e-02
6.303804165153935324e-02
3.042685768133792951e-03
1.091408988152724191e-02
3.381941967920072678e-02
-7.071089373994526861e-02
-1.715776673103454608e-01
-7.827811154110805858e-02
5.371594363213638007e-02
4.525954574157679128e-02
1.321169159270607629e-03
1.827490813437110742e-02
3.236094898235256784e-02
4.000699292460628553e-03
-2.839572863333655189e-02
-3.364379167552312283e-02
-1.227725561746310923e-02
1.283356934595759023e-02
1.608634911396408448e-02
1.770643769792860922e-02
5.162059100572405357e-02
6.627161171424839070e-02
3.275139029021260917e-04
-7.354966596013833013e-02
-9.881032311168982951e-02
-1.711494340356660704e-01
-2.774062320463683839e-01
-2.194169806072152340e-01
7.007617430533420386e-03
1.810566099013115327e-01
2.419283967323148099e-01
2.562880346743174331e-01
1.679654201405289815e-01
-3.282524104261953096e-02
-1.835078487039194794e-01
-2.085894007053341048e-01
-1.828606181670531794e-01
-1.109270698754131618e-01
4.411567121765460481e-02
1.975399061115629407e-01
2.518305292979742260e-01
2.325425333457381560e-01
1.979977365072186912e-01
1.528369973065522303e-01
8.091515206053695453e-02
-5.733917295884419230e-03
-7.614767673557915062e-02
-1.281979748467767244e-01
-1.596892509312538289e-01
-1.379505911558793207e-01
-7.562407172697792335e-02
-2.664456342819259901e-02
1.020360755604772865e-03
1.665565321725231973e-02
1.046076328625610008e-02
-6.529049063141048256e-03
-2.678433961736026783e-02
-6.248920781624842102e-02
-8.581395204600961168e-02
-7.280008540261452554e-02
-6.506399467752708998e-02
-7.339927288302007524e-02
-5.310609457008240442e-02
-6.182855692304907100e-03
3.895401412955222520e-02
8.344801580121966045e-02
1.184447141940248582e-01
1.221248455592324894e-01
1.014339141902302344e-01
8.818227448407009450e-02
8.488076345022373126e-02
5.081305915703360210e-02
-6.519964983595943897e-03
-3.256065491316986749e-02
-5.230553318999824064e-02
-1.156417708390557464e-01
-1.808512140945239266e-01
-1.938471618805594487e-01
-1.284363227201324176e-01
2.305154284731510822e-02
1.742499637202553631e-01
2.369002346285114524e-01
2.199203057810044937e-01
1.136440250081443004e-01
-5.470506517671066410e-02
-1.455525103738466441e-01
-1.319562022664877987e-01
-1.202517750571657218e-01
-1.144445503646806528e-01
-5.321079301673620199e-02
3.662451220485973130e-02
8.338267779237452937e-02
6.325236353424390501e-02
2.347314530944038385e-02
1.290235332632366783e-02
8.998566708233452296e-03
3.917076021088418576e-03
3.081638982383830966e-02
3.508440227666766165e-02
-1.256891280767496837e-02
1.423511202815401153e-02
9.399741945249334707e-02
2.448885167993464229e-02
-1.054167129000648517e-01
-5.387216739312082614e-02
6.338162579935455176e-02
4.359655592618821851e-02
-1.873898189513389240e-02
-4.326158621111917194e-03
3.388084479123584097e-02
4.284213834847874075e-02
3.694144597674358516e-02
3.039131484588179777e-02
1.347063128081724299e-02
-2.929796917669317408e-02
-7.532708781165627088e-02
-7.721958819232686844e-02
-4.833739859019945545e-02
-4.007891213761152066e-02
-2.928325861129820601e-02
2.805674277554924545e-02
6.612368634292399572e-02
2.340478129259280365e-02
-2.484788352275092704e-02
-3.965248414043141129e-02
-9.246947744353323229e-02
-1.624393409786525078e-01
-1.719384492569120404e-01
-1.617678819341676344e-01
-1.323680282821384779e-01
3.216485781535693284e-02
2.703437958651439543e-01
3.640863312412305763e-01
3.050164198739738208e-01
2.220594087602084377e-01
1.017925131944396738e-01
-5.869399336227854036e-02
-1.326726901147920468e-01
-1.168153904168935109e-01
-1.333855917553077031e-01
-1.478838406757677082e-01
-6.265580624314484592e-02
3.540910594805128653e-02
3.985404534208123600e-02
2.931870826076075215e-03
-2.023449095803542264e-02
-4.717744173187348594e-02
-7.095791266112472240e-02
-6.240501824204610498e-02
-2.645319246921744999e-02
9.301235539130323429e-03
3.292630490492506889e-02
4.728017389933235337e-02
5.215499158113093281e-02
5.887898508817133308e-02
8.441026740555686303e-02
1.159052242499516855e-01
1.136799304156433654e-01
5.284799497849448913e-02
-3.233404569977948312e-02
-8.338622860776168100e-02
-9.843040073447344163e-02
-8.734645017396891475e-02
-2.824645526095836273e-02
3.830520619596774340e-02
4.073053518562006620e-02
1.168109401587417301e-02
6.592401764366102000e-03
-6.509566340286956215e-03
-3.968161197344024366e-02
-4.024285129035844177e-02
-1.254672932659085111e-02
-8.440541984144005194e-03
-7.487219444383496833e-03
3.157723491933710214e-02
6.566123621484168393e-02
4.513245467131070388e-02
-9.003109738529951195e-03
-6.442622932917037304e-02
-1.194677469067788045e-01
-1.759785496397086868e-01
-1.796642695215409091e-01
-6.373339973926828161e-02
1.020713429026843533e-01
1.944573155154432909e-01
2.134247767178550359e-01
1.839523682784590664e-01
9.319705739108830045e-02
-1.189976477945262068e-02
-7.717514259903686391e-02
-1.161476797196884236e-01
-1.465724213217668437e-01
-1.492982477062784197e-01
-1.113418217560783741e-01
-7.383168911532056455e-02
-8.202564658802237452e-02
-9.480484574334839543e-02
-4.506079291315340241e-02
4.916488443690915366e-02
1.418774947824803234e-01
2.257598473982657394e-01
2.702074988500006159e-01
2.445621786350935245e-01
1.944050925332285740e-01
1.511582395944141288e-01
7.888064610634121232e-02
-1.222815856043913546e-02
-6.981128505793701700e-02
-9.703656466583653051e-02
-1.145101774128954863e-01
-1.154861182596913505e-01
-1.004955668455044387e-01
-8.006278814299531976e-02
-6.257793338621110701e-02
-5.644473825704804382e-02
-6.322752960497841912e-02
-6.848808459921697234e-02
-5.511011031666605831e-02
-4.602818825002796127e-02
-7.240202259794896456e-02
-8.334454565321877673e-02
-2.055714859549477580e-02
4.796730243694254103e-02
4.229379306169763625e-02
2.286997133550034214e-02
6.184963279157558447e-02
1.072359119393275911e-01
9.485151724966045528e-02
3.805015605979749499e-02
-3.109032401539667950e-02
-9.121184504254097047e-02
-1.333014955021978032e-01
-1.373498961736224488e-01
-3.871738676836522508e-02
1.509833094998072334e-01
2.880058023354776231e-01
2.955627796439065924e-01
2.151803133520882316e-01
7.548123153539491870e-02
-7.431201817286586797e-02
-1.480086106423405268e-01
-1.536377218628984243e-01
-1.645460445631538593e-01
-1.653054328643803195e-01
-9.674079428812848436e-02
-1.087124706283992479e-02
-9.621124184591748132e-03
-6.477550526314496127e-02
-7.266998696919481360e-02
-3.928213622099715335e-02
-3.013965099677092668e-02
-2.557273876692758852e-02
-8.048803464939673774e-03
-1.833631563785498644e-02
-1.555701035566754015e-03
1.024897396580960879e-01
1.888255410408201107e-01
2.050425560544036074e-01
2.006787039076835810e-01
1.364343613598167637e-01
2.757173062560439730e-02
-2.258288024615029768e-02
-3.408194186953496935e-02
-6.058835741094448224e-02
-6.292715341544055652e-02
-1.544900980078797031e-02
4.623166284142486704e-02
7.989045457379907733e-02
6.302801177376680941e-02
3.094460919847450212e-03
-6.203628160199312763e-02
-9.705645375643348616e-02
-8.722658026061594350e-02
-4.302449686227898668e-02
-2.206199965920368003e-02
-7.349672444201582611e-02
-1.515574089703544680e-01
-1.772004919245609988e-01
-1.415548748270019641e-01
-8.549018040890521419e-02
-4.101360851980426214e-02
2.457588031282570418e-04
7.032641063179541352e-02
1.501489313980829687e-01
1.905001189259778460e-01
1.885362109915063311e-01
1.452011802857553213e-01
5.842434594943507475e-02
-2.266710028586384207e-02
-6.240170070540450309e-02
-8.062182308359179539e-02
-8.317192283918661833e-02
-4.733005916293900328e-02
1.934020397845341924e-02
5.550701487177454180e-02
2.600962430746386195e-02
-1.414891489336580349e-02
-2.475516065386140080e-02
-3.778500664172944334e-02
-4.755983530515671409e-02
-2.017989143085905865e-02
1.426968402763412018e-02
2.370347763077250425e-02
2.485853223131801945e-02
2.982056893871544434e-02
4.719163076619729141e-02
8.660492779703460320e-02
1.058679117750364607e-01
4.837517427794409824e-02
-4.743149708109656304e-02
-7.407968502783968123e-02
-2.400672244308691208e-02
-4.176253663872388916e-02
-1.700379789321474489e-01
-1.917535196024523769e-01
-1.626610624626223522e-02
1.161913889642619685e-01
1.024451776469753606e-01
8.500629497898995468e-02
6.392026033981321187e-02
-1.563166725736032242e-02
-4.688139348820143104e-02
1.564070067270852821e-02
6.100988449658740348e-02
3.707505390261550682e-02
5.002410163010035694e-03
4.847801905257328840e-03
2.064704891144053880e-02
4.582458535530169880e-02
6.618743412483732436e-02
2.483072657339957176e-02
-8.134307114983164999e-02
-1.597335000223077117e-01
-1.818100000313048192e-01
-2.084121799419251797e-01
-1.782105570388050064e-01
2.511216482700619635e-03
1.880958991295312299e-01
2.453977704379527724e-01
2.707978935880093196e-01
2.227916635535182321e-01
-1.246142217316836484e-02
-2.058353088807217401e-01
-1.700043238958687253e-01
-1.009602260502064364e-01
-1.068849544974958543e-01
-7.287230505686008442e-02
-7.776361726727385598e-03
-9.116025225017672720e-03
-6.686797921766292341e-02
-1.115666709778273119e-01
-1.117408395664786502e-01
-7.599685750302040410e-02
-1.437507998054976879e-02
6.267523351751957961e-02
1.364132821141888496e-01
2.097097256839293711e-01
2.863684051267375019e-01
3.248441509252599224e-01
2.889457796055266425e-01
2.020064015531084500e-01
9.812800454491782398e-02
-1.184356460484719403e-02
-9.772189903020456203e-02
-1.343204970222610650e-01
-1.594081664586188551e-01
-1.880174760867884542e-01
-1.663905212200494643e-01
-9.937923341587362458e-02
-5.574195064664496518e-02
-4.168537674381735808e-02
-2.641745808900651873e-02
-2.190976189454827555e-02
-4.341249317089142246e-02
-7.077121354801821362e-02
-7.015262572322188139e-02
-3.389369746971885450e-02
-4.448215944650946163e-03
-9.726756104717959595e-03
-2.040359629820358636e-02
-1.238331532730428675e-02
2.290862753944810509e-02
6.400025170469100799e-02
3.174857934799094061e-02
-7.060204221653947065e-02
-1.318044355900633569e-01
-1.206527848876646214e-01
-5.178753834374621307e-02
1.012022205072973802e-01
2.655548231825266559e-01
3.197959117938531381e-01
2.799044568000237376e-01
1.860084141579275152e-01
2.392382359297270250e-02
-1.271610507175532923e-01
-1.593478106009506567e-01
-1.130935735993925662e-01
-8.461753376038055885e-02
-7.191054091180013041e-02
-3.860761955568599302e-02
-1.741505963803011842e-02
-3.087301515979277988e-02
-3.344347835832350846e-02
-2.786366050395244764e-02
-5.547463656906672508e-02
-6.981953357455336628e-02
-2.277997488343465327e-02
2.666446760088105397e-02
2.639524597235362938e-02
1.797567214184399992e-02
5.281976041600493915e-02
1.018593270459135364e-01
9.915241885226935836e-02
6.194094270077358383e-02
4.573558569070956120e-02
2.212491043226507553e-02
-2.536827225893129728e-02
-3.819195750451864768e-02
-2.349466609099681164e-02
-3.770389354707101570e-02
-6.239640142287118663e-02
-6.218768080648988394e-02
-4.547858354733695652e-02
-1.716932304101989951e-02
2.766551689787633689e-02
8.443357950366513209e-02
1.322001311475842211e-01
1.345286909319536317e-01
8.144755102641391964e-02
-1.485994672962927168e-03
-7.776707966060308896e-02
-9.722920728498424259e-02
-6.106448813874545967e-02
-5.440779303540968503e-02
-1.139457425565068016e-01
-1.756007609978197936e-01
-1.833505907504920374e-01
-1.489989497207794833e-01
-8.784224293412484785e-02
3.295575321153462744e-02
1.850215163958914000e-01
2.553798666911855086e-01
2.287703694041365587e-01
1.761914569346126891e-01
1.093541080003519322e-01
1.685343840759814804e-02
-8.465692039013784920e-02
-1.566939862124434590e-01
-1.476629765583052367e-01
-6.538214927324520476e-02
1.249151619653744889e-02
3.547579339147045874e-02
1.605481469360925048e-02
-1.109270274783835664e-02
-2.458101533834386454e-02
-2.261668873146832279e-02
-6.959649184246082844e-03
1.702469529348810823e-02
2.318793975643101621e-02
-1.354658057158325372e-02
-5.800019694754595528e-02
-3.291429412925561682e-02
5.800272040611218621e-02
1.244173248596426862e-01
1.373033469629959258e-01
1.244046666108045429e-01
6.356430613885753755e-02
-4.135578864278575961e-02
-1.067133703018549040e-01
-1.095086869452725764e-01
-1.050418419947751897e-01
-9.050906084601004209e-02
-3.670709832434248393e-02
1.252494458429290192e-02
2.268001095972673603e-02
3.678468179304756475e-02
7.111154316713935719e-02
7.135392174579595348e-02
2.012941766690529155e-02
-2.234449723107777980e-02
-1.699454255700933239e-02
9.862587054626118649e-03
4.326165691696866322e-02
8.036358283331375418e-02
7.214423308461334616e-02
2.011467427702876010e-03
-6.120217377532011227e-02
-7.892011957830724622e-02
-1.038753496917678432e-01
-1.871198533748810733e-01
-2.537905217839421246e-01
-1.546971239176805901e-01
8.008585389616519612e-02
2.444626546672555023e-01
2.594685210003477849e-01
1.883164967282398572e-01
6.664089449050680791e-02
-5.644211242459157979e-02
-1.153214829098946903e-01
-1.233765931081204636e-01
-1.182385756805847538e-01
-9.389138125089478704e-02
-5.913854629598035151e-02
-6.284500253713976026e-02
-1.157590167821658245e-01
-1.351205710704097562e-01
-6.642322025663038865e-02
1.382751019777825677e-02
1.102437247613932414e-01
3.152253954368118838e-01
4.531326661690153745e-01
3.230857267651767728e-01
1.354555398172839209e-01
9.030875778459493408e-02
5.840704164378996560e-02
-2.366054111258372727e-02
-6.566576473871502118e-02
-8.229476747625724675e-02
-1.225149822507448638e-01
-1.399173027562626015e-01
-1.082815536957677516e-01
-7.149201201918267690e-02
-5.105802622981229361e-02
-4.769422619103800415e-02
-7.903020462822593628e-02
-1.182201570623996473e-01
-1.090427970934420149e-01
-6.495797914111212101e-02
-3.157773946846613444e-02
-2.969812264264107618e-02
-5.279290067638875428e-02
-3.895623799554245870e-02
2.476049038519977444e-02
5.579037827644892089e-02
5.699863591457308976e-02
8.449338441775695874e-02
9.717551764194823360e-02
6.609980033648188424e-02
2.756430103256294131e-02
-2.060892020677793784e-02
-9.811176777467094101e-02
-1.540202967471840101e-01
-8.942732479692366843e-02
9.301267516061841045e-02
2.380338186504137588e-01
2.457566514932429391e-01
1.877385907448607116e-01
1.224742702290111673e-01
1.404802011000822609e-02
-1.096309768444229948e-01
-1.549878780646446186e-01
-1.341960930874784297e-01
-1.255813682423458089e-01
-1.144609590450954145e-01
-6.082217588968027305e-02
-1.828321383616211479e-02
-3.053263911485988927e-02
-3.911237012256876810e-02
-2.850025403010863004e-02
-6.839155551993698900e-02
-7.538316094220401387e-02
8.069971398379381655e-02
2.092428687179410662e-01
1.166096264739396315e-01
-7.309646653708527786e-04
2.338427021828861155e-02
7.069086088395661049e-02
6.525522148660112265e-02
5.566474748684552276e-02
5.701422364080090815e-02
4.412249758499561803e-02
9.442669501780135560e-03
-2.671336517767012794e-02
-5.186930230618501392e-02
-7.480187137998765834e-02
-8.808619145234454495e-02
-7.420448144554601944e-02
-2.829695377335984807e-02
4.976436307302885276e-02
1.196038390185382994e-01
1.171116816199545552e-01
5.799350678549895777e-02
5.731922686192119157e-03
-2.727335454021756825e-02
-4.491947602669825457e-02
-4.677500440629513839e-02
-6.097742867711999915e-02
-8.812683742439822443e-02
-9.633342448551132642e-02
-1.058363793931029195e-01
-1.328664651538782604e-01
-1.356817870706908125e-01
-1.291071603702179937e-01
-1.325169426291055719e-01
-3.438345924070164428e-02
1.826674098866742924e-01
3.124338594946464709e-01
2.728007519085980381e-01
1.872193013560161656e-01
9.360934011813830391e-02
-1.230109204022120616e-02
-6.869624539007360142e-02
-9.428255177685840316e-02
-1.163537096846289226e-01
-6.960402651920125083e-02
1.080937442842744636e-02
3.120794217498940037e-02
3.800457161477822227e-02
3.664178394959718282e-02
-7.765695496766825134e-02
-2.158244108177632681e-01
-1.566681494218058468e-01
5.263939176264539194e-02
1.455154121726611183e-01
6.779699921008314201e-02
1.916727077219286535e-02
6.476564968677760159e-02
9.234722051343363658e-02
9.049507333362306893e-02
9.878227728866617596e-02
8.576410380761632923e-02
5.985917312397492224e-02
1.895814474061921842e-02
-1.015262644315502033e-01
-2.047151091689246027e-01
-1.380387670218078122e-01
-2.586169615878611272e-02
-2.321162657471694674e-02
-2.346965103523339369e-02
3.835062458103289523e-02
3.443665723406315327e-02
-1.391769727006229168e-02
5.332963443281751176e-02
1.285283776607671902e-01
3.208530712785033490e-02
-7.570480245641648953e-02
-4.259007725896706009e-02
-1.540673526478434328e-02
-7.806538387738819196e-02
-1.270503291699093262e-01
-1.250889368595033968e-01
-9.817758996249628667e-02
-1.616690197941531709e-02
1.044678670432799272e-01
1.770715303796612516e-01
1.896615859275468385e-01
1.609474059405835433e-01
5.961787699865476325e-02
-7.270429288387773858e-02
-1.230917148064027411e-01
-7.953419095078381740e-02
-2.634096453637511590e-02
-1.390954637684662515e-02
-2.877382068967115555e-02
-3.809152136531862576e-02
-2.943859486924666619e-02
-1.359485215373128220e-02
2.259765871939687504e-03
1.388446651831779996e-02
1.478810376878635958e-02
3.566186959553879765e-03
-3.388209452255833837e-02
-1.006850083851882349e-01
-1.463530842541823640e-01
-1.201021426011582016e-01
-3.130398635755850256e-02
8.232346389557912425e-02
1.904195286048711300e-01
2.590316544862508730e-01
2.694642511745390379e-01
2.427260130754705925e-01
1.876784308150478697e-01
8.729191321032869766e-02
-2.531535800208445722e-02
-9.115206341000987866e-02
-1.243379215422754369e-01
-1.567282073955393873e-01
-1.531700574619680733e-01
-9.605916879695566846e-02
-3.474071975604025447e-02
-4.719642875122257233e-03
-5.395671629622629528e-03
-2.242614719419429997e-02
-3.281568444816874985e-02
-4.399462097165438013e-02
-7.233962936273420630e-02
-7.851477642672323454e-02
-4.147077378989865587e-02
-1.346951721855288962e-02
-1.692325738388766876e-02
-2.695694518839171494e-02
-4.600421804530565456e-02
-8.523989650642863070e-02
-1.308654713927235314e-01
-1.539022004524303322e-01
-1.082430030734447685e-01
4.098520812148234715e-02
2.355945618915105955e-01
3.432407479375215176e-01
3.223464396629475703e-01
2.449977799120789668e-01
1.362169360245314709e-01
-1.397274040964720590e-02
-1.299738326744149797e-01
-1.494572403135062122e-01
-1.253512781708104040e-01
-9.639042915144774293e-02
-3.427862324408498251e-02
3.348165421079558196e-02
4.329375257633055751e-02
1.915453178972796947e-02
6.442400409063414254e-03
-2.918703307020484999e-02
-8.956661073082199109e-02
-9.315841082276944685e-02
-4.125494000363798264e-02
-2.304663412661267854e-02
-3.717073589328363098e-02
-2.331543695675056954e-02
1.030318482672550398e-02
4.869701229993649710e-02
9.833494646756654745e-02
1.084181132563156041e-01
5.316866707579782220e-02
8.271628992702092023e-03
8.165362746096299987e-03
4.082380648818356716e-03
-1.343709849010390513e-02
-2.454312870805383170e-02
-2.587755148589025375e-02
-3.098884863431629680e-03
5.171825694523309730e-02
1.268498156472375737e-01
1.520205069438626266e-01
4.769103600225606254e-02
-6.461290615959684736e-02
-3.277168850342724454e-02
1.040356757797945148e-02
-6.669253843006806015e-02
-1.357750578958319132e-01
-9.172144038555250789e-02
-7.736959503278295625e-03
2.587262262030643259e-02
-6.054747787228906275e-03
-7.465016328491744235e-02
-1.598100376966233305e-01
-2.361682111053680921e-01
-2.112101119671521143e-01
-5.125665106697014500e-02
1.078216393783609089e-01
1.934256147181369068e-01
2.527941544017651143e-01
2.401147520986224582e-01
1.202559409732778944e-01
-2.023865002907404564e-02
-9.689299372988723069e-02
-6.948532965635650926e-02
-3.046432095934995324e-02
-1.148809297467018598e-01
-1.785038326011002541e-01
-5.318788018995120048e-02
7.839068362953829916e-02
5.732966429994981739e-02
-4.602757683657728374e-03
7.833113780556174438e-03
9.583159412765451801e-02
1.471765523973638801e-01
7.714209293988244509e-02
-2.146055459074354063e-03
-7.766998481688682648e-03
2.307516703180183260e-03
3.194808432438160650e-02
9.065843724723954278e-02
1.138836041483887729e-01
1.001661627057084114e-01
4.428538170608261465e-02
-1.017927987017884506e-01
-2.189785029823194673e-01
-1.745462217582625097e-01
-7.879163986498900762e-02
-2.638431639241225687e-02
2.949065927149653599e-02
6.917642644807636687e-02
5.393005947187027443e-02
1.203345561986553756e-02
-3.631074784331790595e-02
-6.214874163536285995e-02
-4.017536783194079753e-02
-5.269301484516106596e-03
2.053324923097608889e-02
5.408965836926850346e-02
7.576045562041426595e-02
5.698604668015644359e-02
2.451480791952788743e-02
-2.314234942571970211e-03
-6.160213369191329391e-02
-1.400679661842065271e-01
-1.480170118266022350e-01
-1.095376614722200492e-01
-1.229537937488771188e-01
-1.001616696083071495e-01
5.602544662798674552e-02
1.911675978748418325e-01
2.081590285075596569e-01
2.105636111164643498e-01
1.826993225836079648e-01
5.081312948503208249e-02
-8.280101711081509774e-02
-1.287457982036665782e-01
-1.293077609845670051e-01
-1.051511692841277240e-01
-5.049406656605739951e-02
1.782819552034749233e-03
2.369879002938229950e-02
6.654008831698537615e-03
-3.858713445217542420e-02
-6.592535782876521311e-02
-5.440787893375560735e-02
-3.640842928741813700e-02
-2.497129408792547398e-02
-1.842004844180279884e-03
3.828714261576739858e-02
9.286639781861795451e-02
1.640041447536757790e-01
2.341336253608876372e-01
2.501069995746333374e-01
1.926502320096544485e-01
1.175642803483828436e-01
4.736444598275027507e-02
-4.387585224583390869e-02
-1.268646817177462860e-01
-1.725766634781615849e-01
-1.979081212931815548e-01
-1.797047541991113606e-01
-1.121325785521003898e-01
-6.852934508676054859e-02
-5.835970629966704543e-02
-1.603918030730232605e-02
3.052363192539533226e-02
8.714928576440138935e-03
-3.897715525650327639e-02
-3.760426629225280259e-02
-6.921699110492536902e-03
6.031485261838092499e-03
1.028947430391884132e-03
-2.313874458481352328e-03
-1.048861647064633883e-02
-4.859844129969925763e-02
-9.646072871706329321e-02
-1.153966720435960075e-01
-1.143309102919408543e-01
-6.771330152927840240e-02
7.742332534918806852e-02
2.403088698789646871e-01
3.111703455838561450e-01
3.118289382031042001e-01
2.414387438712930489e-01
8.260879860978607991e-02
-4.414232422449200499e-02
-8.214828569754741017e-02
-1.234844165235363944e-01
-1.506756981092800540e-01
-8.942970211495807065e-02
-1.096576947234056618e-02
6.678166343245578798e-03
-9.044981274056014542e-03
-3.249432328409838228e-02
-6.864645871009790457e-02
-1.051893783660750592e-01
-1.116944238197644518e-01
-7.249458885559487142e-02
-1.722775556870384875e-02
9.063203995434376131e-03
1.981223676611656298e-03
3.257611407594666886e-03
5.016708637114850738e-02
1.070235867416766823e-01
1.124933258492524651e-01
8.724889018662571050e-02
6.767388517162173378e-02
3.630830573156589025e-02
1.086976953553149550e-03
-1.923364398236709211e-02
-3.620729196975498027e-02
-3.950713566214873740e-02
-3.027691111815380282e-02
-2.893320467157880355e-02
-3.518307189444754186e-03
6.050706061959862381e-02
1.022390563410249253e-01
9.246167712305541908e-02
6.186157844680414963e-02
2.088969382096600436e-02
-2.165810376657063135e-02
-3.200108091652291431e-02
-2.942105550334047498e-02
-5.881992885983790276e-02
-8.663994348188054639e-02
-8.888368854724282286e-02
-1.213271731463452519e-01
-1.841227288493024750e-01
-2.188679047849568793e-01
-2.065171463555593168e-01
-9.613730673282282202e-02
1.317930503033038214e-01
3.055373671441924954e-01
2.908544281053031533e-01
1.982030052946073817e-01
1.228365793066101691e-01
1.836577589865055413e-02
-8.952529923531565847e-02
-1.106208324530270348e-01
-7.026427173557586725e-02
-4.685908183440092023e-02
-3.910376707031920640e-02
-1.812022072191098870e-02
-1.087996502904136666e-03
-5.333936396796279920e-03
-3.175839924298867224e-04
1.104972870377925014e-02
-3.081216285555565468e-02
-6.028455255631078036e-02
2.673813212005538703e-02
8.533785141032683430e-02
7.131014685962510508e-03
-1.998397368980807387e-02
5.958081361454482805e-02
9.182416326256402639e-02
6.813209310101080163e-02
3.448832744559359592e-02
1.525643174632289323e-02
8.403510280063908322e-02
1.288219162954032937e-01
-1.865897860391735330e-02
-1.860970373477436046e-01
-1.658024083814233218e-01
-5.089013619237654079e-02
3.759656906056856041e-02
8.373165728623270521e-02
6.992530755015277655e-02
1.337598205922514716e-02
-3.560569397179308426e-02
-6.398538587882503237e-02
-7.739335403101779698e-02
-5.850639018851154505e-02
1.211105759533413588e-02
8.544849689792179126e-02
7.562646525612706783e-02
1.563637240837006254e-03
-5.103434518120550378e-02
-7.330062174679573272e-02
-8.442918802005837386e-02
-9.390839783284959941e-02
-1.437516428096176080e-01
-1.758046698806594033e-01
-5.810238939893798416e-02
1.205991486817950542e-01
1.839052940261245717e-01
1.965591071357000175e-01
2.340042873955947289e-01
1.802207138579003942e-01
2.318569705627016378e-02
-9.222000313088758727e-02
-1.351347590539749011e-01
-1.510438670385965410e-01
-1.128272119489357322e-01
-3.608698721922240504e-02
-9.681291849393995966e-03
-2.700389553820413749e-02
-1.383461621294319530e-02
1.226361381870779560e-02
-4.394034938045795341e-03
-3.620975212515045033e-02
-4.517814379419611559e-02
-6.950879610172909506e-02
-1.160353610079987302e-01
-1.013604956531525270e-01
6.180410224209728805e-03
1.435986058132803500e-01
2.650931246182872680e-01
3.481935714814172189e-01
3.537094821671438183e-01
2.822813535825959841e-01
1.776634006346612948e-01
5.325007323489761024e-02
-7.744804784215580939e-02
-1.610285763846250606e-01
-1.884849480661062171e-01
-1.990729598131151801e-01
-1.847198324150141624e-01
-1.266322830145988898e-01
-6.633466903237955625e-02
-4.344738222687587192e-02
-3.855570370569040561e-02
-2.732202216711859810e-02
-3.038740746639629481e-02
-6.098320608032197637e-02
-8.346070460047640138e-02
-8.188313675402104919e-02
-9.343054909427092602e-02
-1.324212219701888515e-01
-1.589605471910964241e-01
-1.459095547321190289e-01
-9.571167191958829257e-02
1.543038974563071264e-02
1.829155234200191271e-01
3.082700849471677329e-01
3.255219974151281059e-01
2.683331145108643900e-01
1.744425991143099819e-01
6.822355047970275754e-02
-2.268968572727747546e-02
-7.779717531421047327e-02
-7.589605030185661572e-02
-3.613557609051100405e-02
-7.337475683066758958e-03
4.814794899205724482e-03
4.774094512563947443e-03
-1.839485735370855607e-02
-4.162045595380013674e-02
-3.236904212989341612e-02
-1.172288120387843940e-02
-2.669171333805289009e-02
-6.280281878162773113e-02
-6.158965703286697208e-02
-3.359124107262400488e-02
-3.154616483352249562e-02
-3.776495724216023808e-02
-1.267174441738689629e-02
1.993764910638839982e-02
3.731759196257977695e-02
5.820407797112903819e-02
6.295666274193509326e-02
1.402686520621392388e-02
-3.979105425903610438e-02
-3.801320318065058018e-02
-1.441435006637045019e-02
-6.529447894771382710e-03
2.267371395885303936e-03
1.768764114487589995e-02
3.512937242519158926e-02
5.284627680577078795e-02
4.766022872814354439e-02
2.418219922713594344e-02
3.386251248197423569e-02
7.125063749609109043e-02
7.307941585974266074e-02
4.930200440189476396e-02
5.158152002963953958e-02
4.769900034810078265e-02
-1.443577418898628860e-02
-1.001510599709805049e-01
-1.542446901654226932e-01
-1.824560777621927476e-01
-2.042446692243817807e-01
-2.169554234887313693e-01
-2.032976951238010810e-01
-9.533369637483710135e-02
1.246084956610155059e-01
2.976123706258838042e-01
3.005474635384094428e-01
2.054358316592694855e-01
8.154519476880998929e-02
-5.405219182565338537e-02
-1.253294641646690577e-01
-1.086716381439570278e-01
-7.992840150730448623e-02
-5.096841250284407654e-02
-5.174197302528050525e-03
1.569237733328556319e-03
-2.310298009868980498e-02
-4.637340359866569048e-03
3.914053462195633132e-02
5.743480016259551457e-02
4.269741098256724099e-02
-5.196011105945239072e-03
-3.449034132564089694e-02
1.251601573812803452e-02
7.532338896125047312e-02
7.103544699648008109e-02
2.853883990950363547e-02
7.862818904379740084e-03
3.068929095107478938e-03
-5.142821860840036084e-03
-1.254065118626881276e-03
-1.207858623510117170e-02
-8.671939652383361952e-02
-1.137812690768314206e-01
2.514189923892335907e-02
1.392989699235757106e-01
5.976933364166926721e-02
-2.482173047074033578e-02
3.333007708928342055e-03
1.412536652876046975e-02
-9.432105582799221732e-03
6.179076564890740447e-04
1.145407137046478702e-02
8.538879611711144499e-03
8.797778782165340331e-03
-1.377574981363964557e-02
-3.194897805402426710e-02
4.703352702408334675e-03
4.070305329018844565e-02
1.777941674209172068e-02
-3.194340202515918298e-02
-6.705368014413584654e-02
-7.608546770105659163e-02
-1.018638663354497348e-01
-1.773570384867499128e-01
-1.799285450994934088e-01
-1.881372146248128790e-02
1.479854188642905077e-01
1.861891946860519120e-01
1.655619111904751417e-01
1.362033113935484097e-01
6.942179067606735199e-02
-1.700079163966888851e-02
-7.983196242179740887e-02
-1.127028149239838045e-01
-1.222702775816108395e-01
-9.566761012250560303e-02
-3.356826009621492746e-02
2.073115719563671522e-02
3.820764966352697273e-02
3.557197403757353382e-02
4.988296706335957481e-02
1.054906230337598338e-01
1.141547520792395298e-01
-3.718854271518430565e-02
-2.067176977935491489e-01
-1.942101465132881066e-01
-1.016038682918962710e-01
-5.941106925361996915e-02
1.683788128556448077e-02
1.520837913585201817e-01
2.328103429560915982e-01
2.249330092779389112e-01
1.971771258916406033e-01
1.779205084960190086e-01
1.387714502195375732e-01
7.708520810543387225e-02
1.184856273401753424e-02
-4.025628604495532642e-02
-7.331931511254849432e-02
-1.118476823231642631e-01
-1.475913644003154501e-01
-1.395845757834381362e-01
-1.090525032848775056e-01
-8.795350393565208591e-02
-6.092103563744646899e-02
-2.678709988525868751e-02
1.577546817246817945e-03
1.414023673263528277e-02
-6.458157687992151924e-03
-4.294720757940839739e-02
-5.691712811345753242e-02
-6.275672143706864659e-02
-1.082334092810904452e-01
-1.856701159485399655e-01
-2.225892926139005357e-01
-1.680350146265839062e-01
-2.685142604747403627e-02
1.572081736632457705e-01
2.937046309546500478e-01
3.222702693727380607e-01
2.768917478784094222e-01
1.936058836282276152e-01
8.435782607896968877e-02
-1.234171615258167903e-02
-7.706173419259473856e-02
-1.191694160108151268e-01
-1.218053052555414240e-01
-6.513949079889544413e-02
1.805832418447978968e-02
5.855833900143164739e-02
3.109433382769015777e-02
-1.267382712373093384e-02
-2.200232260019511013e-02
-4.951834056227958497e-03
6.918354809213759192e-03
-1.116627382778125760e-02
-5.567618311440556550e-02
-8.247344261405385735e-02
-5.922873852774625941e-02
2.890347499885788287e-03
5.949443036835123239e-02
6.265525997713541906e-02
3.336605187574685771e-02
2.402475269674722927e-02
1.683828894091991130e-02
-8.601362080487980413e-03
-1.580344905162221411e-02
-9.648705723183844882e-03
-3.313809495145519229e-02
-5.277894465361517712e-02
-2.263952268746742547e-02
8.612285664971609800e-03
1.076068087664572986e-02
2.630674459456940062e-02
4.717133022988286017e-02
3.608723907136983378e-02
1.405866360503444865e-02
8.922615057406060868e-03
2.038455626194236522e-02
4.807615035694647043e-02
8.594647878392562557e-02
9.974899206548459851e-02
4.686705920724664604e-02
-7.325472016721749913e-02
-2.138505724787843065e-01
-3.092586809695710981e-01
-3.010185741268358028e-01
-1.696240879350195963e-01
4.642141483759836679e-02
2.363415533881526587e-01
2.882635204021162800e-01
2.254971862740726141e-01
1.407855473598846330e-01
5.279585390429145098e-02
-3.987017767561464726e-02
-1.157044896820506041e-01
-1.702292093823419561e-01
-1.820636582378998281e-01
-1.177365311404535153e-01
-2.978833782680760656e-03
8.309858324361411863e-02
8.521521935556831961e-02
5.321377342969572932e-02
8.234406886301533224e-02
9.934459479274937443e-02
-3.126444997908855994e-02
-1.565450981558907384e-01
-7.848228169212287386e-02
4.708146662452734887e-02
5.277326284343128449e-02
4.163984802443301825e-02
8.460725114460594665e-02
1.094562236560058660e-01
7.817126479256514271e-02
2.580725838680256526e-02
-1.127576692180563139e-02
-3.868729012384793109e-02
-6.372987392386211813e-02
-6.509717123417596563e-02
-4.566158838907717621e-02
-1.797260624302060919e-02
2.842282290418308120e-03
-3.844810731583327146e-02
-7.778277340645531335e-02
3.372921590823337729e-02
1.617161244037162715e-01
9.023521909197690372e-02
-3.303168840594081224e-02
-2.605440115096778128e-02
1.123833171211521473e-02
-4.279150727579368943e-03
-1.583306441205041548e-02
2.199357943060329355e-03
4.300778058052869696e-03
-4.337106263191536221e-02
-1.027741418496723597e-01
-1.354600627727355067e-01
-1.643162581392956234e-01
-1.672265128718471716e-01
-7.352716074530478430e-02
7.300432318445979063e-02
1.611303008606127796e-01
1.961710551035028560e-01
2.194272595410902693e-01
1.694821671214698511e-01
2.962732003440878698e-02
-8.118861463488098729e-02
-1.012567258609678444e-01
-8.939630971803136372e-02
-7.635255593425643861e-02
-4.608484544609854627e-02
-1.210601561317871389e-02
-5.081040177016651112e-04
2.008312792867527653e-03
2.730532743327617612e-02
5.055802930921853011e-02
2.181692127056259617e-02
-1.940699784757207377e-02
-9.019422357756469444e-03
-3.044867490248782255e-05
-5.882548764474542641e-02
-1.112207478274054168e-01
-8.265740970893772910e-02
-4.340093924536839176e-02
-3.353274744765346455e-02
1.679000654567477241e-02
9.133497674457309590e-02
1.196735966495738324e-01
1.414524383929058327e-01
1.874593312114959387e-01
2.016248653576311334e-01
1.744097142669314704e-01
1.393829300860155440e-01
8.133130832811634459e-02
-7.856896904590335295e-03
-7.110671443953378579e-02
-8.157372155542631786e-02
-8.985509535126308400e-02
-1.111521845781569817e-01
-1.105843532580024491e-01
-9.464464933656195622e-02
-8.179074510239099649e-02
-6.248272088128641044e-02
-4.806709362349281117e-02
-4.752548994572519669e-02
-3.464714645856162289e-02
-7.092242091902593859e-02
-2.349417020543609347e-01
-3.479546414734584481e-01
-2.430235524678016623e-01
-1.003614078192369558e-01
-2.487110163338102087e-02
1.190495230065648918e-01
2.986892020954034499e-01
3.679856185697659154e-01
3.145782347752605901e-01
1.919431782250566043e-01
7.421879062860864407e-02
9.359952964518684915e-04
-6.401262735637608392e-02
-9.793258454714609540e-02
-5.271152545389599237e-02
3.080114433471295432e-03
7.251850250622032465e-03
-3.595659877913721936e-03
-4.309486473555876329e-03
1.141411476341681538e-03
8.282311708699986383e-03
1.059169685182130213e-03
-1.175544623396477736e-02
-9.830115733575728321e-03
2.469213140560215861e-03
2.290134195481682150e-02
3.725428792587714977e-02
1.812494913586739503e-02
-1.276247584639092318e-02
-1.089263932850586050e-02
1.205530891923513141e-02
1.504080535379434015e-02
-7.058321159972830335e-03
-4.039065115916927462e-02
-7.368530656116549504e-02
-7.916370164990731151e-02
-4.479035662605021506e-02
-4.039152292028754324e-03
1.764226915090233438e-02
3.326942701701227773e-02
5.133860895452772161e-02
5.137071036026951559e-02
1.842556500412593362e-02
-1.793289589939786599e-02
-1.460499262660275646e-02
1.524053966978367904e-02
3.432428165698268169e-02
6.276444522292287664e-02
1.131024400029876087e-01
1.021782739345367119e-01
-2.837388475303806792e-02
-1.757265523460600498e-01
-2.414095843473538783e-01
-2.994475854643789958e-01
-3.188791520900096654e-01
-9.217524346326891327e-02
2.398920245908917892e-01
3.096143782615478068e-01
2.164956044770007804e-01
2.215928353899392633e-01
1.869006865111630389e-01
3.789673798519698628e-03
-1.362167984507046126e-01
-1.639196650665075694e-01
-1.754178060389643690e-01
-1.518625591543596720e-01
-7.205738950801093834e-02
-2.902352381721459013e-02
-2.705355292846905318e-02
1.843606173092907086e-02
8.014583226918507719e-02
9.123975574723566795e-02
8.268244336132603289e-02
8.584253485356280189e-02
6.759591153734374747e-02
2.923599996167431173e-02
1.904424131382825153e-02
2.952415609705440896e-02
2.430911551740431650e-02
2.907460163396498667e-02
6.196982697850287464e-02
8.010307082852771710e-02
6.382517926824260446e-02
2.148764366950823082e-02
-5.151789197157551070e-02
-1.149425582655675265e-01
-9.795850904897249189e-02
-2.798322076057828053e-02
-5.344393609827886339e-03
-4.271628061353421879e-02
-7.569181924899080760e-02
-8.636626858329279899e-02
-8.508112373806410444e-02
-4.992027597020148866e-02
1.702244834436225998e-02
6.699796412428453418e-02
8.855459133589362042e-02
9.564480204398506658e-02
6.284882806391955956e-02
-2.059748773117729692e-03
-4.149046845864898247e-02
-5.190979191001902915e-02
-5.849988774815514936e-02
-5.276169517502510287e-02
-5.165168411406480947e-02
-1.043700382694256468e-01
-1.739177564127919740e-01
-1.240114829655715178e-01
6.333000940935275269e-02
2.148999721081497338e-01
2.427364562357416655e-01
2.187119469420442386e-01
1.470762634920711465e-01
1.329740205894798001e-02
-8.120469030758609152e-02
-9.286032503309303576e-02
-8.533062671403709998e-02
-7.247282478376103343e-02
-5.898759563725179678e-02
-6.820275963406430275e-02
-5.331214497554301324e-02
3.676783536515819927e-03
3.724501431697831155e-02
3.657585579759126126e-02
3.311117710947676651e-02
3.507328385017519784e-02
6.763186862207291872e-02
7.619297043775756506e-02
-5.531769861555372453e-02
-2.103833565617554135e-01
-1.802659489166221762e-01
-6.574657553104262808e-02
-3.656530930043888628e-02
-1.085422016141447503e-02
7.901315468109409990e-02
1.562283273113682092e-01
2.106803163477466989e-01
2.617040052196386024e-01
2.447862257387887763e-01
1.462899746623725072e-01
5.607490929488242321e-02
2.236600646620321570e-02
4.099050047366322586e-03
-3.387444326550215212e-02
-7.957182545368926552e-02
-1.208941132033341526e-01
-1.532839467948673429e-01
-1.590947966454213103e-01
-1.315507893297325481e-01
-8.622718065249006247e-02
-4.317406965614820069e-02
-2.216868466768428039e-02
-3.395150127476337376e-02
-7.684916422284487902e-02
-1.463000459787499596e-01
-2.099120405367377318e-01
-2.189695031733812913e-01
-1.851420354887102770e-01
-1.280722630782930582e-01
7.378282027487827882e-03
2.124792326783743746e-01
3.505683406790635059e-01
3.584876731380255421e-01
3.005334514226009057e-01
2.038496234931607975e-01
7.012210275674390925e-02
-2.843076616442412330e-02
-6.482293922805545949e-02
-9.326901430236722579e-02
-9.198199477191551510e-02
-1.918704857986574391e-02
4.314092217721521294e-02
2.342341564197800846e-02
-1.403567714500220283e-02
-1.568031982253171100e-02
-2.302589277451549260e-02
-3.634097501499701510e-02
-1.304233039196197631e-02
4.908233900985629547e-03
-2.448949480934550782e-02
-5.000011352091982691e-02
-4.077799542639184288e-02
-2.149467527413704768e-02
1.705306634249574484e-03
2.695805520775899564e-02
3.298205175951214596e-02
1.648251562533586609e-02
4.078733833108715012e-03
1.062218931420686862e-03
-2.068667183839198800e-02
-4.185255146852161212e-02
-1.830481665369893679e-02
1.120761124707257521e-02
5.371387465548174700e-03
4.905902585740769435e-03
2.181498863782692713e-02
2.428329132552978567e-02
2.282952652750316544e-02
2.483077673112505518e-02
1.065746451982911569e-02
-7.672194056562436394e-03
-2.045426843887874352e-02
-4.689640580634425737e-02
-8.586080475117380262e-02
-1.218807236026357155e-01
-1.034380134243151755e-01
3.475085329272623036e-02
2.025286598105786595e-01
2.447102545544998231e-01
1.622966768655160485e-01
1.665167925053194498e-02
-1.186910320584273482e-01
-1.358786710812158183e-01
-6.361086652550823617e-02
-3.796923869522783601e-02
-7.912299465377606311e-02
-1.006458311443419046e-01
-7.677690592346893272e-02
-6.192507709833260793e-02
-6.219168022241285815e-02
-2.827525925203367568e-02
2.470367323080083222e-02
3.741583714495219648e-02
2.624636895517932708e-02
4.928313956389761968e-02
8.633294179413508740e-02
8.701550113479290804e-02
8.360306986186005762e-02
1.144252502255085346e-01
1.300694663792620331e-01
9.992385911201330517e-02
6.815246023152767008e-02
3.767400915819360541e-02
-2.230864373311450960e-02
-7.038812192364854448e-02
-6.205973574308992075e-02
-3.864310489314967678e-02
-4.620312034001539114e-02
-6.531648852257085358e-02
-5.634840217461004747e-02
-2.410837948907426295e-02
-1.707510659767876374e-02
-4.998381615571655112e-02
-6.735297456985411824e-02
-2.634098602235155143e-02
3.458736086366041851e-02
6.046110331670580262e-02
6.355208960062139201e-02
7.326771991368792591e-02
5.180052711424652095e-02
-3.629793188277032068e-02
-1.219876167845360682e-01
-1.322796755033261162e-01
-1.116982268460052774e-01
-1.240066666057577649e-01
-1.372497532964883360e-01
-6.467004925674252336e-02
9.960169020195679124e-02
2.166089668970502258e-01
1.959956724333206113e-01
1.303847637540668791e-01
8.676797577884495793e-02
2.089156251258815489e-02
-4.841697453255626449e-02
-7.527867282636928337e-02
-1.014089220232144151e-01
-9.372490360383509134e-02
3.312581693882300782e-02
1.243820703031314201e-01
1.674316609160920663e-02
-9.605196853761263642e-02
-4.116884412000026972e-02
2.694372636948577648e-02
-7.969006453602265824e-03
-4.517080659230449796e-02
-1.831686580571758455e-02
1.157843228113787995e-02
8.544889222040597671e-03
2.121525580813166459e-02
6.412180384623886176e-02
8.059195578363283208e-02
6.202221135862152901e-02
5.223757958837967758e-02
3.593086501146810358e-02
-2.152352764765753240e-02
-7.975118976521355929e-02
-9.830209108326518064e-02
-1.091218454574775926e-01
-1.295186609852682913e-01
-1.117791543073085869e-01
-1.661834946710720809e-02
1.187159160905223027e-01
1.909225344669556734e-01
1.823511445652012675e-01
2.158068347177824475e-01
2.584846972309784441e-01
1.267305999218360235e-01
-5.560977498144278192e-02
-4.316163008174216803e-02
1.810949281870453259e-02
-7.550973667617234819e-02
-1.793158012324979067e-01
-1.512985568505018086e-01
-1.049453336265067510e-01
-1.202802018434840498e-01
-1.061394175455709354e-01
-4.756096208622118127e-02
-6.100856776271085247e-02
-1.485989225595560070e-01
-2.006394777123826079e-01
-2.142415559698478411e-01
-2.098701490474418063e-01
-8.746550926287112449e-02
1.481802647624992919e-01
3.061309353296539637e-01
3.113361498265290184e-01
2.403663530026137196e-01
1.372039672750323958e-01
4.759024377594398697e-02
5.153912435101503514e-03
-3.347045604296185195e-02
-6.738129170981836669e-02
-5.057258190893061667e-02
-9.866687292980642204e-03
2.626847560649399685e-02
6.289142986312140637e-02
6.069076197364230846e-02
1.434736119877966232e-02
-7.670763923294941083e-03
4.705514977997853759e-03
7.789400750137604953e-03
-1.570586515669325500e-03
-1.031551013662005550e-02
-1.357671711191652669e-02
-3.892911168823414217e-03
1.198821061855625050e-02
2.605166887966144096e-02
3.786375997708415347e-02
2.674310013185709003e-02
-1.057306271197652747e-02
-3.774612439762171923e-02
-5.616504442383945389e-02
-8.072600393985986111e-02
-7.801848661311164279e-02
-5.971616302686992561e-02
-6.422456820713992598e-02
-4.118668121447419811e-02
2.633476110924082986e-02
5.766485344339696700e-02
4.423076076768700515e-02
3.887135712274334548e-02
3.268797268510193615e-02
1.534793353308282378e-02
1.697025879169744914e-02
4.429297515787918027e-02
8.173145062327033528e-02
1.066109560631983977e-01
9.304045641555075408e-02
5.497166138936557256e-02
-2.589452684288409690e-03
-1.279677538984871077e-01
-2.870687119419822464e-01
-3.551333825332245175e-01
-2.897195452798778659e-01
-1.116133372920932870e-01
1.329979814616613631e-01
2.977504742963013040e-01
2.930669012232123838e-01
2.063750368383144573e-01
9.886094644721103719e-02
-3.220211532894899642e-02
-1.158666687293151004e-01
-1.162992979603775512e-01
-1.132106753901490209e-01
-1.227097579492787138e-01
-7.671883561856637779e-02
-4.048285601064188430e-03
2.507081196546340901e-02
3.961457650177496043e-02
5.497358884219663566e-02
3.594216042079694667e-02
2.896260508505624914e-02
6.191919421604708679e-02
4.479366805584121536e-02
7.210993320310714761e-04
6.316564974635298368e-02
1.508335801262251641e-01
1.209171294643074379e-01
7.076797011155716577e-02
7.817562080535023217e-02
6.472747294230114801e-02
2.468237438242420687e-02
-1.368319358409063324e-02
-7.680551054042891734e-02
-1.443398481575283165e-01
-1.835329561043977376e-01
-2.058782949138550367e-01
-1.857477831978684990e-01
-8.809493681559141254e-02
2.434796300158359461e-02
6.235900091002014728e-02
5.068594837504072220e-02
5.281583525414693114e-02
3.914449633019477515e-02
2.570484831371618387e-02
1.004676982571284932e-01
1.533868767351362628e-01
4.746902690663027530e-02
-5.514697083874936512e-02
-2.761483073980098429e-02
2.956957848000823716e-03
-3.236493115627740030e-02
-8.912306078241138962e-02
-1.363576193567491157e-01
-1.522701393298673267e-01
-1.436496907723880390e-01
-7.905037500044667653e-02
7.866324008608302498e-02
2.035400750888796129e-01
2.034309747790981615e-01
1.849993965782351091e-01
1.666368005964535548e-01
4.666797595913756147e-02
-1.068772957555658293e-01
-1.447763158327033950e-01
-1.065283904597869313e-01
-9.998201038821097342e-02
-8.975265667184542662e-02
-3.485614604380150167e-02
1.227401191291015072e-03
8.475655540399886639e-03
3.665348489170537627e-02
5.603075924710090860e-02
2.809244063559764373e-02
1.711805912801494817e-03
6.351249079930152558e-03
6.279300392725735425e-03
1.160633584951238292e-02
5.624836332840502801e-02
8.746380170190848347e-02
4.732681207504518123e-02
-2.327942041906608250e-02
-6.632353968424839485e-02
-7.392019310439969237e-02
-6.474495485473585887e-02
-6.704868081423613624e-02
-6.991822327141089533e-02
-1.960131633424457356e-02
7.441863645894718216e-02
1.459606740926952806e-01
1.895202350076757303e-01
2.208047672588653310e-01
2.020279574397971234e-01
1.246153632011596929e-01
3.694788551571240309e-02
-3.899038040978779901e-02
-1.078600299736520718e-01
-1.576179154368497204e-01
-1.717763802482390190e-01
-1.480547834223660264e-01
-1.007519765409310014e-01
-5.795758481599477818e-02
-4.764850506814878595e-02
-7.608561822964117483e-02
-1.162242315468460380e-01
-1.545470416389899682e-01
-2.084661669894444513e-01
-2.149478546378230381e-01
-8.054216875402446518e-02
1.073158511857098263e-01
2.104872606007203162e-01
2.511781878046521199e-01
2.517745168056234606e-01
1.733962889490565651e-01
7.536734431664207645e-02
3.017289292922112343e-02
-1.166832643966571326e-02
-6.057015708458350634e-02
-1.603543017086412475e-02
6.473358962929073868e-02
-3.004364699669831440e-04
-1.072862716552280965e-01
-3.913391102402139637e-02
7.453644907668167952e-02
3.126332185504900746e-02
-6.358640556376216058e-02
-5.151484566115153291e-02
1.209109643156389656e-02
2.210691445829466445e-02
6.181156589171028955e-03
2.069199792927641293e-02
4.091106322112501165e-02
4.412351118473153283e-02
4.031576946286047347e-02
1.696854228184207364e-02
-1.900731300571044044e-02
-3.302121742405676047e-02
-4.176519100979668442e-02
-7.172831005430965745e-02
-8.561518481809858583e-02
-5.335975924290865119e-02
-1.081900548859287582e-02
3.379222196205034293e-03
5.393524592173355725e-03
3.311579803407323219e-02
7.342275688119646870e-02
7.017350770778070512e-02
2.629584359524481108e-02
5.420093048303026469e-03
1.858778942242802698e-02
2.786983984083996058e-02
2.066470015280914493e-02
6.818945181552097008e-03
1.257034355895914491e-03
-9.666187354355331232e-03
-6.195817766976960406e-02
-1.210036874740024471e-01
-1.339647520526918711e-01
-1.291608844208662621e-01
-9.304546360224029422e-02
2.985970221623894527e-02
1.513115415462237268e-01
1.694170539819730981e-01
1.462056764055647273e-01
1.120978877544831637e-01
8.186722972959496400e-03
-9.883154483151482261e-02
-1.058363144075089857e-01
-7.944099971284310224e-02
-9.164094413804568795e-02
-8.499554999401170985e-02
-4.935666246575635269e-02
-5.155087214708834603e-02
-6.962924003056597533e-02
-3.355323205452426238e-02
3.137508571734751173e-02
6.072102873435669679e-02
5.939965565188554814e-02
6.801278675021121822e-02
1.031292109085138881e-01
1.392623514965285747e-01
1.233480341223736482e-01
6.928844794438708543e-02
5.757135075434404586e-02
8.118051919073224210e-02
6.670523951040076283e-02
2.365134716444946411e-02
8.015235884462876964e-03
1.800890214332045297e-02
-5.079910146076477284e-03
-9.996914131388813518e-02
-2.101307905018948985e-01
-2.366307645824496098e-01
-1.560407652394282252e-01
-3.298999134622387225e-02
5.327072164819741940e-02
9.031331738736084191e-02
1.217139737868053462e-01
1.320025836024754928e-01
7.963171973663585312e-02
1.987187099634491264e-02
-2.944389812315958629e-02
-1.295901763954783736e-01
-1.744997046113236638e-01
-5.599053314271167786e-02
4.231876163964661680e-02
-1.425016661991481554e-02
-8.440559396466291997e-02
-9.175936120586689060e-02
-1.195509038969795323e-01
-1.451383368287042230e-01
-4.146817716100809764e-02
1.510828396927261508e-01
2.475420490561018316e-01
2.367298703088355216e-01
2.340898755010892840e-01
1.675428596199621256e-01
-4.797616124380609665e-02
-2.044999131720741659e-01
-1.398692283165200445e-01
-3.763656851621938887e-02
-5.408762174074413509e-02
-9.651483472211132286e-02
-7.692569029162600602e-02
-1.975033383802551196e-02
4.634014168748216977e-02
1.088148594762437110e-01
1.251771534037768585e-01
9.554672166297943636e-02
1.025113885333031050e-01
9.900802664475341630e-02
-4.352253687906688928e-02
-1.743731205453366018e-01
-1.093609395387527966e-01
4.579948990771614409e-03
5.734010782303925607e-02
7.961899368790052722e-02
-1.022407626321688093e-02
-1.475871365674535085e-01
-1.424323708429832691e-01
-9.022040424129584846e-02
-1.322621014553971297e-01
-1.643236529556070524e-01
-1.049001687396654142e-01
6.697384851660541372e-03
1.580532171609570491e-01
3.065735822441835734e-01
3.427714554664856306e-01
2.829563497407475148e-01
2.684931884213412889e-01
2.555063507258154565e-01
8.738836491628611258e-02
-1.018737394249658867e-01
-1.076113270446099751e-01
-7.285168024845317669e-02
-1.609232666625213526e-01
-2.530533941150983623e-01
-2.630537254750788811e-01
-2.613439234386562005e-01
-2.460975302398615283e-01
-1.821289308793384576e-01
-1.422566914765662494e-01
-1.232858750409841497e-01
-3.399297672647745572e-03
1.648667873866835332e-01
2.293557156380671147e-01
2.173167291186696437e-01
1.806265440099845132e-01
7.377374987447735122e-02
-6.351592925022586655e-02
-1.214853414260871345e-01
-9.552387323961145094e-02
-6.298930296083664337e-02
-3.708020483537043110e-02
2.734372481162453475e-02
1.007665033660326281e-01
1.239639288723850541e-01
1.218316739019549705e-01
1.055542977265905152e-01
5.169745603440726450e-02
2.143899188633163061e-02
4.816504449435742019e-02
5.029629863902974202e-02
1.267310089062177562e-02
-5.117397508751696245e-03
-3.719054201908312401e-03
1.322667060633926986e-02
4.631283514822446407e-02
4.022415931118518417e-02
-1.552122923747543265e-02
-6.209973662360512847e-02
-7.526821423190073468e-02
-7.346440543605138596e-02
-8.309147227589404328e-02
-1.064270283903775011e-01
-1.040342662667692458e-01
-6.005960082460421595e-02
-1.289691024715501622e-02
1.456271615087196755e-02
3.459650484609000376e-02
4.352190841409915578e-02
3.494977449128385677e-02
3.176593088014106891e-02
3.914830235475088432e-02
3.645818486770811828e-02
2.298125406758944056e-02
5.340625627837955122e-03
-4.168377397519619672e-03
-1.053880382195184449e-02
-7.493329591062108941e-02
-1.530291708087852254e-01
-1.027438536128198049e-01
-3.309864311776918727e-02
-1.100889576853657376e-01
-1.131994014823686640e-01
1.196919938817977425e-01
3.129092668535782829e-01
3.051491230489364881e-01
2.408185251148099726e-01
1.471542611657182531e-01
-1.867464784363220831e-02
-1.515447093433736070e-01
-1.904006130399314989e-01
-1.875622511329583797e-01
-1.412006293155512737e-01
-4.707720864902516233e-02
9.271848685694156905e-03
-1.108685756520744366e-02
-3.307180063733691083e-02
-1.517663133661973848e-02
-1.055840220289218367e-02
-4.342688834460610436e-02
-5.647702134216878861e-02
-6.463420882391383154e-03
6.999526416785685490e-02
1.067583549809724558e-01
9.617524725800233321e-02
8.518296723373884605e-02
8.906947911814268315e-02
8.795811335379333240e-02
8.431971138058998172e-02
7.401325433011285426e-02
3.628781899620243945e-02
-1.772158132906202777e-03
-1.292514723730385506e-02
-3.735037506173409516e-02
-8.686967178852819660e-02
-1.083251149952888098e-01
-9.627553002687029571e-02
-8.822980948713329830e-02
-6.634759303264835262e-02
-6.890290823763345167e-03
3.496430350924566166e-02
1.592543664500766648e-02
-1.215521578061939251e-02
-1.142303605486675970e-02
-2.805545509685938160e-02
-8.057468871932280119e-02
-1.059262801639361262e-01
-7.817866172199205987e-02
-4.090694982499581966e-02
1.762875394958445668e-02
1.168306469998715985e-01
1.818980524246892050e-01
1.908337984349867678e-01
1.805725708913195893e-01
9.884702764655489693e-02
-4.691727792764075616e-02
-1.278059765916612078e-01
-1.285251872991944877e-01
-1.215236346051017935e-01
-8.642640097764571483e-02
-1.110935226604515755e-02
1.953117702943085385e-02
-2.004068054613216548e-02
-4.207032394913612361e-02
-9.243891253942775402e-03
1.995728224990074920e-02
2.552837503076183304e-02
3.860122446892605419e-02
4.463891405697187342e-02
2.126424690390137789e-02
-3.974388203862817609e-04
8.779202262225086970e-03
4.798542277974143094e-02
8.225078785549742866e-02
6.132185316665270808e-02
4.659209174278473170e-02
1.120785449692547481e-01
1.074399949345563876e-01
-6.443160480802376244e-02
-1.959104360779717058e-01
-1.671690202987306528e-01
-9.435481557533090258e-02
-2.517416713079661736e-02
5.689566178290127174e-02
9.524547257168537728e-02
5.792467439866317430e-02
3.732361037925966199e-03
-1.495126384109472448e-02
-1.963087745664519532e-02
-3.673307691810838438e-02
-3.563988460395373092e-02
-6.406200980420514654e-03
-5.123742355262304524e-03
-4.978797100691348398e-02
-9.232985213285258008e-02
-1.022757326400546979e-01
