1.058446206264862868e-02
2.239976505776208882e-02
4.150489607636535100e-02
3.762146405904172319e-02
3.992304012838625987e-02
5.128385556517483373e-02
4.647126088007159928e-02
4.822371625110324217e-02
2.234125077965659623e-02
-8.515391559859102066e-02
-1.610102837790947372e-01
-8.438450149017795443e-02
5.134048124576899574e-02
9.458241414358214971e-02
3.125801100171168856e-02
-4.800343807508505173e-02
-7.233556143139570349e-02
-4.647557417128445056e-02
1.712098257824073294e-03
4.628926695521680401e-02
4.607065220586008258e-02
7.594931423098100903e-03
8.321790978230915459e-03
7.584551832413420625e-02
1.322005198345932442e-01
9.604078595563450560e-02
-1.400878667779624151e-02
-9.644208427919663540e-02
-1.027308572053846486e-01
-7.946899114952281351e-02
-5.312065418331765598e-02
-2.162035111572903692e-02
4.065628630844884961e-03
5.035554088067269174e-02
1.174293864525317727e-01
1.132624926911990487e-01
1.618451094447283592e-02
-5.474440703750997617e-02
-3.805091014532500926e-02
-1.585792747145569823e-02
-4.719202250891463973e-02
-6.602658169636305141e-02
-2.058293524371369171e-02
-6.813330308198849508e-05
-5.853264042708204024e-02
-7.058478783973883008e-02
1.361645263355960866e-02
5.094614020296138468e-02
1.439397381787779415e-02
3.580917240302135263e-02
7.165086112653679118e-02
-2.333306899760160397e-02
-1.314406835422213815e-01
-8.605626614057336476e-02
-1.154767712574016232e-02
-1.598129259546502562e-02
7.060573094953507406e-03
8.819874533152131935e-02
1.291698463967358157e-01
8.704558004021593909e-02
2.418572357562751712e-02
3.102661871686790071e-02
6.605047364183744274e-02
1.018334387710260157e-02
-7.831878586731137737e-02
-7.700850615005036537e-02
-5.167716364502440707e-02
-6.439122910564754054e-02
-1.266028724342946679e-02
8.647182379865653301e-02
5.837279055561470781e-02
-4.119365648864349583e-02
-2.420561833287150980e-02
1.998978560972597754e-02
-2.764672922582012485e-02
-4.387375073418583321e-02
4.084188020146152856e-03
3.922042029195701995e-03
-2.673207881534962402e-02
-3.021523141615106711e-02
-3.284939929143884663e-02
-2.898521742537916654e-02
1.673747539649683355e-02
7.817473180806362720e-02
1.108281036332341152e-01
1.019112762196940913e-01
3.842900266179492125e-02
-4.962655100600445179e-02
-4.092100544907532889e-02
9.540228426705664455e-02
1.560871751712954170e-01
-4.164627022309110027e-03
-1.607958843667323667e-01
-6.101564626037390970e-02
8.640111526687851984e-02
-2.018314899943702070e-02
-2.111538035876211750e-01
-2.205596516747714841e-01
-1.108078986992832721e-01
2.007776660588115811e-02
1.240692072596960849e-01
9.881000554744960584e-02
3.373438384883149788e-02
9.946121697113798066e-02
1.685506290620932546e-01
7.077909754500968931e-02
-6.514544151637940983e-02
-9.794076192385900437e-02
-9.865556723454113608e-02
-9.973893574759738756e-02
-2.856770197246101539e-02
6.417559417961052337e-02
6.858755621150677828e-02
3.032502591316817500e-02
3.782501835191499212e-02
5.480549216521525546e-02
2.504679926630916723e-02
-2.211149524444006725e-02
-3.894549369015481988e-02
-1.970600272531583541e-02
-1.442257606597544504e-03
-3.579885846651183895e-02
-1.010036836974782665e-01
-9.507691773454485240e-02
-6.461573264420905280e-03
3.021872301323133211e-02
-2.169901530800832576e-02
-3.949882096894902911e-02
-3.133888739266176005e-02
-6.498450550791563807e-02
-5.000022538224895702e-02
-6.089452178780216732e-03
-3.963181178034341778e-02
-2.665483181625272549e-02
8.035369780917438198e-02
9.383270219781025823e-02
3.290876297471725248e-02
2.706115709942253506e-02
-2.220275944243190608e-02
-7.211071346008537941e-02
9.571836013060271153e-02
2.896051707169434719e-01
2.164862485798925151e-01
8.022871555309712965e-02
9.720896953242670613e-02
1.244608000497703509e-01
8.561880016543049754e-02
5.429800757399969036e-02
1.086991641600987615e-02
-6.223353264360919485e-02
-8.987234685570667791e-02
-4.828942693092489608e-02
-5.434837145088369792e-02
-1.782480976092090941e-01
-2.010742538485366104e-01
-6.215801395600357993e-03
5.312442150158135090e-02
-1.537008447772530983e-01
-2.401664863361852587e-01
-1.132394979423243381e-01
-4.218850176576366406e-02
-2.028054680210769622e-02
5.026818792533194885e-02
-5.795051434157087733e-03
-2.313238718939547578e-01
-2.795003330171507150e-01
3.317395934844442895e-02
3.291729786469733687e-01
2.615402860777642502e-01
7.578218273742734490e-02
7.842952533671330995e-02
1.311848711834487369e-01
8.475712199842815042e-02
5.438978137341870384e-02
6.593809949306403406e-02
-1.064666140268557756e-03
-9.822705421964293693e-02
-7.214706239342305594e-02
1.197040596197045115e-02
-6.035952784325386566e-03
-3.774963662457635205e-02
3.208482253017340413e-02
3.574441057002834127e-02
-1.067503988303775547e-01
-1.727590131428338727e-01
-7.215040068925090977e-02
2.746664344547731715e-02
4.262781874900467560e-02
4.699885856062149120e-02
6.273020847015599311e-02
4.415375163896465005e-02
2.094896311120976462e-02
2.106851846575762133e-02
-2.727604752609385022e-02
-8.990144026368807051e-02
-1.682351972158135575e-02
1.141274877154258571e-01
8.731263729999046153e-02
-4.043943420704275427e-02
-6.211634054939845634e-02
3.775170064147559401e-02
1.022855284401006648e-01
1.336490312974943778e-02
-1.135312491137898533e-01
-5.732076412635765672e-02
1.224809229223549067e-01
1.332111801683358021e-01
-7.120428472027877376e-02
-1.826803847680745219e-01
-7.001761509966003549e-02
-1.723885492292839133e-02
-1.372290746375874060e-01
-1.293732386396777012e-01
6.601266663387918288e-02
1.206448993260873792e-01
7.431547582626335524e-02
2.437733609189755291e-01
3.711867105649027110e-01
8.746113270925670591e-02
-2.351451541412753199e-01
-1.672586644571413261e-01
3.391887568376289464e-02
1.572142406879370111e-02
-1.067233740379540524e-01
-1.296087786664477659e-01
-9.673265633284933163e-02
-7.967781582744473678e-02
-5.029507563744824161e-02
-5.473891936505690531e-03
1.186844318121117736e-02
9.221613213855835850e-03
3.296273836644794675e-02
5.361301581136514172e-02
1.578818296328471718e-02
-3.049993171060836825e-02
-1.285974011200980913e-02
3.177912703399923822e-02
3.241358126064120687e-02
3.570406822005360407e-03
-6.737587445052974251e-03
-6.984774650732457520e-03
-1.718735888647926480e-02
-1.384176239486500579e-02
1.630846219657045709e-02
3.398116877491191845e-02
2.104229268454892166e-02
2.557852583656194598e-02
6.075822144934748398e-02
7.477147601477469874e-02
6.251402835570729621e-02
5.956329539420202046e-02
5.324730130797965255e-02
1.687781380644962775e-02
-2.164084239009334346e-02
-1.982700286105871373e-02
-9.761516243839231388e-03
-5.165063620699406055e-02
-9.764588422812334190e-02
-6.798913468296033380e-02
-1.942537491669030225e-02
-2.775745827015310349e-02
-5.322057225585007101e-02
-9.391333109746971552e-02
-1.463820774162486182e-01
-4.630857833450608557e-02
1.351423023145246205e-01
4.631637684095166879e-02
-1.243621415301104927e-01
6.385288477354655878e-02
2.505184538824650198e-01
3.478194615164426073e-02
-9.035939338761887762e-02
1.494495160915687015e-01
2.238633900874913152e-01
-4.486499869937378426e-02
-1.801351901781112486e-01
-3.353076270036823431e-02
8.686398441345699259e-03
-1.414729482412355188e-01
-1.275152830879281440e-01
6.535784561414481608e-02
1.034979005199770097e-01
-1.192644351527024499e-02
-4.691389995825322873e-02
1.761915506869520323e-02
6.150770427507223914e-02
2.621330656024389860e-02
-5.886211559324450171e-02
-9.595981882851506439e-02
-2.209344872400850410e-02
6.212553579043100793e-02
3.165181523028938460e-02
-3.697617698583517687e-02
-2.460097609940978952e-02
2.868587405840498927e-02
5.647478659915639021e-02
3.830657567599971697e-02
-1.591920180772063084e-02
-1.483734953116064466e-02
6.470726536518846272e-02
8.951432026607247794e-02
9.639062267339388798e-03
-6.876958640600586148e-02
-6.787377497815516580e-02
-1.111113795833043941e-02
4.137506745986285761e-02
6.730988056527209551e-02
6.653762224027567895e-02
2.914650093470892017e-02
-1.511645204034111831e-02
-2.536016251247504016e-02
-1.795851645888452836e-02
-3.597591314735803375e-02
-9.780652355918714735e-02
-1.288192907033988976e-01
-4.872913080153627036e-02
2.976313058692991662e-02
3.652248155938328522e-05
-2.990314563653181240e-02
7.993548224059659341e-03
6.089261926569414923e-02
9.416952993845180420e-02
7.276873755965977686e-02
1.836884232662362032e-02
6.174350213061399577e-04
-6.379130328373292316e-03
-3.588815127787898379e-02
-4.847541781860866678e-02
-4.097250567005196464e-02
-3.718588737710196851e-02
-3.687068490543885663e-02
-4.369412768995329516e-02
-4.449546601972761972e-02
-9.299387400402373688e-03
5.120578796754674672e-02
9.059615888942344764e-02
8.801935131223703745e-02
6.046323817737514483e-02
2.102227141056208989e-02
-9.760640397492871198e-03
-1.061246277749661876e-03
1.059323772284789106e-02
-2.152948367900910792e-02
-4.265827753101365805e-02
-1.163978189242106942e-02
2.221262999220832354e-02
2.657615746726381400e-02
5.128354783668102532e-03
-2.710480961288182222e-02
-3.770293919001946326e-02
-3.136870437762653840e-02
-4.280476081040444220e-02
-5.664765123727251439e-02
-3.916316310055917294e-02
-1.226228179764576355e-02
-5.392330849413150794e-03
6.488911000385217884e-03
4.180455652254246035e-02
5.509425606395218500e-02
2.442619758184639070e-02
9.628741851696553250e-03
3.312785275186629075e-02
4.212108061797436437e-02
3.098510025833843551e-02
3.838743428534212299e-02
5.423184700698062410e-02
4.707643135390783551e-02
3.381714392935224883e-02
4.112066258835029436e-02
3.370675075864045661e-02
-1.763154289471719968e-02
-5.730991992265023482e-02
-4.998018238864328222e-02
-5.254546678354032885e-02
-9.160025216358788636e-02
-1.026894275811891244e-01
-5.681305232530973331e-02
-1.209961419027305585e-02
1.331702720235193246e-02
5.150568520682907714e-02
6.478455560234776256e-02
2.013859332310021649e-02
-2.464102934665805822e-02
-4.725251548517331313e-02
-6.899972899185893849e-02
-6.261309226732679478e-02
-1.980814298610432400e-02
2.405730479297534322e-02
5.252169652244625953e-02
4.920275712214282338e-02
6.731891939837125055e-03
-3.147649178950627513e-02
-3.156731425326868984e-02
-1.279699331507526405e-02
2.116129768717225912e-02
9.534075954206024106e-02
1.920304663480309482e-01
2.638684895571494216e-01
2.787363854721278678e-01
2.093879658313980985e-01
8.698343778774614288e-02
4.486423577702212256e-03
-4.440239694409432725e-02
-1.288379290532907784e-01
-1.828752024209946980e-01
-1.544655531284403194e-01
-1.554387592597266943e-01
-1.973784483197881523e-01
-1.947152711569652972e-01
-2.370107576572743069e-01
-3.405396268419667027e-01
-2.978534976991648042e-01
-1.324164791944577590e-01
-9.658216534306121592e-02
-1.868734486306558862e-01
-2.036813572525650873e-01
-1.226266436284284000e-01
-8.480300626437364819e-02
-1.339974981024389111e-01
-1.450720036226277876e-01
-3.870602043124966862e-02
9.399958424711851723e-02
1.579696455970630020e-01
2.181850073445402993e-01
3.872232307640560145e-01
5.389704598107287747e-01
4.563944955977899953e-01
3.557759320014901583e-01
5.744803908941502613e-01
8.567240024228528483e-01
8.226368795894097863e-01
5.637035820320991375e-01
1.787604625165750971e-01
-3.013986905207260980e-01
-5.192278200302722357e-01
-2.986606307635832902e-01
-6.682358678084995840e-02
-1.594563917812443499e-01
-3.470947346436089043e-01
-3.592755117881459848e-01
-3.512923748752789233e-01
-5.396151000817580590e-01
-7.204009993202955542e-01
-5.629920165661773668e-01
-1.497273761102890233e-01
1.728471891369592339e-01
3.191467941976662281e-01
4.763418974804914385e-01
6.165193020833437121e-01
5.000529692444632968e-01
2.682124243678549735e-01
1.599460253638229079e-01
-1.607335442677395032e-01
-6.124760331254426315e-01
-3.017657987601451430e-01
4.263447160050494733e-01
2.207726775772055061e-01
-5.034115466742367095e-01
-3.118832551465497427e-01
5.009697897028420055e-01
4.388459069716392214e-01
-7.716652755573482070e-01
-1.671249967849103291e+00
-1.185246297628498535e+00
-1.747594335555124889e-01
1.509928196725588700e-01
-1.878896382898143091e-02
6.168482126240650010e-02
4.545620716017577112e-01
6.335027510671277229e-01
2.395945354944703509e-01
-2.831004167716484332e-01
-2.393326703124459554e-01
1.517628842395570554e-01
2.372963645308923397e-01
1.622420476082144791e-01
3.713549999829584003e-01
6.333970717942860595e-01
5.806233298609981830e-01
4.075517866292436842e-01
4.213368299653984517e-01
5.486316305089545819e-01
5.609713207098702137e-01
3.930760333416454255e-01
1.516896941135351951e-01
-2.424333689326380048e-02
-1.035221422536825586e-01
-1.580506416167288264e-01
-2.363448330794403474e-01
-3.223726451507040736e-01
-3.591852670650588220e-01
-3.176624399126413145e-01
-2.830166687264671355e-01
-3.200887918237341201e-01
-3.436184604895353156e-01
-3.118080068824602979e-01
-2.934451410515927505e-01
-2.722606636975686834e-01
-2.232882022050883264e-01
-2.454248667278799700e-01
-2.991101120180236217e-01
-1.885945473764915059e-01
1.374209193100958681e-02
7.250083454752710710e-02
2.967031538589576245e-02
3.115536770335786132e-02
4.237893700030068156e-02
2.455450978237308512e-02
5.075971550909492286e-02
1.562034027365540589e-01
2.614986530682692489e-01
2.682879482162598417e-01
1.849582731953563486e-01
1.244561563073662419e-01
1.456937031688959050e-01
1.742919688843132808e-01
1.517334212694552154e-01
1.222527553043458587e-01
1.148459078059032024e-01
1.055197373905551461e-01
8.790379338052950464e-02
6.184576835685652585e-02
9.064356238615928207e-03
-5.623436361758622770e-02
-6.946860369994689588e-02
-1.677524459899429332e-02
1.545517052619761050e-02
-9.868442778482290623e-03
-2.276357642734382070e-02
-1.811057475542870304e-02
-5.331460701282778047e-02
-8.271999852022177135e-02
-5.735844182580511486e-02
-4.915330045718386415e-02
-9.180739889715555657e-02
-1.172829976497416354e-01
-9.038983917211315666e-02
-6.524444674928051024e-02
-1.108013336142614491e-01
-1.414722858809230599e-01
-1.593751405961476436e-02
1.172195723695743652e-01
5.640054949468168571e-02
-5.002245338427663279e-02
-4.704044430360879853e-02
-2.221028019004833709e-02
-1.173421952556014114e-02
2.573383489205922914e-02
5.683494448921316833e-02
5.552057283291331191e-02
3.846107784098685978e-02
7.634850547957542505e-03
-2.400846969724563379e-02
-3.597079472382552767e-02
-3.513117934071051385e-02
-1.986400373951506190e-02
2.021965809425298882e-02
5.352359180443716502e-02
4.589604259924810054e-02
2.476280265036235120e-02
2.778656353367480597e-02
4.297637252570588734e-02
5.047042815497437135e-02
5.092589646274560400e-02
3.796812773118820455e-02
1.295269887997620162e-02
4.951764349483533251e-04
2.067234406926323625e-03
-1.063450245818866290e-02
-3.549545418790972517e-02
-4.040611692806435340e-02
-2.576639606400871890e-02
-1.971659720021860449e-02
-2.603435503126933642e-02
-2.312368482579894510e-02
2.889748850422870722e-03
3.178349500164788510e-02
2.405221035236131816e-02
-1.543985346880791427e-02
-3.434249650979641355e-02
-1.539256267449884245e-02
1.190960330888447306e-02
3.292124669914817808e-02
4.825216753733969910e-02
5.315499416739062621e-02
4.221718452717426046e-02
1.222340790356694906e-02
-1.333146572436188018e-02
-3.899082165964055761e-03
1.238101884588454875e-02
-9.637069858540164152e-03
-4.039158820577463255e-02
-2.304954127167661848e-02
2.123678986384356510e-02
3.211894124946892276e-02
9.150761938750865548e-03
-8.882167765134518084e-03
-1.637769744504722833e-02
-3.310126260195617870e-02
-4.429375339280206686e-02
-2.671346630472058378e-02
-2.251464077681500017e-02
-6.626081886044141167e-02
-9.574059553755109864e-02
-6.304652649959761879e-02
-2.638822451607059083e-02
-2.886544493826916427e-02
-2.020064696575388230e-02
2.304388598416939188e-02
4.728223147607003851e-02
3.856100890137616199e-02
4.350262771021283503e-02
6.351155578172512639e-02
5.808793406386779379e-02
3.522209648990157899e-02
2.675825095006293189e-02
2.450508484623301411e-02
1.927681265299112379e-02
1.537149300573542252e-02
-4.216754615334645725e-03
-3.821718553539787261e-02
-5.388088012032364593e-02
-3.743137445568789357e-02
1.071671410811398523e-04
2.298216728555011606e-02
2.170608935608817937e-03
-2.385047373029173037e-02
-5.053400617473056619e-03
3.848540589723377370e-02
5.307505024957056422e-02
2.641151854223926926e-02
4.199462455587476325e-04
-4.635805383946561831e-03
-2.049868167121715254e-02
-3.032269980272017662e-02
1.306865066452621120e-02
5.045847998689365066e-02
1.695663060653779600e-02
-9.231108433740885244e-03
2.855041492849070411e-02
4.077886501961700688e-02
-1.665753349063716846e-02
-4.420020058014199199e-02
7.935873333679623401e-03
3.984049744108682234e-02
-1.073670057563756892e-02
-5.524904662564261715e-02
-3.349936202710489253e-02
-1.550040739464743356e-02
-4.045210365957958160e-02
-5.295904798382950612e-02
-3.146768771813034798e-02
-1.107657112410614063e-02
2.567207574178562504e-03
2.062377854913721720e-02
2.555318389814804567e-02
6.384487725750134790e-03
-1.740230017239702276e-02
-2.141004117585023486e-02
-3.472278986185079862e-03
8.609302098050894761e-03
1.276825611083613927e-03
-1.572585840592975390e-02
-5.199513394498703200e-02
-5.214431864336832589e-02
6.721880940222203782e-02
1.681883142510582352e-01
8.502406008394576553e-02
-3.053654967131659570e-02
-6.968586399712387025e-03
6.136917872611864777e-02
6.578781155358169597e-02
4.240792250542707587e-02
3.674395497284250328e-02
2.527485336784669051e-02
-1.522240287819504566e-02
-5.627919886665036509e-02
-7.284636273493275138e-02
-7.755607060109565021e-02
-7.421471466580202569e-02
-5.895465210621079338e-02
-5.186721327468833687e-02
-5.384853592795464661e-02
-4.428269029412257307e-02
-3.742929362013185102e-02
-4.098867963286293575e-02
-2.846999023616663543e-02
-8.848692956569738366e-03
-7.940137622272495574e-03
-1.461834855245649004e-03
3.080752543501186907e-02
4.673135374252295610e-02
1.956294209866193956e-02
9.048304558946589603e-04
2.216355614315760128e-02
3.585275915476519859e-02
2.653967624598870673e-02
2.080318891249867061e-02
1.900155368374865927e-03
9.373503935424555567e-03
1.134581572602346294e-01
1.789872503199252118e-01
7.904811184733868956e-02
-5.067640249788309820e-03
5.186785696641584703e-02
8.734317048199734257e-02
3.614466472082603771e-02
2.936723092881328434e-02
7.207070045421615223e-02
4.973941187921077089e-02
-1.549012380276239276e-02
-2.603539704454787412e-02
-1.046387059616867010e-02
-5.035623619659634204e-02
-1.254393631161440648e-01
-1.815956963366168742e-01
-2.259641783676111515e-01
-2.123559157145903376e-01
-7.299615928906189044e-02
4.577569390824633155e-02
-6.617784241620454366e-03
-8.170874020946014560e-02
-4.738736007137261258e-02
7.767816166084032248e-03
3.909349941929889799e-02
7.594014250964231660e-02
9.486249711611410840e-02
8.379897653306711547e-02
6.397463167043931920e-02
3.857743558636456127e-02
9.743073599168863494e-03
-8.063164209823413253e-03
-7.451095210605229897e-03
-5.489867455296354275e-03
-2.426320982252010844e-02
-4.180523428536616487e-02
-2.891704520307082291e-02
-8.441315474522037565e-03
1.371135815030798816e-03
1.647311620931960971e-02
3.141778361093704175e-02
3.482118416895278040e-02
3.883308977502756415e-02
3.079267577300126915e-02
-5.853688306761541636e-03
-1.787247842420149405e-02
2.991282907607651503e-02
6.310359975204807292e-02
3.988188298858632436e-02
2.142143525427609232e-02
2.238656269870684806e-02
8.102521935406194892e-03
2.374925614225517623e-03
1.924485148824510439e-02
1.314349439220176621e-02
-1.938347189272676685e-02
-3.405806825596691817e-02
-3.027662185126415995e-02
-3.076777923913965457e-02
-3.102192014108616155e-02
-3.033717442501113887e-02
-3.548924660213691878e-02
-3.751166522730750574e-02
-2.877300506063331167e-02
-1.098332531226259290e-02
3.576966068630114612e-03
-4.717559387433309034e-03
-2.569956453378313341e-02
-2.131834095128015000e-02
1.207108668649326325e-02
3.307643357882995155e-02
1.933472725052846897e-02
-3.750652140008822397e-03
-8.930827648605411256e-03
-5.584858401832500270e-03
-8.628784738183044659e-03
-5.778165575944535157e-03
4.550952568901435978e-03
9.608554535966378971e-03
2.599556147334090156e-02
5.080714331383232030e-02
4.492140698727366960e-02
2.237665245788421700e-02
1.692284767552304156e-02
6.363237191302435584e-03
-1.638346894836496814e-02
-1.529440688839043411e-02
1.086206417893864976e-02
1.621592258464698080e-02
-2.036997906482842721e-02
-5.274997329674693813e-02
-4.477790533998705913e-02
-2.999443357302285923e-02
-2.922048907783029656e-02
-2.307589399446661332e-02
-9.847061107980798617e-03
8.010901355546717895e-03
3.112591254598418011e-02
4.607756725768431122e-02
5.033588251404255698e-02
4.169923485216182890e-02
1.385560174939157174e-02
-4.647530058473016770e-03
1.012040764173467548e-02
2.823361458389356954e-02
1.978001161964434984e-02
2.185858557796304096e-03
7.096445500833544612e-05
1.947602660410847203e-03
-7.034257297459826225e-03
-1.484222204250949112e-02
-1.385508436374530312e-02
-6.898516108330499455e-03
4.699941416678467786e-03
3.124162382558608262e-03
-2.307486613082040949e-02
-4.248805721234746174e-02
-2.587750053581473753e-02
8.333527208391451960e-04
-3.132414714041922843e-03
-1.996987482677937964e-02
-6.005617870661930993e-03
9.242054748877948783e-03
-2.357618021840649641e-02
-5.834697281969832006e-02
-4.177126511319610713e-02
-1.158248383766646850e-02
-3.436674189920612896e-03
-3.886442886564159260e-03
-6.246745154297870216e-03
-7.447208149553571216e-03
3.288326634188815881e-03
2.137482583298141309e-02
3.343151066949520689e-02
3.950617791864840384e-02
4.692566942309958633e-02
5.270749226033381168e-02
5.880259056843773618e-02
6.780879538874688695e-02
4.617044498655006185e-02
-1.852476126198742204e-02
-6.083856797413993850e-02
-3.996072225287929103e-02
-5.694068215901251784e-03
-5.169265896312160921e-03
-2.176018268627984142e-02
-2.629046242919546444e-02
-2.080697524356576317e-02
-2.001787210904030362e-02
-2.345884140015484787e-02
-1.115490892693509276e-02
1.924714866870036109e-02
3.028871920480895319e-02
1.391320702759466302e-02
1.103499058783063459e-02
2.210960411524445085e-02
9.586749942590804333e-03
-1.690795979646233377e-02
-1.838546226791375540e-02
2.962576826309575202e-03
1.179694503849042231e-02
-5.327770666357263540e-03
-2.149873683215911685e-02
-1.829905880327908560e-02
-1.079481179180425895e-02
1.152635649202315982e-02
5.881936689411528668e-02
6.208734263470123277e-02
-8.751167992476211258e-03
-5.072704621141008174e-02
-1.551491780002375864e-02
2.329252081037975347e-03
-3.684895457370957611e-02
-5.079338806004018297e-02
2.713681695829675035e-03
5.456429881073232568e-02
4.990396629624979652e-02
5.803327190860691626e-02
9.516419716217953961e-02
-1.287843983334154008e-03
-2.018671390439278068e-01
-2.119053149553873361e-01
-3.987604735592178984e-02
3.374233012437544837e-02
1.925732537196505473e-03
-2.364179247155102914e-03
4.139315938058510391e-04
6.333108806975249264e-03
4.557657409131978671e-02
7.236335725381777551e-02
8.003990010663189492e-02
9.661110150559405751e-02
9.505216466743911241e-02
7.464370612022354357e-02
5.414129664195736769e-02
1.909748524989394319e-02
5.762838207479867650e-03
4.102546813487705640e-02
3.400603625739057057e-02
-5.211985599663674501e-02
-1.294505732772611162e-01
-1.533694232872707119e-01
-1.024914024668195645e-01
-1.839017673976921230e-02
-5.048567110396669916e-02
-1.210343268372787856e-01
-4.131792453643393093e-02
5.154208845262008704e-02
1.868575744229233893e-02
-1.381907232273185335e-02
1.074483482972990803e-02
4.062170316354718480e-02
6.618941630721740521e-02
5.361117632336091787e-02
-4.374720250594928833e-03
-1.501243044792954090e-02
4.174385994054569116e-02
5.548128959478513395e-02
-2.369501984264417785e-03
-3.907128071268903963e-02
-2.303307151780896803e-02
-2.502305266020644556e-03
-2.538532243355366702e-03
-2.709211266904443596e-02
-7.066278941071794939e-02
-9.212941635705908239e-02
-6.503984595870698771e-02
-2.438797439664073738e-02
-2.441317285823215930e-03
8.421029547574943735e-03
1.075506447528072271e-02
1.571439789568659928e-02
5.071656639181463394e-02
8.837020140482892971e-02
9.280461621312902087e-02
1.017399555004473988e-01
1.300636733057740635e-01
1.322612202911333246e-01
1.113322947807162677e-01
1.000935304487579197e-01
8.057424639364110797e-02
3.230950553011787546e-02
-2.352883804324508443e-02
-5.714639724821610894e-02
-5.423320396779558739e-02
-3.983026382830718443e-02
-5.820112267857795174e-02
-9.960998695899039856e-02
-1.229854766302437147e-01
-1.232668498226708320e-01
-1.107680526872226179e-01
-8.576135498545456315e-02
-5.945989223472507995e-02
-4.707831875975976299e-02
-2.940524013817061300e-02
4.677988491100047025e-03
1.598450786094204878e-03
-3.770596005139657814e-02
-2.810346286649519076e-02
9.093802677530207074e-04
-2.523334243381389688e-02
-2.759666056757044406e-02
3.815616632344802361e-02
6.750332126756947160e-02
3.193597524568127233e-02
1.494454256456925062e-02
4.824988737939230055e-02
7.639358701017859299e-02
4.910071953029712666e-02
9.405986830649025118e-03
2.187433557895449715e-02
4.857705248023155148e-02
3.683919377620518965e-02
2.493966192156064562e-02
3.445649479333798282e-02
2.841954424703546644e-02
1.350405064704392026e-02
1.614680294855012216e-02
2.209479113469370315e-02
1.336999060833845079e-02
-1.530776662491329168e-02
-4.474734646333335120e-02
-3.725691870473840650e-02
-5.455897471477039185e-03
3.979687323645161867e-03
-8.875440958947863890e-03
-1.346360465809914517e-02
-4.122684443995777367e-03
-3.308719136236290374e-03
-2.507945451471701656e-02
-4.682074192340847374e-02
-4.982990901387552435e-02
-5.127963435496252220e-02
-5.529680394678371247e-02
-4.525565513958847152e-02
-2.374052092971370292e-02
-4.091907951531635265e-03
2.078799084205478626e-03
-2.415338334334111992e-04
2.159450988155386247e-02
6.885042501113386448e-02
8.503629196863933537e-02
4.528491196186416184e-02
1.389519424715407285e-02
3.565985252035043518e-02
4.400681138816198851e-02
1.157957842348128139e-03
-2.014237700515443194e-02
2.390311132641280770e-03
1.572383074030074893e-02
4.915242242153197022e-03
-2.580505502716997496e-02
-5.274960212301153806e-02
-3.215534976446116078e-02
1.973522426492021510e-03
-6.655600778089935596e-03
-2.364751517349639870e-02
-1.456348648807375898e-02
-6.582841451951599275e-03
-5.741281213071955034e-03
4.052464139019712822e-03
1.687567717624115227e-02
3.124952970854454753e-02
3.541167798553322699e-02
7.781126860870717782e-04
-2.982896972176824618e-02
8.439284388456182173e-03
4.808168368025281941e-02
1.785159276308366516e-02
8.767644586194672449e-03
5.313378476668889627e-02
3.412225586899392954e-02
-3.707939920344811846e-02
-4.932769715656853959e-02
-2.415568425100199368e-02
-2.222573159813772542e-02
-3.115301868108491523e-02
-3.174027147670520355e-02
-2.079884795825199389e-02
-7.141447234568302702e-03
3.945247768732972928e-03
2.108597528425951856e-02
2.118642198801421600e-02
-1.658284928332793423e-02
-4.476148170041122781e-02
-2.791474138194839985e-02
-1.172843463903739183e-02
-2.448454172189318268e-02
-2.246967133021601434e-02
3.244136339284110250e-03
7.010383631206827497e-03
-2.135703354365183111e-03
1.561197661317414304e-02
4.195176074343306277e-02
4.702602110163485449e-02
3.897848986690836959e-02
3.641791206496217126e-02
4.838979469038755948e-02
5.701629797890927359e-02
3.573694423627303551e-02
1.506964222211642709e-03
-1.737854046613178036e-02
-2.771205188313163870e-02
-3.042926988820879308e-02
-2.183555646538106951e-02
-2.493434012200104050e-02
-4.204316237640794152e-02
-4.992227560148794485e-02
-4.020787971223045015e-02
-8.183336626160723354e-03
2.274834407819301130e-02
7.083235351088497042e-03
-2.812345811565564180e-02
-1.912272450145743180e-02
2.055313579228794374e-02
3.266759535964593175e-02
5.714653857585186986e-03
-8.568359882640513847e-03
2.379536707187066696e-02
5.122762956368684395e-02
2.833811360683520172e-02
-2.046094066753366327e-03
6.557938971675808526e-03
2.570799149113053850e-02
1.581991768440471971e-02
1.246989427869504841e-02
4.531932962763950828e-02
4.467208953886740719e-02
-1.779490405422735899e-02
-5.036464583277803359e-02
-2.700671337453140405e-02
-2.604451966882122271e-02
-5.066923727720382825e-02
-4.279522390925856457e-02
-2.032697612802190912e-02
-1.814564644499216950e-02
-4.889603531120892237e-03
2.511967683804724669e-02
2.121587854590681332e-02
-8.771856707174128034e-03
-9.441616836748403102e-03
3.376301047129105695e-03
-1.878752831540152907e-02
-5.156468806759104129e-02
-4.687987376938163725e-02
-2.394367801958655062e-02
-1.964033861521245761e-02
-6.832659839167551027e-03
4.023833603938970632e-02
7.194513901608405593e-02
4.988592727943369498e-02
1.038418657985338070e-02
1.211073357941815087e-03
2.924387961983660258e-02
5.019800661862611202e-02
2.432644337358468370e-02
-4.765481659833528325e-03
8.578025072806029841e-03
2.075676146570096248e-02
2.204768466617188644e-03
-1.483163094960329373e-02
-2.097421839457765114e-02
-2.816268439101931448e-02
-3.833784384033664394e-02
-5.408114176015272473e-02
-5.837190205817384403e-02
-2.648892446902058329e-02
1.478194894060602844e-02
2.018336231876381379e-02
1.176630190634664515e-02
3.590542508727558035e-02
7.512038047777924721e-02
8.080854868056344675e-02
4.276150041362409421e-02
8.116965298864552321e-04
-6.706495304050544108e-03
-3.299755792127080645e-03
-1.632503225117097959e-02
-1.351418173099044884e-02
5.113369557708079792e-03
-1.579912336328466102e-02
-5.762084864081364749e-02
-4.381533745273195890e-02
3.682932177885739865e-03
-2.161235438818080029e-03
-4.508390670317233978e-02
-5.268227268437541966e-02
-3.475344786160400323e-02
-1.552257401359823964e-02
2.525468754351122697e-02
6.635921001279010412e-02
5.914770143097599492e-02
2.062432936879469991e-02
-5.399181178852187476e-04
-8.177930545216472585e-03
-2.809676290126964654e-02
-4.075298973830872307e-02
-2.639770043003927813e-02
-1.651406623792498959e-02
-2.034759624253652116e-02
5.840135851809427452e-04
3.558096653806511883e-02
3.508796525912679515e-02
1.793667078237319579e-02
3.508406494338523612e-02
6.197247787320980805e-02
4.473629911177141871e-02
3.659465529337386190e-03
-1.045006948409887143e-02
-4.190515969586708356e-03
-1.011971701983787469e-02
-2.395880572530267871e-02
-2.581633007595049434e-02
-2.455675293909749188e-02
-3.247567752875805958e-02
-3.375210283837913605e-02
-2.073890821290977696e-02
-7.729624996334015334e-03
-1.981458482713626193e-03
2.047109116630303587e-03
2.040900536125605375e-02
4.505936150144790320e-02
3.781607561847315224e-02
1.477063775615019940e-02
1.937285258306213620e-02
3.004564381808542614e-02
2.428254165561924069e-02
1.791502081338527952e-02
1.495468978385617459e-02
1.052777054923888754e-02
-1.095651217603262409e-02
-4.199875103465230269e-02
-2.411990734060754163e-02
3.283750953578368909e-02
3.662916155296808834e-02
-1.376934634344568337e-02
-3.654805840944844869e-02
-2.553499016597496341e-02
-2.129305887432327363e-02
-2.661448549691042623e-02
-4.765721571775245052e-02
-7.820851773389611572e-02
-7.235773706661145777e-02
-3.444260184615721698e-02
-8.968026712459699346e-03
1.115392987217591995e-02
3.383447525455408195e-02
2.494165849348159436e-02
-2.106678483643999178e-02
-5.679870154276971117e-02
-4.448008198654212347e-02
-3.592276928948624770e-02
-9.022800592000047859e-02
-9.138956869117002835e-02
5.675530121829443914e-02
1.646638800970723349e-01
9.812228807153872134e-02
2.304448135667005321e-02
2.926732849140929738e-02
2.938398316367786187e-02
1.853182950759022646e-02
2.920758206565925164e-02
5.063950464606629953e-02
9.267626174097461089e-02
1.196937968998725843e-01
8.941083699876967161e-02
7.554412419354378239e-02
1.150069002263634510e-01
1.208882864613926300e-01
6.088577958200778323e-02
-7.906236447254955807e-03
-4.543652029319037583e-02
-5.596656833795837782e-02
-7.213451446931209987e-02
-1.081134014255671766e-01
-1.337768811753925480e-01
-1.351490191251072670e-01
-1.362656818638567635e-01
-1.323992655912558380e-01
-9.168526008446231668e-02
-3.570372243554374714e-02
-1.479924948534308907e-02
-1.022914495119976730e-02
1.582584889006387330e-02
2.440219271159504988e-02
5.865643577488595384e-04
1.840384262818196143e-02
8.033410511614731686e-02
9.601124778556141548e-02
4.953872748838390738e-02
6.255112477868696175e-04
-1.849208735223527647e-02
-2.579465015837769867e-02
-4.609489129848123867e-02
-5.402027332850183050e-02
-3.200552359150109216e-02
-2.454059253272117963e-02
-3.035753067613452399e-02
-5.245075438399122427e-04
3.911829971685373830e-02
4.285990968378191462e-02
3.689378731031341119e-02
3.874197237055383020e-02
2.114179247530602324e-02
-1.839918576882600132e-03
6.293823307297673891e-03
2.935864683519599089e-02
3.246619302993330319e-02
1.092637094341677648e-02
-2.277623386783410309e-03
1.960301518108953367e-02
3.857334577617626409e-02
2.897938040352674924e-02
3.252207765778364346e-02
4.866943533040788555e-02
3.712752396995960824e-02
1.978298980032598686e-02
2.042464269950470396e-02
9.376916361533291916e-03
-1.752923052301503734e-02
-3.821738102148512783e-02
-5.388791515182408953e-02
-5.637443823791186276e-02
-3.662086750817913905e-02
-2.478327186353519729e-02
-4.159102184723018070e-02
-6.556947151782918648e-02
-7.264274660890676638e-02
-5.721219795878323272e-02
-3.366347560482581269e-02
-1.923309256534565248e-02
-4.210137160299848996e-04
3.181648838248413158e-02
4.549690850388501961e-02
3.744130500309335308e-02
4.685443606751681089e-02
6.190104881299385992e-02
4.503424318692319378e-02
2.192838230060027011e-02
2.543851292232037625e-02
2.933480952388505675e-02
7.327467075661991264e-03
-1.375902236187899821e-02
1.981528113802460273e-03
3.155633035717825274e-02
2.324748860559021704e-02
-9.913829096214783407e-03
-1.814077996895230305e-02
-1.303424824838014806e-02
-2.943581176913335345e-02
-4.963840683503215057e-02
-4.671278502123920456e-02
-2.683947153962809931e-02
-3.572646237775048417e-03
1.318581620109713672e-02
1.232307865258450499e-02
-8.459236164148346143e-03
-2.880786211768766175e-02
-2.586083875482335023e-02
-1.374357056841925273e-02
-8.955894263897323099e-03
5.123949224815223767e-03
1.410142065285498528e-02
-1.296083591806957216e-02
-3.134701348934037374e-02
-7.745228422896639417e-04
2.626552056037109034e-02
2.911559651827726886e-02
5.487803052094037543e-02
7.849915995056806761e-02
4.422535869005446429e-02
1.154137571867801552e-03
7.825193564053796111e-03
1.373351125505009422e-02
-1.803192036431938358e-02
-1.820796058909684989e-02
2.614492750100598506e-02
2.040044829424343328e-02
-3.146257536709385488e-02
-4.251057553913813875e-02
-3.523471195532088679e-02
-5.414927117227966158e-02
-5.693801083000406965e-02
-2.925248060560338773e-02
-4.567554498069382324e-03
1.308194276195648667e-02
2.564585715673843580e-02
2.266981794856907928e-02
5.895084705191783528e-03
-1.125384499236491663e-02
-1.826647255756057645e-03
3.867465084758498622e-02
5.701006083161436200e-02
3.336313998036723877e-02
1.433635986277009312e-02
5.746227811743765540e-03
-4.074668274129675596e-03
1.335158691378232967e-02
3.809858989689742653e-02
1.911512869638689466e-02
-1.823279044228108547e-02
-2.682571823358658250e-02
-1.265198035336736852e-02
3.917771867918542171e-03
3.772461592898727900e-03
-2.761197145368853370e-02
-5.385279846988347274e-02
-3.499239370982787367e-02
-7.671922451170836224e-03
-4.293375533674303850e-03
3.379926845068545634e-03
1.366683759815976937e-02
2.590537889333289698e-03
-1.315047240140242157e-02
-2.644009648037475707e-02
-3.961456059140263525e-02
-2.800712062318095122e-02
-7.047210744627532310e-03
-2.381423521005519850e-02
-5.342698393904897480e-02
-3.511338858292756271e-02
1.869834177094867322e-02
4.923813663874322677e-02
4.749708281554140127e-02
4.700082370075788635e-02
5.966910721590523714e-02
7.466842767881724796e-02
7.385479823104550146e-02
4.519614621471649413e-02
8.079681292551925409e-03
-1.505647548082632466e-02
-2.274325492388324516e-02
-1.640770786463979780e-02
-1.147694783254316932e-02
-2.176482997662481517e-02
-3.235574206485854198e-02
-3.658572332197233823e-02
-4.276009332354555048e-02
-4.856806823466609802e-02
-5.094646550101867427e-02
-4.481225487165647892e-02
-1.896216399928000659e-02
2.807077144071036534e-02
7.414193005190866659e-02
7.771521347532876767e-02
3.309485214425252064e-02
-5.455722475264868782e-03
-2.363129022035437114e-03
2.026924220077473693e-02
3.056239282543131430e-02
1.959474171473900989e-02
2.914332222841920211e-03
-8.923405627536278723e-03
-2.515686902455648022e-02
-3.496743447051094134e-02
-1.329172615157720241e-02
2.157362151221520891e-02
2.262814616015587643e-02
-7.319074454264914813e-03
-2.279253744351741884e-02
-2.453998549364206500e-02
-3.146776360554517232e-02
-1.098551167745480915e-02
3.774172077125138858e-02
4.643624602363340126e-02
-7.724078674616110043e-03
-6.411998443431832229e-02
-6.648627062216813655e-02
-2.995268405345358903e-02
-2.246991843990808931e-03
3.771348586735407543e-03
-4.806352640918739802e-03
-3.101930062293508858e-02
-5.374011451765235009e-02
-2.381273250517099496e-02
3.812283480903969068e-02
4.169845443396758000e-02
2.438917772078374319e-02
1.127392995460251846e-01
2.076169399528371429e-01
1.203059933322843944e-01
-2.888015341806601105e-02
-2.982765329433777896e-02
2.806348463039683855e-02
1.456209761316268683e-04
-3.266129609280669921e-02
-3.879388765770980241e-02
-1.218022953908228095e-01
-1.776593302761733939e-01
-5.895047706011505295e-02
5.536260030312597363e-02
-1.847619040720210187e-03
-8.106880717910554257e-02
-4.204893883984286984e-02
3.848525960704927973e-02
5.789846490586372102e-02
3.134609717133218787e-02
2.024732813076619842e-02
2.527744781319097439e-02
2.273782161431699145e-02
3.534487890767016444e-02
6.117493816239046034e-02
4.393524368888533649e-02
-5.636831535611655855e-03
-1.448593134747261195e-02
1.022491161144026099e-02
1.419542005035220530e-02
9.723465367457266584e-03
4.939850566715644868e-03
-2.840098837786975833e-02
-4.944233348521040461e-02
-2.277817520178334817e-02
-1.674297699883797036e-02
-4.862926226928255408e-02
-4.888236917277792581e-02
-2.820995580061548547e-02
-2.431479494531422342e-02
-2.190897688298040769e-03
2.678417700242845256e-02
1.545427051908071156e-02
-5.291299448298058573e-03
-1.085300544623575905e-02
-2.406420239287319907e-02
-4.174408116071778863e-02
-5.843113570976450621e-02
-7.648265227680295375e-02
-7.312765688449389401e-02
-3.991106388117381804e-02
-6.507389544223995438e-03
1.341597966762513028e-02
4.731880519357768711e-02
9.817111559241384344e-02
1.291336589162342674e-01
1.466245098854298545e-01
1.769792479473002167e-01
1.823187501412094902e-01
1.369057742346859452e-01
9.052492604577665192e-02
6.474444103880439005e-02
2.957145099956229664e-02
-1.359172429019822256e-02
-4.708548817600619746e-02
-6.794631471380818688e-02
-7.356476925323363059e-02
-8.284810118671231960e-02
-1.176620560747176636e-01
-1.554414362330882593e-01
-1.647747382247523873e-01
-1.412292808344030870e-01
-9.452977799077207088e-02
-4.906603984760172371e-02
-2.052988536490816390e-02
3.863982073415875990e-03
2.713087767119848337e-02
3.917507460199660257e-02
4.040902934575116984e-02
2.968618228264568309e-02
1.669046237540728825e-02
1.830005377682183618e-02
1.375261100506288900e-02
-1.382462996099592320e-02
-2.293626747125127388e-02
1.336295954906360772e-02
5.462308661629386441e-02
6.141840887022542717e-02
4.298680678495904461e-02
2.432667248963678308e-02
1.083459162291463586e-02
-2.591554966503758356e-03
-1.027115445494476698e-03
1.873499511080964700e-02
8.423215816981856688e-03
-3.869300652939990093e-02
-4.716977311741796242e-02
9.116500643511372265e-04
3.798463000764969871e-02
2.470072775548227961e-02
-1.491669329243547684e-02
-1.600933335818629372e-02
4.237566093411434393e-02
7.145955227078736038e-02
1.683772572166974957e-02
-3.738114429711968112e-02
-2.838325090027190092e-02
-1.071234112446123668e-02
-2.780212234762985055e-02
-3.896249392172824316e-02
-6.280546765604346111e-03
3.777524607106346605e-02
4.393517606519073415e-02
2.710066954304606729e-02
2.812465275153034835e-02
2.309479331913506100e-02
-2.004502781805688610e-02
-5.433484189727624813e-02
-4.537192442892552802e-02
-3.478090278011153336e-02
-3.737303630249923930e-02
-3.030291096292884317e-02
-2.935384546288078572e-02
-3.798059053796051798e-02
-2.254573795502009398e-02
4.824521405393758511e-03
9.888285440124631315e-03
3.117006956730242195e-03
4.004850905336823641e-03
1.753839998173930062e-02
3.978022797940723027e-02
5.267714991842196992e-02
5.194195466489173046e-02
4.367592864955966575e-02
2.590566506182047021e-02
2.153593332383707884e-02
4.261147562039692416e-02
3.995789899050551652e-02
-3.822358191121891843e-04
-1.615268403012812271e-02
3.788844240092100260e-03
6.114034078714281582e-03
-7.995583055909119899e-03
-8.809601016419236000e-03
-2.433187815987393129e-02
-6.277949987951642052e-02
-6.307796776490028068e-02
-2.090375622547076262e-02
-4.689881949123441210e-03
-1.671101147617468086e-02
-1.140223625258504105e-02
4.709761604073419566e-03
1.672139184042615440e-02
2.956023680641170492e-02
2.367712220782181021e-02
-1.234358777489072759e-02
-4.463622916200914170e-02
-4.270917735226240075e-02
-2.790989113922727471e-02
-3.710777889507390487e-02
-5.041349832594942126e-02
-2.394915975381330456e-02
2.232945973781470111e-02
4.149038756946540896e-02
4.208831007556219223e-02
5.521245374262895300e-02
6.966701512217213232e-02
5.641331560062136374e-02
2.630221268625205708e-02
1.513912625930986453e-02
2.240332295858272343e-02
1.185076003883187359e-02
-2.577114129037457596e-02
-5.339845632760890221e-02
-4.942049081945151107e-02
-3.511859122403801492e-02
-2.864841454518004746e-02
-3.525654903280105168e-02
-4.657136161265899854e-02
-3.416554300900688512e-02
-1.055692797218570024e-03
2.031002388687127430e-02
2.562729156662631180e-02
2.335585979231403000e-02
1.865633814558219361e-02
2.695948313400996568e-02
4.625865645425143724e-02
5.121545761588238571e-02
3.127774537580133712e-02
4.592613098381563910e-03
-2.865375320343969100e-03
8.998912850333424737e-03
1.219801664382104064e-02
-1.111096080873012586e-02
-3.102388351923261733e-02
5.372151420755706674e-04
5.259273765074542334e-02
5.279429368257152616e-02
2.365921691059510307e-02
1.504530613780072010e-02
-1.223515671591568488e-03
-4.524235050133877667e-02
-8.558965812122563965e-02
-9.056095235746948469e-02
-3.917854048715398163e-02
3.290818559883153249e-02
3.214868438140095624e-02
-3.818456539471907357e-02
-6.681029417385928038e-02
-3.677949116199456803e-02
-2.494496784950298029e-02
-3.500242531052458889e-02
-2.507897076664030583e-02
-6.333252957399706541e-03
-8.657936331375225628e-03
-2.368825701156548197e-02
-2.287260598626869937e-02
-1.432287097089139649e-02
-1.840285225136138389e-02
1.166926894329578177e-02
9.396700837410022766e-02
1.433844806758070023e-01
1.476479551316595973e-01
1.434655900324006417e-01
7.051574849516448196e-02
-4.212186188395462827e-02
-5.007421958391370526e-02
2.030758318151637543e-02
2.305713197575493326e-02
-3.345794370234232012e-02
-5.037147033538295904e-02
-3.996221866862811195e-02
-4.813028174989325558e-02
-4.836078583754328114e-02
-3.293693791063705134e-02
-2.914666402688330382e-02
-2.423837811871163567e-02
2.409822962298282557e-04
2.243374534794855685e-02
2.519777901111766930e-02
2.224145136713094606e-02
2.475502906558915348e-02
3.036294740380931015e-02
3.312293746691713503e-02
1.949376570906663497e-02
-9.991985971926069243e-03
-2.253056378870733553e-02
-8.587871014780520951e-03
-2.442056424810627388e-03
-9.807284644220565228e-03
-1.172524297518297114e-02
-1.361652579249206935e-02
-1.380993756431407940e-02
-1.404944469749717234e-02
-3.395769306033419310e-02
-5.512707486644169430e-02
-6.339822444019645176e-02
-8.291884873224390773e-02
-8.134794829047412024e-02
-6.279657326394232943e-03
7.583117127034921801e-02
6.122479309539148595e-02
-1.342625951088516692e-02
-4.357453278251276207e-02
-2.391100769734054790e-02
-3.199172493188132821e-03
8.005256064437559979e-03
1.261929419969333270e-02
5.300618702032782598e-03
-2.103189897321679561e-02
-5.095852335059417731e-02
-3.695065092305989396e-02
1.995474765733608324e-02
6.371320027709863332e-02
1.012056914478509512e-01
1.617362292012546054e-01
1.842385321853977631e-01
1.524715376863401139e-01
1.688719072244702080e-01
1.882927509772369667e-01
5.318938366093661774e-02
-1.056922924850628720e-01
-7.443589208872845864e-02
1.003282565100844376e-02
-2.688311685613983468e-02
-9.152759842681579272e-02
-9.682505422430126574e-02
-9.253617889238538452e-02
-1.044712343246124581e-01
-1.072922298900577803e-01
-1.094817327615256602e-01
-1.280715456122165641e-01
-1.200220851224022695e-01
-5.382518569280372867e-02
1.364522201392052991e-02
3.109465349448395366e-02
3.317813059595815794e-02
4.912735989282053517e-02
4.665118975665709378e-02
2.524387459193334210e-02
2.709929736588893509e-02
3.746985061369705050e-02
8.055544390358788248e-03
-3.802810575957067674e-02
-3.829319174033467971e-02
-3.816941386188633066e-03
6.461943787580027611e-03
-5.323532184301192106e-03
3.085386818837960836e-03
1.972800942883122868e-02
5.071821840603946488e-03
-1.007752962730390847e-02
2.371370860318542523e-02
5.809985560431932955e-02
4.257606089628306056e-02
2.913013660697325383e-02
3.972077336003455167e-02
2.092848493854399319e-02
-1.716251083842369046e-02
-2.191885132939399086e-02
-1.371873267248067962e-02
-2.844990665207653563e-02
-3.468899984285702537e-02
-7.725043811190410864e-04
3.508691518158080919e-02
2.334721786355791959e-02
-1.183809657781398697e-02
-5.964893536806534745e-03
4.102960408287935345e-02
6.579908878947798856e-02
4.657757378362553657e-02
1.402265064173386505e-02
-1.927861537970904787e-02
-3.339960140904955910e-02
6.558066098823027434e-05
2.578096873240195291e-02
-2.040080513611583143e-02
-7.249962057094100354e-02
-4.940279061046463915e-02
-1.948696469489964028e-03
-9.508972308036029927e-03
-4.444036093172477886e-02
-3.820677720818677764e-02
-3.969127695864976130e-03
-4.409168069450955171e-03
-3.304047868729934057e-02
-2.542071989165247542e-02
1.332161624246717448e-02
2.215641292818715247e-02
1.231621691631986162e-02
2.354484375672654187e-02
3.470527963982737718e-02
2.949362096517431364e-02
1.822613208303029350e-02
1.732826612157739674e-03
-1.715148053173495661e-03
1.550802580274981621e-02
1.969670481553122826e-02
1.202936680473525380e-02
2.534686676032001790e-02
3.568456708567936675e-02
1.661439642411922588e-02
4.851441260502199412e-03
1.168806870239351772e-02
2.568745606761381039e-03
-2.176276351887906219e-02
-3.652082802379766346e-02
-3.845772352356539164e-02
-3.029604680861011645e-02
-1.410035461237735439e-02
-5.683195191039124017e-03
-8.588977301128106201e-03
-7.366028109769353488e-03
-1.170647098763673115e-02
-2.875392085114143736e-02
-2.625866007353892459e-02
-6.364100015575897482e-03
-1.495206806125147850e-02
-4.619426905174119774e-02
-4.609325577975569022e-02
3.275869773884040447e-03
4.979440900318273661e-02
3.902108252292549317e-02
1.351955757839407891e-02
3.436141531476093885e-02
5.962108617915093389e-02
5.176076122216740488e-02
4.702243780840204695e-02
4.172767579894184203e-02
5.076905412496947670e-03
-2.342962714973237381e-02
-5.252132306179678467e-03
6.032595974948562825e-03
-3.093932121796990481e-02
-5.619639326572224008e-02
-3.852906470833611374e-02
-3.348969363623623130e-02
-4.208127639620662386e-02
-1.486203683384831713e-02
2.289344068701594515e-02
2.909918082660241725e-02
2.583170455509790561e-02
2.682438879818586919e-02
1.170044085064693082e-02
-1.132755243022098846e-02
-1.162596669283632797e-02
1.172278315346234577e-02
3.087953211646660145e-02
2.603327117181745282e-02
3.123174521767789827e-03
-1.676806388633608758e-02
-1.432411051270461935e-02
1.075949845792589787e-02
2.641323345941440359e-02
9.482884497407710958e-03
-5.759247892274362360e-03
1.103671615992246613e-02
2.358151886781553047e-02
-1.294151205551894411e-03
-3.388071634272326466e-02
-4.180677401543708704e-02
-3.845689700884595552e-02
-4.122356160157365085e-02
-4.486549688912393891e-02
-4.179704104693229838e-02
-2.466405742449231941e-02
-2.752019428749604910e-03
-5.645675415293524568e-03
-1.874162954419084093e-02
-2.982372535765202663e-03
1.338198686518645049e-02
-1.626236670591458752e-03
-1.781529023095898036e-03
3.357391904910927288e-02
5.332935646183203926e-02
4.863607456539506546e-02
4.617027156486967071e-02
2.997083676421766901e-02
6.454918961836821588e-03
1.420769094911390577e-02
2.722379058074202510e-02
1.203245160498530447e-02
6.535710117425525163e-03
1.575940443663058702e-02
-3.831869795048263236e-03
-1.888969014134077307e-02
1.069828417752618013e-02
2.133612773137772908e-02
-1.692311349654865987e-02
-3.799558738328846774e-02
-3.142182645866630625e-02
-4.469310330913344592e-02
-6.053136128130839899e-02
-3.703282374383318892e-02
9.868070593827009754e-03
3.794041180395617968e-02
2.596494573147371809e-02
4.447143572620845461e-03
2.557189813776596099e-02
5.546288770176391325e-02
1.982455959042099536e-02
-2.135846182301100876e-02
2.602160211809799104e-02
5.223721342183387101e-02
-4.770957776635425390e-02
-1.037294930699254047e-01
-2.017431526539134254e-02
2.659362653173415886e-02
-1.446654677856189924e-03
1.856297991251425542e-02
4.602244797883263405e-02
2.315449426862323939e-03
-4.403330105462185257e-02
-3.166300521209718111e-02
-6.078044511606488405e-03
-2.103642446589524401e-02
-6.493606297285269002e-02
-7.068301317143985130e-02
-1.626195959072498920e-04
6.253297687372968983e-02
3.138146902281320483e-02
-1.822359097744349204e-02
-1.049576451885350301e-02
-6.249375524170276350e-03
-1.716193396719737849e-02
-3.049103370519746017e-03
-1.987752736432617934e-02
-2.517699564037079174e-02
9.583508060266687778e-02
1.674381775597998112e-01
3.371943858855908083e-02
-6.123955411078074035e-02
1.354900532097322308e-02
5.587141159753799408e-02
1.488104357950554256e-02
1.329008341709334712e-02
4.426350690092854118e-02
4.182673340727174893e-02
2.259955439547406755e-02
1.989950600792106047e-02
8.214468586242387044e-03
-4.170272437758858197e-02
-7.686113273197207885e-02
-4.575220352196739809e-02
-2.114394516953182340e-02
-4.868717186716724904e-02
-2.718243257811286950e-02
2.459877358026996141e-02
-5.797227580143297920e-02
-1.821959656568064856e-01
-1.191054348023641157e-01
3.950623903553900085e-02
7.295632218139680436e-02
1.214950671639885085e-02
5.594483920092794410e-03
5.423755537099690660e-02
7.759703395400888160e-02
8.257350682963669752e-02
5.086178758406788292e-02
-7.793844601150659579e-02
-1.665921919622170566e-01
-7.898031291356999439e-02
2.684049834229951942e-02
2.212919911466101203e-02
-6.078139891577397612e-03
-9.746994095692525228e-03
-4.408922884255992228e-03
1.111896491230015063e-02
3.474440591393911353e-03
-3.089733059324469358e-02
-2.470893943495046027e-02
2.720688539221978453e-02
6.290052269160911758e-02
9.225429881184805947e-02
1.306027886426128493e-01
1.051423915634435435e-01
6.488570688028487410e-02
1.591810325768194534e-01
2.530807391979696952e-01
1.329833768051900122e-01
-3.417353267174774029e-02
-5.959742651703197475e-02
-7.209499944018954443e-02
-1.385521896914553297e-01
-1.493522138198263294e-01
-1.101570446949229065e-01
-1.036007268254271335e-01
-1.136729653613606367e-01
-9.154618677614051458e-02
-4.684877572725235084e-02
-1.937786198533060153e-02
-1.792768170776721029e-02
-1.347742339785235749e-02
4.857270419103068559e-04
2.515295367212688066e-03
-4.705025485562980281e-03
-8.004636933636018192e-03
-6.617443921502175544e-03
4.456600856641960290e-03
1.387836068556824211e-02
-7.358773614118562303e-03
-3.966849081504388030e-02
-3.336550893721182409e-02
-4.211465843335827561e-03
1.085705647376600420e-03
-2.655016096140763379e-03
1.870761860474022195e-02
5.001491845679729292e-02
6.274881777661847626e-02
5.583010131132663117e-02
4.702251268493035791e-02
5.701147260202964195e-02
7.268184021776141757e-02
5.734923453849016112e-02
2.062913566224332945e-02
-3.678752057902008252e-03
-6.883941169471063243e-03
1.459322109749245852e-02
3.612041979841294770e-02
1.465378851680040548e-02
-2.221818853848159248e-02
-2.049706896621945884e-02
8.779018875976971059e-04
5.700463157645822843e-04
-2.184341601538124580e-02
-3.979201666610421295e-02
-2.388349211829183041e-02
6.100549985012498899e-03
-9.639755821768507260e-04
-1.814969110861355470e-02
9.091774153656775621e-04
-2.043130110157507888e-03
-5.979235925232338766e-02
-8.063749562472515009e-02
-3.478424905653055427e-02
-1.513840975183092588e-02
-4.299596961846711279e-02
-4.323730195346967703e-02
-1.073673255239060431e-02
-4.483973170734978711e-03
-1.235846561253825700e-02
1.578213381285024225e-02
5.505376140987770783e-02
6.215481411712674154e-02
5.608831797382948792e-02
5.118132385793561917e-02
3.435719757090616860e-02
2.390928861592423946e-02
3.166832321021056246e-02
2.460217516119553999e-02
-8.210677719565871724e-04
-9.093991369500051269e-03
-1.524018538203515856e-02
-5.104257809914151955e-02
-7.395249838355806571e-02
-5.032261459285074234e-02
-2.312642442451001007e-02
-7.276326168160847721e-03
1.409801535184438195e-02
1.602609874934250375e-02
3.613666380466579002e-03
1.279716435021069527e-02
2.009340467519224807e-02
1.639709798297036072e-02
3.600334785708859953e-02
4.376031803464830450e-02
-2.399848676944305731e-03
-3.310241197552150905e-02
6.317952319531174032e-04
2.798210048960665663e-02
1.296501099284175750e-02
2.224184616961824221e-03
5.806034914011195570e-03
1.072860773527338496e-02
2.387046925144106421e-02
2.808454228173825479e-02
8.212401223938396722e-03
-2.412382182673790832e-03
9.380911599057809025e-03
-6.601430563983044439e-03
-5.490135586066567652e-02
-6.565898075334385131e-02
-3.632389644196246103e-02
-2.418305202688065397e-02
-2.047416888573708876e-02
-3.643138790836302019e-03
-9.919726504547869000e-03
-4.918390343220969269e-02
-6.729817449505727522e-02
-3.062536147735339317e-02
2.378483684229655559e-02
4.388402933842656950e-02
3.182595569963943966e-02
2.165042935387106321e-02
2.083990203592388929e-02
2.138814810059622151e-02
2.413397324498047294e-02
2.918137769873247259e-02
3.407897105475831551e-02
2.569952459910202977e-02
-1.027227403796624958e-03
-9.361614594136678097e-03
1.421826921522924628e-02
1.413572083165945403e-02
-2.674025364038926100e-02
-4.112078817731454339e-02
-3.978503261418377818e-03
2.064629190080187818e-02
2.689316304572948214e-03
-1.029048857307864398e-02
2.560650042166471956e-03
1.230954021438931782e-02
9.353009331422273975e-03
-2.104480498929637775e-03
-2.484057309044281764e-02
-4.494332395634614147e-02
-4.458595619759128659e-02
-3.548195227619750647e-02
-1.528144894036487927e-02
5.632810646490266776e-02
1.075179558381822165e-01
8.622916605504835075e-03
-1.063387590211684469e-01
-4.066604267227571373e-02
7.273451218941211216e-02
7.389083573419777395e-02
3.916785692466397129e-02
2.149597093331792608e-02
8.160867043138113125e-04
5.179436035120397845e-03
2.743734697190461369e-02
1.518923200405364847e-02
-2.837398724155766258e-02
-5.232808155264893207e-02
-3.682467079701098878e-02
-2.880992946084556111e-02
-5.468816750974599128e-02
-5.206553582572383265e-02
2.518694623115749678e-03
2.727025123528048489e-02
-3.274001123170338853e-03
-3.039750802618923498e-03
4.223107112480417591e-02
3.014285305080532246e-02
-4.447540906829986623e-02
-6.413312284408050068e-02
-1.455775394497014694e-02
1.649369112410893970e-02
1.142517328097520692e-02
-4.418534131323910083e-04
-1.543371259301596493e-02
-1.650309377779839506e-02
1.500195856055412495e-02
5.438126579072510847e-02
7.643906088327249992e-02
7.813106289997240328e-02
6.172470458627223044e-02
4.625953918851469920e-02
3.273555689079848258e-02
1.662380628475115460e-03
-2.700747851251613513e-02
-3.809547825299229584e-02
-5.355907208683778620e-02
-6.926075580882720684e-02
-6.446230696284646622e-02
-4.181247776080426748e-02
-2.260914301735524740e-02
-2.672808003392382684e-02
-3.376504804340289823e-02
-9.660218644775585284e-03
2.882773626415177995e-02
4.617067841640708908e-02
4.434450707548430459e-02
4.194941703050218684e-02
3.602172536314118129e-02
1.986623282179275640e-02
3.089781677942191745e-03
-1.402686986679091072e-02
-2.955525366480347971e-02
-1.440019898210814255e-02
2.523600697677190821e-02
2.252968970820585018e-02
-1.466723909188730364e-02
1.033808080463446272e-02
3.930618803659095828e-02
-7.110260043955075882e-02
-1.817537321480298396e-01
-1.053955111379011739e-01
-7.095968047771326198e-03
-4.458962575628013653e-02
-8.793990508864517330e-02
-4.874404687259489138e-02
7.578210845304380466e-03
3.842871303073561173e-02
4.565323162627460407e-02
5.626666153620515920e-02
1.076569381025539313e-01
1.633130589864695281e-01
1.581387890553173914e-01
1.278867368985964204e-01
1.291535426060662073e-01
1.263609068256238421e-01
8.720799234887925688e-02
4.267660822941526932e-02
9.993026748620657124e-03
-2.289225054319595290e-02
-5.907908344876992845e-02
-9.096281295292249491e-02
-1.067144790780802932e-01
-9.962839782699446645e-02
-7.946990130202338798e-02
-6.836981913780000586e-02
-8.365805342669126177e-02
-1.057657243293866900e-01
-8.770220845495925455e-02
-3.478152929644365288e-02
-9.515701587926930771e-03
-2.320085891603834369e-02
-2.929418048060309157e-02
-1.901203556714289519e-02
-7.337021164925502936e-03
7.394677322922260654e-03
1.312605020860241334e-02
9.838980913584777915e-03
1.450329519992128550e-02
8.706459728730769898e-04
-3.764480608246578014e-02
-3.496102543412581143e-02
2.111044081532314348e-02
5.578135464101040275e-02
4.564292592353517974e-02
4.140945496402784198e-02
5.689496187537239347e-02
5.278007368228868068e-02
2.962670315323569920e-02
2.947707876095282536e-02
4.793367332303504619e-02
5.448459731589185007e-02
5.033903194311296209e-02
3.233814106022379897e-02
2.310170800736977004e-04
-1.042486045893467432e-02
1.639035537727814157e-03
-9.401292729752694366e-03
-4.517703066327459493e-02
-6.403349075170758353e-02
-5.028974092966791154e-02
-2.470018529396821386e-02
-5.853625817168230973e-03
1.506530819902728024e-02
3.749921935536894291e-02
3.429822784149447190e-02
7.185246624958381220e-03
-1.742416992799286635e-02
-3.792778584587042090e-02
-4.811977780929103943e-02
-3.367915886072937737e-02
-2.936946800605151967e-02
-5.746111449050334691e-02
-5.713709729950705585e-02
-2.668511934419027544e-03
3.807442998261560685e-02
3.812471755896805481e-02
4.048763379551267166e-02
5.361888036370549004e-02
5.484459878913156006e-02
5.039301382658561285e-02
4.284081999994105577e-02
6.661903563291087654e-03
-4.418918575228921591e-02
-5.144105808687197967e-02
-1.429877830208056352e-02
2.413854749912424259e-03
-2.490363902675757704e-02
-5.116213760283511158e-02
-4.550074725817074978e-02
-2.974607949099015644e-02
-1.676470597547784908e-02
9.685080094169608300e-03
3.014025654051712133e-02
9.164570633651563866e-03
-1.943706553112686114e-02
-1.573683122766341563e-03
4.623516766921871579e-02
7.824753590617770926e-02
7.070583789858433943e-02
1.979768526255631239e-02
-3.407075809068962208e-02
-3.897259890504792962e-02
-1.281699041627006388e-02
1.789056638486713827e-03
1.039763792257530385e-02
1.464198532082816410e-02
3.616868126564935261e-03
1.355845844693736885e-03
1.570376670482398831e-02
2.209483827102060038e-02
1.801576318195089593e-02
1.110348893254191165e-02
8.911259041263413843e-04
-1.435061582293909246e-02
-3.371465105837420650e-02
-3.968044673209121520e-02
-2.307322483587639222e-02
-6.656555524395832077e-03
-4.410998129228209039e-03
-7.181427687640206704e-03
-2.075652415843302553e-02
-4.418428764276444848e-02
-3.185714249917927926e-02
1.878911879006147506e-02
3.114912084524670832e-02
-5.864226589012198551e-03
-2.468112515398346654e-02
-1.549652254663705722e-02
-1.191203159303335854e-02
-1.469819606933790365e-02
-9.613324509534035972e-04
3.589111254609780172e-02
6.243561174394524071e-02
5.478081166843600663e-02
3.794696515434821393e-02
3.465299369837358812e-02
3.462496428976585133e-02
1.495930422406018326e-02
-1.571523289548749230e-02
-1.610650887275415569e-02
-3.247432003377008491e-03
-2.833837900553214453e-02
-5.833214687675441351e-02
-5.140920983990762694e-02
-4.454067817801934948e-02
-5.046719595884977677e-02
-3.997547544642116729e-02
-2.586119871753537677e-02
-2.197146745393329173e-02
-1.447080310904527017e-02
-5.821892962258235285e-03
2.038541627702203374e-02
6.204303889782809833e-02
3.535893063669724723e-02
-1.758529347154472178e-02
7.257653905238370395e-02
1.998024573613520760e-01
1.302317343139840489e-01
-1.191794070228236781e-02
-2.034260334340349391e-02
9.713771592087205170e-03
-2.782531366441698406e-02
-5.772589150535968605e-02
-4.020370315910286318e-02
-1.382431116242591185e-02
9.736203297807610735e-03
7.392432404864888139e-03
-4.423688640877544709e-02
-9.553338557923848895e-02
-9.570886788655390276e-02
-5.359360890478778727e-02
7.749608006126935608e-03
5.169226350142828302e-02
4.302027361333052302e-02
8.948621642288037345e-03
-8.122388538316659828e-03
-1.646518303066680719e-02
-2.840799314102365053e-02
-2.930793727245759039e-02
-9.580845482507486383e-03
1.490758955937542506e-02
2.492279397142148703e-02
3.362392800023766143e-02
4.685080966261030017e-02
3.530855666190402947e-02
1.316627445736324661e-02
2.460106212939270134e-02
4.474485695230447785e-02
4.082054930161607698e-02
4.724193798545672091e-02
5.432661728154854208e-02
3.007144951615200491e-03
-5.105978572387301351e-02
-2.863125124594828597e-02
-4.484028163179951468e-03
-3.646335734939309958e-02
-4.821965557391953011e-02
-2.132770919530801307e-02
-1.736073532039146897e-02
-2.981775773519032904e-02
-2.367453056211137399e-02
-1.288195272713817292e-02
-1.149755499068056026e-02
-8.007323201630349788e-03
-4.018960565519297430e-03
-1.606135575713395908e-02
-3.395659715015198615e-02
-2.607333514480686051e-02
-1.344003286256842053e-02
-5.403885034186880348e-02
-9.379907042223710467e-02
-2.980669989698752839e-02
7.190440049593696537e-02
1.026057593942721335e-01
7.871301143251310806e-02
2.380255296631244438e-02
-3.781918276156655961e-02
-4.649591504144502674e-02
-1.954314946758240260e-02
-3.319814523704080200e-02
-8.430761941953103522e-02
-7.852052316943655685e-02
8.551827280841424461e-03
8.174383947190637378e-02
1.072493613419965297e-01
1.102806044996008789e-01
6.610641424578517222e-02
5.471345865623328079e-03
-4.482622722951509764e-03
1.933322161381673815e-02
4.908881538021783730e-02
8.623724588870818053e-02
1.202706656342315134e-01
1.333555179565971138e-01
1.138854811399043487e-01
7.865824914525552936e-02
4.009543601755341524e-02
-1.787073735109531020e-02
-6.089282125101896925e-02
-5.567804531755451286e-02
-6.887446176864828185e-02
-1.153730192231775253e-01
-1.081538768554061725e-01
-6.665436315247222354e-02
-8.088927861328394642e-02
-1.155993120122535273e-01
-1.031835136524235780e-01
-7.595950746097243633e-02
-6.468715326611011729e-02
-3.870038979628667025e-02
2.824726900230768029e-03
1.166271770169027139e-02
-2.263423431262394023e-02
-4.528720678125452981e-02
-2.017329409098780196e-02
8.389366551179250342e-03
-1.404216358448451274e-03
-1.092586080052884365e-02
7.927612618298664551e-03
1.880492911457254390e-02
1.525807680331240333e-02
2.989815042531493786e-02
5.646367130280323388e-02
6.830021084635937156e-02
6.271592287074022332e-02
5.295521177868416085e-02
5.825861972085213947e-02
7.410425885386895395e-02
6.877625246329079067e-02
4.518734450994638108e-02
3.433594121837710289e-02
2.965870444575571807e-02
1.030094130850727624e-02
-3.970734272178335494e-03
4.147959756599650660e-03
1.567152352593702974e-03
-2.219021523548653924e-02
-2.466611662946793099e-02
-1.566728461258685978e-02
-4.083384619654722297e-02
-6.191931549934694134e-02
-2.741988570076696330e-02
1.498948066946941687e-02
9.364035519150146203e-03
-1.541058608980943462e-02
-1.944414629573455386e-02
-1.616835684010839783e-02
-2.728887937065204231e-02
-4.714685214844673705e-02
-5.789578613609424468e-02
-5.602051740769337790e-02
-5.668558996176317755e-02
-5.233465680862091352e-02
-1.327426851756714765e-02
4.605373512043631212e-02
7.899166157533980825e-02
7.754618677121560832e-02
5.888776512851669892e-02
3.207469664769418971e-02
2.010151494290157020e-02
3.521467737969357498e-02
3.221212561529086110e-02
-1.645844643800800297e-02
-4.790909301146839550e-02
-2.674444621014846618e-02
-1.244421205806407402e-02
-2.337200735690065506e-02
-2.988261391520804014e-02
-3.877485946068643524e-02
-2.807498335431606387e-02
1.852390393366758203e-02
4.002804586307817658e-02
3.178292906997791378e-02
4.223117656710742573e-02
3.958835277008326825e-02
7.226910824269305172e-03
-3.190200626907221254e-04
1.544240925737802236e-02
1.406210535585523079e-02
-2.117188591723746273e-03
-2.372130283377885812e-02
-3.768688987778184840e-02
-1.978326687470929879e-02
9.339781092327404527e-03
8.275436959629463296e-03
-1.173016977885967503e-02
-9.514201742889987282e-03
2.093555415777224524e-02
3.993356193582578428e-02
2.413597575896989783e-02
8.268070321426419095e-03
8.522932670220540949e-03
-1.706036548287439419e-02
-6.671488152405184724e-02
-7.878774041576344644e-02
-4.587657410938104224e-02
-1.656653743057256989e-02
-3.363502759703498879e-03
1.802890947601324886e-02
4.286928210695602898e-02
2.565628875666516040e-02
-3.010640980369074654e-02
-4.348658329007069195e-02
-1.075339354979143978e-03
2.135494939573489431e-02
8.097567243502948667e-03
-5.105743126835647280e-03
-4.493787810268183233e-03
2.098528794725642785e-02
5.194149627440281664e-02
4.990545552985720112e-02
4.756068531348803946e-02
7.691643525523164659e-02
7.049572075327893705e-02
-2.047108581021634191e-03
-5.276293761024653667e-02
-3.843280453802176699e-02
-1.931958169184214147e-02
-2.501965702381606788e-02
-2.121938143608212771e-02
-5.620290560562741199e-03
-1.910959802168387192e-02
-4.839514813306277502e-02
-4.306445534760603572e-02
-3.201453478547665321e-02
-4.737730884236042439e-02
-3.609063055161105399e-02
-1.388274283043829582e-03
-9.209455674084999696e-03
-3.417052126993273126e-02
-1.697820856407043777e-02
3.111167091752389813e-02
6.988315492967059339e-02
6.642370355525584191e-02
2.690615298721683868e-02
4.691464648661172743e-03
1.931705558739596137e-02
4.387290490014304073e-02
5.459869076098251839e-02
3.013373533328951234e-02
-6.380310084381640712e-03
3.262802907520078594e-03
3.073312372837302617e-02
1.702929127764478412e-02
-5.903868775673430484e-04
3.891729101764548199e-03
-1.476959031070943992e-02
-4.637294760675790550e-02
-4.645060229801476620e-02
-4.000542937729575227e-02
-4.980780616138397177e-02
-4.053755149666896096e-02
-1.872375724887746741e-03
3.219642174170423560e-02
3.335944862913493847e-02
1.333903051949990315e-03
-2.275618654747770322e-02
-9.119722445098545072e-03
3.563789980895719182e-03
-1.688383895735754564e-02
-3.945510416610160942e-02
-3.003726953403190736e-02
2.823456329807723028e-03
1.772293845178823241e-02
5.469099561271607152e-03
1.312321104062802099e-02
4.009653349695652819e-02
4.150738546298878701e-02
3.652331257294800376e-02
5.109427325767391947e-02
5.458590256140655184e-02
2.857284539552924080e-02
-8.580828764001312281e-03
-3.226569155309824688e-02
-4.245465746449764849e-02
-6.044706912093157636e-02
-7.266727877376560896e-02
-5.870569607111193050e-02
-5.088224583554885189e-02
-5.583893525692702059e-02
-2.631930581939291580e-02
1.989850405629386282e-02
1.815184046935959528e-03
-6.469175738646251728e-02
-3.759899231036848560e-02
1.129052374665475422e-01
1.829888560240936768e-01
5.948912705945223062e-02
-7.846467070830158430e-02
-4.349433703177361943e-02
1.147777206934962324e-01
1.774993514460521948e-01
6.001143558407352752e-02
-4.499298024451776207e-02
-1.784440353210711011e-02
2.180520709840380947e-02
6.957867572495715289e-03
-1.316212302496574428e-02
-1.688854971199601693e-02
-9.451641138909188181e-03
-1.067632297674508436e-02
-3.536128696503423874e-02
-4.108296714709083752e-02
-9.892430413858274707e-03
-1.295067195876475202e-02
-6.054081709539652079e-02
-5.514716549565264192e-02
1.281502212562140273e-02
3.905180822674197277e-02
1.756533562844674393e-02
3.992490301687491583e-02
4.285989874179221143e-02
-8.686886497455587053e-02
-1.728403332916207680e-01
-5.177281327458814475e-02
5.187950965855621377e-02
-2.311943133625599459e-02
-8.684690816293728910e-02
-2.667189432488803122e-02
2.563191875033766706e-02
4.781312359595356332e-03
3.887781250952754980e-04
3.327455729706937926e-02
3.484888782287415970e-02
1.457024701219775294e-02
1.606078563586053540e-02
2.122787320608404346e-02
7.335493573977937450e-03
-1.875760264408243144e-02
-3.387725790664746633e-02
-2.399097745033471757e-02
-1.271066604169284429e-02
-1.425685671807336644e-02
-9.854210209359011430e-03
4.056178327939481687e-03
2.015523125018368542e-02
4.800373764313470293e-02
1.001190525846619717e-01
1.371193461939270719e-01
8.918621480042117355e-02
4.624301968481221020e-02
1.531431219762181550e-01
2.429597586714396795e-01
1.186905759327605836e-01
-3.486127258473188661e-02
-5.169613652323479941e-02
-4.006332221598343096e-02
-7.737928333637000833e-02
-1.425322850822479948e-01
-1.585318032545309230e-01
-5.321963971404776450e-02
4.176652124080014461e-02
-7.615607914759150304e-03
-7.870552842596663379e-02
-7.179804880361494168e-02
-4.977226968881547781e-02
-4.185310142404344291e-02
-4.162530344860202597e-02
-5.685598502801489373e-02
-7.070913521844035543e-02
-7.480149426076533603e-02
-7.806234231386290079e-02
-6.204157630945110469e-02
-1.586353703093735037e-02
2.669816870755434973e-02
4.402314632291733087e-02
4.033093761476090611e-02
1.238049755396625901e-02
-1.152798657968130518e-02
4.844587229593607172e-03
3.027019616116832790e-02
3.931251545761306476e-02
4.327368187519817222e-02
2.083311866609542304e-02
-2.442574356686068576e-03
3.840920751732890270e-02
9.045865282968071353e-02
8.213995153135539296e-02
5.725232463628351226e-02
5.666387897291726844e-02
5.867422841133398265e-02
4.419136915466839732e-02
2.433488412459135219e-02
1.938369144483282486e-02
1.051468852845127352e-02
-2.648335752268963714e-02
-5.339992935456761014e-02
-3.965230917510077779e-02
-2.334157007033820300e-02
-3.020361144504525586e-02
-3.286210003272271862e-02
-2.581078103810548197e-02
-4.233626616159940487e-02
-6.082543529328242327e-02
-2.409492889389875520e-02
2.271749713162914477e-02
4.443347506828131815e-03
-2.578628316147112826e-02
2.114734366273537383e-04
3.954749374805364981e-02
3.699952894630234579e-02
-6.538031717865658982e-03
-4.986217654643315678e-02
-3.385976449521516107e-02
2.586882290421907080e-02
4.061632284471237281e-02
2.012570174397248363e-04
-2.125384044516117135e-02
9.333332827170255641e-03
5.110938231042001789e-02
4.705426722321183475e-02
7.368730001893475379e-03
-1.313741947263509166e-02
-1.658111209656816867e-02
-2.313623017052756844e-02
-1.963811026379252977e-02
-1.382536908477065979e-02
-1.505508008448401200e-02
-1.296555718439054879e-02
-1.494825713601870276e-02
-7.359945019566449705e-03
2.600291888736751267e-02
3.084305693154403352e-02
-1.150715439433205867e-02
-2.938105845986804798e-02
-1.865390786950047591e-02
-3.389177815153501805e-02
-4.540300295109690049e-02
-2.378002849076073927e-02
-1.751233969865525694e-02
-1.829391674925765973e-02
2.955876386881915729e-02
8.528250226987700577e-02
8.483976897386530380e-02
4.884017622950879295e-02
2.003992905105924857e-02
2.596677629694177369e-02
5.352087684434850973e-02
3.247145123590832599e-02
-3.459339132580133841e-02
-5.643696118399241929e-02
-2.301130613548643677e-02
5.637871178390879354e-04
-4.803445821486094364e-03
-2.148107041941463291e-02
-3.978819297265751703e-02
-4.967308081943197506e-02
-3.644323839859479885e-02
-4.944960217143015355e-03
1.546324194022063309e-02
1.184482905556853011e-02
3.734148659551796492e-03
1.044049671962765310e-02
3.050893651779579968e-02
4.203901357651505105e-02
3.344579191180335753e-02
2.272829435269652434e-02
7.767382232638087372e-03
-2.023322097025660737e-02
-2.202161007878189122e-02
7.328023390429706276e-03
6.591989757591028461e-03
-2.635489274014041552e-02
-3.658917740164797927e-02
-1.734489321338537199e-02
4.791484587717658762e-03
1.623846230927111778e-02
1.255026016086518807e-02
-7.952693819047427365e-03
-4.043321969777535080e-02
-6.013767876353934283e-02
-4.590759353607627019e-02
-1.225169222307264348e-02
2.014267210439968023e-02
4.024392600911302909e-02
3.846810325829884414e-02
3.192369734347126620e-02
3.984444266885420888e-02
3.369479445169736020e-02
-2.724851631088806569e-03
-2.809827415258495456e-02
-2.427943584552409717e-02
-1.779419069050868982e-02
-1.808966538025539791e-02
-1.791531914219366556e-02
-1.170010423400416437e-02
-6.407238522023759285e-03
-1.632763661971296798e-02
-4.008369793608189055e-03
6.091719721340755483e-02
9.700089252673199658e-02
5.099710513759943969e-02
1.037808965278872592e-02
2.786066980417170255e-02
2.861253782479148550e-02
-2.737361663851858862e-02
-6.789265183057296982e-02
-5.266690678995379626e-02
-3.182969700721412221e-02
-2.292878078739798986e-02
-6.919773687177077984e-03
-1.146679091798948058e-02
-4.387216948907771835e-02
-5.282704738412398460e-02
-3.051776871098990304e-02
-2.026052265766904725e-02
-2.382010751218264361e-02
-5.051714176091378142e-03
3.340651681889020286e-02
4.475732789912909015e-02
1.994561661359505952e-02
-1.338632634328234226e-03
-1.692851269461846664e-02
-7.775648726561002790e-03
8.636142345964308020e-02
1.638764454104525981e-01
8.746350365168144292e-02
-1.231448572700986205e-02
-4.513134202565837610e-03
7.307913953988078720e-03
-2.389200903431860229e-02
-2.133957639343186247e-02
3.220518756517224204e-03
5.833902969184046571e-03
1.189480884444075147e-02
1.576641455272853945e-02
-1.249819390631958134e-02
-2.822640824470600343e-02
1.019895861129598708e-02
5.614550309559057650e-02
4.614853770276114431e-02
-1.435511211255203166e-02
-4.094313116861757196e-02
2.701606422845924046e-02
7.488803743594484030e-02
-6.769235022933905999e-02
-2.814822619783354796e-01
-2.748871639296935343e-01
-8.525504023763483263e-02
1.259032695586898704e-02
-2.146473753633082460e-02
-4.427239628788756653e-02
1.543169362891709355e-02
1.226390328469991881e-01
1.519997352711883187e-01
7.382775138361552525e-02
3.431642500544031249e-02
5.681613565752158257e-02
3.225057651839048634e-02
-1.851702449172390463e-02
-2.816748289203334366e-02
-1.541181687765382467e-02
-1.224735163442647670e-02
-2.379091946822144837e-02
-3.851685050967203205e-02
-4.616914760790187533e-02
-4.663306488797307192e-02
-3.983244541429992180e-02
-3.457792427667957802e-02
-3.486140641534989787e-02
-2.043276245259020851e-02
1.545755212364657676e-02
4.817608345575447037e-02
6.934577249195503224e-02
9.520108123001658207e-02
1.216691420076591590e-01
1.403271083458633994e-01
1.597952159440979569e-01
1.572263936665687367e-01
1.131413714109185953e-01
6.975446187681118293e-02
4.070462430368711193e-02
2.117036966501551626e-03
-3.241244647174695848e-02
-7.574557689457227239e-02
-1.093487613083276716e-01
-3.877748742760435408e-02
4.674317616146436705e-02
-2.661795699198722664e-02
-1.481459955655585470e-01
-1.626981615636391432e-01
-1.494360753142320863e-01
-1.514062305606692915e-01
-9.897618260570932580e-02
-3.696399359754273112e-02
-4.020228441617987314e-02
-4.279554366112370972e-02
-2.652868711997113244e-03
6.059833528856528595e-03
-1.682753545525390859e-02
-4.649825341442793969e-03
1.767340844401910083e-02
5.935380568603824264e-03
-1.926210453118749194e-02
-2.358647232231592811e-02
1.219619439800842357e-02
6.006874560100765315e-02
6.983943869915151814e-02
6.260920680614448508e-02
8.087959458973681404e-02
9.752659851928432988e-02
8.635308375673521331e-02
7.154892224714790028e-02
5.613122581578030429e-02
2.245991107223258010e-02
-1.327302786395844966e-02
-3.348236705859829188e-02
-3.801663589264746290e-02
-1.535741826419546874e-02
1.153834671878388105e-02
-1.774737259334441264e-02
-7.471791261231229553e-02
-6.481614641658013654e-02
-5.408631266217271000e-03
1.449225129915548450e-02
4.308106500691226241e-03
1.443235328005998408e-02
2.246683654583338241e-02
1.537702662077013692e-02
2.658673583634707169e-02
3.952483888662840228e-02
2.300656815438293853e-02
2.789721955373927319e-03
-8.613106567694310545e-03
-1.750812838184844650e-02
-8.379078885355651513e-03
4.472447267668445622e-03
-1.290461948868777079e-03
-1.414956878128275503e-02
-2.608030388145382225e-02
-1.905380117434572404e-02
7.436632420384078554e-03
-2.641309813679423857e-03
-4.497678555854292548e-02
-3.909843819514118024e-02
7.374590445931937521e-03
1.204686052394977544e-02
-2.131370143931687541e-02
-2.670993089465655349e-02
-4.429250531098458642e-03
5.329692079640863805e-03
8.132801645128124798e-03
2.176697847130266636e-02
2.328966371977438804e-02
-4.137168191410634834e-03
-3.011038683359083118e-02
-2.445275100590620435e-02
3.050404348573252343e-03
1.499460899645943535e-02
-9.865614060028391960e-03
-3.055023595344070336e-02
-1.527872618507278811e-03
3.964626488089664780e-02
3.927976842208282665e-02
2.151490820262265402e-02
2.955550218267466445e-02
4.354158251085774728e-02
2.610788227359321645e-02
-9.800479312910892471e-03
-2.960964590070700592e-02
-2.178214875214270693e-02
-1.472679119286134965e-03
7.588074122287413910e-03
1.878855036310943857e-03
-1.629148846752337745e-02
-4.534198491811596010e-02
-5.548012112937854290e-02
-3.785623896513440334e-02
-2.015103044422554904e-02
4.405685087323299096e-03
2.700657722929011850e-02
4.506170349762732980e-03
-1.600778491351808469e-02
2.446429976524195152e-02
5.521212322021676333e-02
2.770706724564771933e-02
