-2.639487493113600383e-02
-1.271027916742190067e-02
4.017178141841824812e-02
1.051717223737081292e-01
1.426018596878035061e-01
1.609083105465479724e-01
1.536529440174349004e-01
1.037602489204207251e-01
6.557385916474406384e-02
6.821041225314908307e-02
4.517022256382751538e-02
-1.124323924612017842e-02
-2.650257612626874537e-02
-7.869214113140815536e-03
-2.318064707613852471e-02
-6.467687363388467670e-02
-8.651528167181793405e-02
-8.010789132492157627e-02
-3.884033329384395383e-02
4.553053934210935655e-02
1.481390047086772466e-01
2.360083967030014440e-01
2.872578312159514979e-01
2.878955496300097394e-01
2.469817173562903478e-01
1.806948667072356129e-01
8.356443449911818422e-02
-4.585572017023004793e-02
-1.634538560713069688e-01
-2.214034363561277197e-01
-2.455033258209347036e-01
-2.813654608343904018e-01
-3.134106173393470529e-01
-3.139517932395191613e-01
-2.721371652186183598e-01
-1.868568146382337536e-01
-1.131133645165255108e-01
-1.019007398527909114e-01
-8.590736442447954868e-02
1.221462432985088303e-02
1.273585768937077756e-01
1.664522233276984897e-01
1.511943200748792904e-01
1.367211468900505211e-01
1.202698306733187283e-01
8.320068028779101232e-02
4.494810134071268448e-02
4.521562708397858926e-02
1.152906735263982962e-01
2.527907142605222979e-01
3.248166486278778464e-01
1.941890444424333173e-01
3.051687677506714422e-02
3.255272040673874712e-02
2.976874345921457637e-02
-1.146643596156286804e-01
-2.402039887732317358e-01
-2.770293480090743610e-01
-2.952656173032254250e-01
-2.718806249554218124e-01
-1.931071931864875857e-01
-1.264441045969994792e-01
-6.888003204121148637e-02
2.644659091330228695e-02
1.149061869411416026e-01
1.374695532217953542e-01
1.301216994210831757e-01
1.416825239705742923e-01
1.497561544168141690e-01
1.237471792100709178e-01
8.454983414845551604e-02
6.524210395661003692e-02
6.319170782586767954e-02
4.729890671882568121e-02
1.162428711275440701e-02
-5.858119090362420844e-03
-2.538248061462397565e-03
-2.438279141193562191e-02
-5.564060706964948921e-02
-4.376504650033206933e-02
-2.132475197307617809e-02
-4.148739357601903543e-02
-7.447986992591729138e-02
-7.867248070886781464e-02
-5.689596623674593456e-02
-2.323887244806083566e-02
-1.369450236872478931e-02
-4.634965697257899253e-02
-5.216838715191486620e-02
2.373982657694886141e-03
4.292723237734818315e-02
5.706866839818088011e-02
7.146322909503298459e-02
2.098375807981949642e-02
-5.853644138846460926e-02
-2.353528860050276700e-02
6.034052997535570978e-02
4.243916931874491816e-02
-1.029944584671326456e-02
6.295706844105576974e-03
3.361047262547869202e-02
7.272436778425076312e-03
-2.639700510951323298e-02
-2.242797366036552303e-02
-3.085426497350683001e-02
-9.001040969207015074e-02
-1.220294476870914385e-01
-7.638782683278953767e-02
-1.062337115341135257e-02
7.141919689406385496e-02
1.878887573005286193e-01
2.471288449576281576e-01
2.070029307194703738e-01
1.447233943255190891e-01
8.301059669046086109e-02
-1.977524225807127806e-03
-9.236338642441074831e-02
-1.744138560736304133e-01
-2.325954889891444499e-01
-2.385939177278866286e-01
-2.037243993658074959e-01
-1.450812934470172288e-01
-6.608461973044726934e-02
6.406352922882635470e-03
6.031882813871598803e-02
9.988998646711232110e-02
1.117268556075493163e-01
1.055379016053007574e-01
9.493913706757999005e-02
6.666487298485301860e-02
4.103894449865841398e-02
3.750866353443472329e-02
2.869675754896681974e-02
2.552567244417414116e-02
4.920635552756926628e-02
5.332055281623174908e-02
1.791482600165936190e-02
-1.198864367103977778e-02
-1.835694119474876387e-02
-2.615075926974503445e-02
-5.070821432635788661e-02
-7.217910674279620631e-02
-7.089857807986210680e-02
-6.713411917507869364e-02
-7.382256159651856553e-02
-6.744132402287827954e-02
-5.194363592229065546e-02
-4.837479193394448457e-02
-2.767986901292407431e-02
2.354780004798121690e-02
5.143006725381168986e-02
4.284642341456751380e-02
5.080203656204711204e-02
8.660027998798620896e-02
1.071786625416600858e-01
8.593815577465298283e-02
4.554835951862414023e-02
2.862116218165738912e-02
3.593978602569856962e-02
3.154162965409824937e-02
5.420525768798518593e-03
-2.187404264479128613e-02
-3.596373069606909056e-02
-3.578158191787241676e-02
-3.006616470219639070e-02
-4.147286169741259271e-02
-8.585263815243668328e-02
-1.323096204133238640e-01
-1.248397164789372543e-01
-7.417375206681753319e-02
-3.258313235378036687e-02
3.694910071375020338e-02
1.691175328928309629e-01
2.498336326406724595e-01
2.013981463132796801e-01
1.197096109266941599e-01
7.554129435249923308e-02
1.753125853945675799e-02
-8.676049233358806845e-02
-1.838997757010300271e-01
-2.162326237077405178e-01
-1.951409676664782045e-01
-1.660261557673980704e-01
-1.340443055929823046e-01
-7.467677883787307569e-02
4.273999907913678814e-03
6.748306301305609378e-02
1.070448398091253528e-01
1.270867524381279479e-01
9.570761785358206097e-02
1.461293977278795009e-02
-2.702376845905501979e-02
9.466713243036408570e-03
4.472466708195318302e-02
3.653128594221301262e-02
3.298309560945754393e-02
5.374749927022295232e-02
7.314998493994787077e-02
8.174228331173392925e-02
7.610993362818165020e-02
4.872389329981393485e-02
1.494484428392630314e-02
-4.133576527389604127e-03
-2.270630261760761201e-02
-5.569595046221115231e-02
-7.532637615535593689e-02
-7.236269559135211082e-02
-7.421299479234295948e-02
-6.859915206719595371e-02
-3.785640691913332023e-02
-1.660176982062229814e-02
-7.583277687458440247e-03
1.819335695319688334e-02
1.898010596674856026e-02
-2.567451510474729609e-02
-4.060843631625919020e-02
-1.512913154656162461e-02
-7.192323971566281886e-03
-1.947029423473234724e-02
-3.704164993871619099e-02
-5.073860860027233806e-03
1.237102354237972768e-01
1.949959215921969469e-01
8.900189427175986268e-02
-1.098335299586066308e-02
1.016662649151028885e-02
9.716741723254122484e-03
-5.815992228521127405e-02
-1.009862528028975248e-01
-1.145354037606520908e-01
-1.108846008375045378e-01
-5.590925743198314063e-02
-3.538856145275063193e-04
6.346181405865196704e-03
5.080189129002279924e-02
1.642715759522573871e-01
2.251536129679084786e-01
1.818973989698586813e-01
1.112997352577496241e-01
5.009081730910148328e-02
-2.639414851993627728e-02
-1.213926539675665439e-01
-2.041858286501665731e-01
-2.231762558655958073e-01
-1.780040369097166952e-01
-1.275368084530042467e-01
-5.404487811954108989e-02
1.366761829695830113e-02
-7.050353999720801457e-02
-1.521678880305654125e-01
3.628439078908736459e-02
2.280941094579614359e-01
1.359269533657307405e-01
3.935026260327830622e-02
1.198815781935901048e-01
1.566889433926856035e-01
8.398090724032770960e-02
3.704924354973468392e-02
2.653635135249360691e-02
9.244685607260036408e-03
3.449183972246902541e-03
-2.147067943496186460e-03
-2.260242030643044853e-02
-1.858418609180750511e-02
3.963425309883739783e-04
-1.923685863955499481e-02
-5.302970556942461500e-02
-5.629801016725607954e-02
-5.681100452873177192e-02
-8.219290276694700415e-02
-1.133577154378923313e-01
-1.305513768334792268e-01
-1.125602616553417479e-01
-3.918753583261708195e-02
5.267236100668726967e-02
9.363360724967709214e-02
7.814952943603414859e-02
7.215953246393744247e-02
1.081173898856782056e-01
1.266508347638815313e-01
9.185691376891993998e-02
5.777694058897063500e-02
3.431198403119779805e-02
-1.551551132771474863e-02
-5.331255801639463165e-02
-4.946997382655018982e-02
-3.793111937687727170e-02
-8.887738851747355867e-03
3.521167041157433758e-02
1.737557630321696564e-02
-7.016953621314955813e-02
-1.476712109877894308e-01
-1.841062188344167738e-01
-1.926290361574497234e-01
-1.578546026011953263e-01
-4.821698343963212036e-02
1.401856536991646363e-01
3.345466610950171282e-01
3.980682431739397398e-01
2.954788664260762365e-01
1.549545773938871274e-01
5.337411444085238960e-02
-6.298763548062624729e-02
-1.983189444550010894e-01
-2.811088964476964325e-01
-2.927097271647946530e-01
-2.706206553214138277e-01
-2.292401286533644056e-01
-1.569410267935159031e-01
-7.413918963906097892e-02
-1.602901495445916216e-02
2.802257075646972379e-02
6.783938146144816161e-02
7.637636972574651795e-02
6.738105197551280678e-02
8.171011547061542146e-02
8.880640789329946605e-02
5.044216818604287111e-02
4.137116910770874401e-02
1.419180469459831728e-01
2.748926042874288989e-01
3.360814427132152726e-01
3.617710575175195342e-01
3.798276007040578550e-01
3.153166552958924784e-01
1.714812924498684277e-01
5.017609268722747484e-02
-2.038831795118892232e-02
-9.336629430927098627e-02
-2.054815451182394059e-01
-3.349941125638573047e-01
-4.232467775183579306e-01
-4.562570691656457345e-01
-4.636126488894229958e-01
-4.409217024595070145e-01
-3.806308979632438416e-01
-2.933413732402260221e-01
-1.633328065327255829e-01
-1.186039276988366808e-02
8.808608609995458028e-02
1.405489443584038156e-01
2.059318892452625671e-01
2.738106029201951008e-01
3.023340210664846039e-01
2.916155578302100371e-01
2.552337430290587128e-01
2.086919808499065054e-01
1.732655883866719981e-01
1.553819403585831038e-01
1.284972197428479457e-01
5.209213345292202507e-02
-5.365828049319612547e-02
-1.300017656529922627e-01
-1.797603616555252803e-01
-2.170528491599157395e-01
-1.968256423325957516e-01
-8.566102405991256330e-02
6.948510836158300341e-02
1.748987330824270103e-01
1.895541308767610122e-01
1.444458243413302423e-01
6.638475981829033978e-02
-2.357326736370519982e-02
-9.586642781147017289e-02
-1.492834044660481252e-01
-1.813291364965708974e-01
-1.750735275061787999e-01
-1.529367316006334243e-01
-1.346184175320248033e-01
-8.076758502430105013e-02
1.326714459183465228e-02
7.241877321000692036e-02
7.576161551050755727e-02
8.464960049871475545e-02
1.003952849166809547e-01
7.231822523601458275e-02
3.445431618910402283e-02
5.438080762155184100e-02
8.822387106707514637e-02
6.883521113978148531e-02
5.118209066050306844e-02
7.795708085184205327e-02
7.258278754190236604e-02
1.277744788377984005e-02
-2.688704546601919723e-02
-3.684387073608159924e-02
-5.372929875568337177e-02
-5.413697751459291274e-02
-2.480605867188512975e-02
-2.378808288573287452e-02
-6.940630975081776843e-02
-8.865516963855245292e-02
-5.991467766918143895e-02
-6.193044314519341453e-02
-1.006609618857932653e-01
-8.809032548577702681e-02
-2.899766130649773094e-02
-4.258341087909553457e-04
4.564161589434616306e-03
3.053420677105709788e-02
6.472903267403720684e-02
9.047267527765343043e-02
1.197221679904911795e-01
1.350816103814003188e-01
1.079235014165399187e-01
5.691636181650919918e-02
1.070982117785946285e-02
-2.438378508088296856e-02
-3.546276803271943695e-02
-1.737606931802817417e-02
-2.983035282128024268e-03
-2.337550044345622705e-02
-7.213827607257705665e-02
-1.275007364101496676e-01
-1.519714263804577137e-01
-1.127057980243746232e-01
-4.646646105900287260e-02
8.198413623416923868e-03
9.617499495049228186e-02
2.151795564349575363e-01
2.536231298888629304e-01
1.765679504201157490e-01
8.105581884311890972e-02
2.383787476874936820e-02
-3.102323760888756055e-02
-1.033869146593937582e-01
-1.643080918312536109e-01
-1.925167925994370755e-01
-1.887933128177905207e-01
-1.518843897108074215e-01
-8.904919402380935545e-02
-2.497810232561820110e-02
3.166383544204232070e-02
8.232679776727502841e-02
1.057833674156097858e-01
9.293749446743949927e-02
6.620691056097879890e-02
3.728628627507768467e-02
1.225623160720358887e-02
5.447891452449091926e-03
4.064583230405457819e-03
-5.044575948930126244e-03
9.960440842829824254e-03
5.061944921175655365e-02
5.934950960182312080e-02
3.395698147554631480e-02
2.282282003804590384e-02
2.098100502848807697e-02
9.410356853700778401e-03
-1.414376950114133377e-03
-1.962682696858188136e-02
-5.326191364039802728e-02
-8.268492985460486333e-02
-9.703244179418321624e-02
-8.888638718459078436e-02
-5.102958448426901661e-02
-1.780930582319270594e-02
-1.818381309470035873e-02
-1.271517624928168722e-02
2.017597684602796815e-02
3.070154287928350198e-02
1.803227416167065000e-02
5.298694768685752871e-02
1.134794895121702119e-01
1.006114639346876727e-01
4.156168747078450160e-02
3.115561718135461192e-02
4.628165676966877057e-02
3.072521222832112070e-02
5.362755154183539499e-04
-2.030382894687641354e-02
-3.082613914689159851e-02
-4.991646961839046187e-02
-9.870986983446708440e-02
-1.375838583570919149e-01
-1.053233351752042857e-01
-3.355723282439122129e-02
1.117264565164986616e-02
6.131239180235246999e-02
1.683587634628634644e-01
2.760454532030881536e-01
2.732634666035326787e-01
1.235366647596328193e-01
-4.716192100559451345e-02
-9.075730364439010822e-02
-6.729203535086808463e-02
-1.212198768153645578e-01
-2.373936535944462523e-01
-2.972580921819333311e-01
-2.617108225626311180e-01
-2.038015631559727259e-01
-1.701690287841063909e-01
-1.088628064801000217e-01
3.142143752681531704e-03
1.006608018636005603e-01
1.464001158337859543e-01
1.743276730689689025e-01
2.155938946037757875e-01
2.480542334968714735e-01
2.118408198180894986e-01
1.044640474674628783e-01
2.713573232784805694e-02
4.706316836533453590e-02
9.422040546606194611e-02
7.379976825475308144e-02
1.654475700837675090e-04
-4.112368019938410918e-02
-3.215012787444514880e-02
-4.117168829144680908e-02
-8.874375862904843038e-02
-1.115646710549273585e-01
-8.357467454195156853e-02
-5.442692719934183465e-02
-6.798016176510031372e-02
-1.174657871305399837e-01
-1.504166850362061991e-01
-1.182769256505906003e-01
-4.595676412287638679e-02
2.339003715013911883e-03
1.102736366946081153e-03
-2.028324285672608585e-02
2.247510921465555381e-02
1.519077816658180036e-01
2.124397181202425655e-01
1.179592560005088969e-01
3.016590040411396001e-02
4.421844684391637581e-02
6.423504467493958148e-02
5.767819418540712229e-02
6.146441013361277766e-02
4.979228246525618795e-02
4.247301415869025182e-03
-4.590614251359006331e-02
-9.281227052652975262e-02
-1.399507893163390027e-01
-1.581138591137197236e-01
-1.272254054595110540e-01
-7.425059931725304374e-02
-2.327152812235620122e-02
3.811747854381057621e-02
1.202177775709766805e-01
1.895664364229978915e-01
1.827941648031565780e-01
1.025837213898445899e-01
4.646391054608854654e-02
3.916552059828183607e-02
-1.832887589949746404e-02
-1.284584138792267682e-01
-1.747270396930609426e-01
-1.569371946802314288e-01
-1.585118160197648840e-01
-1.583777400063177965e-01
-1.145458558175442842e-01
-6.165107608126559058e-02
-1.588248124924600962e-02
3.638551961212846408e-02
8.157123157916640332e-02
1.139363452166055890e-01
1.441103945646424744e-01
1.525742935657737609e-01
1.134798792335654782e-01
6.388378699931029914e-02
5.764962328149186160e-02
6.714361033070991025e-02
5.588618941574856336e-02
5.116579320469802350e-02
3.859926920144543527e-02
-2.854385393251294284e-02
-9.355231904132133014e-02
-6.650213057495947544e-02
1.564500452159121174e-02
4.481569137463989327e-02
1.195838681018347033e-04
-6.755096205061120185e-02
-1.351119593020517762e-01
-1.742774865369752235e-01
-1.606985073884609205e-01
-1.436437070625114221e-01
-9.989453394947150899e-02
5.488346298083835589e-02
1.762734869606994437e-01
1.035190344930275452e-01
1.018029518342319917e-02
4.931652842926007030e-02
9.420353286083074651e-02
6.076358034553155929e-02
2.426108262267960558e-02
2.418626277268879493e-02
1.271053551020736444e-02
-3.365593156466654967e-02
-6.334480383355831079e-02
-6.071700374446533516e-02
-8.467464915818448401e-02
-1.233897101115288553e-01
-1.196948821348145509e-01
-1.251122336660144552e-01
-1.403499094956037196e-01
-2.469626696705580840e-02
1.887356655649280457e-01
3.259754152413339989e-01
3.882622129707148928e-01
3.945952242502354657e-01
2.776937509478619170e-01
9.514101531270804935e-02
-7.488137472852127163e-02
-2.543138913885572006e-01
-3.871088043819441160e-01
-3.791637530839050974e-01
-2.696336701371675471e-01
-1.361178190062453941e-01
-5.546190059790045632e-03
9.815990357600432037e-02
1.666994937081301698e-01
2.020684438910298197e-01
1.930213556542161868e-01
1.636789971988633630e-01
1.211892741904362913e-01
1.483707458862009582e-02
-8.091885982410167155e-02
-3.839401519815215102e-02
1.427001765160343036e-02
-6.534833280285161361e-02
-1.414311234074173973e-01
-1.372921707611204634e-01
-1.463915134295754039e-01
-1.467785121061401243e-01
-8.478877716733179692e-02
-4.220835810205240263e-02
-6.259917724460076216e-02
-5.821493059444714235e-02
1.437996975306733184e-02
8.046438007686995686e-02
9.445105029328462742e-02
1.045107051993240249e-01
1.257007371597462508e-01
1.078917059901310094e-01
6.119747913075122836e-02
3.501547606316560146e-02
1.565273677572157074e-02
-1.781963860118817439e-03
1.219801078363346586e-02
2.275147808488206871e-02
-1.871345371973663629e-03
-8.951977275349170399e-03
1.004539977491416061e-02
5.872138179850716622e-04
-1.179025992930582065e-02
1.330693263740273524e-02
1.336423191100154749e-02
-4.338565123170828181e-02
-7.324478227667310937e-02
-2.997817157069939537e-02
1.300283454313324628e-02
-1.396276574112077090e-02
-7.299526786323862204e-02
-9.864700768893699956e-02
-1.008803278316184049e-01
-9.920912925335287347e-02
-3.732085917690197707e-02
1.145455442919409705e-01
2.430074977275684112e-01
2.430548100887433005e-01
1.798495062752916707e-01
1.229702180804784772e-01
3.724216949967985857e-02
-7.643357170683236224e-02
-1.774241644288673814e-01
-2.214684216743541822e-01
-1.564384122253815457e-01
-7.705208457434845060e-02
-1.119446767336037818e-01
-1.496022846804259954e-01
-7.658047040442124420e-02
1.369641935823029052e-02
6.009822489869356271e-02
9.103121963889279633e-02
1.049930871845319580e-01
1.124409256789601769e-01
1.272474321643302653e-01
1.088452020211476828e-01
5.179431166969986761e-02
2.587959608594003411e-02
4.907744534169179024e-02
5.566266660586137449e-02
2.282559170241053523e-02
-5.153892217694151096e-03
-2.108449618780256288e-02
-4.165484608047040349e-02
-4.129419094832360859e-02
-2.474417727764886138e-02
-3.393803701580359183e-02
-4.048632537086796490e-02
-1.421014913776122435e-02
-2.332959359263532539e-02
-9.076959691588107337e-02
-1.179148396583779151e-01
-8.036242661176526414e-02
-7.092303965743157468e-02
-8.652928290711187076e-02
-3.820448211367168806e-02
4.445097938384008629e-02
7.252244335247970408e-02
7.091142168108886812e-02
9.777958809533793261e-02
1.185183132180597509e-01
9.218107476177860027e-02
5.935498164057131931e-02
4.883577183205865119e-02
1.875682309303896428e-02
-2.588279110876671313e-02
-1.643136699391441191e-02
1.575605935760291537e-02
-2.124007678219064221e-02
-9.189070202825683209e-02
-1.179402164668214986e-01
-1.195164344345161223e-01
-1.170963268519161493e-01
-7.861756537577964388e-02
8.981058175080150127e-03
1.267586576868344750e-01
2.180380497295624220e-01
2.246442078231408734e-01
1.748713422824181296e-01
1.230812390688743874e-01
5.964030733425636222e-02
-2.546106462216448166e-02
-1.105862064899804792e-01
-1.813624794624605074e-01
-2.126289905263833990e-01
-1.885638762316954598e-01
-1.474013948379510885e-01
-1.128057096143443433e-01
-6.327650735960917150e-02
-4.171891974098881906e-03
4.232744122894003397e-02
7.423207240067457302e-02
8.851992065047215030e-02
8.511174041153785064e-02
6.550654660268026563e-02
3.174818586066670972e-02
-6.920088288399870412e-03
-4.832932649160359695e-02
-2.254933538226634032e-02
1.350733330481271310e-01
2.373640851166402277e-01
1.118417727266037692e-01
-3.102568544340759960e-02
-1.108317750229126375e-03
5.195395223991225442e-02
5.826338190663826223e-03
-5.463870057879625930e-02
-5.795181682357938846e-02
-3.663430618760574187e-02
-3.659191305549072681e-02
-4.658970696554391722e-02
-3.683135832008042204e-02
-3.102268648711755186e-02
-6.683144384838463070e-02
-1.216834907505715685e-01
-1.403514031886331503e-01
-9.862409928871325449e-02
-1.808584510690867606e-02
6.089165118687527023e-02
1.027311953126854027e-01
8.205507038318519963e-02
2.227848495056686251e-02
3.801256543050121617e-03
4.635714925951120446e-02
6.889177729549493534e-02
4.964864801086484036e-02
5.012152172542139877e-02
5.197836227435378986e-02
2.703721180111562025e-03
-5.392539603570825624e-02
-6.891426899708390230e-02
-5.658633021336247765e-02
-3.661357078883628602e-02
-1.126822495059922810e-02
4.224802969622690890e-02
1.248013784140899057e-01
1.662460625857207219e-01
1.316941012380153375e-01
7.592183503031353642e-02
2.545381069233295865e-02
-3.716375834971070991e-02
-8.886319195717862218e-02
-1.174547845763646708e-01
-1.714834240547296884e-01
-2.432044477093693036e-01
-2.395363723995012628e-01
-1.456515212214525845e-01
-5.470430722642941751e-02
-7.382909051270772349e-03
3.630993127877548549e-02
9.166621100853146464e-02
1.403086291796828977e-01
1.656850342084869310e-01
1.602651313846497061e-01
1.369314837795427009e-01
8.741062354981557481e-02
-3.126087426925162373e-03
-5.188257987545000227e-02
9.313273624101787995e-03
7.328359290910931023e-02
5.535466164377678827e-02
4.149285225948377842e-02
6.333963809128920208e-02
2.834617754171145712e-02
-6.023308293294490218e-02
-1.002669367438265152e-01
-8.792003684772657646e-02
-9.555227743697317089e-02
-1.177624220667250199e-01
-1.026336561011348819e-01
-5.879737747217762822e-02
-2.578341218817256641e-02
-1.530745367627373184e-02
-3.152387447717602126e-02
-5.734767731956839226e-02
-2.976939400936958954e-02
5.226569127314575902e-02
9.206213116503307592e-02
7.815938311382851500e-02
9.911973066260933163e-02
1.167304864311187323e-01
2.764847030495535402e-02
-4.498541364591356062e-02
5.774126959141033522e-02
1.483192561719185731e-01
2.958707762577801603e-02
-1.110134152972662991e-01
-1.003894148670177178e-01
-4.952295981791023094e-02
-4.750464174440147125e-02
-5.581845284711424438e-02
-5.299490949073724227e-02
-3.635206153705773657e-02
3.801932010324697575e-02
1.790603298064060156e-01
2.672419122098572131e-01
2.169787777126585548e-01
1.251932817540676313e-01
5.119448896254825965e-02
-8.340554781729327127e-02
-2.343156184203327996e-01
-2.535623728958424361e-01
-1.812197946956914663e-01
-1.650135060703712131e-01
-1.936746151498356383e-01
-1.599399420397392690e-01
-6.660058717819125618e-02
-2.434489796883241436e-03
2.300520830196261385e-02
6.561390848452910984e-02
1.037503495304606949e-01
8.581287375596421962e-02
6.017932445490291327e-02
8.297317330077447206e-02
1.001125462121807280e-01
8.156994295811340057e-02
1.024105759915434483e-01
1.456705407070895408e-01
8.583433264476662827e-02
-5.129714175990571917e-02
-1.209791198685541691e-01
-1.204730982688791696e-01
-1.437750566452973278e-01
-1.719703782552327864e-01
-1.240205211012854747e-01
-3.405602103017282833e-02
1.540507889241042074e-02
6.099684713572965655e-02
1.600975797227914554e-01
2.491041198002695300e-01
2.669300208668577423e-01
2.493669969979474821e-01
2.278714587555052129e-01
1.952664779848484189e-01
1.482960375135358166e-01
7.790585206483705005e-02
-2.983009007733516960e-03
-5.212686004059966655e-02
-9.934293893785178797e-02
-2.076210827413882409e-01
-3.169933462647162581e-01
-3.354928695516794512e-01
-2.998718954227180822e-01
-2.686920199262279318e-01
-2.265080317449999492e-01
-1.786946647427520574e-01
-1.579816533534950662e-01
-1.516326806222683399e-01
-1.322338884056383779e-01
-8.975375037412486323e-02
-1.516959911299052555e-02
8.691978033242599155e-02
2.053496267153951671e-01
3.455004830789371595e-01
4.732035640727188519e-01
5.032563007511174913e-01
4.189788370238804460e-01
2.825063043125635165e-01
1.268279777202135916e-01
-3.424411936854297039e-02
-1.646950544179353326e-01
-2.461296463500620701e-01
-2.776328144895212624e-01
-2.591299046400703521e-01
-2.246092640337272461e-01
-1.969035985885994600e-01
-1.354941617876431748e-01
-3.164895431202468384e-02
5.858091257577366373e-02
9.584187162689600248e-02
6.876121987131322832e-02
1.864337595229807049e-02
3.030346835638786374e-02
6.630863961093687309e-02
1.744814576863163574e-02
-6.281002175572578984e-03
1.403048275133307321e-01
2.501855703888001270e-01
1.327577387292007138e-01
-5.402471822532469922e-03
-1.101143037986904161e-02
-8.305913209556179538e-03
-4.693383012082735090e-02
-6.826865958493177899e-02
-7.377527826940158406e-02
-7.411545613478634498e-02
-6.396398692473587166e-02
-6.181527016796548729e-02
-7.765328280422803542e-02
-9.124794344026582182e-02
-8.050845690144849132e-02
-5.215151723014532087e-02
-2.555642834224309753e-02
6.417660304457516868e-03
5.268711989362861309e-02
9.255769060567085871e-02
1.112637843399147675e-01
1.208203312406336272e-01
1.183587140008304228e-01
7.677817211704723865e-02
1.707156429972780248e-02
-2.464735283521705261e-03
-1.827472676055683781e-03
-3.220591997213485824e-02
-5.568241255389357047e-02
-4.308957466836422362e-02
-5.171499186853006219e-02
-9.559375056640723178e-02
-1.254793002436912219e-01
-1.330479904595016083e-01
-1.191896929793452020e-01
-5.451891191281701271e-02
5.812467193261503656e-02
1.742919244890818731e-01
2.443695607721694807e-01
2.433224491692087543e-01
1.921014090388968587e-01
1.144199479431318167e-01
1.959917220246209721e-02
-6.198415844306610217e-02
-1.215991211691353768e-01
-1.808919298378557361e-01
-2.140099910090183521e-01
-1.883639767308703805e-01
-1.378103953352904365e-01
-9.765130662529308836e-02
-6.345223821176290691e-02
-3.487787549001075682e-02
-9.278959725719067991e-03
3.558052948919819547e-02
8.287370745168778918e-02
8.343240742021282297e-02
6.662302762027536018e-02
7.255090573255656983e-02
3.894957591910992722e-02
3.994363430659012698e-03
1.108948534927851476e-01
2.351297882422507535e-01
1.584006172660281930e-01
1.537281437407698147e-02
8.966288043887743475e-04
2.507522948458429379e-02
-5.910698015079967477e-03
-3.612388734038706611e-02
-4.735452048135425918e-02
-6.850620035236816563e-02
-8.544406959216283015e-02
-8.795953534786370154e-02
-9.353721478335044748e-02
-9.639289816304807967e-02
-7.433868359977383045e-02
-3.439356268339813921e-02
-7.715801215449812067e-03
-4.412646569443127303e-03
2.578492339144516227e-03
3.878515964799930660e-02
8.757093535165089149e-02
1.047611119218151976e-01
7.870026459879558844e-02
4.737252681635144985e-02
3.049742911954033200e-02
8.625639811973666304e-03
-1.099130973554669766e-02
-6.555955763949935025e-03
1.180142054003895449e-03
-1.391105317169938696e-02
-5.337354699230390659e-02
-1.036907345989136892e-01
-1.121625871532228730e-01
-5.407861098429062041e-02
-6.313714643259921676e-03
8.189586889080315013e-03
8.583393247509400747e-02
2.177385644126027253e-01
2.675486046718927313e-01
2.001233673641790445e-01
9.181822119855373443e-02
-1.245861010310591634e-02
-1.251923796300120628e-01
-2.576017108734752759e-01
-3.632994346962833410e-01
-3.953315971309918075e-01
-3.782317834869033391e-01
-2.867552498200804378e-01
-6.192191968478767683e-02
1.598388994975542543e-01
2.164048567554863189e-01
2.033478057586938503e-01
2.364341279527649164e-01
2.602607898959760080e-01
2.282906365870487064e-01
1.709296100142083663e-01
1.194255977605006708e-01
6.517181013453360316e-02
-5.904666835581239004e-03
-3.886032678293473153e-02
-1.012523877696309971e-02
-1.662543188820440193e-02
-7.130626426882433200e-02
-7.937611366794226908e-02
-7.014149274824520164e-02
-5.758218684740569471e-02
5.377342197726574236e-02
1.451673530858566818e-01
4.319833794357452739e-02
-9.700095340410419542e-02
-9.419957008718835012e-02
-1.976067061125080446e-02
-1.709714870476526649e-02
-1.163655657270555310e-01
-1.727821303775529393e-01
-1.014055814122866439e-01
-2.819115330254196028e-02
1.924375708473886198e-03
4.679657975804808745e-02
6.111243392752031822e-02
3.741052845558993922e-02
4.475219899352322894e-02
5.129577437200488754e-02
2.294565523706010302e-02
2.948659702845966499e-02
7.151080488832128879e-02
7.204393708857868839e-02
3.701910719822852636e-02
-1.188217940075768364e-02
-9.289250562483314377e-02
-1.578764049331067842e-01
-1.474978073377757326e-01
-1.003712020997297588e-01
-6.777351101090858809e-02
-2.265672620780904284e-02
8.855886485298614108e-02
2.398062284091084795e-01
3.101564189380316972e-01
2.367652726529490548e-01
1.154395026167575472e-01
5.515353863776083221e-02
2.125485247267928229e-02
-8.420741258829056441e-02
-2.353889023733585495e-01
-3.025379104992373946e-01
-2.582686999037837050e-01
-1.943748521651024741e-01
-1.488909772086370875e-01
-7.904616843813511151e-02
2.762579231403422542e-02
1.122685497341066319e-01
1.233251569911954365e-01
1.010971049234985764e-01
1.133902058674962632e-01
1.406914832651716407e-01
1.243144744309067906e-01
7.034318203806048941e-02
3.469310089013979276e-02
4.455381549190619295e-02
5.339601908949379028e-02
2.484788011742143990e-02
2.650439701391382394e-02
7.826733330591038873e-02
6.364471146057905371e-02
-3.081027671292095940e-02
-8.002023078198666761e-02
-7.411024610691803460e-02
-8.968700329652870562e-02
-1.097072162572608478e-01
-8.754051471760888881e-02
-4.818233632878101552e-02
-3.358283689046567821e-02
-4.121512332469976642e-02
-5.528520957195653951e-02
-7.463288552766550454e-02
-8.354623218654191885e-02
-6.467809568549316712e-02
-2.936200763047202428e-02
1.654002629090311691e-02
7.310769498090161078e-02
1.147265590055276951e-01
1.227131920571162826e-01
9.808492567660201389e-02
4.367555896124162423e-02
4.447321378062503786e-03
2.948718694025811646e-02
4.847913392176329828e-02
-2.940362889145800920e-02
-1.350705612241838716e-01
-1.729526400382000728e-01
-1.706577973862367092e-01
-1.580339808836921933e-01
-1.070474029333163407e-01
5.618636128661643608e-03
1.650591396591679916e-01
2.791221290478692052e-01
2.715833986858510740e-01
2.203167869326822792e-01
2.150664432202163134e-01
1.978403035596137116e-01
1.162749162507102224e-01
3.762054201651529595e-02
-4.237239070626078186e-03
-5.507425415383980505e-02
-1.036298905654926689e-01
-1.145419624547218684e-01
-1.237777235641286111e-01
-1.437321787838377052e-01
-1.297260058407619931e-01
-9.472280206233386901e-02
-1.003035036263864033e-01
-1.431318421115348738e-01
-1.532735138614780002e-01
-1.237155623934561299e-01
-1.246846361765725081e-01
-1.239966152707382280e-01
-2.952272411618655015e-02
7.108935338009511606e-02
7.093170882787844245e-02
7.986548252849026697e-02
1.210993838064211986e-01
4.020929610287497097e-02
-5.652197465124123021e-02
3.971233911668732575e-02
1.726873127517904172e-01
1.576728089268885913e-01
1.040280075883803501e-01
9.855898151784514560e-02
8.431560241058688732e-02
3.296488834962782444e-02
-2.083858436499847616e-02
-4.123375502268333825e-02
-3.908511583548376911e-02
-3.462303016899433844e-02
-2.399716979112475126e-02
-1.839506271919019026e-02
-2.149907652460870261e-02
-1.492486481942336372e-02
9.080600103679118545e-04
1.107650588409482204e-02
-3.393915691389168526e-05
-2.211100396847636221e-02
-1.879296126049842530e-02
1.385423906016891929e-03
5.025496517957185778e-03
-7.285845168042977098e-04
-1.886009960190322687e-02
-7.624327698714371271e-02
-1.379680844473571144e-01
-1.295578273385190049e-01
-6.324560155462263800e-02
-7.350047966133881408e-03
5.975338159914148073e-02
1.740315601806008972e-01
2.488762483279126636e-01
2.186660724808575929e-01
1.357106044603757500e-01
3.448649734973400355e-02
-7.473323181962129858e-02
-1.523470544486274225e-01
-1.940908292354096565e-01
-2.063433948337695112e-01
-1.923723588579302479e-01
-1.880071014292986620e-01
-1.338922434006904472e-01
4.188029191455047012e-02
1.695582365830723137e-01
1.147637131685968481e-01
4.627304730221451501e-02
7.206226968520662579e-02
9.095116096350346069e-02
6.786895291160435773e-02
5.793701957513484879e-02
6.899457346463988561e-02
6.483852373854637197e-02
4.241702723768794175e-02
4.374771308579698120e-02
6.753289175891377671e-02
5.949021789485908762e-02
1.240037163111866979e-02
-2.810609596649197781e-02
-4.377981318534537869e-02
-4.993585892487829858e-02
-5.007351307031619736e-02
-4.680358689063239541e-02
-5.974193328350597965e-02
-8.493281577183707520e-02
-9.010648112668262488e-02
-7.197940305058231347e-02
-6.173822409097058650e-02
-6.699836481541060484e-02
-6.122369199652459570e-02
-4.069636056731908841e-02
-1.691427356061892678e-02
3.544421786122906037e-02
1.115067983824297171e-01
1.370782837986481151e-01
9.571681357839370574e-02
5.484382907374941996e-02
4.696788031253974066e-02
5.872142197229368588e-02
6.653826703634255213e-02
3.623474167850589817e-02
-1.938682873792317574e-02
-5.084569932141658199e-02
-6.538777358063393996e-02
-9.179614495091990845e-02
-1.170440337431727651e-01
-1.300423464647929572e-01
-1.316722625747193953e-01
-9.749258885609397851e-02
-1.882174125584353593e-03
1.317239221459913512e-01
2.322720744143317029e-01
2.429378195463166579e-01
1.839003680609661573e-01
1.187670511794510358e-01
5.772652685670023182e-02
-3.520323783558791664e-02
-1.389030376842408376e-01
-1.791716931879594743e-01
-1.456764915692679296e-01
-1.004252874888326985e-01
-7.570501614161058435e-02
-5.416872193215013787e-02
-1.942843189778652516e-02
1.477037729070938138e-02
2.074658509575271967e-02
1.855840129993658466e-02
4.759580445440539376e-02
7.069305188812624596e-02
4.339654406594101177e-02
6.997857103076341422e-03
-1.256120711573510337e-02
-3.976139677542435413e-02
-3.974250242850402293e-02
1.328422575840262215e-02
3.574088485715228719e-02
1.633821359649165195e-03
1.059637330304936433e-02
7.583582351726793347e-02
9.798729800857182426e-02
5.713632592336749527e-02
1.550578085058338176e-02
-8.008537512608781411e-03
-4.135392237368153839e-02
-8.728971231915358397e-02
-9.529790654503464409e-02
-4.696419920106421897e-02
-2.133697088754078763e-02
-5.633072425418583079e-02
-7.147475030615141334e-02
-3.267823604714517605e-02
3.631730374330153360e-03
2.853049680860493542e-02
7.069228815947860289e-02
1.117163949639972537e-01
1.245074606134566331e-01
1.032458621147163413e-01
4.031819973989660827e-02
-3.259395255056290325e-02
-4.160485803948468786e-02
4.607891244243350615e-04
1.205570040033672984e-03
-3.418249548493069306e-02
-4.742535239339220471e-02
-7.006581737213328498e-02
-1.212824374011545470e-01
-1.364126967283899594e-01
-8.795624691902954873e-02
-1.426326742457568325e-02
7.021974229738028872e-02
1.663377447281380039e-01
2.197476398237906969e-01
1.840028450555283024e-01
1.078450489218315267e-01
5.231303883275413569e-02
-4.012232870925745709e-03
-9.058546923286653341e-02
-1.534940516399144195e-01
-1.522846126799691502e-01
-1.488017801130506468e-01
-1.583115694630169989e-01
-1.065876917433962040e-01
-2.566711087645605349e-02
-7.474487691014160967e-03
-8.128664770981262194e-03
3.120794471367561995e-02
6.303959258911960573e-02
7.917970989510864088e-02
1.138616465259305321e-01
1.205670833793207053e-01
6.833846103935839467e-02
2.902228461043484392e-02
4.830059882388971354e-02
7.614446035569499838e-02
5.566847318811400658e-02
-8.180312828645968162e-03
-5.912265726416427586e-02
-5.140348658968826173e-02
-1.828754543512098318e-03
3.583013683861939469e-02
2.562176708424285243e-02
-2.096304146881917616e-02
-6.159163212548017519e-02
-8.248379071192071810e-02
-9.155539057062719865e-02
-7.632607489041436100e-02
-5.308051417447222364e-02
-6.414189042013478115e-02
-8.060943284156553423e-02
-4.746987283708008903e-02
1.010663505785582700e-02
5.063608513412361234e-02
9.396693141215632650e-02
1.480637141677694779e-01
1.495350997346935606e-01
7.389923131045159077e-02
1.470416609764789093e-02
2.005598839462198468e-02
1.858296130187498188e-02
-1.587693555690568477e-03
3.045216527175209631e-03
-2.869366218203796975e-03
-3.949335173295382556e-02
-5.108933523757931694e-02
-4.076773046811995455e-02
-7.916192941216174117e-02
-1.553158688517167763e-01
-1.695741893611782403e-01
-7.710577249658068233e-02
7.795315602695983281e-02
2.223493925823843975e-01
2.731680113761005835e-01
2.112402104678940129e-01
1.224036353774582836e-01
5.390584580331733711e-02
-4.669308098184713623e-02
-1.791793098139940477e-01
-2.530775508171420607e-01
-2.348235847248146824e-01
-1.815375443349671325e-01
-1.449336084214436771e-01
-1.323290505449647714e-01
-1.153606111179955179e-01
-6.658443824450309412e-02
-1.904128718423925976e-03
5.642186871298817546e-02
8.670524027234940978e-02
4.739834552845626631e-02
7.107640960046783529e-03
8.901520910558032018e-02
1.746810745439852097e-01
1.082926900768898526e-01
4.305372391016569489e-02
1.075664279790524425e-01
1.790036404280673787e-01
2.105264740252044409e-01
2.745058080468987805e-01
3.359369435484454991e-01
3.158315411162133657e-01
2.301929756018713247e-01
1.321766545260880388e-01
3.669530821953257554e-02
-6.848171630453295244e-02
-1.900322361154709871e-01
-3.023649669590073308e-01
-3.712496910137375039e-01
-3.999108563946158768e-01
-4.091076819647277985e-01
-4.016357601493849572e-01
-3.610773194631394789e-01
-2.716717266892790250e-01
-1.602133753774851455e-01
-7.658220476232760476e-02
-1.295393361900999685e-02
7.055488486903339906e-02
1.558660629112098572e-01
1.989673922274248219e-01
2.076098389248120513e-01
2.232528728569084242e-01
2.514723667608793067e-01
2.474907546990921525e-01
2.014013885607963683e-01
1.600135261988317181e-01
1.163596718946169201e-01
2.839350736550832685e-02
-6.519949789168642817e-02
-1.027783506672085567e-01
-9.071043351775268104e-02
-4.938925653332058852e-02
2.634557339640705709e-02
1.066901894377376564e-01
1.257157774009810547e-01
7.275754506029476210e-02
-3.400034971262930888e-03
-7.333068409513371355e-02
-1.348568037294477218e-01
-1.789556147106133865e-01
-2.045325052623066797e-01
-2.217527897391075586e-01
-2.046660877197899742e-01
-1.170788750570916775e-01
-2.297935373400845915e-05
6.681210438640589055e-02
8.780642400943010351e-02
1.238162534538574389e-01
1.556722375517063661e-01
1.350334054605752399e-01
1.211230975885704553e-01
1.563946027388819771e-01
1.441736873909084948e-01
4.748091814362944557e-02
-1.122612253719948786e-02
1.516750355808971912e-02
1.705030282548044424e-02
-3.959730211062634231e-02
-6.840065785985244284e-02
-6.610353893278818338e-02
-8.616683605487984732e-02
-9.232019931665275125e-02
-5.587882202716878272e-02
-3.284733390734405345e-02
-4.294474569132877839e-02
-4.896493673479801467e-02
-5.088865477554559147e-02
-5.492220556454227576e-02
-3.456319051245211604e-02
-1.213344541615160935e-02
-2.575620232799682996e-02
-3.031470185640413109e-02
5.157445166129176473e-03
3.424624904838426132e-02
4.631690536519821738e-02
6.505677490625674797e-02
7.642627096575206613e-02
6.125740704788295438e-02
1.817706267849508728e-02
4.701577169899186052e-03
1.068136339905711441e-01
2.225465513687102104e-01
1.375007418066509224e-01
-9.092503308674554363e-02
-1.865975733900125666e-01
-9.414297428050046046e-02
-2.562394611786097606e-02
-8.250141542768738012e-02
-1.445505759536458434e-01
-1.258967944750157830e-01
-6.337084283936930684e-02
2.250146897680625063e-02
1.446211505871723979e-01
2.489366634474707851e-01
2.448042529041675741e-01
1.446229582633008492e-01
5.838016563511385509e-02
2.240281438636246986e-02
-4.013809183573749384e-02
-1.489140408680074135e-01
-2.190696109324646590e-01
-2.105968601151078368e-01
-1.685185328270326910e-01
-1.352121631262034884e-01
-1.001325333708697890e-01
-2.391523890417195444e-02
6.190826831483155213e-02
7.333249832203658780e-02
3.568714876300915773e-02
3.541629024413973231e-02
5.722674185665939384e-02
3.326188725615462222e-02
-3.103773676887298244e-02
-2.419629642986712015e-02
1.071948222977964355e-01
1.887513195799127574e-01
1.010576285085074133e-01
1.060104152577760750e-02
2.493191795665471860e-02
3.915922181088404147e-02
1.190822844713432770e-02
1.023465639034030691e-02
4.482870604336190029e-02
5.217030284102508464e-02
2.031249795264119043e-02
1.428317934086601251e-02
-3.392838479760315260e-03
-1.058278571018869962e-01
-1.478388482710069340e-01
-3.384242384569814688e-02
3.690935150028358536e-02
-2.321740661257808494e-02
-5.853698883474125342e-02
-3.581990613835946136e-02
-4.269562626128652061e-02
-3.230332646831991783e-02
7.250471233912128555e-02
1.291531400129878604e-01
-6.923787673620052791e-03
-1.366959395219990436e-01
-6.576246184358347513e-02
2.870866972571075454e-02
-3.052614298200868881e-04
-3.835456129981056755e-02
-2.704987041015569776e-02
-3.268491941869545309e-02
-6.698736499357418883e-02
-8.399644391138257060e-02
-7.930156498602795867e-02
-8.167631243869286073e-02
-5.505509131597086797e-02
6.659786719153860945e-02
2.317591629379487927e-01
3.038546851166261664e-01
2.479302336460896816e-01
1.598912895900975739e-01
1.040207442997348186e-01
3.829429273423883007e-02
-7.263606628597782389e-02
-1.852966300613121953e-01
-2.461989065281615374e-01
-2.446636234899927653e-01
-1.924332038217964613e-01
-1.091484426729192325e-01
-2.982570163286350773e-02
1.635331313578735485e-02
4.356905691468471176e-02
8.529594718677754872e-02
1.249558532498799418e-01
1.207002136204948367e-01
1.041039952167380073e-01
1.186386992324420658e-01
1.089130679460897366e-01
4.760113963298975154e-02
7.450678932071182897e-03
-8.708444452243876976e-04
-2.569300206773407827e-02
-5.626757366447622533e-02
-7.533730015863007723e-02
-8.421531619768010679e-02
-6.503422134872607896e-02
-3.041183708379467318e-02
-1.442968790349645307e-02
-4.314867788882775952e-03
-2.352429563535831346e-03
-4.925587858963651616e-02
-7.115000805089587155e-02
3.457850924552236666e-02
1.270270512880534164e-01
3.866362558268860578e-02
-9.787136193259673989e-02
-1.059473447759377573e-01
-3.135770840440046947e-02
1.959903104813004102e-02
3.709808917680711138e-02
5.299962567388742662e-02
6.454444796443456478e-02
6.814033060057113345e-02
7.669856112941733639e-02
6.622232578588131691e-02
2.752474115802492488e-02
8.612246148860684680e-03
7.414422266255974239e-03
-2.036927728813217597e-02
-5.738026432526931175e-02
-8.920725584617560100e-02
-1.387199365079792579e-01
-1.653323179253872177e-01
-1.169073732773716900e-01
-4.467858563424493418e-02
-2.537398080056114252e-03
6.978085205852810335e-02
2.109158921490325855e-01
2.987007737851813949e-01
2.275036822375999523e-01
9.232000528178881116e-02
1.963329987524704487e-02
-1.008285336963762532e-02
-5.962825606055943001e-02
-1.329031355946152515e-01
-1.988117230550053571e-01
-2.157841981653451091e-01
-1.799228039812608426e-01
-1.399144825761416966e-01
-1.049380275169843196e-01
-3.884103634083566764e-02
4.190999731929627437e-02
9.104476629758158357e-02
1.080686900896089819e-01
1.166740566160184567e-01
1.253813756341634889e-01
1.166722150608264646e-01
7.480673449091643223e-02
4.599975442179089768e-02
8.093355161159589140e-02
1.164346617910427539e-01
6.765478034108247940e-02
-2.084239443026660726e-02
-6.095547652719666282e-02
-5.555166340912843365e-02
-7.192657584910409907e-02
-1.079866475317301233e-01
-6.523771474008321913e-02
1.663340291623056563e-03
-8.885915379122663604e-02
-2.116072689123663364e-01
-1.325384351881124245e-01
-5.278591208370382593e-03
-3.319407804312483889e-02
-1.191026552550216028e-01
-1.571139211939269753e-01
-1.409690877524688857e-01
-5.897659058207942867e-02
5.265507557207031730e-02
1.582710817774613254e-01
2.701762093867798309e-01
3.506141706587094786e-01
3.654757186207495678e-01
3.692038503782999470e-01
3.770680159461929359e-01
3.233633086482611829e-01
2.136300555305986337e-01
1.121412973845262728e-01
-2.153288125114359575e-03
-1.661023256276624727e-01
-3.192594007540835999e-01
-4.082448332694837978e-01
-4.580321394242547473e-01
-4.724172952906893208e-01
-3.999780373395930844e-01
-2.277292942052189517e-01
-3.617174291364361888e-02
6.518645490609442650e-02
5.194004029630996944e-02
7.639201100785586451e-03
3.878254541208402129e-03
1.126183710467499113e-02
-1.325492089780155869e-02
-4.226335817357647351e-02
-4.086068750631284552e-02
-1.188384108464475564e-02
3.340171608283039328e-02
8.321161375877357547e-02
1.354278148300418760e-01
1.937677781538007515e-01
2.314021638683065318e-01
2.207001665825745196e-01
1.801883167566565858e-01
1.393337257315648281e-01
1.033987957557828269e-01
5.745759885251240651e-02
-1.272384718327231046e-02
-7.299966758010914547e-02
-7.385091098843091229e-02
-5.743614413936577040e-02
-8.495862103388021613e-02
-9.734377941612032403e-02
-4.955730551023813241e-02
-1.986136039085350385e-02
-3.565636753170870615e-02
-3.931209211934165448e-02
-1.833345425692022024e-02
8.082406085261506501e-03
1.116092424538525467e-02
-2.555333790546101408e-02
-4.663337077449794532e-02
-2.546065677948421493e-02
-1.893314618426151369e-02
-4.183112984764624648e-02
-6.708463305204762084e-02
-7.762352437497720137e-02
-4.437137281228924202e-02
1.558525411062971523e-02
4.523196861462416840e-02
5.029777604074481961e-02
6.494898415345991272e-02
8.546460469043828945e-02
9.014634056540023199e-02
5.910292279959920153e-02
1.618722192783074096e-02
1.611526948230547485e-02
3.452523185698087166e-02
8.455708718836628390e-03
-3.805549125700857793e-02
-6.875992627378649247e-02
-1.063079833191621637e-01
-1.365501069865197314e-01
-1.211807994460849663e-01
-7.941279554359002846e-02
-1.461528653781567905e-02
9.629295817200676788e-02
1.986045842906651870e-01
2.214599848326189724e-01
1.799643216392778633e-01
1.154398703990172637e-01
4.350361983576784414e-02
-2.583605194409267086e-02
-9.832671400240464155e-02
-1.770279585112103371e-01
-2.100569556560961948e-01
-1.666414224053612281e-01
-1.167707808766847155e-01
-1.048926764007104689e-01
-7.669960382818576117e-02
-9.096947976473443095e-03
5.401809906764674235e-02
9.126071047341366427e-02
1.119701830042174051e-01
1.223119416528205827e-01
1.180596145365669092e-01
9.079987359910542122e-02
5.219814492175969822e-02
2.372451511544954039e-02
8.395817772207219906e-03
1.413071943572638545e-02
4.180360125558489626e-02
3.970670096333639432e-02
-1.198248026410791110e-02
-4.003386347701114872e-02
-2.359162458219440234e-02
-2.899438316346656525e-02
-5.342083755217252178e-02
-4.530845529997532678e-02
-2.611581640383032685e-02
-3.930497270043990798e-02
-6.686619990320021023e-02
-6.895535308170369637e-02
-4.352728527251441965e-02
-1.610217814875949255e-02
-9.831428282415993064e-03
-2.290720127759349189e-02
-1.704052905399985537e-02
2.434052192942876697e-02
5.922678864507718854e-02
5.225531412816885463e-02
1.287490286362346324e-02
1.646500087787603969e-02
1.247353751244725806e-01
1.889481864355401219e-01
6.338794734601047032e-02
-7.093415706063568860e-02
-5.782563747851783564e-02
-3.435751554670558872e-02
-6.116892383369366970e-02
-4.858799497344085117e-02
-3.756251090308326129e-02
-9.478874756734985418e-02
-1.339533815918182158e-01
-9.282766061494693299e-02
-4.057392952369930778e-02
-3.811435756669857150e-03
8.486905410243232584e-02
2.109199767716014307e-01
2.663448156388480981e-01
2.186968936316093792e-01
1.273482475153835392e-01
6.374284733624240029e-02
3.734687095404172485e-02
-3.059663910603441228e-02
-1.446321210188797057e-01
-2.010310125780514490e-01
-1.979198128451977179e-01
-1.982695540049713157e-01
-1.654992698116952154e-01
-8.224349329952734822e-02
-3.863827369558212044e-02
-4.971151164254019456e-02
-1.357738916214937600e-02
6.764467348423110205e-02
7.863354378384124210e-02
2.258501189004380461e-02
1.259319717109358416e-02
5.578074516840875879e-02
6.142117075882388977e-02
4.057844170964571007e-02
9.125021506947657290e-02
1.665657471102345022e-01
1.174793588743029693e-01
2.233424968836161470e-02
7.335582732585803345e-02
1.473702968874937291e-01
4.062828732932353276e-02
-1.033541749271903454e-01
-1.040141521988627860e-01
-5.417068059903623611e-02
-6.730759232449654017e-02
-1.040968820472559925e-01
-1.187578344711765765e-01
-1.364137652015850188e-01
-1.409188986924896914e-01
-8.041006915942378042e-02
9.424087500295892650e-04
3.960788627392237971e-02
6.514483603639123488e-02
9.644910035530526726e-02
1.020329196416497330e-01
8.393305163974784655e-02
6.389917600356791183e-02
5.258278988316603120e-02
5.077604266372892639e-02
3.348802618178553514e-02
4.462960695246306897e-03
4.047241415684606561e-03
1.643527225299656891e-02
9.332207048777225664e-03
-3.880806871843662902e-03
-3.481638073057323479e-02
-1.010339058786594579e-01
-1.582442283520287263e-01
-1.729102202669753063e-01
-1.666691819497658766e-01
-1.416167385589824912e-01
-4.419522025922634212e-02
1.512817379973172838e-01
3.337068920769475922e-01
3.471298944056719349e-01
2.297610611497832300e-01
1.559956689586105005e-01
1.093210242321744213e-01
-5.329658964650120512e-02
-2.330708550534678347e-01
-2.514595332247575588e-01
-1.954993876077224524e-01
-1.798675601848856997e-01
-1.516509686848475924e-01
-9.526266368165789422e-02
-4.567340945250446260e-02
1.505238620207724476e-02
8.488863899130823232e-02
1.184081304553422365e-01
1.051855944892005901e-01
7.407879117692414694e-02
4.474141863187587609e-02
1.978461165149917114e-02
4.274325231618535809e-03
1.248155709734082019e-02
3.306950546644694261e-02
2.828547025115814989e-02
1.046859297518637141e-02
1.360008769694766306e-02
1.461500384628123921e-02
4.761187682482842867e-03
1.640353762184757966e-02
4.795120082195872963e-02
7.887152242167233540e-02
8.037885946785021385e-02
1.117010814035975831e-02
-1.015606819504287356e-01
-1.769065997911303256e-01
-1.802047407265829349e-01
-1.154636788104990985e-01
-2.450006261496945684e-02
1.471951744083986255e-02
1.032434225931129837e-02
3.765643656155086283e-02
7.195118071675946081e-02
5.607382988398265655e-02
3.767283251622899343e-02
5.768485785785016501e-02
7.306918095104636413e-02
5.582324461040637231e-02
2.429584374849108608e-02
1.631131990655336483e-03
-1.351898449251554696e-02
-4.285401062829209684e-02
-6.849708658638353764e-02
-5.129649794417077968e-02
-2.206889571552916179e-02
-4.150690443222224829e-02
-8.799665973305942357e-02
-9.710860311560236269e-02
-9.798016605498460763e-02
-1.429233109157071469e-01
-1.081266294260958827e-01
1.331066701871547187e-01
3.859046601298411483e-01
3.872071944969358581e-01
2.263418232143812603e-01
1.253484731318573187e-01
7.150950431915398253e-02
-3.321736574426846500e-02
-1.511543930355601362e-01
-2.414805246466156796e-01
-3.273863577924003843e-01
-3.100949099453399471e-01
-9.880820355936123511e-02
8.363752605971401521e-02
3.557609131687333032e-02
-5.124353595521991683e-02
-1.233096716206193502e-02
2.503265186892943139e-02
8.814503884735681860e-04
1.395374335082646966e-03
3.713520308340033382e-02
6.311365289034401305e-02
6.020387732406252274e-02
3.446593035679008238e-02
2.711653602443273720e-02
3.926324480161359071e-02
9.412880570530753055e-03
-3.773902640021232352e-02
-8.785159548007053648e-03
6.121102642328186960e-02
6.810184332182915579e-02
5.206542161308873318e-02
9.727771547153385434e-02
1.496098527944834111e-01
1.544871471983763345e-01
1.472026970852185201e-01
1.187765930774515866e-01
4.756185629970598877e-02
-1.297491567336367738e-02
-4.209082308564273539e-02
-9.991556762917755408e-02
-2.009772542100152215e-01
-2.330611806049646129e-01
-1.277789693858915610e-01
-5.059975502220018934e-02
-1.209514031587990979e-01
-1.608068440088595286e-01
-7.465818554693531839e-02
-3.021543013230107433e-02
-7.552891382296339495e-02
-7.699383144073862484e-02
-1.859979021381941849e-02
7.652596234509766865e-03
9.342009114943483628e-03
4.658856400883902571e-02
8.195792977529552104e-02
6.371490760031504885e-02
3.119855318332235422e-02
2.011360187557578033e-02
1.605521591889268879e-02
1.444983856536817893e-02
3.601271373432952949e-02
1.177162048649743886e-01
2.352018205005257379e-01
2.792772121721819323e-01
2.271514949577609910e-01
1.487023942388061848e-01
4.035754410045941376e-02
-9.651782171372798314e-02
-1.818540758092709875e-01
-2.095659623908491254e-01
-2.343145721758444766e-01
-2.392143593084382902e-01
-2.020679852990542869e-01
-1.488300561368957886e-01
-8.299350629190441198e-02
-4.546806093466294191e-03
6.305580437992561182e-02
1.153592956197198871e-01
1.384494947717615221e-01
1.124123048763990967e-01
8.148395566453631167e-02
8.426530423387577906e-02
8.018336229923762881e-02
5.185982975423231167e-02
4.124106981134204736e-02
4.857305257161594753e-02
3.286322976688873382e-02
-1.840564528725488133e-03
-1.435802268924771426e-02
1.723559976566358537e-03
1.140232992279687461e-02
-1.317706197024049591e-02
-5.787970866259106034e-02
-7.466014070106417877e-02
-5.654890491930900098e-02
-5.739790374590499067e-02
-7.946143344729793279e-02
-6.941317427101305337e-02
-4.500899916057653910e-02
-5.225213664752124260e-02
-5.463955312999705521e-02
-1.903628946797171484e-02
1.741955411996455594e-02
3.756859305460717724e-02
4.708534810341521992e-02
3.689006856803547785e-02
3.749680857523298577e-02
7.621550440564257844e-02
1.005344819427630432e-01
6.824924071512783463e-02
2.061424719317823256e-02
5.918084882300712196e-03
1.299577309737946947e-02
9.586938345603370284e-03
-3.741690936227171083e-03
-2.163968608501385185e-02
-5.962381630730408111e-02
-1.064893879347429823e-01
-1.255799828960816322e-01
-1.040941720901080864e-01
-5.312242787369670510e-02
7.504058833893771825e-03
7.636251607243871309e-02
1.634589427491568436e-01
2.235686500954390254e-01
2.029813059195829661e-01
1.249883477911371416e-01
2.880667448686949003e-02
-6.330196605739986382e-02
-1.170421522377828455e-01
-1.348209677855825572e-01
-1.501203190579876445e-01
-1.612260834716011670e-01
-1.515687558535410706e-01
-1.146476153914146034e-01
-5.080510533199779355e-02
1.007530544456390967e-02
3.629090946647298144e-02
4.726179326465426711e-02
7.287547877705956301e-02
9.001100148289131742e-02
6.651787291914619538e-02
3.219651278080700590e-02
3.204864635605948753e-02
4.858470794988568181e-02
4.956105259363611376e-02
5.540694433115863488e-02
7.794975642108785407e-02
7.204634979575488818e-02
1.750058790543436785e-02
-3.369561914612115294e-02
-3.623176193199854206e-02
-1.574214163757155921e-02
-1.915769557576134027e-02
-4.276004272193070083e-02
-5.637015647921504724e-02
-6.587166802942233390e-02
-8.740794110388225291e-02
-9.088044227964278687e-02
-5.456029264171829291e-02
-2.203240992030463391e-02
-1.805563393556930407e-02
-9.479065539846644878e-03
9.858398026273364548e-03
2.310661372450594636e-02
4.613857497634329258e-02
7.876165378755456414e-02
8.875496863395646030e-02
8.027489181850844258e-02
7.963389654255580152e-02
7.963434380152492609e-02
5.761909476997959662e-02
1.259680049752027152e-02
-2.608263267924227496e-02
-3.652661156467074122e-02
-4.937599690775694439e-02
-9.661727890561165599e-02
-1.365835202687867012e-01
-1.122498678012155832e-01
-5.272139325551346289e-02
-2.646049443854078115e-02
-1.112001356034942462e-02
8.052992998400626545e-02
2.257343607948786579e-01
2.939354520620164890e-01
2.440642134745469871e-01
1.486972857978439144e-01
5.256161481456874535e-02
-6.500518568196907154e-02
-2.151827295206698298e-01
-3.429017889038805667e-01
-3.842096065639393765e-01
-3.507294593984939257e-01
-2.752388689550137602e-01
-1.459758542240635615e-01
1.140457428641935764e-02
1.144453974638745819e-01
1.508109226745375231e-01
1.749289255442794955e-01
1.943867229231498184e-01
1.865457449106701082e-01
1.599265412103207662e-01
1.289257598754916523e-01
8.452910837356908402e-02
2.814800362858042859e-02
3.308389362578979115e-03
3.698176734868968696e-02
7.348547078111510034e-02
4.997541675495405927e-02
-7.838255208107110239e-03
-4.567543739939790293e-02
-5.646017719547164609e-02
-5.926204657257668623e-02
-7.043799761689478744e-02
-7.879582480593283478e-02
-6.561931855088773413e-02
-5.142761369534550736e-02
-3.647258588105301708e-02
-1.353631298398239730e-02
-5.014248311404338049e-02
-1.123680348520014333e-01
-4.776020769089545787e-02
6.747414966888495846e-02
6.002991119993691255e-02
2.544661650898596625e-02
6.615520905562631560e-02
8.937475201801137192e-02
7.286979180082300833e-02
6.426444211060267087e-02
3.334816698947417474e-02
-1.118889989562581178e-02
-8.639822201514723438e-03
1.450413216697190102e-02
1.990377508817505955e-02
4.443099846438792327e-02
3.457827230855618772e-02
-1.094438761594189319e-01
-2.502871661486829047e-01
-2.163222208820962111e-01
-1.217543535064582738e-01
-9.082866813182209620e-02
-4.053344871074369971e-02
9.649390626116909064e-02
2.447489200722743063e-01
2.891543926870445702e-01
2.187973598265587072e-01
1.247544020335318027e-01
4.918570886570720890e-02
-2.745674128836835676e-02
-9.749035414711977598e-02
-1.529961409684076901e-01
-1.895204458015282145e-01
-1.657267080127923231e-01
-8.511106291972606042e-02
-2.374412781567662722e-02
-6.643694865511806658e-03
6.909773121699339105e-03
2.466248916206961739e-02
2.276395281627986711e-02
9.283650189643229134e-03
1.702052315683339964e-02
4.869599428924367007e-02
6.822388106077437175e-02
5.884775204525101444e-02
6.107154574547523501e-02
1.019603214035251365e-01
1.260866618589341626e-01
9.638504689091377531e-02
6.843707351506339576e-02
5.241210116687852055e-02
-1.238698880604706398e-02
-9.033343450033728961e-02
-9.420925079939862501e-02
-6.554499779396039116e-02
-9.435805104167767354e-02
-1.480364462530411318e-01
-1.516549587900521967e-01
-1.262344739590275933e-01
-1.154278215741694619e-01
-1.005919803041716853e-01
-7.472262607384572153e-02
-5.812437406130735451e-02
-2.207392188464177979e-02
5.583149626407308413e-02
1.253088959896946908e-01
1.447083956965108942e-01
1.161961282303337895e-01
5.807052300543275036e-02
1.788605222225210858e-02
3.908096218919372006e-03
-4.356432516697243684e-02
-7.342610589332315696e-02
2.696307442613134209e-02
1.413578955511417268e-01
1.137741277910076926e-01
5.942871927624595457e-02
9.091657981290261759e-02
1.281088226085295989e-01
1.238249023629499485e-01
1.048708303908753164e-01
9.467900200984581682e-02
1.439665992883161216e-01
2.442784828709228251e-01
2.799581587551315809e-01
1.932817613920105593e-01
3.823038261751456751e-02
-1.036452394152669598e-01
-1.875642843195557408e-01
-2.752162160592460660e-01
-4.176347466152819932e-01
-5.108111099306141822e-01
-4.968340781535482975e-01
-4.720940274893427047e-01
-4.240037610537709112e-01
-2.508160585847414303e-01
-5.799402152106331726e-02
2.096549591799171108e-02
7.743661173371285678e-02
1.698111656777879230e-01
2.196354795036597474e-01
2.333830492400732204e-01
2.624108041122926727e-01
2.723829651817143427e-01
2.491072873759589412e-01
2.505904668419047798e-01
2.702508353957169818e-01
2.258260142327230824e-01
1.223117953489768206e-01
5.190957144179648985e-02
3.027049176209999082e-02
-1.941591932037745050e-03
-5.346339828515328518e-02
-9.231466010240055309e-02
-1.166204844899294268e-01
-1.380442833475644671e-01
-1.508131950324661519e-01
-1.420798300033392081e-01
-1.203028964851931837e-01
-1.190975129116569886e-01
-1.320979400571114792e-01
-1.027135401124306541e-01
-4.025575891068667450e-02
-1.281503556745377387e-02
4.582766132926071462e-03
7.792850701882206299e-02
1.492380326165073101e-01
1.454216336529224052e-01
1.250095911090534362e-01
1.270759420145535779e-01
1.089912026509022858e-01
9.563494307424984242e-02
7.656845574449913649e-02
-4.812712936309718192e-02
-1.684788000949052345e-01
-9.651223570701034093e-02
1.652118517016601049e-02
-3.611670324332379167e-02
-1.413353025940738972e-01
-1.585281792811840951e-01
-1.397224410712688547e-01
-1.172328298330752722e-01
-2.966681782277319837e-02
1.180001241751724439e-01
2.287370836541219310e-01
2.598994499352834109e-01
2.498146108398931475e-01
1.682907032308030293e-01
-2.139670596813716616e-02
-1.731940946619834609e-01
-1.774810334067922213e-01
-1.560295612174529833e-01
-1.973068093516923138e-01
-2.406340182880865597e-01
-1.837346832214379333e-01
1.166202229169461049e-02
1.615125175979476579e-01
1.002509943035355955e-01
3.673438230972561613e-03
3.776761156708519085e-02
8.890250562009452406e-02
7.397405760003158970e-02
5.102378009915269075e-02
3.960357525282887786e-02
2.102432392938914998e-02
5.473227790713635840e-03
6.838950871501591269e-03
3.180776992781182699e-02
6.818738214148657717e-02
6.302140449076680528e-02
-2.372438995250112075e-03
-4.543993003057383850e-02
-2.411216582867647257e-02
-2.417767333620587933e-02
-3.292080209662417295e-02
5.629783687746260645e-02
1.151596612448608503e-01
-1.783733304072580503e-02
-1.611692204470764611e-01
-1.313530491345403783e-01
-5.130433123821880048e-02
-4.448124287940328353e-02
-5.575876527308758906e-02
-3.368345319676702143e-02
-1.489564993882258256e-03
3.318570644119705343e-02
7.254161397629821373e-02
8.917076206303722885e-02
8.154636674843962485e-02
8.239326752966308343e-02
9.053250547306854190e-02
7.097194071132544024e-02
2.179991838803866516e-02
-8.479837113631349607e-03
4.056873682417985738e-03
1.541582836471395296e-02
-7.752946445288531885e-03
-5.384970172310560993e-02
-1.217371113132863503e-01
-1.807239047983388580e-01
-1.662225136290614580e-01
-1.049909319073432240e-01
-4.871128013944431290e-02
4.907054568250017457e-02
1.740946688343847915e-01
2.225948192356138611e-01
2.099044160840847217e-01
1.551351837488081364e-01
-1.236093834630114241e-02
-1.646166684654929158e-01
-1.314259191138533733e-01
-6.983445579018771054e-02
-1.172845319507649503e-01
-1.390841775875436004e-01
-8.829997905776790224e-02
-6.217701563150090233e-02
-4.783698703804974139e-02
1.317789237311682224e-02
7.242702061014728854e-02
8.001987189541488743e-02
7.575238987416205161e-02
7.547870584002251693e-02
4.331545285684081092e-02
9.314604778729309534e-04
-1.349072058167720065e-02
-2.503055594930170269e-02
-2.889426439408574604e-02
2.948529896860528632e-02
1.234169662056780747e-01
1.624965723581676957e-01
1.243362354196294733e-01
6.189334716089908012e-02
2.266408194671397022e-02
-7.225759861687049840e-03
-6.124405852424706642e-02
-1.009636519337800409e-01
-7.236475807280870476e-02
-2.249806353944075465e-02
-2.158463307027762637e-02
-4.371149582854189086e-02
-4.294737409407339834e-02
-3.919840542334769584e-02
-4.608038789804951019e-02
-4.262047860221111067e-02
-4.573784711040890932e-02
-7.271166180489885278e-02
-6.963494545997347962e-02
-3.551088511469697312e-03
6.111235931227117224e-02
7.242817277837912404e-02
6.341463168084378321e-02
5.761223467859184766e-02
3.167337525784180707e-02
-7.568746636076343834e-03
-1.891754982753245801e-02
1.070876574148034097e-02
4.192704493987126080e-02
2.292806799817209695e-02
-2.339545274417478143e-02
-3.093346393935969552e-02
-2.092855845828293579e-02
-4.992458638885875766e-02
-7.965002920835552447e-02
-3.088932874700952083e-02
9.011877228242040627e-02
1.725170632966877837e-01
1.402351483999962622e-01
7.676633110339116384e-02
7.568491182276050611e-02
7.615061498668082574e-02
9.766410826905642592e-03
-7.935066899598805512e-02
-1.463205732631039924e-01
-1.889987801661028866e-01
-2.011919528187763595e-01
-1.830333763317799622e-01
-1.366178094457913827e-01
-5.868270184300151959e-02
2.021698823182422819e-02
6.115159640743410979e-02
7.886455039491138685e-02
1.013989193892847612e-01
1.212642463771849421e-01
1.254174066416861300e-01
1.078380484368207520e-01
6.536602408127634156e-02
2.240660634435625090e-02
1.941984213941735232e-02
5.052903447809749954e-02
5.657986498558645327e-02
1.244136104750743349e-02
-2.963414004928954792e-02
-2.736624228652980578e-02
-1.144407175421933640e-02
-1.407303481837357019e-02
-2.399554938591941938e-02
-4.384150195235499148e-02
-8.522615257518111054e-02
-1.133036819405789097e-01
-1.001293481592816920e-01
-7.644909012852113550e-02
-5.780444082647551163e-02
-2.778331455541907524e-02
-5.131334834326451225e-03
1.399772352794532992e-02
8.130648647411595209e-02
1.513722610239132127e-01
1.302503230395968270e-01
6.353175440561750764e-02
3.052969257671264008e-02
3.882732426251015237e-03
-2.591384688734169051e-02
-1.596054999572152702e-02
2.394346144033592666e-03
-2.100239848125472208e-02
-4.845290489386307881e-02
-4.868732429903003395e-02
-5.138453507819812360e-02
-6.650925634594838376e-02
-8.056128575783470802e-02
-8.918834285789094263e-02
-7.815633276819486386e-02
-3.202773671423495006e-02
5.489282577379390321e-02
1.784491310305836298e-01
2.694643206180571404e-01
2.488600485150772312e-01
1.733162841377087204e-01
1.204426077819586716e-01
4.251329903993846665e-02
-8.342674641714636907e-02
-1.894154299060627211e-01
-2.374572375853639117e-01
-2.323913189550950165e-01
-1.954220070203676052e-01
-1.607823707003284697e-01
-1.273276943476681633e-01
-4.652050884384359430e-02
9.253707967018021119e-02
1.732530123731105542e-01
1.063173814667927458e-01
3.925993037254961460e-02
9.553825286276733386e-02
1.349606958783065025e-01
6.975704925413454827e-02
1.306939879780884620e-02
2.197811506250859498e-02
4.324745852155194997e-02
4.286336460551279370e-02
2.070320593505716247e-02
-8.284072294288341923e-03
-1.899450202289385686e-02
-3.238681379177972552e-02
-7.242462020097886755e-02
-7.576198102845040083e-02
-6.142059517097549909e-02
-1.530222567330694339e-01
-2.469276126906697066e-01
-1.671431841598740031e-01
-4.862915453120443543e-02
-5.189526397236481070e-02
-1.006232315699908952e-01
-9.029130320345196692e-02
8.819079945174751467e-03
1.142656044034150997e-01
1.109032044343550849e-01
1.149956753210756855e-01
2.685353900102376290e-01
4.180747042972667304e-01
4.295474095813316406e-01
3.871734674352985683e-01
3.255268434433328806e-01
2.222609668038442454e-01
1.318280801729879714e-01
5.633488524167484107e-02
-8.272157613745960425e-02
-2.627803219895219478e-01
-3.863675959853719588e-01
-4.477042959297499736e-01
-4.923086791768734316e-01
-5.050809915281333495e-01
-4.227574905184501297e-01
-2.223019588544985770e-01
8.590356207354848950e-04
1.191642961639371723e-01
1.423463973290761131e-01
1.495161659378255459e-01
1.333236147627735735e-01
8.187486757763090539e-02
4.251248158532629218e-02
1.321797788986781713e-02
-2.746434441088241654e-02
-3.708697320829327376e-02
3.628126388020426300e-03
5.056212040612867442e-02
7.799215271821260953e-02
9.790410053868925377e-02
1.147266437824509544e-01
1.222400268887302438e-01
1.240867591114927643e-01
1.103152379178111986e-01
7.204371931843497889e-02
4.477507449275040796e-02
3.880774464633370002e-02
2.231762644294374431e-02
7.300009313326253496e-03
-1.861237789412630711e-03
-2.980342338235146896e-02
-4.861970347909003176e-02
-4.708834494306046725e-02
-6.393009909895380760e-02
-9.567973504703013166e-02
-1.153664769615983243e-01
-1.076458050788002691e-01
-6.050352409362551309e-02
-2.013283932498610013e-02
-5.224138875335102017e-02
-7.380195602933870003e-02
3.488185539014550252e-02
1.400855121631272571e-01
7.458342089619106330e-02
-3.711881629406200284e-02
-5.101252559734931885e-02
-1.109165886761218425e-02
3.898612975374647627e-02
9.052197494496208585e-02
1.125204008692769486e-01
9.812282536853592085e-02
8.417790783845625902e-02
9.921528290833593611e-02
5.963689010761417247e-02
-1.004614419026389066e-01
-1.968904627997108414e-01
-9.647265157506842992e-02
5.494536290021865416e-03
-2.153601649124470274e-02
-6.907602865391189451e-02
-8.865404890519670844e-02
-1.074897765357007984e-01
-1.024443216270942564e-01
-5.769662119615755896e-02
2.062109160858272700e-02
1.213519854834508582e-01
2.001674485639634848e-01
2.162384621727492795e-01
1.706044466847490559e-01
8.664017365379717006e-02
-1.354246689096312919e-03
-6.605043138054654539e-02
-1.149376300824257457e-01
-1.548809876418260623e-01
-1.524227505543846728e-01
-1.133756483247863323e-01
-1.022485490979243711e-01
-1.043825951079768860e-01
-5.464172740458726751e-02
1.633922195259416080e-02
4.994316973329564896e-02
6.191042246919061659e-02
8.368822024994873598e-02
1.002802457308393375e-01
8.580356016954783505e-02
6.356348078190056372e-02
5.663590980671750347e-02
4.068586958376286394e-02
3.373633727717265801e-02
5.066174208405696544e-02
9.004772484208249314e-03
-5.695773444222840959e-02
7.003847759110577026e-03
1.048689998323214523e-01
5.734564257563443818e-02
-2.036589922255787471e-02
-1.860932371369356658e-02
-1.576141272787421818e-02
-2.253120000065387749e-02
-6.787970166293871843e-02
-1.767920077449703642e-01
-1.487805502305493133e-01
2.764168084277263127e-02
4.891268134478980734e-02
-6.089858514111100296e-02
-5.174191384595663856e-02
8.594560514358315709e-03
-4.693309701645980575e-03
-6.920179901781174300e-03
3.007976183841546552e-02
3.502083818825758171e-02
2.260115877557006617e-02
3.801837898107182645e-02
4.009224725844214021e-02
-1.502630667866056841e-02
-4.021942432102650761e-02
5.010023132984883776e-02
1.127289898765765491e-01
-6.014508751109395174e-03
-1.737041211092994475e-01
-1.767402275716999371e-01
-2.451915716585555127e-02
8.764859365373069144e-02
9.623908825826801849e-02
1.354310073511550971e-01
2.036822715486546753e-01
1.957105374252414154e-01
1.461846593160908980e-01
8.107055317166435293e-02
-2.506576573557237411e-02
-1.100076227969563059e-01
-1.369229925229528688e-01
-1.581721622034863162e-01
-1.809500396720052362e-01
-1.626676811757748198e-01
-1.122456085399343578e-01
-8.054436843396260703e-02
-6.594597025361426113e-02
-1.651848513119810735e-02
5.252643586048934971e-02
6.423232459275082795e-02
2.050041955986496578e-02
-4.553912961103509516e-03
1.123585427333608812e-02
3.136801860849662560e-02
3.690671888717821092e-02
5.591018716270253208e-02
1.046942660143020259e-01
1.253267060680665623e-01
7.516092935116137908e-02
2.015952125368058317e-02
1.755773636748688554e-02
2.773141298828996418e-02
1.860664687191419808e-02
4.865539899544914573e-03
-1.333726146464069007e-02
-4.186234216135711894e-02
-7.052641219842650799e-02
-8.198119815309290459e-02
-7.333696781331772163e-02
-7.474309466527637169e-02
-8.481036108063333412e-02
-5.968790593411259920e-02
-1.933005771514020171e-02
-2.614283265077751647e-03
2.354529238743615499e-02
6.724958530119974631e-02
7.780200046620742993e-02
4.578245883566936514e-02
9.454948146638747497e-03
-2.047541964324229788e-05
2.574651965597596348e-02
7.412565950873575837e-02
1.023165502491755474e-01
6.146859511639819751e-02
2.140424065469467146e-02
8.996713118800232778e-02
9.667118173175950901e-02
-1.373177037843364978e-01
-3.249441309592817073e-01
-2.103425638709323087e-01
-6.170596916285093353e-03
1.062746738263307400e-01
1.610496529961988055e-01
1.510470990557364057e-01
8.276304690421654175e-02
1.159094389216061734e-02
-2.965537881893776095e-02
-3.881380576845049751e-02
-8.141034569068042459e-02
-1.745613467356934012e-01
-1.988831611215333139e-01
-1.109517428001274286e-01
-1.738386354862817701e-02
2.105433633257607420e-02
3.629848638502181091e-02
4.532428491993244213e-02
4.025148248936347151e-02
3.900327177617865515e-02
5.092962969436436171e-02
4.830615801917752250e-02
3.797843381999164991e-02
4.491755324542022476e-02
3.844946510015461588e-02
1.876692330644379181e-02
3.617839719948158506e-02
7.143471666877318493e-02
8.018010862894710267e-02
5.857134086804443446e-02
8.168054356286294851e-03
-2.873503434779741544e-02
-1.176881492262810656e-02
1.112598663104951910e-02
1.159618012716041174e-04
-2.281605047264983338e-02
-5.266315626898354640e-02
-9.063766544512040502e-02
-1.060140864475392075e-01
-8.977552616406604680e-02
-7.998536662524825813e-02
-8.774292452248046159e-02
-6.427980080730000267e-02
4.241374844399679531e-03
5.580170960823464810e-02
5.927027472625517879e-02
5.575383061672114365e-02
6.959696517345137501e-02
7.981700632995532285e-02
7.595845122703351326e-02
6.487521977364119063e-02
4.635595482607142437e-02
3.339453540108613949e-02
3.761425238217682571e-02
1.682832217003638747e-02
-6.548875594666359046e-02
-1.532538650172143857e-01
-1.714553679280342302e-01
-1.385958780342758101e-01
-1.076903397913920313e-01
-3.712497403356110337e-02
1.294605265012687967e-01
2.929842963241999776e-01
3.150797229500542640e-01
2.236652300978145824e-01
1.190075478171626205e-01
1.344706932869462260e-02
-1.079523575064462448e-01
-1.998556200997371468e-01
-2.278438737659524704e-01
-2.320422395146354844e-01
-2.378393587169540524e-01
-2.070226083022362606e-01
-1.324251334566572402e-01
-5.206064800971986484e-02
2.858117776800367382e-02
1.079792510197429556e-01
1.523084514461979233e-01
1.520446045589727846e-01
1.241535613483188139e-01
7.612223767846719447e-02
2.755413808086091751e-02
9.983757841066693076e-03
1.648626289811943452e-02
2.720431938278426026e-03
-3.396503191678112987e-02
-4.688972166035473843e-02
-3.774779474958708803e-02
-4.969444028128099794e-02
-6.402802664534398835e-02
-2.129937672544081687e-02
7.370736256091818539e-02
1.536516197225666069e-01
1.894865781013398143e-01
2.162912087988773102e-01
2.407418639978378683e-01
2.177996539979211166e-01
1.457062873408694892e-01
7.320916419207076919e-02
6.420302629564070274e-03
-7.801913811671393195e-02
-1.523813061633570443e-01
-1.783569904689427665e-01
-1.760892584205128175e-01
-1.764992883261681800e-01
-1.811593023771259359e-01
-1.888943777808698432e-01
-1.927753628278893461e-01
-1.784544755798799232e-01
-1.486386627028888630e-01
-1.165969827638241724e-01
-8.716357869959057147e-02
-6.182359077987981816e-02
-4.895917774435031705e-02
-4.590333833361882193e-02
-2.246244336175856615e-02
3.514925198338810647e-02
1.004316466179659972e-01
1.817872016935462298e-01
3.155336973620225249e-01
4.334430276408690608e-01
4.225549721151860560e-01
3.118234580793425303e-01
1.960152043468047500e-01
7.911314398483970667e-02
-6.252901623965780031e-02
-2.032454205550718873e-01
-2.983387994598752924e-01
-3.183898470944424575e-01
-2.758712107618698228e-01
-2.111079753316724705e-01
-1.470061065780456366e-01
-8.648642330231251507e-02
-2.603790696208399189e-02
3.271477242275877551e-02
7.364803349736942506e-02
9.337535081761919042e-02
1.129213957784725164e-01
1.264396583443699595e-01
9.187617357941936513e-02
2.738868306232752209e-02
2.591336888629444321e-02
9.270221930496841400e-02
1.143425849698748165e-01
6.111514709029371856e-02
1.611320056297297493e-02
-8.301866024447400461e-03
-4.902528037506834191e-02
-6.535909016731666910e-02
-3.251137755611527985e-02
-1.198616184522308462e-02
-2.937836310163268946e-02
-4.623429215800511916e-02
-5.002000974290496393e-02
-5.717696143046916563e-02
-6.623908519833134056e-02
-5.802802863008426487e-02
-3.768854351736990876e-02
-3.298934315541958429e-02
-3.093572854518645415e-02
3.179581691889775408e-03
5.965666826618025442e-02
9.839921252463738888e-02
8.662683825345483812e-02
4.432234036572853947e-02
3.332578784536631422e-02
4.470476788639839161e-02
2.473862683782017402e-02
7.249738725009550154e-04
3.358266138100418630e-03
-1.536927919157039107e-02
-7.279591356538600566e-02
-1.243912829144155491e-01
-1.354378861840379034e-01
-1.013183254772793140e-01
-4.916031035873601185e-02
1.547317979258597959e-02
1.214162106088024773e-01
2.223509711412278156e-01
2.340002555870653866e-01
1.672596733275506509e-01
7.702674426040630185e-02
-9.557813902458588834e-03
-6.990801186325118488e-02
-1.047431362644735131e-01
-1.489042225234281924e-01
-2.012993617324080609e-01
-1.991803998919509378e-01
-1.241922320045668326e-01
-5.662542356998784276e-02
-3.709897254407472367e-02
-9.322661872770740543e-03
3.548184678008370341e-02
5.026847206772250276e-02
5.483565546371152455e-02
8.553751328616904237e-02
1.155102020766754639e-01
1.113239260939519887e-01
6.909665604755262092e-02
2.403662585101997567e-02
3.625135927356099019e-02
8.400503231938169502e-02
7.243941569966519389e-02
3.536047662146692139e-03
-2.482122450511623293e-02
7.737330334598727793e-03
3.399055274942590354e-02
2.326154272813642926e-02
-1.247364683772942198e-02
-4.437163073222840509e-02
-3.049289767461751260e-02
-3.251562381323558348e-02
-1.440418304855359266e-01
-2.331944130795357284e-01
-1.475716641621170055e-01
-1.589702436257943788e-02
2.142362398572882423e-02
2.128717420169922922e-02
3.720797648057267565e-02
5.207538228649638556e-02
7.337702025580397636e-02
9.755476907573962242e-02
7.916474841389363470e-02
3.315495307714654005e-02
2.651179368431617889e-02
4.808473501195651562e-02
5.142640767542113606e-02
4.987988059461761353e-02
4.611724889789887288e-02
2.133670069756119989e-03
-6.674693614909654737e-02
-9.136639815597474845e-02
-6.328398169259484562e-02
-4.537253538571856676e-02
-3.897395821499918117e-02
2.206518975369867186e-02
1.070356546808505227e-01
1.075138607823123149e-01
2.557306064903416137e-02
-5.144138871921664913e-02
-1.045582164366658517e-01
-1.602699665796903927e-01
-2.010858817436638468e-01
-1.960190298281998256e-01
-1.565130599586002091e-01
-1.058320876524853488e-01
-3.854212757499829445e-02
4.484628161079082243e-02
1.059601178000570132e-01
1.269910631559486858e-01
1.550442944608710905e-01
2.114968364992938221e-01
2.269366288911268681e-01
1.657140856150952635e-01
1.000002102115035846e-01
6.324154344298926755e-02
4.736256484328585370e-03
-5.234610863673525710e-02
-2.688135300639630382e-02
4.040595666565863220e-02
3.598119351447164049e-02
-3.114049136611100194e-02
-6.920937240317359684e-02
-7.470156181077891588e-02
-8.915737133360764066e-02
-8.570947281775649629e-02
-4.626097069140341911e-02
-2.272052689335305603e-02
-3.443943995522821128e-02
-4.327286470238653204e-02
-5.115010462729858293e-02
-8.006679169928695994e-02
-9.562269702656797654e-02
-6.607213298793310208e-02
-9.020956174174069378e-03
4.555875862276967392e-02
7.122590644610658772e-02
8.562542545076551326e-02
1.263607432546198783e-01
1.472622335969624441e-01
1.000450347186515182e-01
3.921711350289004000e-02
-1.237481505961460573e-03
-5.181060391576268465e-02
-9.202889885840374873e-02
-8.425082364227837184e-02
-6.747300748229086154e-02
-8.006721730473717602e-02
-8.711519439139368826e-02
-6.820967844060156493e-02
-5.817244672207032979e-02
-5.151512717584669915e-02
1.516082724626684891e-02
1.462779488280206985e-01
2.346121843115637207e-01
1.949034512914350481e-01
1.031041407633688650e-01
7.580689079758648474e-02
8.290265089576635826e-02
3.876957048386939914e-02
-4.882065473439087255e-02
-1.320328979100893474e-01
-1.839691367705895697e-01
-1.976513701813626400e-01
-1.901264250931732624e-01
-1.496784145266721322e-01
-5.325223563799686560e-02
3.944219070891766266e-02
7.297807768829236985e-02
8.813093429040516624e-02
1.064661757547459842e-01
9.115999146235406747e-02
