-6.865595490084339808e-03
-6.866467955068554507e-02
-9.611495309147914667e-02
-1.669850744048460567e-01
-2.013173812784020689e-01
-4.515230170789293063e-02
1.356003568925875924e-01
1.442382490762395553e-01
1.398802847107223912e-01
2.279538134037309982e-01
2.384563963221107696e-01
1.281919966221497509e-01
3.469019331538515660e-02
-1.744191648813963463e-02
-8.199891814429066672e-02
-1.235006596101429488e-01
-1.108285995235460120e-01
-1.216460588387363734e-01
-1.909377731345356100e-01
-2.153394915272047183e-01
-1.606142347551098026e-01
-1.055982665637171802e-01
3.596159319406447286e-02
3.522623469554545528e-01
5.401379745726027082e-01
3.616816425150545244e-01
1.405329192018195950e-01
1.798977895399334059e-01
2.909251706341127730e-01
2.203971186472737376e-01
-8.258064986738332391e-04
-1.997203929585962268e-01
-2.995227699126199461e-01
-3.927028864360385674e-01
-5.233268328774574041e-01
-4.955293769823465588e-01
-2.128372098735680784e-01
6.232919377534642397e-03
-4.437746765703072527e-02
-8.689321699798949195e-02
3.175859799373201287e-02
1.209718998164420189e-01
1.355540658965848078e-01
1.423785202713657716e-01
1.044462676995908668e-01
7.107097912441967535e-02
1.224650148876676586e-01
1.664760374451293157e-01
1.275631273579401204e-01
7.524667689969240236e-02
5.636249324088529744e-02
4.338833676188996735e-02
-1.859239137447989132e-03
-7.986134493506830134e-02
-1.176009345194963668e-01
-7.517999231615155042e-02
-1.996469504461574618e-02
4.967509731437239930e-03
1.313310224192512296e-02
-7.812988892478099981e-03
-4.818307878560953300e-02
-5.873768188056645301e-02
-3.016299391108474837e-02
1.219563270235877323e-02
4.246309220684126029e-02
3.830696231384220218e-02
2.963922246311698379e-03
-3.332904674448161630e-02
-4.902156383213363000e-02
-4.517068599698106229e-02
1.371753993222448158e-03
9.059906535289621865e-02
9.421492189564341369e-02
-3.205089092073937218e-02
-9.714897827428936594e-02
-3.940401905891352530e-02
-5.094516111009783285e-03
3.265702061281227156e-03
3.736772063662760490e-02
2.174204823499729933e-02
-3.172170873012881975e-02
-9.715122025642347267e-03
7.349980453332488617e-02
1.120868435209051023e-01
7.481186198174237523e-02
7.001005530655415691e-03
-4.717384466936195425e-02
-7.476520381338269683e-02
-5.634335143118955613e-02
3.364641628405100338e-02
1.188276846987400409e-01
5.572549781579892725e-02
-1.240022045212523377e-01
-1.991990096487780970e-01
-7.151631541432962313e-02
9.501470222674196497e-02
1.261840608654532514e-01
5.918987375976657306e-02
1.411913499567286900e-02
1.687548016388494901e-02
2.902082858948911923e-02
9.401916146065225632e-03
-3.632576093715973731e-02
-4.774013930048744830e-02
-5.099092370642251820e-02
-1.089579542899945241e-01
-1.123084458687431952e-01
6.184195646268979274e-03
8.619387777962206343e-02
5.537731059624929897e-02
2.413512329674780132e-03
-3.414192386175995270e-02
-4.047113550288711920e-02
-1.769845018812137363e-02
-5.127922830241661047e-03
-1.689019697189381511e-02
-6.705782551162134397e-02
-9.671943173951419448e-02
2.471351733934841130e-02
2.011283971297124773e-01
2.179680291611156007e-01
1.218477747748445139e-01
3.782406813708114046e-02
-4.451129438748586964e-02
-8.610060990031914718e-02
-1.433927740049856930e-02
8.104295059402670531e-02
4.193133041963104102e-02
-1.133020840103001470e-01
-2.139258201950419158e-01
-1.817790961473798039e-01
-8.837322067384952018e-02
-2.953920447532060525e-03
8.737712955751041066e-02
2.049304021345114135e-01
2.364869581163514811e-01
5.163739866938461820e-02
-1.367774372689483653e-01
-2.548837671846857639e-02
1.635104472269571785e-01
4.823556914374887289e-02
-1.976121406074474451e-01
-2.202974294903649599e-01
-8.619824976642989633e-02
3.377915643906687082e-03
5.308901567023353862e-02
8.715136001192139159e-02
5.938247440682387773e-02
-6.060306031926874018e-03
-4.623520780453728440e-02
-5.756137005486734737e-02
-4.965859708402996925e-02
-2.162586365746852618e-02
1.527373235074339780e-02
6.899252138683667490e-02
1.330268070020627080e-01
1.516437576477485394e-01
1.134077160393272971e-01
5.133517543811742800e-02
-1.678622615925923212e-02
-3.382082172734252046e-02
-9.289021606085190452e-03
-7.649321479262508050e-02
-1.758722907015542458e-01
-1.109841581299976787e-01
2.722511931359482273e-02
3.407433084629300779e-02
-5.896892937006172064e-02
-9.249429710466763876e-02
2.779895276254752690e-02
1.648640402767144741e-01
6.332132985426770777e-02
-1.749363817200777216e-01
-1.980753937360777983e-01
-7.922648926155816118e-03
9.758567289874411910e-02
3.501394415286549627e-02
-2.116208584093612344e-02
3.169196754098090388e-03
6.290350935222659839e-03
-2.419975756213527118e-02
-1.313455396354185067e-02
8.537879254303475801e-03
-8.780188276145919901e-03
-2.448357671045478870e-02
1.425365319511689294e-03
5.795045761263626499e-02
1.023620733246187187e-01
9.245994276302230142e-02
4.541681343840786589e-02
2.528094484134433065e-02
6.173907290090375338e-02
1.112356478416760136e-01
1.136717858629606309e-01
9.285819188497819454e-02
1.044402852868994147e-01
1.154945947093571901e-01
8.172493002988449884e-02
1.388962769167854938e-02
-8.471571454946841273e-02
-1.832171571737158389e-01
-2.241725462575707151e-01
-2.231151244005790679e-01
-2.181699494999237432e-01
-1.861473281417548031e-01
-1.136314467865406352e-01
-4.446778461344763622e-02
-1.357933645373107789e-03
3.540876674055328660e-02
5.216212354134595192e-02
3.611357867084429712e-02
4.422707480850632950e-02
9.171601434607140613e-02
1.020125787723381028e-01
5.476286982978444129e-02
4.492876387322616502e-03
-1.748728692967646894e-02
1.083347980766222358e-02
8.882239653105522548e-02
1.397852421612097440e-01
9.241768357894439290e-02
-2.689729951482853348e-02
-1.219826424937213299e-01
-1.253326984416505141e-01
-7.812088396217170549e-02
-5.438832922920584095e-02
-4.711664005793815557e-02
-2.773964141763152202e-02
-6.930764394982866575e-03
1.233200051340585870e-02
3.467693537908073803e-02
5.735119009538880430e-02
8.190748112191080510e-02
8.231872172851537051e-02
4.086046129009358180e-02
1.896592274424297592e-02
5.483302386515907095e-02
7.520810767142742381e-02
2.099885179079611502e-02
-5.663087321080600978e-02
-8.244441569644739287e-02
-4.962767409760012599e-02
6.990690134911284326e-04
2.837816704456941341e-02
2.430897294466210362e-02
2.253164575188853699e-02
3.548751701114029322e-02
2.532452636781108019e-02
-5.723203893333872645e-03
-2.045355153157162736e-02
-2.051911583678264414e-02
-1.052301180808739960e-02
-6.625079928675029102e-03
-3.740354775189428521e-02
-4.470125622112718772e-02
3.646164081076534724e-03
9.344674679047922788e-03
-4.035812423349442735e-02
-5.662567939798188177e-02
-5.363991214559311882e-02
-6.588072087679017197e-02
-4.178952310310195262e-02
2.263670766549893271e-02
4.930363671410198378e-02
1.660213974496617048e-02
-1.423819143491164563e-02
8.136998003902036133e-03
8.331636210707873968e-02
1.297539431217226980e-01
3.560169805362885243e-02
-1.335002648334074338e-01
-1.625798590642270336e-01
-4.635890802203893046e-02
-3.046873733702710856e-03
-2.808743133665935962e-02
8.658914632944871015e-02
2.426884459413611861e-01
1.763535148036072253e-01
-3.145868090977332887e-02
-1.426893517016937785e-01
-1.134419207435081872e-01
-2.541795332015071157e-02
2.011669426701026553e-02
3.138554763768832898e-04
1.748300921545451608e-02
1.087154465626360839e-01
1.487934916990890366e-01
4.081624406008697858e-02
-1.271370425175591956e-01
-1.948641239765211974e-01
-1.423431496731893953e-01
-7.036847684631214461e-02
-1.987259302305411160e-02
4.038908492814328316e-02
1.096816850598295173e-01
1.439258232816736371e-01
1.170587264417079221e-01
6.158026040365811860e-02
2.223352328806663114e-02
-1.617681385191639676e-02
-7.357180562910911603e-02
-8.173498050458449793e-02
1.746672273956864641e-02
9.706580229730867038e-02
9.023692685705148736e-04
-1.361715093869298454e-01
-1.029692437205259326e-01
1.364246139158357962e-03
1.836757785453858524e-02
1.503713308361268562e-02
4.042496576215621334e-02
1.185156959160373231e-02
-5.782244007847771317e-02
-5.813406770692942926e-02
-1.129652483783948752e-03
4.148105860357180485e-02
1.102477174716213065e-01
1.892769291840729340e-01
1.176599232731168204e-01
-8.747230429890076597e-02
-1.638625819568138853e-01
-3.346767253683887583e-02
6.596287274297438219e-02
-9.745917854553205750e-03
-1.323960673928141485e-01
-1.764541062583963316e-01
-1.424488499395599184e-01
-5.492303062921141676e-02
3.568792272166643187e-02
7.059725505436827142e-02
7.036819196912344476e-02
7.541004448532702409e-02
7.331234583732929022e-02
6.914609702842530736e-02
8.272129216054673051e-02
6.817814448379759529e-02
-1.607296610881369173e-02
-1.119291314283686334e-01
-1.368618542488807543e-01
-8.186706685519534732e-02
-7.635683990418416431e-03
1.398380952490779761e-02
-7.399850562537568094e-03
5.702433841325837797e-03
3.671596587295072878e-02
8.211417527384398674e-03
-3.527949082573852979e-02
-3.512215835312904044e-02
-3.075241431795866509e-02
1.224681888183687395e-02
1.445221214200236581e-01
2.393389218996802570e-01
1.923160379606035919e-01
8.165779901917144534e-02
-1.165784189531863038e-02
-6.395515231171569615e-02
-5.290019107573541018e-02
-2.656653939025390571e-03
4.943194604182366003e-02
1.068484754806706544e-01
1.275229637298695151e-01
5.319955181636787378e-02
-3.972049837643010228e-02
-5.530116494088637563e-02
-5.018718425765300584e-02
-8.448890541646937591e-02
-1.334790497124797581e-01
-2.081062907841801923e-01
-2.931530502657075377e-01
-2.846886910796968539e-01
-1.656708495477550169e-01
-4.778421855933144557e-02
3.106796871456263265e-05
1.144336626228388554e-02
3.374544308114520857e-02
5.445034656910769516e-02
4.759573648172828880e-02
5.504453911488954576e-02
1.082335693186113057e-01
1.338213546623858163e-01
8.556990163329492027e-02
5.929637853477823933e-02
1.314356488009000290e-01
2.065149998336928971e-01
1.635702311723855051e-01
4.095027140920268205e-02
-4.566058333196708341e-02
-4.919468854333830521e-02
-6.896440136098663798e-04
1.544632318649358932e-02
-4.634735029106065718e-02
-1.026791649194662287e-01
-8.368524315396838609e-02
-5.310746740440924762e-02
-5.539797595427051885e-02
-4.348439039070868539e-02
-1.527190050074658106e-02
-1.097396105175751403e-02
-5.629226684088002586e-03
2.684814950221355023e-02
4.450554033669336385e-02
3.123046300315885510e-02
3.113113956041626065e-02
5.231184882236444150e-02
5.432664329421485472e-02
3.004640583639338336e-02
-5.535466309801044364e-03
-5.455965682059003147e-02
-8.576033745129786612e-02
-5.880658924720413849e-02
-1.310869225256730899e-02
-1.557548446042694712e-02
-4.773046730618639433e-02
-1.742039251330835745e-02
9.348210051133103160e-02
1.515683866418611470e-01
5.219050926926255274e-02
-1.085311274898713707e-01
-1.661542235484598784e-01
-9.507353652189337589e-02
-1.531235369265099115e-03
2.469954419249247024e-02
-9.122581354065016288e-03
-3.618159104055040931e-02
-4.660837385687515919e-03
5.760694596587419281e-02
7.542334600791578136e-02
5.324431352038345999e-02
4.461998262671840187e-02
8.870395261542780158e-03
-8.069950422383825872e-02
-9.691514712405821519e-02
2.366625564455894504e-02
1.303162357701111440e-01
1.037951859497685814e-01
1.824701205349745295e-02
-1.839567087231410575e-02
-3.008807401599733131e-03
1.088092869015012606e-02
3.876805144404870535e-03
-1.097188127205359770e-03
4.829398181126625354e-03
7.570046611016265775e-03
4.634743014218905763e-03
-4.619328989663116017e-03
-4.949286628094429555e-03
3.694850062011797998e-02
5.775613587903329765e-02
-2.171938617864515100e-02
-8.162179210607334312e-02
-3.322759379405916536e-02
-7.233289937247399867e-03
-2.259139172171983553e-02
-4.265363198863626618e-04
-2.955543784549669387e-02
-1.102062783514453775e-01
-8.359200284675040449e-02
1.028317608182286597e-02
1.784596407328368009e-02
-3.131292693699841423e-02
-2.224867248847542736e-02
4.207681543385265177e-02
7.422860083223842276e-02
5.571132332208938998e-02
2.055096492300482330e-02
-4.323202423290292695e-02
-1.081196066694681129e-01
-7.035852118857839621e-02
6.692425619379567536e-02
1.401081426596107182e-01
5.559007772200538766e-02
-6.455242527914759054e-02
-8.055823780001855616e-02
-3.391179061474905443e-02
-2.118416166819229313e-02
-2.224036405603188604e-02
2.125514332837883519e-02
6.382866241903481508e-02
3.869734261351001625e-02
1.879624247334002463e-02
9.570342826470505659e-02
1.847228113772490521e-01
1.628155457908971315e-01
5.255716797488330094e-02
-6.287958867628798409e-02
-1.217608256544701339e-01
-8.219313722362271701e-02
-2.131094095986659637e-03
5.883885792665114259e-03
-4.275399999123259687e-02
-6.028940458824686571e-02
-4.425321232377838615e-02
-3.668122435018991018e-02
-5.116604981619816972e-02
-6.049614120808226303e-02
-2.322703975228024992e-02
2.923885059224990562e-02
2.058594838786880279e-02
-2.663292952604331271e-02
-1.920775197617026475e-02
2.305175053686006614e-02
-4.828939759370065934e-03
-4.294340851547264609e-02
4.587842374719128258e-02
1.410373946120248023e-01
8.157408195260254513e-02
-3.263098200377220759e-03
-1.130759787826521312e-02
-4.371094650774864920e-02
-1.101207781692911253e-01
-1.384803961889625457e-01
-1.373845351436327467e-01
-8.274577909377008045e-02
6.736029017134967378e-02
1.868772195698974459e-01
1.480262616189897684e-01
7.453948299017525148e-02
9.016058641836759147e-02
7.983851117174529943e-02
-3.802042196151967507e-02
-1.564691212865850778e-01
-2.039020290322910711e-01
-2.205289950408403643e-01
-2.195775320815845089e-01
-1.621805743465933591e-01
-3.735613127575294207e-02
1.220422716446381145e-01
2.732246593438947824e-01
3.895272089027904117e-01
4.562345255832720992e-01
4.465671782675735835e-01
3.506506300979614910e-01
2.065671190298528914e-01
6.067429759815438223e-02
-5.386859834147277731e-02
-1.297690086022112999e-01
-2.109655383883181634e-01
-3.149894782982028962e-01
-3.779766972346593201e-01
-3.814417502720354181e-01
-3.853668839841488669e-01
-3.739758511662533702e-01
-2.874257087746232564e-01
-1.744276750755451577e-01
-1.006047325581441304e-01
-2.676236177051544152e-02
8.041345416482506558e-02
1.713422000389719924e-01
2.209471030139837366e-01
2.576463551812608332e-01
2.750922822655987310e-01
2.653370171740103700e-01
2.556369372133426299e-01
2.222928997117344097e-01
1.281995003223851681e-01
2.398776732733801098e-02
-2.494784195789995218e-02
-2.963330520925717276e-02
-4.570742681796225587e-02
-7.966590748116580967e-02
-5.950392768324144072e-02
2.180665469550359392e-02
5.494113313455863123e-02
-1.386993091394187437e-02
-1.671386636041868878e-01
-3.401593540762625767e-01
-3.431757573432441255e-01
-1.432774335496732609e-01
-1.119452167196653691e-02
-2.834718643590771608e-02
5.571322278090682506e-03
1.147731443538743401e-01
1.648143848764346553e-01
1.534304427421765704e-01
1.575175635802715246e-01
1.736895981769814301e-01
1.379012478826872057e-01
4.883825323349038489e-02
-1.069587920748606147e-03
3.339162219780096585e-02
5.270205335950005343e-02
-4.371421551130440231e-02
-1.808375638467922542e-01
-2.034255391054438922e-01
-9.614758677412076071e-02
2.330298115535650236e-02
7.065568460439744514e-02
4.159355511931744215e-02
-3.066874269756438703e-02
-7.975933888201143518e-02
-5.117419520759340645e-02
1.887432535204975823e-02
5.744261230396451035e-02
5.956540795223229379e-02
4.593464576858830029e-02
1.097728378702938698e-02
-2.014007097827554341e-02
-9.868393549226729677e-03
1.841470587476301199e-02
2.271365947736436741e-02
2.216776577040346658e-03
-1.685690461124597639e-02
-1.568271984420003054e-02
-1.234021296221400957e-02
-3.782688114956878067e-02
-7.455709252403967813e-02
-7.534988342922903370e-02
-3.841310852683281485e-02
-4.155401546950478371e-03
1.759856403106324282e-02
6.558417159449264622e-02
1.496558257006650461e-01
1.798891068485842515e-01
5.500649787656541889e-02
-1.371453527055306598e-01
-1.731469388362635309e-01
-2.838536480213409846e-02
9.938473705973797923e-02
9.917770264163444649e-02
7.298781561862980466e-04
-1.154484135310954868e-01
-1.270400576851210273e-01
-2.906970520419135257e-02
3.101012457075631029e-02
1.255393976712900102e-02
-1.387126724900465853e-03
-1.030411594523913781e-03
-2.975766278333260434e-03
3.667078573427643567e-02
1.038693144250835976e-01
1.003258324973665128e-01
2.188660241464175649e-02
-9.236218699270219018e-03
3.707719599624261647e-02
3.520841186130815176e-02
-6.055733054275501404e-02
-1.410227655098645894e-01
-1.493235944382506619e-01
-1.208428388614553317e-01
-6.538768815306436610e-02
1.435955801926506580e-03
4.637721509110148688e-02
8.782919769667096865e-02
1.279576712141367312e-01
1.165741789112778731e-01
6.071333052348241999e-02
1.572330086811891958e-02
-4.599395592358921508e-03
-1.302795133873278950e-02
-1.947873270521796943e-02
-1.889290076203519603e-02
1.284096800485778553e-02
6.468601281617510079e-02
7.948718830752596332e-02
2.513359412116997899e-02
-6.624770659719815546e-02
-1.236498773692042003e-01
-1.129608819860781765e-01
-6.471177136446398803e-02
8.551771660420513094e-03
8.930525749699637361e-02
7.701425713469257917e-02
-4.446250847269116180e-02
-1.086201785151654220e-01
-2.794729309003124440e-02
6.383781479603919951e-02
3.292202387077624443e-02
-7.086744522073745722e-02
-1.127192451952830493e-01
-5.470509598477293900e-02
2.819980439050324278e-02
4.753390578385663368e-02
2.262793602701890922e-03
1.873113606312611090e-02
1.335052650441598820e-01
1.687665486626380718e-01
9.554040557640344766e-02
5.416537957023743327e-02
-2.819482129169007673e-02
-1.857125594844983296e-01
-2.089502846032028904e-01
-9.280675437966653951e-02
-4.497513973035523194e-02
-7.759617131291783598e-02
-4.135389609516500198e-02
9.563073179995838780e-02
1.918542520106998328e-01
1.315793736531551683e-01
-1.937629786898343101e-02
-1.223772159107025248e-01
-1.298966748293742535e-01
-8.664657440455603155e-02
-3.798170111930251197e-02
1.758266424738753192e-02
1.026889531756766949e-01
2.171737714642896222e-01
3.140556390953300192e-01
3.306426576087092006e-01
2.686507722570133927e-01
1.908577796567367812e-01
1.208241046067823760e-01
3.113610942868388562e-02
-8.753598981804477930e-02
-2.251695414506731940e-01
-3.696152601864545750e-01
-4.667710258382876121e-01
-4.112207436906832325e-01
-1.862730578784009550e-01
2.223341054328561300e-02
5.318219097683124508e-02
-1.119257840328606590e-02
-6.220475322062987700e-02
-1.168658104204303716e-01
-1.441297593097537466e-01
-7.853178774524920136e-02
2.100311057486647578e-02
7.964832417126579966e-02
1.244953987381885036e-01
1.651952494120743353e-01
1.638123699046952209e-01
1.464294235101916142e-01
1.582432622720471582e-01
1.583950523412185618e-01
1.073340021632057800e-01
5.816032775447770031e-02
4.986285544228637179e-02
5.433579943370980825e-02
5.193746467264451910e-02
2.054218522398544924e-02
-5.654110202428837967e-02
-1.267957786726263136e-01
-1.408874505466899130e-01
-1.202761751382460664e-01
-9.619520373294487836e-02
-8.144967448049057757e-02
-6.675479726553779081e-02
-2.154729292348550596e-02
2.998368803190188531e-02
2.736147839543412452e-02
-1.011250268751029413e-02
-2.565734654446718763e-02
-9.543790175939806039e-03
3.490313085124436415e-02
8.936789517486798395e-02
1.156784610028794014e-01
1.178994505312338237e-01
1.107566513539415542e-01
7.204980787282759536e-02
1.026209952106558673e-02
-3.912353719597648494e-02
-8.191083327172457573e-02
-1.180310584606861224e-01
-1.133320254629069240e-01
-7.613973989703516632e-02
-5.674080946332074604e-02
-5.650837884220354101e-02
-1.419073056209139982e-02
9.224604891305158982e-02
1.635836406643305652e-01
8.097896255015205047e-02
-1.005525884689357496e-01
-1.976082625591247255e-01
-1.469643793032503198e-01
-4.825817137079589647e-02
1.079285791090220555e-02
3.993909973980451500e-02
8.052301379618685695e-02
1.176886411072215199e-01
1.085839883776519299e-01
6.414014047149009523e-02
1.653197628410650946e-02
-1.719679367493720523e-02
-1.756785281725425571e-02
-2.345847366497625514e-03
6.157419885638157342e-03
4.579661200988560665e-02
9.970446308616708053e-02
6.799542856000602431e-02
-5.020638915296562338e-02
-1.425597491090734581e-01
-1.289662763568694692e-01
-1.363010064717887909e-02
9.989590993204847114e-02
8.631929495905540928e-02
-1.809838507279359562e-02
-7.427174570684719201e-02
-5.919818318341427132e-02
-2.753897425297120380e-02
5.699322582009287708e-03
1.791495773047532131e-02
-2.166373253714233907e-02
-7.222424042382485920e-02
-4.996087209215126917e-02
4.555763568994768142e-02
1.113191402583618150e-01
8.839379265845020983e-02
2.124991148007293953e-02
-3.321789400206229259e-02
-4.179522423162680689e-02
-1.437478909341542190e-02
-7.986621039446348269e-03
-1.850976017470943799e-02
1.421402947939655673e-02
4.680072804168258771e-02
-1.368358940590634620e-02
-9.039632859372484508e-02
-2.096250750695715162e-02
1.363382799287742309e-01
1.588497594973502791e-01
1.749883848659821578e-02
-1.030490035508649788e-01
-8.731983428690398563e-02
1.298315824814265038e-02
5.529851566695446335e-02
-4.512921395648848699e-02
-1.608795082021439171e-01
-1.287106498394296472e-01
-2.935233581533669422e-02
3.368774389209589631e-03
2.135245722040638242e-02
6.365409974449375008e-02
6.425357123761832323e-02
2.770918790901110221e-02
1.319689809024418570e-02
4.503819337238825632e-02
1.152196246721301082e-01
1.428755814354448206e-01
5.201794698695606789e-02
-6.644086663016950112e-02
-7.597304725393885794e-02
-1.294734583150917301e-02
8.383751529718388995e-03
-1.836346142997529601e-02
-2.766326281028307771e-02
-2.005141628222602973e-02
-5.929041268259516856e-02
-1.086154113336042781e-01
-8.702826812597234951e-02
-7.085895880530067303e-02
-8.111643003829005494e-02
3.102001400009911369e-02
1.883681472807764989e-01
1.628319522430476951e-01
4.323545380400713872e-02
2.433344421496015653e-02
4.112423097007820300e-02
-6.369560612355674653e-03
-7.171533496425301635e-02
-1.141139325233713753e-01
-1.201631631374464326e-01
-5.828923915731092087e-02
2.521124720414099837e-02
3.903701809647491805e-02
1.484636103964128567e-02
4.750779220365113076e-02
1.223866950537726012e-01
1.635864289253597947e-01
1.172841026582246704e-01
-5.094954258011444997e-02
-2.468808302319580594e-01
-2.710046446111734619e-01
-1.076057397506440388e-01
5.299023273812555890e-02
1.076406532640614006e-01
1.070948694927027905e-01
9.684230284244485509e-02
8.325937570007627131e-02
8.577576025953451144e-02
1.125021950236688856e-01
1.439122307388823185e-01
1.475151549011808894e-01
7.061307059924377960e-02
-6.070437011580532422e-02
-1.047579773443114148e-01
-5.450659032384419511e-02
-7.018754125855319881e-02
-1.713636261772271963e-01
-2.416162000089521478e-01
-2.354566760446651918e-01
-1.594699296700344826e-01
-4.927467042096900229e-02
2.224796207091568612e-02
3.387624613585411143e-02
2.448083752020571019e-02
2.367519000897654394e-02
3.721367187294016832e-02
5.092875030616535181e-02
5.164512008496462137e-02
5.841510249407752542e-02
8.157284140938456107e-02
8.388463312954397288e-02
5.971278292575993990e-02
6.970042358464240140e-02
1.150346854235732991e-01
1.100252373034458497e-01
3.667425013613057061e-02
-3.148058838260301556e-02
-6.980053806496139268e-02
-1.109215433467935219e-01
-1.295990182957662551e-01
-7.285584515015483542e-02
-1.859949792216929187e-02
-8.485143926683198778e-02
-1.320727176493169119e-01
4.027739684522776975e-02
2.479251200219675100e-01
2.139284703885191707e-01
7.808220769418207363e-03
-1.725262156082287002e-01
-2.096883397402727889e-01
-1.048996002902834873e-01
-3.019303989837581956e-02
-2.223442333417752215e-02
1.014773831298257378e-01
2.612508949432393868e-01
1.998421367849643193e-01
2.464108192514706877e-02
-3.335661929786983698e-03
4.252082635704416969e-02
-2.264366255461303795e-02
-1.058480538590822889e-01
-7.164929434655212259e-02
-1.854316588906700092e-02
-7.810168195776311106e-03
2.168853420225643966e-02
2.768565413857353944e-03
-1.045861609010899085e-01
-1.459547630518702732e-01
-6.685227102162197288e-02
4.532550467434574328e-03
1.220851640292148349e-02
9.168668647694137516e-03
2.819275459075135104e-02
4.341964127123115053e-02
1.950359798613080647e-02
-1.410270184542405068e-02
-3.548210737719287126e-03
2.449309842199574871e-02
1.848692300793609855e-02
6.589340701630196605e-03
3.236726883171549274e-02
6.608340201147600013e-02
6.590218813685240484e-02
4.910397939608012602e-02
3.777861617417783285e-02
2.104988635897443727e-02
7.429515723049734052e-03
7.727209901303289455e-03
-1.016528507190665731e-02
-4.345339876260476131e-02
-4.093605924239553800e-02
-3.037299465876688864e-02
-6.192843975006848828e-02
-5.913121443599145266e-02
2.572522215542926566e-02
6.808109166217118924e-02
-1.071579659167711668e-02
-9.157688070192650243e-02
-3.784595934017513652e-02
9.235179101864973705e-02
1.178322489053804933e-01
3.904649464795725833e-03
-1.251539485820378772e-01
-1.919095720648125725e-01
-1.839382906417219576e-01
-1.110444421504520329e-01
-4.551791578591876143e-03
1.238338322619590426e-01
2.173597513789214397e-01
1.848051843819990270e-01
8.521766363743170369e-02
5.279648860903732310e-02
5.840175132403700037e-02
-1.605403129787084243e-02
-1.528487481979042828e-01
-2.082665974827181965e-01
-1.330137282698393153e-01
-4.715732218447929447e-02
4.496596377145251067e-03
1.038477170341037259e-01
1.689940971779694545e-01
8.809192987417621690e-02
1.029665795172678144e-02
5.585346595598839059e-03
-7.556711027634087363e-02
-1.447707941726736613e-01
-2.128988849702091735e-03
1.558801406854396499e-01
8.645331090875200963e-02
-3.641767620551882717e-02
-3.092212368399848560e-02
2.708885601321925352e-02
8.892887294298447431e-02
1.350848643083914780e-01
8.870851859220701963e-02
-1.680124468081627132e-02
-6.733144559485071401e-02
-6.421937649067951948e-02
-8.622985219324570683e-02
-1.152844611245885248e-01
-6.822700916937535220e-02
2.826014856427005659e-02
9.386878819589010436e-02
1.212162939674099049e-01
7.273032513318462844e-02
-8.503964835305377612e-02
-2.074736224118953476e-01
-1.459057280392893063e-01
2.341802455980613457e-02
1.208863343605799390e-01
5.750870835444583939e-02
-7.530088050860381244e-02
-9.442846185428456496e-02
-1.018753519961349691e-02
1.556144554640487981e-02
3.336302434483247314e-03
1.668514246964562797e-02
-4.307371545984780420e-02
-1.306963177781717278e-01
-7.928952229079454239e-02
2.797125451865066156e-02
3.857109677168343853e-02
4.250443974166018268e-03
1.180058106053671722e-02
5.353693553734725774e-02
9.543705085671999599e-02
1.241885027614899467e-01
1.276622364564591050e-01
8.607990801449341700e-02
1.792544376413599330e-02
-3.316528675236106449e-02
-6.187279349070363976e-02
-9.655869044284633163e-02
-1.494837108873116049e-01
-1.784980638249302198e-01
-1.381803931854354850e-01
-5.354495742825141763e-02
5.151124372909973020e-02
1.995204248747343978e-01
3.485788662862242537e-01
3.995935353961074243e-01
3.437752694087877203e-01
2.497055335094672535e-01
1.539633913336002635e-01
6.089574132952788044e-02
-4.194934689605566563e-02
-1.707356298597661748e-01
-2.879607688755726480e-01
-3.478555231309261031e-01
-3.785240375858268669e-01
-3.833246767170211955e-01
-2.821149658924725356e-01
-9.888962927127009639e-02
-5.159721809797200576e-03
-5.959828138198902669e-02
-1.210145502623050373e-01
-7.203570030317162087e-02
4.083610727237626387e-02
1.182496647834365699e-01
1.415395327564800965e-01
1.461301147814962342e-01
1.478180530454727692e-01
1.380116806178666999e-01
1.123640508799804150e-01
9.049186356763351535e-02
7.955155861003522511e-02
4.986549416461867612e-02
5.957354033434173607e-03
9.705069657086163454e-03
8.009875857013688816e-02
1.342709833142921028e-01
8.599827766438772336e-02
-3.372801869482412729e-02
-1.182004892691098097e-01
-1.154532998320419029e-01
-6.991416982764563082e-02
-4.147871855044844153e-02
-3.066397663532014276e-02
-2.237224693047667329e-02
-2.583462883692334150e-02
-3.323861939517202407e-02
-2.042055035568335342e-02
8.451243568199347592e-03
1.691879823896831267e-02
-1.503431083009116459e-02
-4.497840444866944842e-02
-1.537632822915899720e-02
5.616005466870113011e-02
9.509877739930973350e-02
7.615311889414032309e-02
4.370802189364701024e-02
2.546309736027963302e-02
4.102086885563602930e-03
-2.536696964324162626e-02
-4.132234080583113700e-02
-3.428838333121207033e-02
-1.861166016090408035e-02
-2.413780759644098411e-02
-7.236892730236256510e-02
-1.123291218002905739e-01
-4.316325153821724825e-02
1.109893544000961213e-01
1.655521117887788496e-01
3.648498522984053305e-02
-1.152533966780504432e-01
-1.202430431050225262e-01
-2.032461416683216393e-02
3.702309175801913460e-02
2.275866888468768695e-03
-4.798703374078142070e-02
-4.408118766364337027e-02
-1.102481560197404384e-02
3.349726541827393635e-03
1.577109237692415900e-02
6.001385833895518662e-02
9.555854126955430627e-02
5.195652661170561265e-02
-3.040789210083848573e-02
-2.506391608170112709e-02
7.576139678291478330e-02
1.224876389248063663e-01
2.848020249525123893e-02
-9.326373092153063260e-02
-9.009167373031201631e-02
1.781494457292951208e-02
8.924937771141076837e-02
5.830350120736292607e-02
-2.639729156585873468e-02
-8.473075507004010354e-02
-9.232679274911076428e-02
-1.122694120206059742e-01
-1.213370773297354904e-01
1.782286363726787864e-02
1.968279203284815926e-01
1.504495920580311008e-01
-3.395002147183440178e-02
-7.899116458975850852e-02
2.812793940050944963e-02
1.192839690171092620e-01
1.025104143338651241e-01
2.157855944392097353e-02
-4.108368742646612004e-02
-6.806235586876768773e-02
-5.605706374228300315e-02
-9.743203423115335063e-03
-1.857187172582257240e-02
-1.225529306722469985e-01
-2.046349543334779197e-01
-1.601586987340587742e-01
4.729292211805855364e-04
1.857747391147731020e-01
2.211899971751796201e-01
1.240700597147913198e-02
-1.905360018051365789e-01
-7.488387299269363973e-02
1.651592581357716472e-01
1.469434656315455334e-01
-2.829176276873199974e-02
-8.574866722226921756e-02
-6.073054913440696645e-02
-5.335734952466866104e-02
-3.676183873391575957e-02
7.027905789625121455e-03
6.041412973475897286e-02
9.131108510946778223e-02
7.910833216593377015e-02
8.033338901184558511e-02
1.347386573995323911e-01
1.604837271818329858e-01
8.717716622318474884e-02
-4.288689523684917349e-02
-1.563053268819261932e-01
-1.913621562933081055e-01
-1.176567552062447453e-01
1.892838848045525282e-03
6.086882332884098468e-02
2.931194258660162547e-02
-3.166227912086380658e-02
-5.237817047816389904e-02
-3.368487919179669055e-02
-2.493842798805396416e-02
-3.661136315022944787e-02
-3.059050247295755712e-02
6.850970304083891377e-03
2.973806304875829809e-02
9.271830115259479047e-03
-1.151678432192660383e-02
-6.179182954449808328e-03
8.921959208969794733e-03
4.487908288721649541e-02
7.622286730093014162e-02
2.715221790235271271e-02
-5.547738329172859778e-02
-5.055125980658807527e-02
1.303860888846803540e-02
4.078273252624035894e-02
3.691190293796255129e-02
9.552121860290989711e-03
-4.205928843138143081e-02
-3.644033343236394856e-02
3.389573940921215833e-02
2.258328263656212559e-02
-1.009897349440014719e-01
-1.716074100895978172e-01
-1.040726372194680782e-01
3.085641930317113354e-03
3.913698397672783075e-02
4.862169829688275935e-03
-2.415890864180484515e-02
-9.013242355477985024e-03
2.288678661660959596e-02
6.041244682547317058e-02
1.208527609501174882e-01
1.727578438503866998e-01
1.649539301774646527e-01
1.252634079340128048e-01
1.240535882196917017e-01
1.729883381091833483e-01
2.189460323549332343e-01
1.943894912127047681e-01
8.165542659596562725e-02
-5.737096706462836010e-02
-1.582777248627821043e-01
-2.305353751924860695e-01
-3.005470159637948502e-01
-3.327503864495180430e-01
-2.906377514200565448e-01
-2.213633801849989868e-01
-1.821393969111785027e-01
-1.474396797863475883e-01
-9.134491100037148148e-02
-5.563966729321399157e-02
-2.746004623198584210e-02
7.392721158702914019e-02
2.170553622101786262e-01
2.900937775346201786e-01
2.831743630982083149e-01
2.458841095539136545e-01
1.869991522076445700e-01
1.148333817168993159e-01
4.643550794243601898e-02
-1.669206783289514662e-02
-6.678079521537709506e-02
-1.044508264669466169e-01
-1.346856467094457166e-01
-1.329915006405801292e-01
-9.671972324013596023e-02
-4.342903955819205769e-02
3.952264401961887857e-02
9.708329858807086821e-02
2.307601871653897768e-02
-1.190278928328708380e-01
-1.515762221743887361e-01
-5.559843332130950250e-02
3.774818293605816666e-02
5.019292104345413064e-02
1.943620898559040439e-02
9.958903656806107618e-03
1.555274972144744111e-02
-9.270408329730942150e-04
4.808556044199037080e-03
7.959647288623716843e-02
1.346256867410618729e-01
9.374319583189540117e-02
4.148577397321496357e-02
5.348901055179482167e-02
8.681623397720995838e-02
7.972133662057431791e-02
2.468499603597700334e-03
-1.133727237019340472e-01
-1.755275592666900586e-01
-1.400097512811468992e-01
-5.739216663940883978e-02
-5.593594802377418324e-03
-1.549579984246666868e-02
-4.518116236328836161e-02
-3.279409338188676165e-02
2.748027387095261856e-02
6.256585731974816100e-02
1.793248646135157942e-02
-2.749083838338741564e-02
1.249690079316450285e-02
6.406519776217212137e-02
3.174910420840539732e-02
-2.855758100374257771e-02
-2.336057857972732160e-02
1.713339896593128048e-02
1.834700444374594286e-02
-7.046231543391575682e-03
-2.206971849675071901e-02
-4.043817965776452805e-02
-5.893180008654326507e-02
-4.084885326658276028e-02
-1.511367561103224913e-02
-4.422465651802950926e-02
-4.818361152081934023e-02
8.997943632735561081e-02
2.415606793972819577e-01
2.054827919762672872e-01
2.446968061104425746e-02
-1.246740772656931284e-01
-1.171089735080918515e-01
2.653364576429639507e-02
1.063763592338309028e-01
2.726981368267357431e-03
-1.308558239232683607e-01
-1.295277348484798197e-01
-5.118645748880956692e-02
-7.614616255190693496e-03
1.265392214256491100e-02
3.228447197618725811e-02
1.693685715904378469e-02
-9.812173347369267454e-03
-3.527676201648333870e-03
2.282380672630107080e-03
2.179617926330527922e-02
1.183662862524447051e-01
1.582275974915119676e-01
-1.068187350928946969e-02
-1.528939926783735859e-01
-3.506593915617050444e-02
8.363660889665476550e-02
-1.804714823824906528e-02
-1.130407197392879898e-01
-5.211838446719513351e-02
5.308964622252873578e-03
-1.004758829326666582e-02
-2.552497840341045460e-02
-5.282306479964835044e-02
-9.745036011360873329e-02
-7.115343683998053004e-02
3.114303860182101105e-02
1.053379239272504986e-01
1.219048386469246958e-01
1.191693615378686816e-01
8.244986153858815947e-02
2.105204066553397618e-02
3.452352216627492532e-03
1.444834374815089084e-02
-6.217322327531143653e-03
-2.036622064709851798e-02
1.580972879373455584e-02
4.152978153565418246e-02
5.213967196887089005e-03
-3.259231402579723658e-02
7.782917879010026532e-03
6.537215544294230907e-02
-4.607022761767814306e-03
-1.613783660325223690e-01
-2.053589932814809393e-01
-9.515647795701104306e-02
3.825306741839620828e-02
9.048145787517325456e-02
3.993096343778593238e-02
-5.131494932184983704e-02
-8.625398368801349969e-02
-4.885911446620699178e-02
-1.162297290067911167e-02
-2.908708350466351900e-02
-7.181178142570922296e-02
-5.913359285975585550e-02
2.857124015841446332e-02
1.051580038456079863e-01
1.255158274420850595e-01
1.363549382257316367e-01
1.140154216905464729e-01
6.563426735420674688e-03
-1.044085680045333669e-01
-1.197213686432306301e-01
-4.981763725670206033e-02
5.034008812019625384e-02
1.114272122252436270e-01
8.727392799650568467e-02
2.877542879807323817e-02
-1.221649591406747531e-02
-4.830842409370077195e-02
-4.531516214838641338e-02
-1.104288044152258383e-02
-5.038920625053316948e-02
-8.796434050665251358e-02
4.783951284999215375e-02
2.813636088128521062e-01
4.251361758769441890e-01
3.764162905487673516e-01
1.454593017837670366e-01
-6.172615370086699527e-02
-7.644894809119556767e-02
-3.695435633448131835e-02
-1.328218019828157348e-01
-3.164269067210690456e-01
-3.906488563833515060e-01
-3.064904475497843284e-01
-2.674303757217644240e-01
-3.333078004012752227e-01
-2.724002139917383603e-01
-4.349474987518253677e-02
1.260502712187981655e-01
1.201993973739841626e-01
1.462001806019727623e-03
-4.026125596150478131e-02
1.428212041153883449e-01
3.383856182044129302e-01
2.744467169164989673e-01
1.079094988072480388e-01
7.153479221083715311e-02
8.393465473142891486e-02
5.526337214363064715e-02
4.909565218024153355e-02
5.961463593084791179e-02
2.443445520421407002e-02
-3.389021969608583401e-02
-7.044127859233306754e-02
-6.623813162602545934e-02
-5.707046177144729782e-03
6.454273158167524171e-02
5.617538213690441429e-02
-1.988591229957501275e-02
-7.141597834566409952e-02
-6.803294403797220669e-02
-3.119019089566506947e-02
1.232586085889476532e-02
-1.040005161766635773e-03
-7.796800106660485563e-02
-1.136366575976002213e-01
-6.780113586902455913e-02
-2.044061204771570328e-02
-1.180317514632846752e-02
8.111483403009859053e-03
6.836305479330113954e-02
1.118925870562436364e-01
8.691186574454665137e-02
4.219899544516573370e-02
4.088137468689269360e-02
5.666934150268134601e-02
4.932973194880296147e-02
3.179183798816722500e-02
-2.344171096768853275e-03
-7.808214527608024758e-02
-1.396581331473539522e-01
-1.034137564608188231e-01
-1.185699141663013219e-02
8.246254810634930446e-03
-5.328335853041769876e-02
-6.134980617101125355e-02
4.275372126161917918e-02
1.236128433630306056e-01
6.200584773796585791e-02
-7.165112227698540448e-02
-1.363844117412734980e-01
-7.572055976797541221e-02
2.388724952922815711e-02
3.500071255065587139e-02
-3.454943044134201752e-03
1.459407685205728507e-02
4.616416217460005827e-02
4.050000601845372278e-02
4.234742005930899195e-02
3.729352165232915212e-02
-1.349795003610558541e-02
-4.947422946699009394e-02
-2.206970951181876778e-02
2.908030538925534744e-02
6.748779858913293850e-02
8.100315258028584209e-02
5.857145316369303384e-02
-1.454587632957429419e-02
-1.398862318203409894e-01
-1.817240746929485451e-01
-1.534041642494470697e-03
1.867209308312365035e-01
1.256024920438628956e-01
-6.233430708643242918e-03
-3.255887972317132034e-03
4.710801959517394930e-03
-6.379878810358881325e-02
-8.534168740545591825e-02
-2.273208554131534581e-02
2.172184473635682678e-02
1.048424700207697610e-02
1.115400190784744672e-02
4.346889848107272913e-02
4.794305896547537693e-02
1.632768929808901467e-02
-5.195257231142153161e-03
-3.086657105232577455e-02
-9.349230895798846253e-02
-1.368038186538400036e-01
-9.604191154464220004e-02
-1.570311569946285235e-02
1.898611974232064514e-02
6.300267707705548698e-03
7.791301524796461972e-03
4.806530350821001940e-02
1.273589772875451664e-01
2.403526686173606541e-01
2.600616267788714575e-01
5.339451685675523918e-02
-2.013245678018074636e-01
-2.280809065423891335e-01
-1.031424782144828023e-01
-4.612875904658528953e-02
-7.470440249506983543e-02
-1.260943298817349956e-01
-1.153035124416403184e-01
2.153113313074705298e-02
1.272404414327208688e-01
8.459191158723104731e-02
7.225308361786556000e-02
1.461808588844178691e-01
1.278536750109550701e-01
3.030416995643453806e-02
-3.002980277273603962e-03
2.423744960219631484e-04
-3.104852655829724167e-02
-6.557647324524243371e-02
-6.025395999943687630e-02
-5.730862151138388025e-03
7.066003053255695554e-02
8.542445430873464585e-02
1.313257840737488275e-03
-7.605387085597560548e-02
-6.470508089947499264e-02
-5.486613041053043510e-02
-1.184459735754322396e-01
-1.768889324958418108e-01
-1.764577627043167340e-01
-1.392934598105879385e-01
-3.043744325214094854e-02
1.649469092868796061e-01
3.148361364859454947e-01
2.927403489693564120e-01
1.388354992592512327e-01
-1.428815304993883047e-02
-8.228378435096740662e-02
-8.239355128403516582e-02
-6.845359176880125296e-02
-5.481645189905426374e-02
-4.995233462717020567e-02
-6.847228874265898213e-02
-8.082144408261181245e-02
-6.347517296167765055e-02
-2.689600476224644418e-02
6.242291584565765744e-02
1.962719364237954789e-01
2.191744632772399670e-01
5.722614371961749768e-02
-1.054505549364218586e-01
-8.497818038264218221e-02
6.385771709480943248e-02
1.763216901195108210e-01
1.774085623892903973e-01
1.201171336664384748e-01
1.008709913501619759e-01
1.147732540268544960e-01
2.644188692607734800e-02
-1.946163299423820381e-01
-3.426514745897654146e-01
-3.077917468278092983e-01
-2.411018359596779348e-01
-1.900226386249855293e-01
-5.551278630124068664e-02
7.829406443155034756e-02
6.379609725049947833e-02
-3.627780812039618080e-02
-9.021804473275248093e-02
-7.735968182072856802e-02
-1.662583501821873755e-02
8.200954884779540488e-02
1.630202228356606997e-01
1.763680311067423179e-01
1.528406295574187834e-01
1.175683129160355472e-01
4.936202343177077678e-02
-2.555264170808566049e-02
-5.605869511933707361e-02
-3.956198736586770404e-02
7.575115537988296593e-03
5.477359248934389468e-02
6.220586637681792957e-02
3.533103226797412733e-02
4.755277565925870864e-03
-1.922224413560882222e-02
-3.536214762928692468e-02
-4.286755202999582848e-02
-4.706343518887887156e-02
-5.330578967053239969e-02
-4.745805443923892947e-02
-1.013957231791717643e-02
2.952433395680570047e-02
2.098551376501531229e-02
-1.480777653823111932e-02
5.452629044028784594e-03
1.036947369904967775e-01
1.594142519878252173e-01
5.017128977001188150e-02
-1.196809807214860577e-01
-1.414894939372327576e-01
-4.093518656383059173e-02
-8.233858464432718127e-03
-5.655112829333526492e-02
-4.994583697250672832e-02
1.315794645901111753e-02
2.598581286253524164e-02
-8.365632415602685529e-03
-2.357376539713152558e-02
-1.545633683761852770e-02
1.535494153476540599e-02
5.418958445269389523e-02
3.364366945673038373e-02
-2.030881649831513258e-02
3.973110044213171502e-03
5.520117169064171769e-02
-8.009913067333227985e-03
-1.029906295213088296e-01
-7.986948086087994336e-02
-3.030145432163213262e-02
-1.025572407244945000e-02
1.054865102584512798e-01
2.038127547597093081e-01
8.196021523621960236e-02
-7.976657986458884908e-02
-7.629450368778382952e-02
-2.240740633487597888e-02
-1.293484750278749498e-02
1.474429532273843248e-03
8.630781869311001352e-04
-5.384863357012470431e-02
-4.652642074102699560e-02
1.074479946475295489e-01
2.165820151167710539e-01
1.310957433890060087e-01
1.637035190916046393e-02
4.188909671025448089e-03
2.725046644748654531e-02
1.209072569454340898e-02
-7.696595658493436687e-02
-1.648059523539207594e-01
-1.273649072092395973e-01
-5.772563369910599373e-02
-8.070880749355624495e-02
-6.666725733715546387e-02
6.190695589161901435e-02
1.095627978696154109e-01
-2.142557758915424049e-02
-1.402733691963417573e-01
-1.000060088706790501e-01
1.612621591354070766e-02
6.699164681529526377e-02
1.485272944157334934e-02
-3.526959844446886372e-02
7.999440763220498976e-03
3.534342782691059920e-02
-1.232154327311021751e-02
3.499571249431392139e-02
1.197953139719091648e-01
-2.574029578987386754e-02
-1.991147575466218622e-01
-3.681086866975735727e-02
2.291875381403509493e-01
2.544405592572545616e-01
1.413060687562603668e-01
2.284348363048517225e-02
-1.098046555992441969e-01
-1.516863754570844103e-01
-2.933013719561191474e-02
9.984249654181287514e-02
7.999377607164920301e-02
-2.936255934754173832e-02
-1.035869463010688218e-01
-1.224794776006740277e-01
-1.172566203039519389e-01
-9.096324258015689446e-02
-5.383352459810379631e-02
-4.485437918603644297e-02
-4.043709467383964362e-02
4.244137397359978164e-02
1.743307806355697542e-01
2.145357636218102049e-01
1.272959104730038149e-01
1.736777377787982607e-02
-4.599018461311160655e-02
-7.552007060505394609e-02
-7.821536020016169044e-02
-7.137856646975496155e-02
-8.313781922402521674e-02
-4.414194937325936069e-02
8.920583745763617511e-02
1.540414913325907353e-01
5.239768115278900518e-02
-4.178709868468323541e-02
8.299286563863292332e-03
1.149792249211037953e-01
1.323013174177302687e-01
1.795800250920700364e-02
-1.002924966722671257e-01
-8.179119589658434553e-02
-3.435607422581571369e-02
-1.203896045600455073e-01
-2.070359424811463178e-01
-1.436316742262831458e-01
-5.971185150827823529e-02
-4.419079286429587056e-02
-1.986443410943403848e-02
2.040764596337144715e-02
5.603043916481269954e-02
1.058146114233499274e-01
1.406114775378087822e-01
1.381436467156863523e-01
1.001371982441246339e-01
7.645834463171703038e-03
-8.548151935253867073e-02
-9.485084197834367514e-02
-6.461389893408867047e-02
-6.821683841046323471e-02
-6.863381795722479917e-02
-1.971124112260663058e-02
5.108988841916292656e-02
1.172234225981226841e-01
1.802836540923413444e-01
2.190163212714325014e-01
2.059693047108927533e-01
1.489747563452125112e-01
7.761737368299109763e-02
2.368441326343578152e-02
-8.714139135745709031e-03
-3.941166117640018673e-02
-5.323075691707737644e-02
-4.274310429859459748e-02
-6.329266884942856553e-02
-1.264953603647814839e-01
-1.771101127511742757e-01
-2.162532177104618814e-01
-2.547627799946057814e-01
-2.329700206391300821e-01
-1.579340575933146640e-01
-1.189820528736866417e-01
-1.053046110760691850e-01
-3.866869245541429412e-02
8.086060242648392127e-02
1.993985189787234047e-01
2.580667209782948057e-01
2.201385897220015653e-01
1.171665877297161373e-01
2.177211613981929958e-02
4.154722696861583645e-03
7.322596474060086291e-02
1.077379751384944934e-01
1.830827069304583748e-02
-7.198460653171909196e-02
-5.165349252783045519e-02
-2.054335487455058104e-02
-5.444628028502716127e-02
-6.859055576416014932e-02
-1.251474601089626326e-02
5.521217297835857851e-02
7.081702342376536286e-02
4.727381619377787197e-02
6.098911792402416515e-02
9.912905702353279336e-02
4.417074368626255215e-02
-9.160351936471838874e-02
-1.555313116220865544e-01
-1.012910466165153622e-01
-1.839924876488027369e-02
1.945564380809133853e-02
1.783709459137491904e-02
1.688045528875319057e-02
8.436400681058241202e-03
-2.525567719337981284e-02
-3.536306884677961615e-02
-6.680797261645460110e-03
6.983068010651858129e-03
5.060597651031993952e-03
1.675615122399117668e-02
2.118789719627890353e-02
9.543851875302836185e-03
1.788193585650900419e-02
5.591901878582528074e-02
7.422436577743789232e-02
3.124510420249689002e-02
-3.724208057006909989e-02
-6.858065861818848918e-02
-5.977982751385783888e-02
-4.231476121618842068e-02
-2.899611506975227973e-02
-2.636150990114312365e-02
-3.463842190441394214e-02
-2.113586514526677798e-02
5.393148738273391418e-02
1.572057262930456334e-01
1.683196566641259884e-01
3.323352013711361463e-02
-1.113106838171245283e-01
-1.177273933547565293e-01
-4.950207687107992249e-02
-2.887944410363412623e-02
-2.475590052499850036e-02
1.364737502374246611e-02
3.259413462491348584e-02
4.240607708326510697e-03
-3.008626765003945269e-02
-4.792400350959636485e-02
-4.128741597545868697e-02
-1.287101129675225462e-02
6.664629014231176173e-03
3.194372010102752846e-02
1.095800900188394211e-01
1.809152285908798286e-01
1.305963700718500431e-01
-1.814943696734875114e-02
-1.210257160034194784e-01
-9.969561680298960615e-02
-2.131827796869638358e-02
-8.561776023714343098e-03
-7.066515727485439546e-02
-9.966898622366027194e-02
-6.426843342285687433e-02
-3.337893267325765800e-02
-2.630141533633966605e-02
-1.335107852467052464e-02
8.837356295964415506e-03
2.988187068228447679e-02
4.438993732152352045e-02
6.526876877026836776e-02
1.137760450276158741e-01
1.382561117255608762e-01
6.442701742015097266e-02
-3.636491405028841745e-02
-4.325267611822007641e-02
4.216333310213763591e-03
1.567458938203394186e-02
2.140082799463736279e-02
4.785780060309209605e-02
1.993404298076020473e-02
-6.500872667555417095e-02
-9.571903225354960743e-02
-4.294628569607797375e-02
3.964959271000791097e-02
1.188805096689114216e-01
1.138299474916076998e-01
-3.765849555127806503e-02
-1.879406509316666474e-01
-1.534171320426992169e-01
-1.951698142378881923e-02
1.757473438414447475e-02
-2.902846119973578193e-02
-3.583835907199166282e-02
-4.097628126729575479e-03
1.221635447198144396e-02
1.569182304724348748e-02
6.869260766852989392e-03
-1.282157384998825964e-02
-2.604613701911372842e-02
-4.001412409316132401e-02
-2.717992153932558691e-02
4.637146735174022677e-02
9.223722250745271245e-02
4.054815515356536421e-02
-3.735144327330648661e-02
-1.036619462143238413e-01
-1.202235732482126590e-01
1.312088325635476886e-02
1.760655913155954044e-01
1.490865357785831624e-01
1.526126504828113212e-02
-5.184573732952435510e-02
-6.259129778894670371e-02
-4.776773667488217606e-02
-7.043488856580324559e-03
1.218745749767255644e-02
-1.382864169853291296e-03
1.207271586800167870e-02
6.427417275053912138e-02
1.003101433911640916e-01
1.056640907684597008e-01
1.144713825772442212e-01
1.220848756356331666e-01
8.460231927272857111e-02
4.052683282517388630e-02
8.990813224862023723e-02
1.577639419304662227e-01
7.896119108150606580e-02
-5.167417259333099977e-02
-6.832010991274578560e-02
-7.182383445766712948e-02
-1.550072949877892292e-01
-1.954523667649246399e-01
-1.440755913190149562e-01
-1.340000310445975396e-01
-2.384775957306111138e-01
-3.428340790879219613e-01
-3.055177062162987012e-01
-1.500602038193404597e-01
-1.189980083047125631e-02
5.193151660030324857e-02
8.500435588890822847e-02
1.045046972341193842e-01
9.198494466237749911e-02
8.872922384053202882e-02
1.502383077899629993e-01
2.177623111737531925e-01
1.947874976903988808e-01
1.199480896479589165e-01
9.325725430773815217e-02
1.039726059957113979e-01
8.410744076114068379e-02
3.580690085877680229e-02
-4.103960941562262432e-03
-4.127494948512406420e-02
-7.341642034397341532e-02
-5.165729303624227997e-02
3.634790787416710550e-03
-1.347940456928941461e-03
-5.296506052257397151e-02
-6.927271593361185309e-02
-7.579280247812121563e-02
-1.119950841256435042e-01
-1.228199508844416143e-01
-8.903492366608509179e-02
-5.455715795709285831e-02
-1.228483542975244286e-02
5.213914263285360923e-02
1.064781040345532948e-01
1.418255067116025447e-01
1.567013489002854199e-01
1.215899380923178424e-01
4.980674101438650747e-02
2.727780024580505128e-03
1.071430238124827100e-03
-7.832354848225451388e-04
-3.078259033568035360e-02
-4.517217106583985842e-02
-3.646123132433945480e-02
-6.764567113054376080e-02
-1.043396898333130984e-01
-4.302696267870982638e-02
7.014228898017507707e-02
8.596311349491467246e-02
-3.402997533415791365e-02
-1.644196227865464821e-01
-1.601509582805242526e-01
-6.050947943336616730e-02
-2.105736195499498600e-02
-4.212933661691779796e-02
-2.612752831566219486e-02
1.374456695326350952e-02
6.897971593898440112e-02
1.763590607640503349e-01
2.319714064260135211e-01
1.484211486633999211e-01
3.771657762656081131e-02
-1.450445076814938297e-02
-1.563737171319308852e-02
1.163470659770769050e-02
-1.531406919389651303e-02
-9.501660760692233476e-02
-1.245716833889220360e-01
-1.153335471141811036e-01
-1.005637190601280095e-01
-3.366758595511441798e-02
4.467082128537590291e-02
4.403550133261770194e-02
1.462697148852346724e-02
4.857018854779347056e-02
9.309222934500213653e-02
6.587512785705801344e-02
1.469922698459610877e-02
2.223718245582051618e-03
-8.484700095930702152e-03
-5.478702645347707095e-02
-8.174809351655880352e-02
-2.719330287502464555e-02
5.752859348686322621e-02
7.680931840591709303e-02
2.592814926533639971e-02
-4.132868683854952485e-02
-7.390837502948405247e-02
-3.384722261924210523e-02
3.980050693469286416e-02
5.173994684448418591e-02
-1.262450254536843022e-03
-2.187611435297076926e-02
1.381767372557308332e-02
2.299069225485668444e-02
7.635536898330533284e-03
5.688013788657643455e-02
1.140512632194402715e-01
3.685787736722850871e-02
-1.265887321935136312e-01
-1.863469825057180729e-01
-8.236396903334483599e-02
2.985983397942282291e-02
-1.968596719524383365e-02
-1.641124124042708798e-01
-1.911129479848200363e-01
-6.812331587596484606e-02
4.870445900810001921e-02
9.279598610285419436e-02
1.323568981282173818e-01
1.778341582555384437e-01
1.592438329860729473e-01
7.824227868527486307e-02
2.890399089500932800e-02
5.314617562531833567e-02
7.612691745186218883e-02
2.992935798323309582e-02
-3.395747312016744734e-02
-3.220532461266069346e-02
6.804249350533055768e-03
2.283110561058582927e-03
-3.022950865820699107e-02
-3.334790198060982175e-02
-3.054274207756322440e-02
-7.036295988309630711e-02
-1.387373180118118832e-01
-1.779359614277570001e-01
-1.441886796755513234e-01
-6.242790941245744685e-02
3.038136075277458187e-03
5.617638267758497117e-02
1.371303987430740057e-01
1.942984676270370636e-01
1.563389079114418379e-01
7.627599197211436255e-02
4.236744582009167176e-02
2.636612207777806749e-02
-4.532450235132463173e-02
-1.253488161789720334e-01
-1.101335198203058363e-01
-4.196717455767030869e-02
-2.397278737853106301e-02
-2.511087698580814764e-02
-7.482256031111148009e-04
2.069443695643060840e-02
7.591397975781462304e-02
1.521931810160398468e-01
8.215077518807764601e-02
-1.079761140489819415e-01
-1.528252081648023286e-01
-5.832391339659610818e-02
-7.585268806055764368e-02
-1.696216584829627061e-01
-1.427483381493137027e-01
-4.776054047923047885e-02
1.677623145319509859e-02
7.817445438955972215e-02
1.063667256281831536e-01
8.879386056911325875e-02
1.077944260628522638e-01
1.403408110257626240e-01
1.058714591833773144e-01
5.292013957291374915e-02
2.916165528220297093e-02
-2.140297248322349175e-02
-1.107884199772344869e-01
-1.605636353637210356e-01
-1.001114023378081308e-01
5.753110406823832429e-02
1.982577109195305942e-01
2.358540959042469964e-01
2.249943657937207020e-01
2.180585629995275276e-01
1.674360440906983161e-01
6.855620632481486398e-02
-2.643822730883260697e-02
-1.358644119691404528e-01
-2.765551610466206456e-01
-3.710829120871666498e-01
-3.624214306795058294e-01
-2.843512579628838521e-01
-1.875396060391016917e-01
-9.747746164720400008e-02
-1.564932710671324001e-02
6.919258396220093199e-02
1.298483136221487699e-01
1.191365332924252396e-01
7.868314459134737038e-02
9.059988709036224941e-02
1.257025299174523714e-01
1.138474219023926787e-01
7.438257368824913174e-02
5.594623090493076878e-02
8.021004240190719725e-02
1.350611023303669722e-01
1.333384856914443528e-01
-8.254139564657539223e-04
-1.773500921201919822e-01
-2.209018479871530383e-01
-1.155672973016834415e-01
-1.821011477240929571e-02
-1.446315241509994395e-02
-4.170800783541274426e-02
-4.703573145011488016e-02
-3.884781647366596091e-02
-2.805040555597459323e-02
-1.269774556678840947e-02
2.587576766522951127e-02
7.984332098571955694e-02
8.514378619105157642e-02
3.211104228508604441e-02
2.068549414357026897e-02
9.901788645114469045e-02
1.481130445905951276e-01
5.781628821663348239e-02
-7.744571285874918276e-02
-9.848470726538445519e-02
-2.151405406441764950e-02
1.802821434101802706e-02
-1.520710096291968266e-02
-3.923701238285970394e-02
-1.787455771279579733e-02
-2.908897223822589501e-03
-2.145911879436547889e-02
-3.727896131480722131e-02
-2.890514342263617725e-02
-1.790643125630191415e-02
-1.737466019889848459e-02
-1.010556928023958329e-02
1.213035755938988471e-02
2.760543091998885618e-02
4.575960469968555488e-02
9.569132134136570933e-02
1.174320795840079618e-01
5.256082513666227723e-02
-2.370047505871168345e-02
-4.391532446192360911e-02
-3.828724212495618340e-02
-2.209239233134303176e-02
6.497517378418020406e-03
-2.245262612233409841e-03
-4.941493158043485517e-02
-1.404377993588289651e-02
1.046168961667389985e-01
9.317134174853536344e-02
-7.894198124664239535e-02
-1.823636432266385610e-01
-1.364463911798167728e-01
-4.300804633233475810e-02
2.940469776857650847e-02
5.157254335416429358e-02
3.263009453501768825e-02
1.191501831266493852e-02
-3.423218591725429513e-03
-1.615283310214981824e-02
-2.169872016358230168e-02
-2.614136769867456828e-02
-2.233548142277788640e-02
-6.978911107913374386e-05
4.527662597809717360e-02
1.293231825261162704e-01
1.782387771601551263e-01
6.086340680574431339e-02
-1.309475089259158065e-01
-1.706328700965470124e-01
-6.920953420808387269e-02
1.719689692721222685e-02
4.803671202724549977e-02
3.605622378851303100e-02
-7.710693190896688448e-04
2.629954493933485578e-03
4.289827599477669118e-02
-1.183969309502952080e-02
-1.929818803238637082e-01
-2.605025925163442224e-01
-5.659352397034114052e-02
1.435729378177942606e-01
1.068403602605016850e-01
4.860245325952848583e-02
1.435582448030803537e-01
2.647355011966016081e-01
2.360086747949208252e-01
-1.693611551858309125e-02
-2.345067745074941590e-01
-9.855009583816941310e-02
1.259239668623106934e-01
7.592738540467747210e-02
-7.846647053678718065e-02
-1.289548769810834883e-01
-1.176061443156877911e-01
-7.216597732904210527e-02
2.376679013576491958e-03
9.191039877910711642e-02
1.748403936240854328e-01
1.678343848451676890e-01
4.544553765375423937e-02
-7.725817548372250487e-02
-1.043009980018693439e-01
-8.205850528253383347e-02
-8.880823121903631823e-02
-1.069828766586010393e-01
-1.007262463402595620e-01
-8.829935362321834902e-02
-6.930512015049782037e-02
-2.042943026866701414e-02
4.128418139951516019e-02
7.604981205735399097e-02
7.361007559204157946e-02
6.697762542631846561e-02
8.996181170698527851e-02
1.223081529986516924e-01
1.155631225163352704e-01
4.774467088704421880e-02
-7.292598436688620123e-02
-1.816324007214020209e-01
-1.754894526155353351e-01
-5.895740589672762016e-02
3.803998896424124615e-02
5.087791551459415473e-02
3.087928565230090711e-02
-6.576551585535500219e-03
-8.335930311471968779e-02
-1.493258277641675014e-01
-1.655982296430104084e-01
-1.743776127720659264e-01
-1.672147116770171527e-01
-5.657185852718202290e-02
1.670057579498595013e-01
3.624293910503694205e-01
3.819071919058080744e-01
2.703476735524806274e-01
1.855046321919844032e-01
1.296804276923022303e-01
3.365620526554894548e-02
1.201160105665207561e-02
1.448664843122975110e-01
2.351837058481727749e-01
1.342367592769885265e-01
-4.771816823647604539e-02
-1.813118699981933757e-01
-2.050817346462039392e-01
-1.030292939150722897e-01
-1.879779651228629181e-02
-1.234892251263977198e-01
-3.268695605145000571e-01
-4.147280178457182775e-01
-3.564296835318282453e-01
-2.382072626290705208e-01
-1.065413956167298587e-01
5.485915498273340185e-03
5.413910660915299128e-02
2.741657125086868069e-02
7.126862939293876487e-03
7.981474062129394198e-02
1.726748638100265298e-01
1.873228289800994983e-01
1.541252467983250385e-01
1.198335401914574216e-01
1.210399419417727829e-01
1.828737936846572543e-01
2.115251288241539462e-01
1.189704532424893657e-01
-7.151913248840045118e-03
-6.320597662990552756e-02
-7.256709658280989517e-02
-7.711252776313196056e-02
-7.423453067075430623e-02
-6.038867494531134639e-02
-4.424611126806039102e-02
-4.356086695558276239e-02
-6.869878297723908123e-02
-9.954823639658483270e-02
-9.653040543120133821e-02
-5.211044514819683504e-02
-3.817950311125852588e-03
3.961303390404460889e-02
8.563180106437318084e-02
1.001884713017563433e-01
9.321364370460209769e-02
1.075115461354032020e-01
1.028909200159756482e-01
4.525021883986549143e-02
-1.470608850800747547e-02
-4.338630834878202946e-02
-4.735070271820084054e-02
-3.508562017134663619e-02
-2.890469055279771410e-02
-3.663216132370202688e-02
-4.320623157669917919e-02
-4.110045239843074932e-02
-9.372470342585949993e-03
4.789772146099774419e-02
3.940726986235586204e-02
-7.588457585716811005e-02
-1.599262648446924395e-01
-1.058707921442626904e-01
-2.724966144470429216e-02
-2.544462763935820271e-02
-4.003193306612608249e-02
-4.297207445431062284e-02
-7.897308378952271057e-03
1.308235187959706780e-01
2.176400776706365892e-01
9.906249272073938683e-02
-5.578781105708335852e-03
5.587395518799988248e-02
7.543873657598933191e-02
-2.534358403046192004e-02
-4.308154087637347529e-02
7.147533242830934885e-02
1.206980210192072772e-01
2.239087225309072463e-02
-8.101168339382269767e-02
-7.890250370015677861e-02
-2.072441486398477611e-02
-5.196375910526398675e-03
-4.149611085718950959e-02
-4.551994880310442082e-02
-2.754706955236299604e-02
-8.612870748661100029e-02
-1.366323339574975204e-01
-4.848970579444022988e-02
5.390752298358388039e-02
4.459184438025963482e-02
1.533242238922701006e-02
7.908414334730780315e-03
-5.485067652438270491e-02
-8.475723356303810352e-02
7.285713600756420216e-02
2.446697605843417556e-01
1.770128871955131966e-01
1.185685546522882369e-02
-2.577537560526156277e-02
-9.846253488336200593e-03
-3.445673465078238906e-02
-4.005557146618290987e-02
-3.441580993683374112e-02
-8.596759244720482418e-02
-1.190218811048329023e-01
-2.524983304420508334e-02
1.112749065826782457e-01
1.426973716142520276e-01
7.693839810510041954e-02
2.043438255644280943e-02
1.735302968234717080e-02
-1.293708703171536807e-03
-1.067041328549141604e-01
-2.295957925615888517e-01
-2.535771156266041770e-01
-1.800228276781232761e-01
-7.354586912209253036e-02
1.879196660726852042e-02
7.514129748745082549e-02
1.211526198519008723e-01
1.699113582338060424e-01
1.921073989768909973e-01
2.034883056785963540e-01
2.186456068066013336e-01
1.616440393273718967e-01
-5.370225225524399675e-03
-1.684271814588800820e-01
-1.978661567648758446e-01
-1.114734113601588694e-01
-2.270239024349227086e-02
1.565752928742358135e-02
3.497778702738030959e-02
5.186204158196550118e-02
3.894243278661577157e-02
-1.328747969160931630e-02
-8.155270205708800568e-02
-1.451507056830928510e-01
-1.813976909776077451e-01
-1.511431781484512404e-01
-3.989037962645974877e-02
9.838911897929117356e-02
1.868789388059497736e-01
1.993911169226740554e-01
1.456278305554825903e-01
4.949463399724670504e-02
-3.191220006786731067e-02
-6.166516149000599717e-02
-6.441259019840041289e-02
-5.135322621078788896e-02
-1.241815270899382199e-02
4.515402765013581954e-03
-4.018934769328778162e-02
-8.035442857183748566e-02
-5.391538671412216682e-02
1.740076467156452533e-02
1.134796945846991423e-01
1.752330556768627035e-01
7.123301640460898143e-02
-1.564655389581212641e-01
-2.460835792961853508e-01
-1.177167685137584519e-01
3.883773446420381650e-03
-2.180914830226732964e-02
-8.985175137712550497e-02
-8.805985691776424540e-02
-1.459614866768515692e-02
9.086318522407153819e-02
1.726368303290081729e-01
1.845029737729312891e-01
1.299962801063065665e-01
3.233191541148803388e-02
-5.830701374901363365e-02
-5.755477439152677233e-02
2.340569297641045474e-02
7.403041949809370526e-02
7.316826668378285936e-02
1.018565231566221085e-01
1.765949730972666554e-01
2.068073406337075926e-01
1.446959045246825060e-01
7.339834977818443518e-02
5.190008502413723246e-02
2.248761774842814726e-02
-6.998295789522351873e-02
-2.370021420650965382e-01
-4.313899665325033883e-01
-5.096005052557233128e-01
-4.069430575904359748e-01
-2.374572543358886290e-01
-9.297027328900595022e-02
2.248526538762733035e-02
9.311007740342748529e-02
1.322520297392335564e-01
1.914867988570457813e-01
2.646583264994926687e-01
2.909837417282102878e-01
2.285399644891025484e-01
1.192958602894111236e-01
5.401872369061512524e-02
2.672232747970164010e-02
-2.739369520006342679e-02
-8.343985460380329289e-02
-8.988734589090578708e-02
-3.732714479129395357e-02
5.648439406140640801e-02
8.796196914637804953e-02
-3.031394369985645348e-02
-1.722743873806023285e-01
-1.586773668852782815e-01
-4.607213773978903470e-02
-9.844086731273507182e-03
-5.767993691064195877e-02
-8.662664901964611808e-02
-7.497134852443936015e-02
-4.194737598812417478e-02
9.002993888069492009e-03
4.951257668865732819e-02
6.682074420031847151e-02
7.449719366501059148e-02
6.085560067621633568e-02
4.900901790991822604e-02
9.129053621764542104e-02
1.396004099649543195e-01
1.092143957216243771e-01
-1.749739312197583045e-03
-1.461156986449536066e-01
-1.826084476185080296e-01
6.841193766492018047e-04
1.748552803196354866e-01
9.295995257431299841e-02
-4.888219606476044282e-02
-3.891258367489074110e-02
-2.231871897831073578e-02
-9.734045158941900810e-02
-1.185119453035890918e-01
-4.078897789496328113e-02
-9.772612436198252830e-03
-1.984090395551152061e-02
8.276089956232632328e-02
2.079352686706173459e-01
1.655774150436530312e-01
5.659960941490954633e-02
3.278887619032793549e-02
2.168362083620310049e-02
-4.530529793015933282e-02
-9.605450193422156169e-02
-8.394712230372469719e-02
-5.557805886802098805e-02
-2.361121717363265024e-02
3.337321333352857161e-02
2.164348661607490287e-02
-1.061785359859158256e-01
-1.391808806071310745e-01
1.810370560536420440e-02
1.064022126702035831e-01
-1.298257711726204244e-02
-1.421435883101163922e-01
-1.095601905622313327e-01
3.643122462195759470e-02
1.475369115385553875e-01
1.256460405829240567e-01
3.524792991878192977e-03
-8.645952669175661909e-02
-7.567998529047585687e-02
-6.361354643077478388e-02
-1.283678745011481437e-01
-1.702301249656298643e-01
-1.169485415149080221e-01
-2.295517755543368191e-02
9.027023733075653644e-02
2.062079640408644998e-01
2.643552845836260601e-01
2.588421142492096094e-01
1.872151757524552762e-01
4.072015570941489582e-02
-7.759699703972434970e-02
-7.941169375562978638e-02
-3.467766970680533772e-02
-1.903359025224397177e-02
-1.717083728946435656e-02
-2.344146713205750437e-02
-5.586459794459876227e-02
-8.529071432969086153e-02
-7.245689282112835472e-02
-3.970897847264262537e-02
-2.402567022556948220e-02
-1.760338709844158286e-02
-8.768540817842639112e-03
-3.970665636255400754e-04
2.643583433915024788e-02
7.747200970444882706e-02
1.043110780780844016e-01
7.299388549121293979e-02
1.084520679910733372e-02
-3.982761154544691568e-02
-5.315915941697736680e-02
-4.041339432537115195e-02
-4.376427651260454688e-02
-5.477044588071379450e-02
-2.399903967141550978e-02
3.557183075803189987e-02
8.806516264413138950e-02
1.380944038232509163e-01
1.403337498561858521e-01
2.247316205496987379e-02
-1.300644777333441471e-01
-1.283790444746540915e-01
2.079571451181684225e-02
6.507353609988843213e-02
-1.027161955438328639e-01
-2.215919205760174537e-01
-1.106574827338222267e-01
3.000682652409535078e-02
4.227935682610400869e-02
9.824686171984869931e-03
-1.515725192509661916e-02
-3.392227431740214849e-02
-2.187859626311355540e-02
1.421569298225353918e-02
6.952407961222575872e-02
1.189256500281867662e-01
8.697727407598422611e-02
5.220981053233689564e-03
-4.322762417615436809e-02
-1.009794307803127678e-01
-1.318487898096170063e-01
-8.085137454928753575e-03
1.284180626087986776e-01
7.972596382914584612e-02
-2.416382882061519910e-02
-4.631565857585920321e-02
-6.937759922791819633e-02
-1.166144510888380559e-01
-9.632661501634355583e-02
8.029502844563411387e-03
1.186146100747180882e-01
1.639046464546501103e-01
1.328810300450452009e-01
8.002414736085092239e-02
5.727788298042409132e-02
4.747340236508542505e-02
7.648696846445582342e-02
1.916136769603092038e-01
2.385744358273326760e-01
1.054957721176730812e-01
2.354770957854936814e-03
3.051867275439091448e-02
-6.686541844202979062e-03
-1.564164098967883998e-01
-2.386559062783225049e-01
-1.737753247626442898e-01
-6.400484564135158760e-02
-2.421075728991682607e-02
-6.673239233160550843e-02
-1.505553359898512689e-01
-2.334451786190153422e-01
-2.524284428056483565e-01
-1.761216748919210151e-01
-7.343670560585204010e-02
-2.511232276432769778e-02
-1.122455295684128551e-02
1.947872082116332282e-02
5.248697450720252178e-02
6.651696343899443642e-02
9.420661155540824283e-02
1.534195046842650456e-01
1.906336300912966630e-01
1.688559149764395362e-01
1.358731763580117158e-01
1.276531184523563567e-01
1.175002413997049688e-01
7.698221328217871862e-02
4.654508546581049427e-03
-5.612174395780947928e-02
-5.707763570306142314e-02
-3.350466827960062177e-02
-5.233689734220998979e-02
-9.445452954521811606e-02
-9.117441071597987001e-02
-5.039953122878126218e-02
-3.974905986797273860e-02
-5.900426890143618819e-02
-5.912403904659202514e-02
-4.548128832319076748e-02
-2.895856044752011249e-02
2.204895716347838111e-02
9.190459403034638430e-02
1.236036177038929845e-01
1.142318971650236326e-01
9.244936497243405604e-02
7.000797643463575748e-02
4.001279648353413265e-02
-1.651609626751529211e-02
-7.728740063873459909e-02
-8.605023882224925591e-02
-5.122846117371250563e-02
-3.462050481022133086e-02
-5.761689728515749509e-02
-7.751651352215219171e-02
-2.341685259407018035e-02
1.051168586873865995e-01
1.686823208702639965e-01
4.664045067307726750e-02
-1.434205202741953289e-01
-1.761488402686462451e-01
-5.561962521306060281e-02
1.693443090623766162e-02
-1.601876547279500532e-02
-2.352726420955862652e-02
3.984049855965796083e-02
6.863118512678428873e-02
1.882999344940428088e-02
-2.757096521435166772e-02
-8.962456431666706441e-03
4.763279933825575324e-02
7.575199568082559287e-02
4.258749280903717516e-02
1.044655041148061930e-02
5.155782479727109152e-02
9.130161362255737045e-02
2.340587413513334214e-02
-7.522780024674254051e-02
-7.479348245305954268e-02
-2.358132633332551964e-03
3.886903697340256258e-02
4.410588978496992642e-03
-7.358918265063370268e-02
-1.203103739655788096e-01
-1.033658634879449645e-01
-5.339955048412731164e-02
6.220521966331076479e-03
5.661295981760429419e-02
5.960488941026609311e-02
1.032690462128713418e-02
-4.152106854041703182e-02
-5.038416501578348028e-02
-1.396206294103637113e-02
4.798934899953641309e-02
9.918880441869949716e-02
1.018050461303234011e-01
7.271010445809128475e-02
4.771935547626764834e-02
1.991453979024553067e-02
-7.933038255836586186e-03
-2.275751518986904656e-02
-5.619331585279828400e-02
-1.125434394483722511e-01
-1.207166599526621337e-01
-2.968647690758239449e-02
1.190402147977855513e-01
2.020942791280536666e-01
1.144001938552538372e-01
-8.351443868856826824e-02
-1.943763758883944037e-01
-1.110449102763536311e-01
4.431076326845724556e-02
8.731243884799134991e-02
2.779505223549036050e-02
-1.594740242671569344e-02
-4.246882816762075769e-02
-8.598233776978184140e-02
-1.002076189697641562e-01
-5.928570751079029200e-02
7.012428562237152906e-03
7.074643271943310829e-02
9.430520979498639711e-02
7.196150054074690328e-02
7.646344469457963533e-02
1.124268073059979112e-01
6.446210710469346683e-02
-5.704633913156934716e-02
-8.519096083496036087e-02
-2.204075746103931893e-03
5.139666712037608415e-02
2.991207804198683234e-02
-2.684760396331008214e-02
-8.202347089352104992e-02
-8.290145757261727089e-02
-3.852104145419400771e-02
-3.069795725673614764e-02
-7.010214426024680145e-02
-8.939301296752634463e-02
-5.458381827339906650e-02
1.158498753432779353e-02
7.219396088163443359e-02
1.200335273551956794e-01
1.561454797810199746e-01
1.045548669755410331e-01
-6.915803155877547903e-02
-1.753079184215689257e-01
-8.578718128677173538e-02
1.773258726751286360e-02
1.874562578927931045e-02
2.472368152327285296e-02
4.236790165395054597e-02
-1.242641573544671016e-02
-1.020354102236673971e-01
-1.350415127679600036e-01
-7.285354262975912709e-02
5.797861115513822799e-02
1.630935286646943150e-01
1.670535635798060248e-01
1.158502081149930807e-01
1.137682692023308656e-01
1.823305549581336338e-01
2.356805246768128581e-01
1.983157312010197515e-01
1.032755340303653513e-01
1.133418816873053153e-02
-7.886137573688559166e-02
-1.643057391664457800e-01
-2.173218364693618732e-01
-2.503809833171225518e-01
-2.890245810875821109e-01
-3.041149474564801003e-01
-2.354310101262804544e-01
-9.031812952949605511e-02
2.801050361122505578e-02
3.650690422905400467e-02
-2.496022871563966655e-02
-5.143485858438286151e-02
-3.354246687084241896e-03
6.927083206998663201e-02
1.204568143680719294e-01
1.589324271668935418e-01
1.924999743421571263e-01
1.875292233083947768e-01
1.256509108061583113e-01
4.851489896847913791e-02
3.304147052332631618e-03
-5.052888448725381676e-03
-5.371980200954487583e-04
-8.516497697570936387e-03
-2.657723078400134331e-02
-3.498277644188604873e-02
-3.150568910539931766e-02
-3.131933478060351661e-02
-4.462095750700077051e-02
-5.261025416896129847e-02
-3.375023756334358943e-02
-7.957224997008302894e-03
2.688775612103191069e-03
6.857068597590082470e-03
1.227518513987306548e-02
1.247669917576007051e-02
-7.333045737917226296e-03
-2.557831917655960588e-02
3.243831621043410246e-02
1.423870924228574086e-01
1.389225702432554388e-01
-1.358235443633896283e-02
-1.336237670399085808e-01
-1.125096814305244775e-01
-4.394747085081690541e-02
-2.630087405175577167e-02
-3.304891825192027982e-02
-1.118220478310737349e-02
2.076776645435348886e-02
2.286794303963183422e-02
5.373443158558227628e-04
-1.565559664163637676e-02
-6.537624197064173699e-03
2.000788526291674002e-02
3.105490592887467927e-02
1.581336270422283030e-02
1.113009474103248200e-02
3.607154768943188899e-02
4.706445634041077353e-02
2.416609200003003860e-03
-6.444095991522970357e-02
-7.316850402630209471e-02
-5.600369090153191343e-03
5.268274454812237745e-02
3.540841391497308310e-02
-7.633757812700703305e-03
-1.264935648818496516e-02
-7.146093564103107171e-04
-9.837915515051231727e-03
-2.450164809972394872e-02
-2.160541124502237537e-02
-1.343707239332265178e-02
-6.218511447666797212e-03
1.322940857674627727e-02
3.710254154736093019e-02
5.376206956303949264e-02
6.853032976186122782e-02
7.412950510832377882e-02
5.686673642611667773e-02
1.708175487819088567e-02
-1.659825624160831542e-02
3.859603613306691536e-03
4.411796723717439916e-02
3.882753474237009544e-03
-9.809220455293797547e-02
-1.599622783993310537e-01
-1.526036210408319993e-01
-7.338624913340394129e-02
4.051595338502935600e-02
5.566683387415181927e-02
-5.184802254670756172e-02
-1.177944440152016714e-01
-5.421702179648398012e-02
5.181328508943123384e-02
9.529580152255044678e-02
5.210271748718636742e-02
-4.617716652952706669e-02
-1.637759062351835382e-01
-1.992054653353226290e-01
-4.308857385739365414e-02
1.669303802491957367e-01
2.161018852356474673e-01
1.566324630761041781e-01
1.210341903711222855e-01
1.301870435335374387e-01
1.676037390649844638e-01
1.567194957521382270e-01
6.412640568789575168e-02
2.452286604400638614e-05
-3.351242939715928099e-02
-1.380916547419704932e-01
-1.781625860788138560e-01
-3.604652169396586892e-02
1.856687830834981984e-02
-1.412601710308780401e-01
-2.073634706466303823e-01
-1.005719229243851320e-01
-5.893384015711360113e-02
-5.693673800943371138e-02
3.239745025478182883e-02
8.669913680320256999e-02
5.320339617350475225e-02
6.364809900234943973e-02
1.109080050498434389e-01
7.729837674947490078e-02
-5.501103866257552044e-04
1.289835892201142246e-02
1.061823539912055275e-01
1.182204844929339027e-01
7.460429372694853470e-03
-6.804090493699857523e-02
-5.918289058631569233e-02
-1.158817738260232849e-01
-2.125569246790229849e-01
-1.574694500882542481e-01
-2.447778074220378908e-02
6.735298105517616152e-03
3.481169995602027833e-02
1.342271223102187161e-01
1.032910559718871191e-01
-9.389391331125862550e-02
-1.562291504157844735e-01
-1.014281462411375373e-02
4.318420090905271402e-02
-3.366950279771887405e-02
2.067715088336866125e-02
1.165454303170764955e-01
1.326890841746163063e-02
-1.169710903885982783e-01
-8.400290613056533851e-02
-3.507815879642767198e-02
-1.679290708628642867e-02
9.101453835308541407e-02
1.726318687299449317e-01
8.661537154989258636e-02
-2.483480960970613563e-03
2.340657764796722287e-02
5.079406117490051220e-02
4.725209063563060724e-02
9.675839210855297079e-02
2.007262563355848572e-01
2.771352502518844019e-01
2.875179421348982856e-01
2.578424298084061594e-01
1.706181765717959820e-01
-1.012174853771303368e-02
-2.079544659079290425e-01
-3.242752759111595662e-01
-3.867621564809136658e-01
-4.386779733805362125e-01
-4.247905261149638179e-01
-3.112233797331528384e-01
-1.620456723491456030e-01
-3.465544547069832754e-02
6.837494290234129302e-02
1.300935424680589592e-01
1.314436020685746942e-01
1.171869791884986856e-01
1.171221974230216845e-01
9.770356216936079696e-02
8.028353023187029258e-02
1.057011003683555328e-01
1.041496029393690070e-01
2.567898099313032506e-02
-3.108750855551938724e-02
1.769712361922566243e-02
9.881714600913137081e-02
9.419348975545659142e-02
-1.522778853904305360e-03
-9.051985489371283666e-02
-9.856546256793344285e-02
-5.703409939415728797e-02
-4.527789172686084995e-02
-7.029670988155724276e-02
-7.719123913358380551e-02
-5.458358875270725996e-02
-2.044548937757066642e-02
2.802319131910633795e-02
6.701387845676470834e-02
6.714195258141693323e-02
5.452929861264704803e-02
4.577130540318798124e-02
3.356216648824531662e-02
5.343029062452485378e-02
1.056228633574145120e-01
9.494254498333740133e-02
-1.305038154355996072e-02
-1.101240441340134157e-01
-1.065892912726759956e-01
-4.007714290470308638e-02
1.065798057790075942e-02
1.739405366516753870e-02
1.157833164278748543e-02
2.421891194112488904e-02
2.311132464438099207e-02
-8.471472735467213896e-03
-1.838319094557388719e-02
-9.725270692379812607e-03
-3.257688620472377200e-02
-5.168945105075922752e-02
-2.009958291982881506e-02
2.061507128706389566e-02
3.275200353553299470e-02
3.724962883619319792e-02
3.894348032591210540e-02
1.865473280749137264e-02
-1.408225318988277040e-02
-3.821009749101459546e-02
-4.006245776231043276e-02
-1.753852517266086056e-02
-1.047824054153197876e-02
-4.203252430638599463e-02
-5.856718032549211583e-02
-2.364725902770519611e-02
4.184858226161929790e-02
1.192393685031573614e-01
1.528250178222702871e-01
6.551137779692760288e-02
-8.460637447346848472e-02
-1.391460376998795989e-01
-7.370876892761615840e-02
-1.182257362078185763e-02
-1.180605105992668657e-02
-2.022461535278344616e-02
-3.292422429856156890e-03
1.635366450976428326e-02
1.771761391679015085e-02
6.261816498920685058e-03
-3.957181249512081722e-03
-1.035769063289580620e-02
-1.802934608996625485e-02
-1.905101498335279656e-02
1.389750595859610451e-02
8.195519615738333652e-02
1.163655624152626772e-01
5.248722584650272749e-02
-5.219770450446750698e-02
-6.702760260117048008e-02
1.740346853649469769e-02
6.563533754219710858e-02
2.100460425551126803e-02
-2.207722759291966264e-02
-1.253285118732142336e-02
-3.835653559568651463e-03
-2.107565209416534593e-02
-3.991279273308428327e-02
-6.950092795014961577e-02
-1.311747287253438310e-01
