-2.907096999052661418e-02
-2.489886936619425603e-02
3.198461781521985681e-03
5.958756579019891531e-02
1.019983206093316302e-01
1.146351464951466254e-01
1.116436518086022789e-01
9.349876562617311093e-02
7.180152012424396990e-02
6.390372379494614619e-02
5.585193976645895508e-02
3.464960795948998640e-02
1.633594497518098959e-02
7.414075767737610470e-03
-8.696119694377266174e-03
-2.015736618650216389e-02
-2.650414038669855754e-03
7.583202426805675696e-03
-1.358711397994252432e-02
-1.642166007953953580e-02
-7.394571319526230951e-03
-4.270289164571669516e-02
-8.398480184209004828e-02
-8.127116482577904921e-02
-7.113730255993348794e-02
-6.961046148585904592e-02
-5.772099537408612036e-02
-6.206475477265605001e-02
-8.895955472060250446e-02
-8.478288687475238339e-02
-4.932506823689442738e-02
-3.482180601822121302e-02
-2.020725617088789741e-02
3.975481555373185094e-02
9.031952631179417101e-02
7.137486979332186010e-02
4.096271800054309548e-02
6.253591453926148069e-02
8.051949493879674569e-02
3.156691462841094281e-02
-2.523043739314001499e-02
-2.458184739869961888e-02
-1.384032728155031727e-02
-2.682256812651227784e-02
-2.387939008542815100e-02
-2.711011304525223764e-03
1.442922963190268471e-02
3.214365463247654403e-02
3.773894885616464051e-02
2.101541092473818359e-02
1.122084421407475163e-02
2.794012142354278250e-02
5.746958869202115766e-02
7.130258533697968193e-02
4.844946581217770415e-02
1.879987354357073523e-02
2.396098632595815292e-02
3.558724960046204255e-02
1.875264197444008116e-02
-3.564215171990497283e-03
-2.023675045472937695e-02
-5.051234810052515622e-02
-8.382239340514482939e-02
-8.039565349508717707e-02
-3.427060038483856902e-02
1.958643548331958327e-05
-1.518006621855000002e-02
-3.771406235079510783e-02
-2.022089904089285906e-02
1.403085215400317817e-02
1.588551796851233461e-02
-9.797896142888253695e-03
-1.408585660254135091e-02
9.199156307378109076e-03
2.022191558414095092e-02
9.624580596961631804e-03
-3.687070715474774669e-03
-1.628029442342673883e-02
-2.814037495846617026e-02
-2.525654532118911180e-02
-1.309927297493681392e-02
-2.303337044114120782e-02
-3.802125841556212166e-02
-5.687649552978862703e-03
4.999392390891496674e-02
6.780320441664827724e-02
5.750131542680778779e-02
7.153584276839858314e-02
1.251488500963749695e-01
1.255713732141575389e-01
-1.604033520208624289e-02
-1.380555765751760866e-01
-6.083844569414954134e-02
4.962815791588522096e-02
1.371083695470828347e-02
-6.202859444269399197e-02
-8.402740368621011702e-02
-9.020446411157329036e-02
-8.176090445714241650e-02
-5.056834764253317210e-02
-2.708169097216969051e-02
-1.180049762084837278e-02
6.897308736523676681e-03
1.571810305850814687e-02
2.149859324526569304e-02
4.308984406939828787e-02
5.608057528978196288e-02
3.533143772180955683e-02
1.695657554163714636e-02
2.612722880497207745e-02
2.687123492952760498e-02
1.339189729263631778e-02
9.112572141297167749e-03
-4.142682537992728453e-03
-1.563342470947264029e-02
9.188197614169515970e-03
1.792946331106589491e-02
-2.285837643679246994e-02
-3.642907041408160324e-02
-3.414349369488050082e-03
1.715672872947614572e-02
2.852629661615879719e-02
4.113065041713979270e-02
2.834897594131553095e-02
1.099350994119344636e-02
1.308988113755861146e-02
8.241045940232534853e-03
-1.085358003894468584e-02
-2.728195863603579546e-02
-3.838485179167474420e-02
-3.552679845669137054e-02
-1.129217537031986136e-02
1.129920847205409355e-02
9.417230328919260277e-03
-9.623129374105567069e-03
-3.403678942186048884e-02
-5.216913788683655295e-02
-4.173750773191965691e-02
-7.195171102939397663e-03
1.537745149274792611e-02
1.844063243897397369e-02
3.403924513986100742e-02
6.446016261807537007e-02
6.822409521516201170e-02
4.766885497967417173e-02
4.477805106631744386e-02
4.230027907057440362e-02
-4.186646015997374896e-03
-7.311339130584902646e-02
-1.028288534174247315e-01
-7.864411569422677384e-02
-5.056984254903457154e-02
-4.674638853973289709e-02
-3.068393627974792467e-02
8.753417505501209783e-03
3.194293828259284207e-02
3.245847995866352198e-02
2.826999132930455016e-02
1.803518909533989578e-02
2.228837495083703379e-02
5.598703968069224796e-02
6.240490649634220649e-02
7.938571259814142592e-03
-3.678820566614521975e-02
-2.635166652426306974e-02
-1.597413249878960884e-02
-3.182339183096943164e-02
-3.315556922502342629e-02
-1.390894483964360412e-02
1.365751263857654160e-03
-1.422183550126754521e-03
-2.806408059661317719e-02
-4.532152115548184618e-02
-2.617193341432642872e-02
-1.028763961700188481e-02
-1.250708222161701563e-02
8.765403473730896261e-03
4.629250302059450400e-02
5.281068552461522236e-02
3.375645180905931242e-02
2.182330736586205952e-02
1.105126473430526751e-02
-1.562512092264267682e-03
1.086551668112127611e-02
3.578271075403820223e-02
3.831627571392129394e-02
1.052571886351013654e-02
-5.926227846914296216e-02
-9.944797034215660525e-02
8.590773197172586750e-03
1.380534286263599697e-01
8.996124053255286079e-02
-8.863791798248215129e-03
1.214232939064827793e-02
5.940980536637667508e-02
5.430950679719492857e-02
4.903776573354607510e-02
4.151928404883779844e-02
2.844482863487895682e-02
5.797928144841735937e-02
4.235427753879982687e-02
-1.192947749331665641e-01
-2.303378756956451778e-01
-1.150693901254448148e-01
2.088375252524211911e-02
-9.077449365817516491e-04
-6.300595163591621306e-02
-6.871934379227795375e-02
-5.383346677560478521e-02
-4.553541938693355523e-02
-4.761763023611483708e-02
-6.131734254863111661e-02
-6.699945186606186265e-02
-3.793920095743981424e-02
1.284169848239767424e-02
3.696725647039113272e-02
3.052389662434934828e-02
4.059414352506415108e-02
7.194704693598399925e-02
8.933040429313597597e-02
9.028886568008950841e-02
8.063493994174034118e-02
4.800087239854312210e-02
7.814575275876050123e-03
-1.835830359748497759e-02
-5.571126362464716431e-02
-9.558993445659094701e-02
-7.211687808019824619e-02
-4.502096536071582833e-02
-1.279870077334486766e-01
-1.887068781107097137e-01
-7.714576891421838500e-02
3.324852880775953923e-02
3.067049794900460202e-03
-1.250540942445722489e-02
6.649014682998659331e-02
1.187636643583561552e-01
1.098326457624921870e-01
1.084733224105833976e-01
1.034869502015236115e-01
7.431738300092984029e-02
7.736203335084237964e-02
1.168552094636952365e-01
1.304841015925145287e-01
1.145773361525652123e-01
1.125887025260500357e-01
1.209801053109536839e-01
9.189422350667243722e-02
2.719320157930000051e-02
-1.589207092234672797e-02
-2.332827527722408645e-02
-2.394549834899490498e-02
-3.621448032395546690e-02
-7.446157707459105657e-02
-1.210338426175526644e-01
-1.295277738991673366e-01
-1.135439772879256459e-01
-1.191905459768564102e-01
-1.284177312238339863e-01
-1.106667610114969308e-01
-8.184250856139554942e-02
-5.818363831839355044e-02
-4.925592709307216599e-02
-5.834436140989539971e-02
-6.250132578692535468e-02
-5.507126520369128725e-02
-4.757594131743834304e-02
-3.190748151419759565e-02
-8.372048400330785872e-03
6.936009398375034274e-03
3.985327993148286146e-03
-1.395652996382288138e-02
-1.877889488033436527e-02
1.606866125505869783e-03
1.639635328872453973e-02
1.660818325169034076e-02
2.811404804109752381e-02
4.755552279284219058e-02
5.234884140519802109e-02
6.128061098916492283e-02
9.814056699734016731e-02
1.222064464911105652e-01
9.768882169540706040e-02
6.887267316363956948e-02
6.215790526318175357e-02
4.094201176498026701e-02
1.171593209360681162e-02
1.505871117309028062e-02
3.768909369590744962e-02
4.317441864447272432e-02
2.016946510209562116e-02
-1.691133808101363822e-02
-2.898817633087412762e-02
-2.764547953789490975e-03
1.750722088627390885e-02
1.054356463488612117e-02
1.143575123391576270e-02
3.112020851569459456e-02
4.208116319014459233e-02
3.340034271027830098e-02
7.268147683084406722e-03
-2.845225885164178944e-02
-4.465159295902446784e-02
-3.961729555266216285e-02
-5.239495129732890666e-02
-7.497761351287349219e-02
-7.147303186686322640e-02
-7.003719064583356635e-02
-9.049825409168006651e-02
-7.956341537331261538e-02
-1.831539551086653478e-02
3.717236215712158703e-02
3.334833318149647841e-02
-9.397209324492620391e-03
3.162102993812893059e-03
4.522282966245824709e-02
-3.203805296538982106e-02
-1.364797498975059975e-01
-7.042019893532663888e-02
3.226148928716799508e-02
-2.527625158266957189e-03
-6.007805962722948673e-02
-4.076782478944696031e-02
9.862523064779627618e-04
1.512484241129546242e-02
-2.405130106245778610e-02
-4.800935146091830918e-02
5.979650889938290664e-02
1.747424826146687926e-01
1.119129290749615868e-01
-1.542612231525641170e-03
-1.401061601975093357e-03
4.570391070111458343e-02
5.980862530111998032e-02
4.956972502921635354e-02
3.245889974197789518e-02
2.573377879923372316e-02
3.277671590973213478e-02
2.986741889182900622e-02
8.568646656635311304e-03
-1.558045180185492137e-02
-3.914872625026942499e-02
-5.922942015557955409e-02
-5.992956304050530564e-02
-4.159326509301849994e-02
-2.034393497357983235e-02
-5.844405720564238918e-03
1.491844438055908804e-03
8.380697418072747748e-03
2.231241023654880612e-02
4.471763647487705245e-02
7.367479195882828402e-02
9.673096238391534762e-02
8.544656971805811296e-02
3.536489239085674474e-02
-9.113070750814395923e-03
-1.992067827515248482e-02
-2.207346947393030306e-02
-3.663891930149964365e-02
-6.065435729489056238e-02
-8.038118177472811099e-02
-7.451155406932423453e-02
-5.458720494565814235e-02
-5.195844636537817057e-02
-5.072093210880297687e-02
-2.514236286006781007e-02
-4.471426793237545660e-04
5.894992413641168133e-03
1.347029640927766350e-02
1.319656008954822254e-02
-1.383190849559989485e-03
3.665879049057159736e-03
1.335102928689641845e-02
-5.739534916023362326e-03
-1.757688101474656761e-02
-5.595979285953338322e-03
1.880900935487847363e-03
4.973313514799719386e-03
-3.422176850458819551e-03
-2.171184883153578354e-02
1.002495555314819467e-03
4.609662952205167280e-02
2.924017284604907632e-02
-2.205464951421854877e-02
-1.941444237350252455e-02
8.583354843499710687e-03
-7.001736070601084598e-03
-2.858711480765740651e-02
-5.863744161614618117e-04
3.796633377220079431e-02
3.713576402859269238e-02
1.308071121166391217e-02
-3.114743175724316287e-03
1.044698934600581108e-03
3.004874756092602850e-02
6.062364824770973687e-02
4.812761690220353217e-02
-1.841639430962755015e-03
-3.676916365881241489e-02
-4.288058628736086952e-02
-3.553718953966760602e-02
-8.776644223911930776e-03
3.186138130110861832e-02
4.748339703116310345e-02
2.541168683675078602e-02
2.043947524959411136e-02
6.073040277184570818e-02
7.756594294974027137e-02
5.748224911583987157e-02
7.785727206723486171e-02
6.959556166507051278e-02
-7.273804840460894316e-02
-1.763102068976761527e-01
-9.381099059260117334e-02
4.159438117896513409e-04
-1.056577968554475375e-02
-2.178623933644361146e-02
1.770074978444765787e-02
5.674961848827949490e-02
5.991774474920330551e-02
3.763167567542081288e-02
2.222270792066583650e-02
1.860917928747206698e-02
-6.647418635294822381e-05
-4.307843414423996597e-02
-6.843605177867759237e-02
-3.576441590479247784e-02
-2.875839531402750102e-02
-1.378683367524759784e-01
-2.129785076273117694e-01
-1.144511030791581507e-01
-3.092888240786540247e-03
-2.844353555774975506e-03
-1.875553949094115741e-02
-6.081281248829555064e-03
1.282798526301216074e-03
1.311180544951780214e-02
3.678737992966852471e-02
4.806011590919063992e-02
6.553124889870058645e-02
1.278118532706544186e-01
1.407132517302282504e-01
1.058506607648328907e-02
-8.386579258009055349e-02
2.676770354693623621e-03
6.907365259013448222e-02
-8.378619175890073684e-03
-6.964178593637852799e-02
-6.352940228539177836e-02
-7.895769816848413614e-02
-1.145729829259825167e-01
-1.473495335774026860e-01
-1.364028768534428504e-01
-1.025403104366030306e-02
1.194780547216031386e-01
1.025699660305341432e-01
5.074530216349194822e-02
8.428837425989228749e-02
1.248763966645819873e-01
1.275420341838781613e-01
1.412859181552946208e-01
1.615434595825255004e-01
1.427551777015023948e-01
9.636655082595987909e-02
6.995094603496535002e-02
5.862359111317359817e-02
3.290316170397775131e-02
1.561471077647725442e-02
2.254737827687293417e-02
7.350418516590902923e-03
-4.890740833176679403e-02
-9.353278887030989919e-02
-9.482118372609395218e-02
-9.225399895157618269e-02
-1.082734917514970863e-01
-9.485752485246382038e-02
-4.344490350771408604e-02
-3.064776370312103856e-02
-7.065521212673198104e-02
-8.233587614168060009e-02
-5.441341391411110007e-02
-5.169445418655332219e-02
-6.948335119299992035e-02
-6.949931545737471350e-02
-6.533781434417827716e-02
-5.826531167150980628e-02
-3.472261500257786682e-02
-1.628921128708625196e-02
5.727853778460485074e-03
6.161370049887517075e-02
7.352087698126008597e-02
-3.719981294073398947e-02
-1.256901806907704811e-01
-5.006325323133122007e-02
4.710974191582407988e-02
3.529040602825148087e-02
4.948270060762092679e-03
9.245958937452046847e-03
6.701020486571318199e-03
8.542957636855483608e-03
2.797460855580514993e-02
3.525590280404573146e-02
2.937155346224948338e-02
3.165214152089797228e-02
4.577980116437079666e-02
7.146114145829443598e-02
1.063925173656596196e-01
1.355632219192824117e-01
1.445052617189868938e-01
1.301947423094720613e-01
1.029433387095444324e-01
8.782496999124193848e-02
8.956733328465688038e-02
7.172765408463897818e-02
1.835720033356444056e-02
-3.912007462955905540e-02
-7.564478695749052295e-02
-9.048284829468700163e-02
-9.705732542333303514e-02
-1.120460418134028857e-01
-1.173311946888582480e-01
-8.889487596423531479e-02
-6.151975141811558828e-02
-6.511610755740346312e-02
-6.700722013428611623e-02
-4.871546389101106406e-02
-3.406973585966711210e-02
-3.131989555006149673e-02
-2.263369696380138074e-02
-1.120652426633273607e-03
8.830202762438420228e-03
-9.658016190489674552e-03
-2.334521769908543681e-02
-9.683691955704428270e-03
-1.040361805033886838e-02
-3.331976756114715665e-02
-2.959091335283461910e-02
-2.167306917979219469e-02
-1.722563444254917794e-02
6.859143945960236022e-02
1.618166512221391184e-01
1.091499998022697343e-01
1.809191573472377149e-02
2.371598643251690910e-02
3.330688770657096176e-02
-3.989179751776966883e-03
-7.330444178046428491e-03
1.432800058220728978e-02
-1.462686571587909663e-02
-5.814767929189446072e-02
-5.789769097199022607e-02
-6.572165075420977054e-02
-6.098246896305777043e-02
5.200159761321576646e-02
1.416091870620497517e-01
4.912878917939523388e-02
-7.076935460690313151e-02
-6.366427779524057307e-02
1.146345422263182756e-04
5.168858038041171388e-02
8.006869194169043136e-02
7.847797267533226928e-02
6.738075176288171875e-02
6.617195881324496043e-02
6.695406453966638860e-02
4.405736673674787857e-02
-6.756548268695891299e-03
-4.350210017260236484e-02
-4.626309115407031824e-02
-5.448179854874479755e-02
-8.263725387822691559e-02
-8.505404416303363746e-02
-6.924141015527095211e-02
-1.011332698925605234e-01
-1.015581875989662042e-01
4.687474281901035655e-02
1.677776831763135579e-01
8.068879516111618355e-02
-3.021335707097821607e-02
-1.459152917631351305e-02
1.243766342099760641e-02
-3.034749184666904812e-03
-1.561639005421438381e-02
-2.993730779438875250e-02
-4.208186188573458109e-02
-2.664889960981689856e-02
-2.720699317277293448e-03
-1.492711589946833783e-02
-5.560779674820398588e-02
-5.535035691710672029e-02
-1.413286849573196051e-02
-1.598677459703814682e-02
-4.705304624580509965e-02
-2.611082734970250618e-02
2.173576473956652377e-02
3.868046607067114617e-02
4.083486983527159775e-02
5.034413659763749965e-02
6.568083904671805084e-02
8.639257018431736879e-02
8.901197035982572059e-02
5.107194405305113399e-02
5.487615708813790155e-03
-1.302159661786163325e-02
-1.975856396433080253e-02
-2.379563682981569381e-02
-1.743795390968807396e-02
-1.868002510199091859e-02
-3.126292577170382281e-02
-2.620607838800901798e-02
-8.135000297246033213e-03
-2.375361417611116140e-03
7.951749010911191365e-03
4.328148112771296879e-02
7.426621669837554784e-02
6.327263456092224736e-02
2.429920844309724215e-02
3.401507405767067310e-05
-2.374060063762138684e-03
-3.689446513332547348e-03
-9.993353499886682353e-03
-1.786622777960183983e-02
-2.663265128692455380e-02
-3.685402813930487714e-02
-4.879186767460881591e-02
-5.352065679477235188e-02
-4.454849892253913424e-02
-2.847530745357292059e-02
-8.427206716285755989e-04
3.767687705620580835e-02
5.148978388309410903e-02
2.488930356938821864e-02
-3.743118405947317567e-03
-1.052597315921641880e-03
1.654654895271640003e-02
1.088329343608907852e-02
-2.032574266726144829e-02
-4.893159715506515545e-02
-6.025066596318399276e-02
-4.235283137736653436e-02
-3.385488556001162511e-03
8.547635864160154501e-03
-1.331600276049761319e-02
-3.003323544683444979e-02
-3.436184760950073552e-02
-2.705015635436433530e-02
-9.976362323423604642e-03
-6.425167357456309201e-03
-4.299251933790966020e-03
1.877971607747112512e-02
3.380331026745470729e-02
3.246940862152063872e-02
4.941969400125057615e-02
6.980568936536866997e-02
4.717773976246810580e-02
7.901651529310989991e-04
-1.528378308737296867e-02
-1.256606892442157022e-03
1.528478675022686833e-02
2.839568527042192481e-02
2.315328438466665237e-02
-1.002294052647773742e-02
-3.455519225310162146e-02
-2.128037188977661281e-02
1.471883280814238575e-02
4.917794017904238840e-02
6.267314034433055236e-02
6.087409100659195438e-02
6.888339336028932725e-02
6.910096045504768303e-02
4.679392504691660959e-02
4.122216862168307655e-02
3.490067470073775213e-02
-2.921151964592624481e-02
-1.013754690293662553e-01
-1.120871685534635259e-01
-9.114350991565456361e-02
-7.153339511701289899e-02
-4.755509805745686269e-02
-3.039824928319640948e-02
-2.315054384362610213e-02
-1.117410944277428229e-02
-2.051780412272139614e-03
-7.570052897200342523e-03
-1.801572610838712146e-02
-1.745021134425374376e-02
-3.367814615981594081e-03
1.812651705505360922e-03
-2.140336026722867296e-02
-5.035834548186138987e-02
-4.903759307414621432e-02
-1.924138137177498070e-02
8.624120815480331576e-03
1.942920777407449243e-02
3.787640985858631293e-02
8.740360417870078613e-02
9.305004036569192172e-02
-2.332847850273849638e-02
-1.200805930720778014e-01
-4.557733557318726508e-02
5.919721011503679964e-02
4.697141980921544502e-02
8.726333342334129106e-03
2.369272239282341555e-02
2.993662051244903519e-02
-1.332036171135535588e-02
-6.116018123281477537e-02
-8.489253912690539194e-02
-9.772733799163403623e-02
-9.073056295598830312e-02
-4.989388929901729386e-02
4.961580058519729150e-03
3.834927060570585827e-02
3.769836955678244894e-02
3.302957427196979989e-02
5.720425859036047667e-02
1.046976424562713059e-01
1.367148645497013038e-01
1.299779004734863408e-01
1.257201527679970288e-01
1.554280339888639006e-01
1.661409201623656184e-01
1.244580039778010044e-01
8.016285194630834443e-02
5.825845355364359102e-02
2.018521808589758201e-02
-4.165069925548890717e-02
-8.652726841684571513e-02
-9.840454940068979472e-02
-9.142259423474624613e-02
-8.702481939132059030e-02
-1.036388408744715328e-01
-1.158592192670514498e-01
-9.858582830466056102e-02
-8.658430569543781874e-02
-8.565536639130315322e-02
-6.242435666647175307e-02
-4.579474688709726793e-02
-6.266322806032949277e-02
-6.268976363550703146e-02
-2.944975991530856055e-02
-2.299902560756694747e-02
-4.874301968563966858e-02
-3.948787480565072588e-02
-3.456633193058535058e-03
1.190526233089373581e-02
4.447442192435431541e-02
5.563599208260430751e-02
-5.268929219531073849e-02
-1.316655917651819718e-01
-3.089898676235110567e-02
7.178357052106688896e-02
5.800013879722953208e-02
5.265650576083122369e-02
8.440564747343057284e-02
8.400074154118952752e-02
7.158374758405140759e-02
7.057884836480809998e-02
4.787856749109799942e-02
1.135875318537007961e-02
1.010230663016370087e-02
4.129417146144463702e-02
5.388826732974204975e-02
2.430741588431287875e-02
-1.727407624256697624e-02
-3.034678848485221347e-02
-2.097032970482830966e-02
-1.019680390087499347e-02
1.981274484519346402e-02
6.568047629792592157e-02
8.300082728347733807e-02
6.025431694629147100e-02
1.029200449341500026e-02
-1.242753195158471415e-02
7.326303417527199602e-02
1.639669477147967791e-01
7.626657915349237260e-02
-8.598612255237973734e-02
-1.233279930751929876e-01
-9.889775937957323571e-02
-1.272832686977019012e-01
-1.405615257180731770e-01
-8.480992891451016868e-02
-4.858685244879827614e-02
-7.749434206979376183e-02
-9.042732822663773762e-02
-3.722705733868229838e-02
1.401729383710390367e-02
-8.887694084112229137e-03
-2.239107272490525186e-02
8.828572478003560153e-02
1.812717343586119911e-01
8.590356007916380432e-02
-3.616334979923643139e-02
-2.050399286071186156e-02
5.962102037003775418e-03
-4.492717576078319314e-02
-6.832052356597015375e-02
-2.877030914494050490e-02
-9.362101479174374935e-03
-2.349067963692505479e-02
-2.024595392354223630e-02
-2.577628171529041832e-04
6.695116376115165142e-03
2.076113324536890074e-03
1.812711066857332701e-02
6.040402850396150297e-02
6.849084612953387774e-02
2.242819892567323239e-02
2.536477006633300335e-03
3.184008242989629783e-02
3.634898917123057654e-02
7.107722218450409149e-03
-6.511591116424807896e-03
-8.333112362310766616e-03
-1.370988205395480553e-02
-7.943600472873662416e-03
9.467011339081583127e-03
1.820062451140691540e-02
7.937460655947147642e-03
1.370156951216012185e-03
2.121312149908581579e-02
4.014597739102784141e-02
2.848319492084714841e-02
8.656670607935216047e-03
1.491988294368266910e-02
3.749123913016191856e-02
2.882296601589314639e-02
-1.130985765847668939e-02
-1.382044393340963774e-02
2.483190216550951526e-02
1.926529584094957559e-02
-4.287167627658231700e-02
-8.677377219811495401e-02
-8.233821455049611382e-02
-6.461978607512229578e-02
-5.872899438242585451e-02
-4.230612619527633622e-02
-5.417382183434647780e-05
3.345144232911165250e-02
3.595638228405485803e-02
2.502898744663074881e-02
1.556146971882500958e-02
1.288162177236072854e-02
8.307650712614966793e-03
-5.693037444298787615e-03
-2.298044307454611204e-03
2.089791926036626765e-02
1.538033336535466616e-02
-2.585730892464318045e-02
-5.662514627791301325e-02
-5.877980924870586377e-02
-5.355393130254137990e-02
-5.230965916469593885e-02
-4.518128320388258706e-02
-2.755178823459345991e-02
-1.678243548040234123e-04
2.577715159687713614e-02
2.485609938076127276e-02
1.705080400544312785e-02
4.376943493693112586e-02
7.259965944864875398e-02
6.880120834895772641e-02
5.664113384339073548e-02
3.476491481151113699e-02
1.638634526255544274e-04
-8.936031628650148093e-03
1.284736400995133490e-02
3.347900379570274698e-02
2.509524643697371923e-02
-1.154969277532133867e-02
-3.107942674457057561e-02
-2.387322234144379635e-02
-3.598880447203485489e-02
-4.393622931307010482e-02
9.026008570854135091e-03
6.698107721802215586e-02
6.335516717195890934e-02
4.636123911477155191e-02
4.117282500976084808e-02
1.456028060853873859e-02
5.990681632805446369e-03
2.696682103522460641e-02
-1.121313972910714749e-03
-2.164552939249624400e-02
7.240877023062809725e-02
1.354906013122106068e-01
2.711570040233148363e-02
-8.992340141114264773e-02
-8.510328694039401287e-02
-5.333293871622558913e-02
-5.163742228078466862e-02
-5.051099883461469819e-02
-5.751339365820631183e-02
-7.338572440125754048e-02
-7.750811122574896572e-02
-8.422426113425658667e-02
-9.869115529028203715e-02
-9.306891859320494398e-02
-6.905517699375514351e-02
-4.073144087853357992e-02
1.097951865457681003e-02
7.533010599401324114e-02
9.387171493461951566e-02
6.829795745551520136e-02
6.352876079906026596e-02
8.301548200542563372e-02
7.300746478263593631e-02
2.579757806819060750e-02
-2.424146896635663920e-02
-5.821511134293466672e-02
-7.557654976444351524e-02
-8.087137739313279838e-02
-8.541507288866613534e-02
-8.987073188254202094e-02
-7.871025347418685036e-02
-6.718454373980357885e-02
-7.031762537923218204e-02
-3.676224667340616953e-02
3.898419676955826307e-02
7.139088810179859690e-02
6.532796999734269416e-02
1.021624232623989798e-01
1.563498144209127527e-01
1.616881136141042896e-01
1.423623355338274610e-01
1.436375488016749524e-01
1.595060569403251860e-01
1.745641288267210933e-01
1.861933621072114908e-01
1.692623452714944188e-01
1.089960002540045630e-01
4.594032582647906982e-02
-2.211438035166615745e-03
-5.542659632997928854e-02
-8.844447831539975491e-02
-8.947863032365602209e-02
-1.078042003970425544e-01
-1.415764341020545602e-01
-1.413624704510353380e-01
-1.235879679385763902e-01
-1.254012058465026613e-01
-1.275924095067919872e-01
-1.187301768598684748e-01
-1.126498304819394669e-01
-9.640802708190354675e-02
-7.438882181097546120e-02
-7.214966048776363938e-02
-6.680910954552657377e-02
-4.126250600541665065e-02
-2.389561346655758034e-02
-1.636965849415927127e-02
-1.749803545001474975e-02
-4.500180130772284820e-02
-5.281939227423875644e-02
-8.128389571273111902e-04
4.128272609111992286e-02
2.774851093101222271e-02
1.151937012594013779e-02
1.638197586513132076e-02
2.226672250213885054e-02
4.035851308748451827e-02
7.551786219014325341e-02
9.561888142221339204e-02
8.904942759559067444e-02
8.768844750167148483e-02
1.142026772373114646e-01
1.348587422405333469e-01
1.078047770566720742e-01
6.160465497396971912e-02
4.218292964885039797e-02
3.513033961138070649e-02
2.744207140124542074e-02
3.804768849556011689e-02
4.204136736582808620e-02
1.705069005850902084e-02
1.870205632635155157e-02
1.640619953830398103e-02
-9.763039212348154083e-02
-1.885262587682040303e-01
-7.410982536198670867e-02
6.761931324250206043e-02
4.473642926907892003e-02
-1.246962278770901399e-02
1.444706277876522602e-02
3.903726617563440388e-02
-8.471081546347354607e-03
-6.349050247312071349e-02
-6.360997720052219417e-02
-5.727840614127264335e-02
-8.785397574035169743e-02
-1.010734878883112892e-01
-6.951573839619749895e-02
-4.311458329617957191e-02
-3.241428360022994420e-02
-1.009347707831158639e-02
1.137807973577405207e-02
3.932655204583748038e-02
1.020490525404435939e-01
1.077605853115736478e-01
-2.161937243907360862e-02
-1.111563391828940817e-01
-2.937298932866685627e-02
4.303819483036786658e-02
-1.712288572807217635e-03
-2.554939681502168408e-02
9.453118839338912546e-03
2.265607532636215726e-03
-4.483571347132608159e-02
-5.421488574410455313e-02
-2.925711210474948865e-02
-1.809183013696997328e-02
-1.078929296705145521e-02
1.476016402112867616e-02
3.125031710096421583e-02
3.216047761893969098e-02
4.967813426482259320e-02
6.755982210777694563e-02
5.104231300781159747e-02
2.857672896768695750e-02
3.318055973615010451e-02
4.195952793030108263e-02
2.321795009653770600e-02
-1.054123741713525533e-02
-1.793175521938014313e-02
2.816767455967251338e-03
1.369167306609558009e-02
2.575178544166953701e-03
-1.916105832312037932e-02
-3.919961629349847515e-02
-3.997171560805116292e-02
-1.598139437706443122e-02
2.027163464814269248e-02
5.154184201042006502e-02
6.038063793644599109e-02
4.802247704827458663e-02
4.026417277276653217e-02
4.308927675865335122e-02
4.280496779102164334e-02
4.563822196468079323e-02
4.031298172286037346e-02
-5.199475268529930340e-03
-7.473063864129012024e-02
-1.193442577358710954e-01
-1.165516392679369628e-01
-8.790051992593954366e-02
-6.316928898010573667e-02
-3.405375118382091004e-02
-1.164355339394488806e-03
7.785875599480074349e-03
8.496962467462804841e-03
2.533621167287806314e-02
3.397983793763181826e-02
1.759415285374005961e-02
-6.576701025597668851e-03
-1.718422404667304879e-02
-1.091491068852434854e-02
-1.443845682767978117e-02
-3.415027732438685043e-02
-2.946083165121626130e-02
-9.575117209852961790e-04
3.627302037609734554e-03
-9.956812225554355356e-03
-9.661102035991906908e-03
-5.987306712260333577e-03
-2.024757624705652518e-03
1.638607270174714109e-02
3.086654234455780618e-02
3.063156404701746285e-02
3.140019165046116500e-02
2.639168943944334919e-02
1.550742267995205807e-02
1.862572962237311891e-02
2.183414248086956028e-02
1.167419843295968047e-02
8.650878081463458241e-03
1.397198064633122655e-02
1.511745570278710642e-02
1.989082568589738836e-02
2.166282757694579925e-02
-2.415179740244713553e-03
-3.423482024236974841e-02
-3.561168006701845995e-02
-2.150597073801640072e-02
-2.195313025066561799e-02
-2.056613548232178248e-02
-7.193030865649990488e-03
1.854917116804377999e-03
7.480104183466108198e-03
8.237402120964514018e-03
-2.850973324696839430e-03
-1.430750099658611389e-03
2.623729418919052911e-02
3.509070780259872929e-02
-4.349206991431266503e-03
-3.362556202413419237e-02
-2.247893930916485331e-02
-4.029211312769978570e-02
-5.099942976258410587e-02
6.242406591446148650e-02
1.705869671794092712e-01
9.821045041234650885e-02
-5.761045763553154092e-03
4.752740454238034429e-03
2.708388533044554097e-02
1.991675989389063081e-02
3.326972826302425357e-02
9.512672332287501129e-03
-5.116482620569223760e-02
-2.287595322845142540e-02
2.060492759751567093e-02
-8.847218970962968110e-02
-1.818696308040695930e-01
-7.442125778462591046e-02
3.263894294246601907e-02
-1.383057655365662469e-02
-6.731264671546514922e-02
-4.555621284765019180e-02
-2.792398853801647193e-02
-3.941747065463215710e-02
-2.851423656268746443e-02
1.211825856878435449e-02
4.277090587950152512e-02
5.352222617894580176e-02
5.956657916465693536e-02
5.663617458088877898e-02
3.515426050065267177e-02
3.564832752732380317e-03
-2.113318970808304720e-02
-2.145315876132327521e-02
-4.152163893452907525e-03
-7.168082263712243114e-03
-3.220460552241107693e-02
-4.199479339524305604e-02
-3.560158148548676904e-02
-2.619470143153749403e-02
-2.491463778041371098e-03
3.157213679467704703e-02
5.527441829129949719e-02
6.346544377533132331e-02
5.986637942903429849e-02
4.950484218366660305e-02
4.986237426903635667e-02
6.370416607924646313e-02
4.700768933823046974e-02
-1.591965607095283466e-02
-5.774252144621891403e-02
-4.266137905084530640e-02
-1.853750356004638805e-02
-2.098008874334090362e-02
-4.842979230219678077e-02
-7.501977189715282324e-02
-6.480148618770811830e-02
-4.252049272758915560e-02
-4.588760450356994119e-02
-3.425631487413703657e-02
1.410929361559001491e-02
5.304991700913906649e-02
7.009543006701529633e-02
7.607688169930042210e-02
7.114519195835179721e-02
6.946549433933561779e-02
5.424421316760393713e-02
4.215044157881817771e-02
1.101644288210595068e-01
1.685367569630058515e-01
7.461155665946966886e-02
-5.233140165050243625e-02
-7.204869989503850936e-02
-5.175321661635894771e-02
-5.112221750766882122e-02
-5.864698900764436784e-02
-7.220607888433058785e-02
-7.287229422778676580e-02
-4.942677037827451769e-02
-2.410821198403225937e-02
-1.097649931530224679e-02
-1.124113751305580271e-02
-2.108960640880330750e-02
-3.135041758801750122e-02
-4.953798774671616667e-02
-7.724577127473977733e-02
-7.713023607091644418e-02
-4.911384897212487527e-02
-5.138784175410084781e-02
-6.543585231775746192e-02
-3.134408161312353391e-02
-3.529273280100676466e-03
-2.629277202984563189e-02
-1.868088520344142814e-02
4.156401744945814603e-02
7.854814492234116208e-02
7.949529145277837994e-02
7.792862508083617246e-02
7.961585187163362776e-02
8.511552656698964658e-02
8.548635346430651094e-02
6.951737968688864733e-02
4.535521743393380878e-02
1.168199905898095747e-02
-2.849058826360981178e-02
-4.288252811153555472e-02
-1.847143761696433406e-02
1.840084573061865139e-02
3.490502066850574570e-02
2.091188466201253718e-02
1.001433161802894010e-02
2.813816123030172742e-02
3.760792176302228673e-02
2.626242091987193022e-02
3.225922136071718987e-02
2.430641363844397024e-02
-1.538709811387262150e-02
-3.316133715380512395e-03
1.700995162621153287e-02
-8.439190551399704254e-02
-1.849288569065444809e-01
-1.120341526949346911e-01
3.125945201028634476e-03
-8.422681064651528493e-04
-4.715550599938832244e-02
-4.439672951279768215e-02
-2.735108471069133337e-02
-2.085886468877373029e-02
-4.264482863133241958e-03
2.635203009241303407e-02
6.080296429419317084e-02
6.783373659835502389e-02
3.216721409597148029e-02
1.380427990579924553e-02
4.063202020445416673e-02
4.109341620165510300e-02
3.785241059965435348e-03
3.844695862583679801e-03
-8.603336121242467077e-05
-9.182410778447080979e-02
-1.501864054854203656e-01
-6.883213506378282887e-02
4.178925689351258368e-03
-2.347164166471648120e-02
-4.407829246011652630e-02
-1.055004764871505900e-02
3.531327801444582304e-02
7.811511080678093522e-02
9.764168013873242291e-02
8.311234252308295767e-02
6.583012542500916997e-02
6.259485826765315286e-02
6.010852035455640369e-02
4.479522761281801851e-02
1.337738824149646739e-02
-2.235123205539047211e-02
-3.960512044104370910e-02
-3.182068565567183760e-02
-3.157452309389395528e-02
-4.889717845468549706e-02
-3.841860293607265997e-02
-7.363728143226526066e-03
-4.192074373497629153e-03
-4.483747646168009457e-03
1.501910201837000289e-02
2.019008084987692492e-02
7.643096034281692333e-03
1.494321429173667976e-02
6.113906200518261225e-02
7.100769967160393270e-02
-4.107041912875160350e-02
-1.445546254388151430e-01
-8.425645860041634794e-02
1.669725762032781349e-02
1.991892971834797327e-02
-6.971412211925657326e-03
-5.627057197377555685e-03
-1.577392859158857630e-02
-4.474003236722990523e-02
-4.550172470158442978e-02
-1.195991734639092162e-02
1.127685638699622156e-02
1.235396005190316469e-02
2.279497904857144541e-02
5.462076380007580001e-02
7.933547063726785475e-02
7.202897825503409845e-02
3.818750017973972233e-02
-3.913320932938713775e-03
-2.772149293291098840e-02
-2.684603182346163158e-02
-3.312704062773472874e-02
-4.855852645228588005e-02
-4.631499643118767995e-02
-3.899307052116323530e-02
-4.045120457029838940e-02
-3.741267573749106762e-02
-3.328623955859105754e-02
-3.047314329739702482e-02
-1.354179789041258693e-02
1.702918092302709366e-02
5.812855677991287523e-02
1.074023830304137311e-01
1.239553279796021118e-01
8.267565742554902619e-02
3.663316703213368580e-02
3.149392933164552044e-02
3.559149585270923732e-02
5.684471325088865518e-03
-3.834260155875080650e-02
-4.987272336413817175e-02
-4.305228281362365877e-02
-4.709477855242944627e-02
-3.519736739738175968e-02
-7.359374880969510140e-03
-3.609911831186207037e-03
-1.112944636389299503e-02
-6.199924070016319885e-03
-3.946875191297472517e-03
3.583495541356901057e-03
2.957147005040011711e-02
4.360798403293342923e-02
3.264008803592949315e-02
1.374879559247533731e-02
-1.424216759437428245e-02
-3.841113429315031608e-02
-3.231122539939387805e-02
-1.309543002395180747e-02
-1.132678821029011601e-02
-2.814424700721798733e-02
-4.698551657281706956e-02
-4.201826557061185546e-02
-8.745808355799985709e-03
1.431569645368494827e-02
1.820620054030002918e-03
-1.763670178776388653e-02
-1.221125134160842493e-02
1.155636746129769590e-02
3.258807031816670502e-02
3.109122981739641939e-02
4.699636933161019034e-03
-2.539613799785380311e-03
3.313863183477031710e-02
4.358908598813919510e-02
-8.777980022925152559e-03
-4.075474612444002220e-02
-7.338227316180421372e-03
2.784533002859080134e-02
2.424344364667688212e-02
-9.127477048056626546e-03
-4.938311805860452069e-02
-5.795642091474653701e-02
-3.507101353765725016e-02
-2.126320861466836007e-02
-2.345704229508545693e-02
-1.327976702220942835e-02
2.730434119481896238e-02
8.161642346041006468e-02
1.024747914124769926e-01
6.608523314732284160e-02
1.952560184604266655e-02
9.580940378357532400e-03
3.578013247886722981e-03
-2.675366592994702503e-02
-4.258801768610627481e-02
-2.763079056515610477e-02
-1.262766104984438739e-02
-7.208765732568822235e-03
-1.086538419098952548e-03
9.305782369381693925e-03
2.772644479972858830e-02
4.895597396322945438e-02
5.738346883645246976e-02
4.897733665599449809e-02
2.896081180434951011e-02
9.481352678872630169e-03
8.162836792165485689e-03
7.078908571491601513e-03
-3.214246553999283718e-02
-8.226013003127637113e-02
-8.281427344958301739e-02
-4.730407441359994747e-02
-2.281573020887396261e-02
-4.991293333438347191e-03
1.400869135886796679e-02
1.299442248482315411e-02
8.443934909602874087e-03
2.723345262956715362e-02
2.891151157332743499e-02
-1.314840423271409174e-02
-4.752731348908206810e-02
-4.155416976837371379e-02
-2.428332704636399289e-02
-2.441213566919596401e-02
-3.062129406841341064e-02
-2.091295136661238535e-02
-9.847286350201009050e-03
-1.283025297183336411e-02
-1.332289953964004361e-02
-1.372753346372083960e-02
-2.955356074865430824e-02
-5.062488091225297165e-02
-6.853942254061165529e-02
-7.444785212204892144e-02
-4.727196874715509228e-02
4.496891958679112913e-03
5.318166574896990989e-02
9.276550500962361945e-02
1.249957865179117805e-01
1.418094932495969629e-01
1.312513178785157109e-01
1.013138357333270428e-01
8.226863702493271424e-02
7.260008413809983241e-02
3.554732282048621295e-02
-2.246287239230641136e-02
-5.107864209229217439e-02
-4.943619081076595922e-02
-6.411308474918041289e-02
-9.012652958789504898e-02
-8.770293330703841927e-02
-7.134449681772934981e-02
-6.145584368291507477e-02
-3.741449295376628181e-02
-1.978472672730957616e-02
-3.527475499431028533e-02
-2.555253881526191317e-02
3.285959765111519382e-02
6.529014723025937383e-02
5.432099796514799905e-02
5.959576565908179802e-02
7.783177718323056049e-02
6.625586087307384908e-02
5.226191027302357073e-02
6.363958353553328395e-02
5.584980279576658158e-02
1.487676309617038707e-02
-1.228379535181516220e-02
-1.094281764540686562e-02
-5.504084366336306142e-03
-6.458348050763648533e-03
-1.006956764849115116e-02
-1.976631362199939360e-02
-2.826562699895466060e-02
-2.019757072498064646e-02
-2.027949983335656722e-02
-4.733998909287463058e-02
-6.089823576415154260e-02
-5.261982138755345179e-02
-5.989742881566784138e-02
-7.117470054348960795e-02
-6.053351957058532296e-02
-4.897653941516633136e-02
-6.045271044138206262e-02
-8.164711211044085870e-02
-7.955614258351260959e-02
-4.490233264685088849e-02
-2.275896434941129462e-03
3.094484740286404523e-02
5.869232214265535097e-02
7.744907198314113228e-02
8.121202086498781336e-02
8.175525358353705196e-02
8.122677938847072676e-02
6.274789507746460215e-02
3.416805766289165991e-02
2.283218971279955822e-02
1.904949916271388849e-02
-4.996171729502367140e-03
-3.313040298119311611e-02
-3.690740761038359408e-02
-2.448319728932134287e-02
-7.603852467951709854e-03
1.595165859147976845e-02
3.676926331416888183e-02
3.786725541310196480e-02
2.669496589294233571e-02
1.913213384149510185e-02
3.496211852970812842e-03
1.877441564550332009e-02
1.227136290622519443e-01
1.849832302796148020e-01
7.391807072928578692e-02
-5.276770035931412084e-02
-6.030997237460241495e-02
-5.816165743237240726e-02
-9.555757169733503087e-02
-9.221470569213507940e-02
-4.749409585187220478e-02
-2.907124836934328604e-02
-3.415949321588570425e-02
-4.655577607293681641e-03
7.165815760584594296e-03
-9.063256924989325503e-02
-1.554421191839925886e-01
-3.219669178902062612e-02
1.014952642844333675e-01
7.600277880669548125e-02
1.049221042969592649e-02
8.156205749327235383e-03
2.261206665281646766e-02
1.753474537068269029e-02
-8.301265582460248815e-03
-3.713414587830086294e-02
-3.333565071116798700e-02
-1.627258771630707423e-02
-3.560186299687408823e-02
-6.733950934828948631e-02
-5.922841618418336895e-02
-2.513454246589713614e-02
2.260738082231830703e-03
3.764704937146035046e-02
9.053312759833775925e-02
1.159293818049272062e-01
8.604300117726479402e-02
4.327837235185463816e-02
1.514588154752494892e-02
-8.755117351973557699e-03
1.850427404113553359e-04
1.883093101801458502e-02
-5.214832461306998651e-02
-1.213698911340921893e-01
-1.088122885893502700e-02
1.194633901970712370e-01
5.228024822114915593e-02
-4.415326328770979164e-02
-1.178124279436842600e-02
1.984880666308251954e-02
-2.823211734424516811e-04
6.792093575921641889e-03
2.092545638411296913e-02
8.978589803331753910e-03
1.344699569351922794e-02
3.394808833476072735e-02
2.980665811003969934e-02
1.275217091780374984e-02
1.096631311550478119e-02
1.759968464255231083e-02
-5.960080893061148882e-03
-5.864624276204507408e-02
-4.657543875326514149e-02
4.069107243646188921e-03
-6.932321975583148610e-02
-1.687658786927452581e-01
-8.763643219043415478e-02
4.329788293772983410e-02
5.219842089759436227e-02
2.222263974899823386e-02
2.337679128424882680e-02
2.624692259119041499e-02
2.669829000320305540e-02
1.807090254108489891e-02
-1.141528505140487759e-02
-3.757777016372407936e-02
-4.294185805086444402e-02
-3.697091886756090351e-02
-2.436228838432369370e-02
-8.282530366847106265e-03
-1.555679177420671386e-03
-1.974310000147784516e-02
-6.270301215161680486e-02
-5.943680726727073454e-02
5.902149809474904751e-02
1.746348349922372256e-01
1.442719798845811807e-01
7.385522118580185869e-02
8.665453122335622926e-02
9.205892413155668252e-02
2.445768568601014784e-02
-2.812117902221939608e-02
-1.378181904992897486e-02
-1.941207398489241953e-04
-4.856151144089453781e-02
-1.085541932411342170e-01
-1.064340133956274415e-01
-7.246586438738854274e-02
-6.779698861672901755e-02
-7.942840030590583855e-02
-5.730350224405039022e-02
-5.520366915156228217e-03
-6.677082033795949528e-03
-3.329027395357101599e-02
6.179654738959380889e-02
1.759790556809357198e-01
1.080070594831955555e-01
6.801513020317020985e-04
1.509883179760773339e-02
3.282229479347477386e-02
2.193086614441629861e-03
2.334552342540414591e-03
7.712040861468630673e-03
-2.147702392759988366e-02
-2.895020119059694280e-02
-4.432691750201564820e-03
-5.274264592259833920e-03
-2.395668522880984794e-02
-2.011399039123504262e-02
-5.690866488234032350e-03
5.883034073278050821e-03
1.842001795683312695e-02
1.374590426302261040e-02
-3.976557811942924708e-03
-3.289344629395384479e-04
4.196761523047146634e-03
-2.562778688590877652e-02
-4.613783969408425528e-02
-2.262090718953790186e-02
5.842834484349293186e-03
1.917490538227015900e-02
2.291432278112872853e-02
1.550538354048398848e-03
-3.410954760763808269e-02
-4.817692866073925578e-02
-3.618566380081134071e-02
-1.328015354213257088e-02
4.597484061514609151e-03
5.997134756439478215e-03
2.186317496725933077e-03
7.191784460468796450e-03
2.024224967175011769e-02
3.315956765170043063e-02
3.488293345686624414e-02
4.162261307984287811e-02
7.139154292287828996e-02
7.987307037676522059e-02
3.033763772583565957e-02
-2.856731521848691197e-02
-4.403222197783566300e-02
-3.519082830833980546e-02
-4.112256590841650850e-02
-4.752348418997165425e-02
-1.699014579670133848e-02
2.824970634998847166e-02
2.739361268178309300e-02
-1.527078034795210058e-02
-2.596601001275453818e-02
5.437474272850146423e-03
4.184869134593394505e-04
-5.092848870967463248e-02
-7.521201491505669079e-02
-4.617640836677821409e-02
-7.077251321904104615e-03
-2.205927399498190666e-02
-5.560940249432921867e-02
1.714347900431476349e-02
1.273560488610424313e-01
9.780470956646278302e-02
6.047429932718560372e-03
-1.784396423046291300e-03
1.885350653625435247e-02
4.770692601767263612e-03
-9.377814359100773364e-03
-6.300811110998607786e-03
1.256418369913081534e-02
4.848227999586604553e-02
6.263061322676692633e-02
3.517847731572017189e-02
2.975751638837519086e-02
6.235853156652652884e-02
4.776837137195643485e-02
-1.703804554731993409e-02
-3.892434027796214113e-02
-1.390073243824182722e-02
-1.129190976649446267e-02
-4.019477313373320815e-02
-6.712879376811843601e-02
-7.695156679712608638e-02
-6.239557412042481821e-02
-2.749051258058280572e-02
3.519936180965048053e-03
1.825332317300034507e-02
1.453678703334552319e-02
-7.153791424659163359e-03
-2.504348202226220482e-02
-3.222831056214417456e-02
-4.393949749639383673e-02
-5.139412745460060494e-02
-4.854326643900869903e-02
-4.919715676460867382e-02
-4.412788024485450600e-02
-1.401380661611867015e-02
2.608548334797976265e-02
4.468624406858004439e-02
5.155547205911394093e-02
8.488594217220364613e-02
1.261633635907279949e-01
1.229717104597171512e-01
9.735830240012770254e-02
8.562774553048040083e-02
4.462904354893877656e-02
-2.623483123865570990e-02
-5.114152053733042602e-02
-4.795657934753846940e-02
-9.267077915155788603e-02
-1.489758383781714102e-01
-1.483371469823272504e-01
-1.230850391201381566e-01
-1.207740555188152459e-01
-1.231088545480058943e-01
-9.411936994694640457e-02
-2.834797022403583167e-02
2.607067708536431327e-02
3.652816816256325427e-02
6.276988660428088618e-02
1.263081491797133360e-01
1.575357269116613168e-01
1.605001677843396479e-01
1.836968040103217625e-01
1.972118144803155781e-01
1.727379878013382553e-01
1.301895645781740718e-01
7.888163621490970612e-02
1.915575890751376742e-02
-2.913231082273120415e-02
-4.611982614906346561e-02
-4.982839174072698635e-02
-6.719908337477918658e-02
-8.134257535198016753e-02
-7.428347692684164616e-02
-7.175128929202530259e-02
-7.790487510441944374e-02
-5.546381121897594330e-02
-1.441376643405154617e-02
2.498349387855723636e-03
6.084253144973300262e-03
6.274865591138285154e-03
-2.622460008870872508e-02
-6.567478123834823156e-02
-6.061968568473469210e-02
-3.847274189716692883e-02
-3.811144905478378031e-02
-4.972609846392010702e-02
-6.794879038544408834e-02
-8.576357683016759548e-02
-8.347941183962688527e-02
-6.360191474820867108e-02
-4.107880843713770241e-02
-2.945435320973182822e-02
-2.689392855739458979e-02
7.192583670962739151e-04
4.899131953018075192e-02
5.253766633410840436e-02
1.787192591208946330e-02
2.589748082073473762e-02
6.998586020426061927e-02
8.108490807395042632e-02
7.096210319835319358e-02
8.478709096436683190e-02
9.061561308965127015e-02
5.019048183820818548e-02
1.640348380352640856e-02
3.676293597359304999e-02
5.778059319837591801e-02
3.361654880776411558e-02
8.598491678173773856e-03
1.174066017507570392e-02
1.563347076977536151e-02
2.668732087940013306e-02
4.498786510011722195e-02
1.843240472225146642e-02
-2.233910806718213821e-02
5.542408787352532534e-03
4.768671709809461923e-02
7.950667484068092705e-03
-6.935581772973165027e-02
-1.004285034416722289e-01
-8.795371281303102085e-02
-6.429361106034567341e-02
-4.976303598584633225e-02
-6.114020773944558312e-02
-7.595040441748776572e-02
-6.023394185436886650e-02
-3.420971636339218552e-02
-1.702693011314664051e-02
1.793998413861334212e-02
7.000499929792070031e-02
9.142454644097645911e-02
7.185028053907556445e-02
5.588390829697567619e-02
5.448594555673711565e-02
3.958778403892113801e-02
2.140518911284562675e-02
1.540754107058459922e-02
-8.006594485192072841e-03
-5.792553469990242149e-02
-9.734735560469832960e-02
-1.069238328770614477e-01
-9.154368198026635595e-02
-5.060477966225409435e-02
-6.579798688468495305e-03
6.629106911111883049e-03
8.334442057484922270e-03
2.932011012800567890e-02
4.849823417319082397e-02
4.460165002382523308e-02
2.760564186764541059e-02
1.038445933255485558e-02
1.146529769150089403e-02
3.314107982868985669e-02
3.464720798618457775e-02
-4.009369985590092653e-03
-4.062326228976106263e-02
-3.594548131744591812e-02
-5.824755300009637829e-03
1.242080248722535196e-03
-3.348596538976685022e-02
-6.028016483248393315e-02
-4.705577548675749650e-02
-4.183510102615412701e-02
-1.829153752397882915e-02
1.013980761368599576e-01
1.903627598213742667e-01
1.129614531392751919e-01
1.549443071623947399e-02
2.497499346374363119e-02
4.685238217244130920e-02
6.457299898616486455e-03
-4.751520018750880758e-02
-4.507328543263119935e-02
8.207891761306956857e-03
4.158378481838066743e-02
3.665512665319059504e-02
1.947227632147511059e-02
-2.765411379899166203e-02
-9.732549422004919959e-02
-1.139384724597274356e-01
-6.215334389285128575e-02
-1.400957982410478905e-02
-3.632360249673590238e-03
-2.658507789371798019e-03
9.012689014002463195e-03
2.477675262222666513e-02
3.456485915121680630e-02
3.648042091010750276e-02
2.527762197558544588e-02
1.392997446870153713e-03
-6.777535378498605184e-03
1.251116724729445598e-04
-2.156910000535466540e-02
-5.117255750427031347e-02
-4.455851978671537816e-02
-3.874981554663839423e-02
-4.406617182959637197e-02
-1.240205816025921962e-02
3.629895962288531841e-02
5.446604889659272669e-02
4.779488968100023549e-02
3.048812536414233568e-02
1.072132984418364826e-02
2.527783436317232370e-03
3.871436550559770318e-03
-5.427526831092035695e-03
-3.290630529062473636e-02
-4.937872187321136475e-02
-3.278941193750137262e-02
-1.756286829195540314e-02
-2.411476987135650896e-02
-1.715150832340038220e-02
-2.103742446718671194e-03
-1.078309156530914484e-02
-1.436827050241179862e-02
-9.659535161656913893e-03
-3.153342629703027172e-02
-3.204018930267645004e-02
2.690451694364545676e-02
7.533966946382546215e-02
8.372421808003954746e-02
9.602290656262404966e-02
9.712895539884211504e-02
4.975531150155960980e-02
-5.735494615027487975e-03
-1.144899744392309515e-02
2.401789623875667107e-02
3.973839122035759119e-02
3.296094715618674842e-04
-1.607516256899380741e-02
6.425254891906848065e-02
1.014789753154144575e-01
-1.375647397404839226e-02
-9.630701516952987207e-02
-3.560360874511180052e-02
1.213671705597640926e-02
-1.364063734067572260e-02
-2.146725864198889555e-02
-6.775141758139330977e-03
-1.467574868009840355e-02
-2.704750748337889435e-02
-2.060653372141488249e-02
-1.976322258623522399e-02
-5.990593553142108119e-02
-1.217938452861011683e-01
-1.345218925954080047e-01
-8.990764260945365016e-02
-6.416621820160775536e-02
-7.066851028754464470e-02
-3.936004241387462688e-02
3.414813440244147263e-02
8.363814463151394984e-02
9.301754247685037336e-02
9.392627195682762276e-02
1.000410814695691930e-01
1.017627119461636392e-01
8.310850508696226990e-02
4.463269051558849121e-02
1.238279194385218107e-03
-4.953285166351022173e-02
-1.113352054730283591e-01
-1.551282704917533450e-01
-1.497407186839180282e-01
-1.162648684994205817e-01
-1.024818545253031593e-01
-1.024862350746548190e-01
-6.910874785088706729e-02
1.778356013991891880e-03
6.485479563734478092e-02
9.217079164071043107e-02
1.072791010454673677e-01
1.401801721302705361e-01
1.717338918790881908e-01
1.724113120903135732e-01
1.667830598504871364e-01
1.713659480137136870e-01
1.404963903973654449e-01
7.682806404239861386e-02
4.418888759727486459e-02
3.579865703459772508e-02
1.159382105437695154e-02
-2.654871546902472235e-02
-7.114117084391800849e-02
-8.650880148009079673e-02
-5.003381579851685912e-02
-2.625918364982523026e-02
-3.664503263527003896e-02
-1.965232182126532001e-02
1.128504058044125548e-02
-4.323425710386687507e-03
-4.619491115529307523e-02
-6.096353133222044696e-02
-4.841374201356772600e-02
-5.269872525880001102e-02
-9.088039593557321882e-02
-1.213927071462560375e-01
-1.237447576777616354e-01
-1.216900608470410233e-01
-1.155525837116565813e-01
-1.012778385176593271e-01
-8.409637569087549669e-02
-6.773507211211779455e-02
-8.725668608238630608e-02
-8.967551327387683624e-02
4.628494776208786493e-02
1.779669402130332201e-01
8.981043754063716689e-02
-1.548839223702158652e-02
1.010717966238658116e-01
2.123303492266661319e-01
1.041137577553711557e-01
-2.901881343583023395e-02
-1.908130358696047413e-02
3.293140567268379448e-02
4.063397105671315290e-02
3.390469082833655334e-02
3.472236551669970195e-02
3.551212766353985251e-02
3.345581251243955057e-02
3.174399712240897481e-02
3.318104804888960535e-02
3.843430983517047428e-02
4.811631375106441288e-02
6.058049615198080051e-02
6.078908917982588089e-02
3.745833668730526311e-02
1.107850913596349074e-02
-1.365242998044538525e-03
-1.642094857409082120e-02
-4.337218605609761968e-02
-6.564570642654585231e-02
-7.083623232007067727e-02
-6.267789721826420857e-02
-4.941109631923205209e-02
-5.100619172336886414e-02
-8.523087671679573096e-02
-1.092492653388887486e-01
-6.499144825052151353e-02
1.256892039468395818e-02
5.276821622091601438e-02
5.878864501470584814e-02
6.813782355332731466e-02
7.478045015729492540e-02
5.125641496998147723e-02
1.872556512661296621e-02
2.091390511388433598e-02
3.649218542456136860e-02
1.870658981807696297e-02
-2.344816538858649976e-02
-5.607532348798113797e-02
-5.554109726862326013e-02
-3.077250241229027156e-02
-2.733420571634099031e-02
-3.859243126601051566e-02
-2.123206881745708791e-02
-6.391442981833635878e-03
-7.316651029954683236e-03
3.345951210919820978e-02
4.706289425033313711e-02
-6.376755817426153772e-02
-1.374880475299783689e-01
-3.816296859574436207e-02
6.073595726039936193e-02
4.595039883145357607e-02
2.962806261496950255e-02
4.617578901397498964e-02
1.580910236390192097e-02
-3.626779679551436070e-02
-1.141173944305593109e-02
1.245177381069243437e-02
-9.572511673984063219e-02
-1.706273075351871782e-01
-4.574638357715273690e-02
8.197928112828829772e-02
6.688251546527779201e-02
4.077888902695699785e-02
5.429075813020420305e-02
4.434432658444182468e-02
2.516475995026735968e-02
1.996842313305726563e-02
4.652726289869457688e-02
1.312843028978974980e-01
1.711264805449155546e-01
7.087982105086595985e-02
-3.954107258514982792e-02
-4.752541253630676588e-02
-3.350518622837854454e-02
-4.794548442382645659e-02
-4.146545283783241442e-02
-1.695429531762976394e-02
-1.973568187729583118e-02
-2.956232494413485457e-02
-8.947617883794788812e-03
1.165605537474110470e-02
1.302653245880536041e-02
3.635965435850056771e-02
6.605899035756586379e-02
4.642315969698587036e-02
1.638183310697794923e-02
2.026193703164163099e-02
6.262254743896940659e-03
-4.721301241242852054e-02
-8.968187827008518298e-02
-1.066371589091420352e-01
-1.086019882102256529e-01
-7.840896381383972991e-02
-3.019025131544705864e-02
-1.375582606502206984e-02
-2.439778198734354753e-02
-1.744205775134074349e-02
7.297659589062269192e-03
1.810606768536440758e-02
7.918597918541905173e-03
-6.342847836995044869e-03
-1.372439572362635883e-02
-1.102038526650888500e-02
8.542596734556262561e-03
3.071820765945654230e-02
2.177760079291742035e-02
-6.907645876310726692e-03
-1.309820668258843135e-02
-5.224279717584245572e-03
-7.249758559890682671e-03
4.931805955112687767e-03
3.628205812119802282e-02
3.661136250167283668e-02
5.408982527850903291e-04
-8.254974997230364250e-03
2.161334944265607544e-02
3.132112914698240852e-02
1.938099094079001605e-02
3.674186837633994229e-02
6.623709793236252918e-02
5.283696859490036313e-02
8.822721600011487059e-03
-1.470519839467598379e-02
-5.471759095852801041e-03
1.643999815507211915e-02
3.477146659540086837e-02
4.081498824222828947e-02
3.034995651250525089e-02
1.280634922374604585e-02
8.312156241454721900e-03
1.644511725910281427e-02
1.559189008848453455e-02
1.105078511434038485e-02
2.096740167339944394e-02
4.312063509725213434e-02
7.994683353112910784e-02
6.820925094282466461e-02
-7.321017981566169119e-02
-1.860282668471894829e-01
-9.814367047263031218e-02
4.088621442306155859e-03
-3.824259417751797729e-02
-7.154796430479896940e-02
-2.937473165480850371e-02
-2.188061686696770800e-02
-5.028637383037280056e-02
-5.722187237655542574e-02
-7.070064901787753708e-02
-9.571660117377361887e-02
-7.929635341043737851e-02
-3.525921787547169062e-02
-2.344223115688412115e-02
-4.273901980539640544e-02
-3.894826321239124034e-02
1.068748090182585278e-02
5.011005829216198110e-02
7.250327675593290500e-02
1.643283403524322117e-01
2.560211729772295386e-01
1.895783800278578179e-01
5.159054376081649573e-02
-3.397332794053339877e-04
-3.773570163849694625e-03
-3.090192503605009716e-02
-7.646281808445164196e-02
-1.118163371798223116e-01
-1.092459250544895177e-01
-1.247042254984726956e-01
-2.179185498660908549e-01
-2.474826783758206639e-01
-1.043862847356834267e-01
4.337989098307867830e-02
7.675285231203685110e-02
8.168271638849024241e-02
8.591509656683699037e-02
6.089085167028963907e-02
6.570428040867662411e-02
1.254633852444380082e-01
1.571278685448780355e-01
1.265552731391024477e-01
9.939334572506131060e-02
1.185303045383986342e-01
1.536666047817860092e-01
1.555132033950989978e-01
1.133108549509095619e-01
6.928051064444347429e-02
6.182580954364670645e-02
5.952217142999258193e-02
1.973686103995643884e-02
-2.341651008391210098e-02
-3.049990893764107161e-02
-3.495175835271954745e-02
-6.894155660525365381e-02
-1.093451508187758964e-01
-1.351166364494021110e-01
-1.573627405526108192e-01
-1.730272240062976918e-01
-1.577131586092007376e-01
-1.344393981149322181e-01
-1.482979373025366809e-01
-1.525923912276110905e-01
-9.750011077512610314e-02
-6.103757835487794853e-02
-7.802937127397760464e-02
-5.819461129351388706e-02
4.688231097662393099e-03
2.857811785180645880e-02
8.988370122731514922e-03
-2.731189375038238498e-04
2.525400019262804760e-02
5.733845160738661878e-02
5.891873379614186168e-02
4.701929797508765108e-02
5.278645914740996703e-02
5.934640118924407876e-02
4.403728072753778505e-02
2.766520935522173708e-02
3.488491614054019252e-02
5.200933288404879784e-02
6.224043721397774787e-02
7.415582239277844490e-02
9.046049954323504005e-02
9.316445240197888944e-02
7.547342781490173902e-02
5.800108682848600927e-02
5.647150808564531388e-02
5.675181434525727181e-02
3.469451967502239220e-02
-7.665790820656204901e-03
-1.692131034666540662e-02
4.089492861357980902e-02
5.007548187824491931e-02
-9.158955017703834800e-02
-2.032824311613382617e-01
-1.169005550833885632e-01
-2.407270852701374336e-03
2.561780881617965744e-04
6.066671508983495151e-03
6.120638143586991375e-02
7.455296082279909420e-02
4.028688771039226624e-02
2.295961396955100917e-02
2.391444576883367326e-02
9.048833239638355216e-03
-2.173501047910372450e-02
-5.625360711514554302e-02
-8.976885785175978127e-02
-1.105651217259939756e-01
-1.094375144700816399e-01
-8.678406775357415393e-02
-4.866359520226572200e-02
-1.721815389003517743e-02
-1.526105037357391656e-02
-2.555563029719284257e-02
-1.223539375434993734e-02
1.303056717709457843e-02
1.917347629494587855e-02
3.112045360335845973e-02
5.351564928330602988e-02
1.764341240721438442e-02
-1.860737978385090113e-02
7.728138190350614112e-02
1.568756954456575481e-01
3.969053415408312080e-02
-8.153303536997338896e-02
-4.824262485035567261e-02
-1.576757614567749627e-02
-5.515729042677889465e-02
-6.304272737115022840e-02
-2.921093003467826327e-02
-1.345028103079976174e-02
-1.083751942040001720e-02
1.032563800411238387e-03
1.650263386849736003e-02
3.696083724986663072e-02
5.850086733580046883e-02
5.760411232763922029e-02
4.008820818842168121e-02
3.103260000974135402e-02
2.034914262550059638e-02
-1.717049856286397697e-02
-6.936175117108944743e-02
-4.768687804181383216e-02
9.269557871562449092e-02
1.710380765622267485e-01
5.511270013167759302e-02
-4.822522352176909083e-02
-1.475626532926194168e-02
-3.085089439976820835e-02
-8.437170147540051790e-02
3.557716204920456649e-02
1.758501389353839262e-01
8.816949798770493119e-02
-3.832626205778259104e-02
-9.515833729060778345e-03
2.787743929142566177e-02
-1.707438678287220152e-03
-8.692365879515856486e-03
-6.343794346408424337e-03
-4.447024774457446900e-02
-8.936495658285517618e-02
-1.067607098600306809e-01
-8.880207148082591706e-02
-5.641913774325803266e-02
-6.161938973455979157e-02
-7.852482820770635696e-02
-2.774564437393097979e-02
5.123184234319614477e-02
6.087896681486751338e-02
1.454964297454137273e-02
-2.237030662449014662e-02
-2.874906579775271531e-02
-6.322033684710387687e-03
1.345303579923665289e-02
-1.042510676276307488e-03
-1.195558231279828486e-02
9.050435741164802178e-03
1.706077651076492313e-02
-1.852480416931093048e-03
-3.201089502464223718e-03
1.857611722019064660e-02
2.525015138012949231e-02
7.935526993616336816e-03
-1.447689486860560468e-02
-2.089183109951983294e-02
1.126474996506471489e-02
4.720293965721046592e-02
2.077579291051378715e-02
-2.317799796724723943e-02
-2.205472655256095899e-03
4.288586836058828899e-02
4.717767071912539606e-02
1.857961168150801604e-02
-2.066918339808320598e-02
-3.370408308330048036e-02
9.659803822970759041e-04
3.027466079527658949e-02
1.668206679896266573e-02
-7.285293124528558449e-03
-1.977341713237311741e-02
-2.381565078617049747e-02
-1.085014041793615908e-02
1.446362735913809226e-02
3.766399487422354697e-02
5.947363902955703913e-02
6.491830797042588697e-02
5.469244802611366446e-02
7.148301132578063766e-02
9.534213469779638517e-02
8.300056466750282969e-02
8.165757338848239621e-02
6.139863571462786385e-02
-7.731935191297846510e-02
-1.886249848903714943e-01
-1.012670515359017087e-01
5.252626611229060244e-03
-3.262318170837710113e-02
-7.622217751999663116e-02
-3.151809232220029872e-02
4.318487530880106562e-05
-3.858140678281541530e-02
-6.522916011508467227e-02
-4.859561948831392364e-02
-7.813544658933742337e-02
-1.104567308729017816e-01
-5.813313778791036508e-03
1.060404493883086025e-01
3.608304629876159936e-02
-7.217592914879700228e-02
-6.759388781661518353e-02
-5.438909402472585919e-02
-8.208482582091525259e-02
-6.445070838695486637e-02
-1.673031302968578174e-02
-2.656623462066480881e-02
-2.613065518577830856e-02
1.040369045714392288e-01
2.292682460057281491e-01
1.729687553264079303e-01
6.771819705733371497e-02
7.385106286310476331e-02
1.086308366177929502e-01
7.913513447770308129e-02
2.486742817306581213e-02
-1.545953122314998665e-02
-6.460931612491874199e-02
-1.213743238419489195e-01
-1.398051921880713866e-01
-1.201601296971891303e-01
-1.095092922922151768e-01
-1.156042882521090137e-01
-1.200337277586280699e-01
-1.139630198618978851e-01
-6.778389209976985741e-02
2.136603510246974993e-02
8.466981577443240259e-02
9.437922611261712058e-02
1.073981555625262152e-01
1.537676045026766802e-01
2.027163662841941494e-01
2.159581151705629865e-01
1.882130409483112887e-01
1.555175584250017284e-01
1.405320144103288649e-01
1.147767324899321151e-01
5.841653904706374523e-02
5.948542864163915145e-03
-1.707801080872794336e-02
-3.094057529612177782e-02
-4.297814470125139313e-02
-4.748475197510877710e-02
-6.510680646739781807e-02
-1.024612354138887821e-01
-1.230645148592909160e-01
-1.086134768503869003e-01
-9.880460938448226704e-02
-1.154686610222842025e-01
-1.191775449707527523e-01
-1.022929547502332281e-01
-1.076808881071533164e-01
-1.215802327027782487e-01
-9.784303026979211670e-02
-6.925994159969539599e-02
-7.829472392120867541e-02
-8.324934985816456745e-02
-5.347358664096420189e-02
-2.269663611608348924e-02
-3.837477667318227315e-03
2.128004978713431833e-02
5.095231250397842804e-02
8.184949387341233784e-02
1.145546033495570409e-01
1.183119923322464712e-01
8.227985587396517697e-02
6.162792752110449884e-02
7.577049652744763386e-02
6.310443382315908400e-02
1.121336178128630283e-02
-7.952294121506865709e-03
2.300459081853482857e-02
4.148583882209991996e-02
2.579304702298117202e-02
6.101317839034111484e-03
-1.019072696580359400e-02
-2.334179385543955210e-02
-8.368292939767228711e-03
4.136667152542761183e-02
8.607697811542992794e-02
9.829370568335676905e-02
9.520062070354923245e-02
8.187393228630815423e-02
5.456607980726377316e-02
3.767273718962777657e-02
2.929790125840334852e-02
7.498562223305853258e-03
-1.391223245039021825e-02
-3.556421532370627331e-02
-7.011916901000993241e-02
-8.869813671702239666e-02
-8.660725990227230442e-02
-9.309971596318894482e-02
-9.374517315928170003e-02
-7.864588334778879752e-02
-6.721764012547710998e-02
-3.857572714652089674e-02
-2.928883013760208431e-03
-1.690734791847571528e-02
-2.840663310330233254e-02
1.882140372036815792e-02
3.115659290734245496e-02
-1.125788999458887663e-02
-2.030429068202131704e-04
3.654789411916824909e-02
1.203953478573311156e-02
-1.698137616093504942e-02
-7.066671986841172211e-03
-1.423834963730763112e-02
-3.915222102169014368e-02
-4.099463986482036748e-02
-3.249317405530716824e-02
-2.291560278291631531e-02
5.599422948397304867e-03
4.034667387993420840e-02
5.396189631345674198e-02
5.007439468352470335e-02
4.873802593455196785e-02
5.195922551340055595e-02
4.944714325929076143e-02
3.832621401255913163e-02
9.288001070911619181e-03
-3.620927980787333467e-02
-6.056844404593252768e-02
-4.947392565255297192e-02
-2.782783511332841131e-02
-4.661159973165153285e-03
1.268722211337273628e-02
8.709017116574938391e-03
1.488316443830978207e-03
2.096636716241688167e-02
4.994929467976380599e-02
5.734864474147111091e-02
6.856933421104136062e-02
1.030121655896102245e-01
1.063703995689087023e-01
7.362757446136662665e-02
7.440340746976202568e-02
5.105318721926333653e-02
-8.507452303873802579e-02
-1.812951176240414353e-01
-1.142111796124670176e-01
-5.051201137644416306e-02
-8.118809521183957545e-02
-8.719436737213270838e-02
-4.301136036671100726e-02
-2.296455204983243251e-02
-1.600619205637855355e-02
3.689980530095442190e-02
5.521574283003885530e-02
-8.205430692385926039e-02
-1.751434675400444507e-01
1.201641100920053731e-02
2.106726594691861465e-01
1.348655373868818952e-01
-5.943801787169314399e-03
-1.997157978868457917e-02
-9.021255373475100398e-03
-1.748303634043851459e-02
9.611175914814281199e-04
1.749836821522571945e-02
-1.493940524427698341e-03
-3.036162448383666543e-02
-4.178933142943797030e-02
-3.572934478265981512e-02
-2.562409623876048953e-02
-2.095699313828413082e-02
-1.568955344915219652e-02
-7.127490822577255223e-04
1.987775772513088526e-02
3.473532131539516093e-02
3.565524526366061625e-02
2.822293368665724014e-02
3.378629881518002004e-02
5.282605163992989267e-02
5.009255138018221115e-02
1.339581595198155624e-02
-1.434449792376391551e-02
4.881857686107335739e-03
3.463445218874507125e-02
6.123080579669949557e-03
-5.572522468681397750e-02
-6.024094794405961129e-02
-1.360046651853925523e-02
1.232270427840569983e-02
1.638602314271329560e-02
2.491828193564886787e-02
2.888366351248898567e-02
2.878408759203908429e-02
3.078287955916858901e-02
2.065071590435157284e-02
3.346599053849059341e-03
1.902811488286737344e-03
1.123242450070762767e-04
-3.928246225931033425e-02
-9.617816931360807786e-02
-1.086987099692902081e-01
-7.313237742122828677e-02
-4.188077852427917608e-02
-2.748515106913954759e-02
-4.507705528898238445e-04
3.592775179981320954e-02
4.971799086615621976e-02
4.167724663842488353e-02
3.215471271976001744e-02
2.547478472303506269e-02
2.672621138894339457e-02
2.707072800770000953e-02
6.616795783893713798e-03
-1.786915622220447072e-02
-2.022056866620086657e-02
-3.854880253824279936e-03
1.070220668701574000e-02
1.040069473250139834e-02
8.377433954047578887e-03
3.820638332653132803e-03
-2.448879083299843745e-02
-4.364280859713273730e-02
-1.632264060533664823e-02
7.319616607795603053e-03
-5.204918746044155491e-03
-2.668867505110873381e-05
3.428956698467906100e-02
4.334035479942363600e-02
1.835424219511135741e-02
1.020610612168951518e-03
1.886098830290213607e-02
4.766735878513835012e-02
3.534694264462191760e-02
-7.240836780298283946e-04
8.115072243926674950e-03
4.343463341331724875e-02
3.443571259078213181e-02
-1.140524121622494766e-02
-4.820278871115993985e-02
-6.880576142262057049e-02
-7.262453249212835749e-02
-5.205908073191235774e-02
-2.341110442752096857e-02
-5.114050667838734160e-03
6.098839290571296187e-03
7.174129485073153095e-03
-6.485064454995682209e-03
-2.043220760679221107e-02
-2.102350857818277574e-02
-9.006441481300975216e-04
1.754225160806783396e-02
-1.774269344696230086e-02
-8.249969306372993694e-02
-8.828291129102253110e-02
-3.595145644407714280e-02
-8.851408593326424296e-03
-2.514407973770792226e-02
2.154051721377811188e-02
1.795305231895768516e-01
2.662714483383843422e-01
1.671764249089027210e-01
6.062096157679145586e-02
5.318089958952337132e-02
4.763434209680066089e-02
1.711964695674643433e-02
-7.835568384195374519e-03
-4.775542766609251061e-02
-1.022477035341879947e-01
-1.430771405698061383e-01
-1.537829088165252323e-01
-1.254089724111158710e-01
-7.574929684809142416e-02
-5.293512223488955337e-02
-7.468709617353722074e-02
-9.053194278343576484e-02
-6.154323967373336035e-02
-2.409872764993299665e-02
6.075569312346075501e-03
6.007291902250298105e-02
1.030309592517242856e-01
8.575015911009062353e-02
4.981413673964564526e-02
3.771647694680382162e-02
2.629635201236078107e-02
-8.733000444791324743e-03
-5.104756987128639817e-02
-6.128410214652274535e-02
-2.923274111932708599e-02
1.480817790238896266e-02
5.599512550958081480e-02
9.140133018437265888e-02
9.369711763381431691e-02
7.030487717270961223e-02
7.220976439772000544e-02
7.081651230162379351e-02
-3.061474208676424891e-04
-6.187891603722450035e-02
-3.227481570179505099e-03
8.899782141513216949e-02
1.032122677915419812e-01
1.110180631968591125e-01
1.567857007754542287e-01
1.510419477326701287e-01
8.469418678901620423e-02
-1.089522902745344510e-03
-1.290769598916788330e-01
-2.013743793583479269e-01
-1.014336172658731050e-01
-1.413632285615393051e-02
-9.217427657668440799e-02
-1.257833870079050342e-01
-3.754524139082129897e-03
7.346397971011310590e-02
1.539070062122746552e-02
-6.435206789422620588e-02
-1.061950087797750991e-01
-1.360347717719130045e-01
-1.695926607941688480e-01
-1.948739868652138996e-01
-1.692078037823458170e-01
-7.603586312341077680e-02
8.747933377021996360e-03
3.254497571168257081e-02
5.835318335974943454e-02
1.130479461168371891e-01
1.220596357966262507e-01
8.205259658676711254e-02
7.541599644529894952e-02
5.561843571554320187e-02
-7.800821950337541444e-02
-1.829264923181131430e-01
-9.739699261087852999e-02
8.616104170610209417e-03
-3.007447769525669473e-02
-8.878471372160880171e-02
-5.684215881170469331e-02
1.014064863469199725e-02
5.311775520017584379e-02
7.341537951703355769e-02
1.002346664909820328e-01
1.464572492626093903e-01
1.678667960102958601e-01
1.156140173328685794e-01
2.945111959980702826e-02
-2.359184384119090983e-03
2.152877875674908542e-02
3.222831569396759910e-02
4.255791781026123377e-02
1.129457269636156558e-01
1.942762632795493050e-01
2.017214089549520528e-01
1.577765856044700266e-01
1.169744598706592559e-01
7.868009551794158396e-02
1.755519787472611601e-02
-7.808765682641163886e-02
-1.631610483970793446e-01
-1.760029029515352006e-01
-1.385986176707073581e-01
-9.524676724272015949e-02
-3.663737739338714799e-02
2.852719854682850276e-02
6.652835901945391983e-02
6.367709262679235871e-02
1.640913172020135730e-02
-3.801314121279963931e-02
-5.174440475677737072e-02
-5.802456018210504912e-02
-9.612563751731860451e-02
-1.296747359272367450e-01
-1.376407265798042512e-01
-1.405605072236186526e-01
-1.382838225195084925e-01
-1.408224158021774974e-01
-1.723559614216011171e-01
-2.076132000872273897e-01
-2.099857432937015655e-01
-1.919917716100514871e-01
-1.718176423485628934e-01
-1.347326425905734093e-01
-6.927876027270757353e-02
4.031209741602911900e-03
6.380687976673268813e-02
1.206487966194059736e-01
1.952298525898931159e-01
2.813565749580346220e-01
3.384942326997589235e-01
3.309472793516537448e-01
3.108920381575755454e-01
3.527071446842283131e-01
3.512491515651263163e-01
1.888173575040290875e-01
4.445309680217787718e-02
7.344872738948717006e-02
8.907215532310405748e-02
-2.948208823597134320e-02
-1.263843775907495248e-01
-1.326717655892438175e-01
-1.521050797473147420e-01
-1.868804066317756307e-01
-1.313375784392398771e-01
-5.513957399419962963e-02
-1.190227503231671702e-01
-1.926007085683847098e-01
-9.059415057411887573e-02
2.503649611208396200e-02
1.274028761712488883e-02
-5.565533705901192646e-03
2.591034626576008831e-03
-2.416612785982663256e-02
-3.269619131516304789e-02
-5.446995715113669284e-03
-8.538614575961740033e-03
-2.040399775096052304e-02
2.315152734224067838e-03
1.430416377631262004e-02
-4.712287906694263839e-04
-5.932803145155134822e-03
-2.701082114256715683e-03
1.666602287766718454e-02
6.348955006863203632e-02
9.637319380532398394e-02
9.482380127854835028e-02
7.616476443700263832e-02
4.171451436007700408e-02
7.490239755702078270e-03
-1.081672809905057618e-02
-4.126732395382300134e-02
-8.954021922055400984e-02
-1.140153414166532320e-01
-1.154741710975910052e-01
-1.438678768703733069e-01
-1.910968974205787541e-01
-1.827362319132801449e-01
-1.093062835549726275e-01
-5.558556279253690918e-02
-5.375298068456565992e-02
-4.343074604845757053e-02
3.634474442269459288e-03
6.206451871410477439e-02
1.136587511976745041e-01
1.455129561258538817e-01
1.455271415069286089e-01
1.193466153697868432e-01
1.004878639923891398e-01
1.212857578708906869e-01
1.581513302554962141e-01
1.549181382667099149e-01
1.014103417391304662e-01
5.104063264077614293e-02
4.789180034937032260e-02
5.610852214341125604e-02
2.744122061208056906e-02
-5.307318154067614674e-03
1.714016608525499585e-03
1.885032708565965651e-02
2.671979160030500677e-03
-3.070860042539497528e-02
-4.453730875772925202e-02
-4.990932246299002728e-02
-7.512830948357226979e-02
-1.045755677753114482e-01
-1.112975601831306116e-01
-1.051585413561493543e-01
-1.035506604910053502e-01
-1.038297865640746692e-01
-9.357240365013771988e-02
-5.672916477983361294e-02
-7.421272646226301228e-03
1.529111438342117824e-02
2.484273691022596819e-02
5.167640746709050575e-02
6.513787250031438658e-02
4.749033525069594475e-02
3.884690009736591065e-02
5.698927374966773762e-02
7.384186348553126167e-02
5.667770291967740015e-02
1.303665482618472302e-02
4.437574542047790019e-03
3.489796588597827293e-02
1.357640246286502365e-02
-5.499514937024323896e-02
-6.495578647868049948e-02
-3.241192033128079131e-02
-4.752929669827531817e-02
-9.153489178020247918e-02
-1.034707424119420127e-01
-8.392836432624256604e-02
-5.659895877415455773e-02
-3.509032101543425874e-02
-2.364503250601152767e-02
-1.052830848422380353e-02
5.857534004109776066e-03
7.796035449390247007e-03
4.136069058373152696e-03
1.396103351573143962e-02
2.305535235248303005e-02
2.780582124909998162e-02
4.558474012894300070e-02
6.046184494862961306e-02
4.996308978662860473e-02
3.635774503281082037e-02
4.937662279047799752e-02
7.968826327346147098e-02
9.748932692820831691e-02
9.748692021719078393e-02
1.033970992355340984e-01
1.191504333353237272e-01
1.204803070649360236e-01
1.050260469233047778e-01
8.664837138030401231e-02
6.180408232400505519e-02
2.217300302659953870e-02
-3.614300821681654119e-02
-9.133216814008038309e-02
-1.006912503061311859e-01
-9.122398779481756537e-02
-1.249854997513108468e-01
-1.536520848754583390e-01
-1.146658076054782177e-01
-8.281681880036757815e-02
-1.065097101991258899e-01
-1.048431521294438118e-01
-6.406588115151005958e-02
-5.982334617415228928e-02
-8.184905301144125567e-02
-7.038886706487078315e-02
-3.742588213643933959e-02
-1.222359615131152211e-02
2.761797794278189611e-02
9.042142458940594096e-02
1.327058330988337975e-01
1.314246263726810693e-01
1.101851507159762045e-01
9.188639123812389342e-02
7.782183785954645272e-02
5.799467982515729703e-02
2.035368667359281625e-02
-3.673092395242984892e-02
-8.672256657609464514e-02
-1.001594708114479371e-01
-8.997253148210672402e-02
-8.945134892130179871e-02
-1.086086859487766787e-01
-1.276118236863360289e-01
-1.220217245679061507e-01
-1.045576730281198158e-01
-9.358985317433324291e-02
-5.249247014778853082e-02
3.308569850249845623e-02
8.516770655306099558e-02
6.612453752526181727e-02
4.989299588374686983e-02
8.321715717111781430e-02
1.421635988102848414e-01
1.987978168270262413e-01
2.239682578928723911e-01
2.222349814500369780e-01
2.313624940114049067e-01
2.317175756007474607e-01
2.018455460236283361e-01
1.791361558519130315e-01
1.140878737025869394e-01
-5.665517419771447238e-02
-1.740519141739698683e-01
-1.096639754568140418e-01
-2.229346421850963988e-02
-3.756513413352788322e-02
-8.766311650316237214e-02
-1.202294112149646377e-01
-1.303376027386966285e-01
-1.178885179728436927e-01
-1.125905139917600800e-01
-1.293128082213698959e-01
-1.440612946332289201e-01
-1.423065658804765765e-01
-1.282796334600880273e-01
-9.818314246920398225e-02
-6.583501384472582874e-02
-6.866891280427084299e-02
-8.336460124460684518e-02
-4.971074697239363793e-02
-2.512202731896735763e-03
-1.172618948552877488e-02
-4.849091215077924039e-02
-5.366946703872176733e-02
-2.537108239964232237e-02
1.421596862625969238e-02
3.821993418426937461e-02
3.758315041716027427e-02
5.413806940128923495e-02
1.049049568808283622e-01
1.281555943543413734e-01
9.537483144345278163e-02
6.418739678396849502e-02
7.178712634402302506e-02
8.787260271699437464e-02
7.349370923949771761e-02
3.575332086539918797e-02
2.527199603609887185e-02
5.290007912631487785e-02
5.568390065213919826e-02
1.937944302070053124e-02
1.084033704127321251e-02
2.652942489440921620e-02
1.630458509411272447e-02
1.990370789372724464e-02
5.355760592725856972e-02
5.612591233041921285e-02
4.866082403648711724e-02
6.812382694709395725e-02
7.101416182048968240e-02
6.729874448304105916e-02
5.033564491501325150e-02
-6.424898000735977666e-02
-1.718429157704764176e-01
-1.105752070842321716e-01
-2.954351208550750132e-02
-8.494144116627828922e-02
-1.430905919561933637e-01
-1.160222366946788847e-01
-9.059070208013110526e-02
-8.719300832927595613e-02
-6.972096284999437787e-02
-5.003304377795989716e-02
-1.597512505776848765e-02
2.179640568236809739e-02
-1.121149738159738646e-02
-2.751348309170534301e-02
1.132712280981284236e-01
2.187454467084563037e-01
9.294077300138317566e-02
-4.058334649271643640e-02
1.251984750503337684e-03
4.975431246032586269e-02
-8.311981034002734192e-03
-6.948303080136580823e-02
-6.889740075252956397e-02
-5.183629315802266296e-02
-4.562060389818438366e-02
-3.556925662651168329e-02
-2.520408298945421566e-02
-2.131008410900390657e-02
-6.505324152274477578e-03
2.113424006216856749e-02
3.725009072374528551e-02
3.354035117960318946e-02
2.230859731503201382e-02
1.580392249664928916e-02
1.892469648427698090e-02
2.087948257235078264e-02
1.563402554375439846e-02
1.179517247800366056e-02
1.967927299117747456e-03
-1.662386996786966234e-02
-1.528589398700176856e-02
1.518366627436022222e-02
3.716796099783758328e-02
2.649459315090231526e-02
9.841605555237577935e-03
1.603319894369022516e-02
4.968899159984625780e-02
9.250548841931928445e-02
9.616663687149656914e-02
8.475355476899743001e-02
1.396268443290392958e-01
1.479183372066543711e-01
-3.370339799421091798e-02
-1.953323166217222628e-01
-1.320236935967721847e-01
-3.418205752485518195e-02
-6.172344356755531114e-02
-9.956880532088985269e-02
-7.782845371170493687e-02
-5.019471864793779298e-02
-4.085690147640691494e-02
-3.899557207829010275e-02
-3.203419553757066995e-02
-9.273675395821707329e-03
1.599676452674930055e-02
