-4.682016228192373286e-02
-8.187002930401086898e-02
-1.168134073023941177e-01
-2.187691593435817927e-01
-2.909490519662645269e-01
-2.028942266770446812e-01
-1.103689646386953604e-01
-1.443196232219761954e-01
-1.370249202549423395e-01
-1.836624891477071919e-02
8.529182664370155154e-02
1.556171164418830855e-01
2.275763434810889330e-01
2.591612787343469115e-01
2.222867603691124905e-01
1.470999275828805963e-01
9.384839942152829739e-02
9.230725119495816755e-02
9.584948443954657837e-02
6.265680006076215780e-02
1.910534116557140172e-02
-6.055604541376630179e-05
2.532918276851366807e-03
1.400524595011268594e-02
5.204875300868964938e-02
1.162455302464118490e-01
1.197491904795287693e-01
1.366263551569993698e-02
-1.021541493119991068e-01
-1.474810178962009388e-01
-1.691223663253992315e-01
-1.984661618103492065e-01
-2.133663512863054335e-01
-2.250277364690117521e-01
-2.453830852746477775e-01
-2.485530819160640115e-01
-2.200338635789583219e-01
-1.662020657175038163e-01
-9.498386973674310951e-02
-1.572423657180294088e-02
6.737984812230418674e-02
1.424725032961741134e-01
1.904928661533713263e-01
2.203470016688084121e-01
2.433259374556174248e-01
2.265582681593398817e-01
1.662679472857187257e-01
1.306454194496619869e-01
9.656683893124737295e-02
-2.599922768814134921e-02
-1.246390030357726053e-01
-5.974227879990566537e-02
2.543022522620758813e-02
-1.814507300734660711e-02
-9.534298168095438342e-02
-8.718462911224317269e-02
-1.671241554504758475e-02
4.118314358226326383e-02
8.378333341642536791e-02
1.524968677101373182e-01
2.139337391594990090e-01
2.055935365161101480e-01
1.526919505645550623e-01
9.960544851383035247e-02
4.400806726780202155e-02
5.750125038779762415e-03
-1.444809515104467090e-02
-7.385194667732164486e-02
-1.105520104040308565e-01
-6.816399413424083925e-03
8.630049822745913812e-02
-2.962832965499147611e-02
-2.020921902500028844e-01
-2.348387558532182284e-01
-1.969292283428250856e-01
-1.900706295979801008e-01
-2.101010834089911405e-01
-2.294395296890386626e-01
-2.343038000688483780e-01
-2.318733409478418162e-01
-2.269241677713827454e-01
-1.912021116402454479e-01
-5.661740830513870698e-02
2.015782656012854446e-01
4.160722880846361438e-01
3.952127007210012311e-01
2.459379604046018630e-01
1.795003673733767680e-01
1.688839827570428331e-01
1.053886621845958049e-01
1.376935651091213547e-02
-3.959763299683318610e-02
-3.976313592456896806e-02
-2.091918931586451980e-02
-2.404313825795518361e-02
-2.150326971027201328e-02
1.578106763878531216e-02
2.390530621658425517e-02
-1.447888621081527653e-02
-1.695477745417504900e-02
1.218909228795111988e-02
3.313586113426296442e-03
-1.730108144727786346e-02
-9.490301417724009495e-03
-4.991744408824097187e-03
-1.750164323377529502e-02
-2.592142029346253956e-02
-2.261836714212870497e-02
-1.436830315137129985e-03
3.061247721301796690e-02
4.707072576518531865e-02
4.754205226565055148e-02
3.696959804152554624e-02
8.668053743107775183e-03
1.320713937645831039e-04
3.526267842226703947e-02
4.968015069698129837e-02
1.387894992183251464e-02
-8.358584727797590055e-03
-1.033188048988455815e-02
-5.707893871312358369e-02
-1.363474471159200618e-01
-1.828692878284722545e-01
-1.994087474724928477e-01
-2.064636473087177460e-01
-1.762009987699281188e-01
-1.082731425006011466e-01
-3.301023223183414956e-02
5.623892049989387409e-02
1.442852612621325359e-01
1.832006725562456140e-01
1.859857548773187208e-01
1.816538540817380643e-01
1.527077323801713793e-01
1.096389213990422579e-01
9.494002711974203201e-02
9.701653293167512848e-02
6.683697187365886250e-02
6.006373584004104371e-03
-3.509841660939963526e-02
-2.813451433992072981e-02
2.971775618214607742e-02
1.134030642949427209e-01
1.436620086177473610e-01
1.072075429358966547e-01
8.107800193797147503e-02
1.630377383868594765e-02
-1.569566929506635011e-01
-3.002553921070462706e-01
-3.297076167702208682e-01
-3.174274022719718036e-01
-2.582163976953987805e-01
-1.789436148021384676e-01
-1.681204715953545370e-01
-1.622973283380633736e-01
-8.368474021567494370e-02
4.933923158409334042e-03
6.329390046457022967e-02
1.177482307857331267e-01
1.585030258031037698e-01
1.714699401807262547e-01
1.687397395604817718e-01
1.523114648087681988e-01
1.403737970410422475e-01
1.390062188532855958e-01
1.050162682617801352e-01
8.059667542541304464e-02
1.573339125713397457e-01
2.216756482482879209e-01
1.194615768372210840e-01
-2.806373064411956872e-02
-6.499263156883249015e-02
-5.024271729285041677e-02
-5.414302617598982376e-02
-5.386336976865210846e-02
-4.780086266618670254e-02
-5.648988137255797626e-02
-7.292292050240975487e-02
-8.876558377575272107e-02
-1.256074564991672138e-01
-1.953281397521077767e-01
-2.358972355790663888e-01
-2.071676025414027345e-01
-1.788828488634152392e-01
-1.239689065716433058e-01
5.766652383770280027e-02
2.010558723646655721e-01
1.369599211256694593e-01
6.358786236379512791e-02
1.193182302989765353e-01
1.497540760922098646e-01
1.081559938864868065e-01
1.034579241783313286e-01
1.332743058785576806e-01
1.181645606721945241e-01
6.310230457056070774e-02
1.898684774068971556e-02
-1.541575893639051884e-02
-4.048384730965344513e-02
-2.498366764253961633e-02
1.982793985776675968e-02
6.660726527825980292e-02
1.035354072899082739e-01
8.500088902583591288e-02
-1.356477590112269409e-03
-8.066271676149239234e-02
-1.173051601900508556e-01
-1.577007846995192863e-01
-2.108224829541698597e-01
-2.249370717874606684e-01
-1.885061096580020468e-01
-1.548513076617548667e-01
-1.493180547294259142e-01
-1.298624033788001175e-01
-6.789636544619857828e-02
8.811796668224958218e-03
7.612420353779335291e-02
1.354918347976564186e-01
1.630711251938767314e-01
1.358479511740500467e-01
9.802751397965800417e-02
9.476269342264152795e-02
1.035506400886699180e-01
9.296620572689495710e-02
6.026345260697585360e-02
3.248753279548782097e-02
5.696945777524276000e-02
1.182963142151775560e-01
1.434475732155322536e-01
1.260163030047778687e-01
1.124435206051905833e-01
9.927277932751932266e-02
4.414483139732068573e-02
-5.891716025837250709e-02
-1.573671868725888545e-01
-2.048469900354978335e-01
-2.074076909809136060e-01
-1.884918829681873076e-01
-1.685682297363532700e-01
-1.530117702216744202e-01
-1.211126488670867668e-01
-7.518524734882336968e-02
-4.945388917353300828e-02
-4.707125500498554604e-02
-3.695559558847112680e-02
-9.418205661699784181e-04
4.248028819848195109e-02
5.246892786123188296e-02
2.800619916008650553e-02
2.502622944458831461e-02
8.133131247887592785e-02
1.622811051337357258e-01
1.950725460272987877e-01
1.750644131860366881e-01
1.680557174341791860e-01
1.552129622577521628e-01
7.028467999627828477e-02
-3.058031438741081950e-02
-6.227839648591924904e-02
-2.873096110092628053e-02
4.348567979821539586e-02
1.124838399625687352e-01
1.181189715080360608e-01
5.888331587941342260e-02
-1.230986341573974893e-02
-6.403606361828324822e-02
-1.102545387166765506e-01
-1.737010110048901879e-01
-2.346436475855911141e-01
-2.434327709987461896e-01
-2.134175316436938419e-01
-2.020333613776269521e-01
-1.753564672952460379e-01
-8.733387478197163212e-02
-2.154113428041248834e-02
-2.061305752031782068e-02
5.218503613889868831e-03
7.109579174001354196e-02
1.144236865424628213e-01
1.414405420792457790e-01
1.665510293489915750e-01
1.716903225122953514e-01
1.618931740053425883e-01
1.349103058962668744e-01
8.554316460206810857e-02
5.524430447852456127e-02
7.232640253199022762e-02
8.905139701845612987e-02
5.424176766873312072e-02
1.441592041566490401e-02
3.309816477394989659e-02
5.447328054079511594e-02
1.402907991543566116e-02
-4.212332835436397721e-02
-6.741849496051788293e-02
-7.624886164368435693e-02
-1.071241044407363063e-01
-1.927163273255862730e-01
-2.870285551938326907e-01
-3.257833126842100691e-01
-3.311950214662935932e-01
-2.534900611498373535e-01
-1.126481627464480731e-02
2.063198603634695538e-01
2.024803306418308524e-01
1.299164916828187133e-01
1.414723608108307551e-01
1.644717915142017151e-01
1.533880876896623335e-01
1.309745816040488731e-01
1.152033878503538750e-01
1.394063499270398465e-01
1.367393849732451150e-01
1.017784717091389443e-02
-1.144741762723721912e-01
-9.769136270327817562e-02
-1.047287436165681568e-02
1.084709296510555365e-01
2.396785385343543351e-01
2.211002301554469973e-01
3.354297145665059710e-02
-9.352669626851742302e-02
-8.442131852223012933e-02
-1.058919346554761109e-01
-1.928102919209812305e-01
-2.199607915930939794e-01
-1.869420021141499355e-01
-1.778142107132641425e-01
-1.785958342837776214e-01
-1.422383274899492178e-01
-1.087631442560755279e-01
-1.162305012735285470e-01
-9.234372503609017402e-02
4.862453161231308774e-03
8.620230388259969567e-02
1.072944968163099255e-01
1.366700422563412731e-01
1.935002508896272733e-01
2.175537119908962091e-01
1.904266118731220980e-01
1.586801445505739427e-01
1.519587876971575935e-01
1.485568660065564872e-01
1.265798228890823718e-01
7.940498331338617655e-02
6.849117055731261672e-03
-4.609490766567270192e-02
-5.167618099297915241e-02
-7.524027407287239844e-02
-1.363269380300652367e-01
-1.479474243795002031e-01
-8.846306056265981765e-02
-4.013765215103373696e-02
-6.423151522201012154e-02
-1.413790877277912861e-01
-2.079464026027911250e-01
-2.493250899890932237e-01
-2.928916771404772579e-01
-3.116399627815765738e-01
-2.650017895902579967e-01
-1.649783152690234567e-01
-4.011329966163202504e-02
7.908435936103290487e-02
1.765335119186995372e-01
2.629897457079355960e-01
3.256930639818432782e-01
3.368220089387828908e-01
3.144104125928310900e-01
2.907524532923852489e-01
2.631952337831398037e-01
2.356870618012472662e-01
2.176711651235182787e-01
1.754865159856535128e-01
9.959483364560733909e-02
5.614374772805318103e-02
8.529580166400212160e-02
1.383995499334335910e-01
1.698417641801597266e-01
1.934423925473310601e-01
1.838087775336740282e-01
6.605233200415909500e-02
-1.338634921385383758e-01
-3.133484966446407061e-01
-4.420344838566980794e-01
-5.236429950742548245e-01
-5.368950303368603683e-01
-4.958501894626338169e-01
-4.532088063044703574e-01
-4.317968662860893203e-01
-3.925696565298710805e-01
-3.137161529065269905e-01
-2.399208029093491956e-01
-1.579523178756542245e-01
-2.491184609486647716e-02
8.802392421156578217e-02
1.595784648659481775e-01
2.795113088173910576e-01
3.942765700258739070e-01
3.954477703239362429e-01
3.667119346085682685e-01
3.898274085422727686e-01
3.849842770060658559e-01
3.298533530400313829e-01
3.055630619735080766e-01
2.917347205794507681e-01
2.124792536153163325e-01
1.076324223904664285e-01
3.938525611000402715e-02
-1.084488796395258192e-02
-5.284602492008939889e-02
-7.738880636626128962e-02
-1.018844249619436371e-01
-1.264687773340896770e-01
-1.576465385381513595e-01
-2.203563334104895466e-01
-2.693565843416688144e-01
-2.864521327705163989e-01
-3.571186541090117794e-01
-3.984965238500672857e-01
-2.385507958808671392e-01
-5.422499186298280344e-02
-2.830856065915710040e-02
4.695335643704329209e-02
2.021373185380297421e-01
1.973920113339641125e-01
1.159193814781647042e-01
1.527079108567314936e-01
2.033707373015423425e-01
1.670413103942010868e-01
1.356240240987717782e-01
1.436193907489242139e-01
1.094436929385869672e-01
2.278814179086388267e-02
-3.525673732021179785e-02
-3.145244148270201490e-02
-8.796434925766642710e-03
1.282361851687924270e-02
5.072065945167747447e-02
6.225584994244377085e-02
-2.251689448114886638e-03
-8.239766228484544930e-02
-1.342996407360315669e-01
-1.987883521305254808e-01
-2.230481704761172190e-01
-1.480998141671971968e-01
-8.284301627315476813e-02
-7.227429419386519061e-02
-6.054362542277957199e-02
-9.629425654776838095e-02
-1.540145991618810106e-01
-1.032343711586366647e-01
6.137601754988272762e-03
5.467688491068949802e-02
7.703487927214588971e-02
1.224243878762070886e-01
1.511882657967246746e-01
1.529067174609016477e-01
1.626857234593767076e-01
1.672059060617912818e-01
1.385671417576784803e-01
1.092551294932778416e-01
1.098215895957906363e-01
1.101411085721187011e-01
9.024662829350793558e-02
6.739935800372530428e-02
3.614470100112651685e-02
-1.124583362523459348e-02
-4.733411067732513910e-02
-5.819017643292561520e-02
-6.155160370076273590e-02
-7.348126940087079673e-02
-9.813270574579863181e-02
-1.291594931217716624e-01
-1.626085111757438473e-01
-2.033425405968463107e-01
-2.360934496958710382e-01
-2.346464878951880217e-01
-2.074659293290188888e-01
-1.607372871635592837e-01
-6.300847525946150218e-02
6.803773751067726527e-02
1.510504595560113739e-01
1.714371059959141075e-01
1.892858869209005368e-01
2.073019530733882509e-01
1.797150192756208353e-01
1.324020451945904231e-01
1.207506233508669202e-01
1.176221628673003172e-01
7.842515723423330865e-02
3.344018494615473569e-02
-2.422964556363590288e-03
-7.464220608121581446e-02
-1.028027075661460538e-01
4.898411809364496688e-02
2.150477993770045226e-01
1.643240688867142196e-01
3.300645738196148621e-02
-8.174542244038598277e-03
-4.853209768230327958e-02
-1.441215186730733511e-01
-2.218527276826512407e-01
-2.494540948397168945e-01
-2.422602069381102063e-01
-2.100443470903724241e-01
-1.613233937129120998e-01
-1.174807708575624499e-01
-1.005383925013304397e-01
-8.601474005682069324e-02
-3.531474850124527443e-02
2.954003035532516003e-02
8.100804626782151519e-02
1.338823213580630500e-01
1.826368263599525421e-01
2.028269559475200101e-01
1.970311013322391114e-01
1.720623312584985132e-01
1.330900350428499135e-01
1.002425136891554325e-01
7.561260943619504959e-02
5.311946373981382696e-02
4.804913942952748762e-02
3.947307981128965471e-02
-6.722302784926727226e-03
-5.030994034985476759e-02
-5.538907440804437254e-02
-5.177205649360902551e-02
-4.920209409539036405e-02
-3.871066655821275848e-02
-4.109687471606542075e-02
-6.217666741534556840e-02
-9.330163899258109295e-02
-1.451216537896724834e-01
-1.914394652176112377e-01
-1.862965369605238675e-01
-1.522458476149976814e-01
-8.303601212090046257e-02
7.556273178914660327e-02
2.189203600456020860e-01
2.098823567751784691e-01
1.316229114295816016e-01
1.093729178724237860e-01
1.497467611969080237e-01
1.636985122249935143e-01
3.892227039037646219e-02
-1.151427957760744469e-01
-1.016361375016099633e-01
-3.187150869542949155e-02
-7.047068168985928804e-02
-1.181651752402100575e-01
-9.564668758791200487e-02
-7.857580271363109881e-02
-7.713096774604660810e-02
-2.489734478976831505e-02
7.438164085033854844e-02
1.593661033887360523e-01
1.867328580384891024e-01
1.394827963373319324e-01
4.672600497592644536e-02
-1.997159649842807083e-02
-4.349981592340415593e-02
-7.447910692976224267e-02
-1.240945746093912311e-01
-1.553326296463240774e-01
-1.470948957105169819e-01
-1.093124485010901342e-01
-7.704536161731188881e-02
-6.639339885588642354e-02
-4.925742771802310571e-02
-8.184185053679378721e-03
4.254988588558882012e-02
8.199414531856279165e-02
9.744111601781353660e-02
1.040601009943209615e-01
1.162533756132277940e-01
1.091283834012348741e-01
7.589726446612696242e-02
5.457887356918247196e-02
5.693924926327707803e-02
6.776887213234440710e-02
8.360230545737686036e-02
8.800320287461574353e-02
7.702686912027058297e-02
7.979633577635900088e-02
7.996330428149628355e-02
3.162199650245280796e-02
-3.887156646196068821e-02
-7.216097418218271609e-02
-8.855541420562929034e-02
-1.406580580515387757e-01
-1.858157600878126703e-01
-1.783339616425291263e-01
-1.841571542435676834e-01
-2.130905114680612389e-01
-1.840150575754768425e-01
-1.255394040052824345e-01
-1.086668552491247552e-01
-9.199380103702299583e-02
-2.838916706928742983e-02
5.573614927589312651e-02
1.230845731935909099e-01
1.563720560794548964e-01
1.749348631729455705e-01
2.136899657994868196e-01
2.452129281616375611e-01
2.330153214319960475e-01
2.128157153222685061e-01
1.551793646643336022e-01
-1.202698742035773760e-02
-1.479192432625437426e-01
-9.564500054080056490e-02
1.164023617670971456e-02
5.033096476499691885e-02
1.023005974951534808e-01
1.711505928268005072e-01
1.520434746275589610e-01
4.962222938289141683e-02
-5.809771598825459737e-02
-1.476286305915269770e-01
-2.260239212671444620e-01
-2.905700920435511647e-01
-3.218041761976476178e-01
-2.946675944000338165e-01
-2.310715729378040595e-01
-1.668622217710921118e-01
-1.146786458939787479e-01
-1.084113115163960195e-01
-8.912973480069880106e-02
6.078287459681362692e-02
2.026866420804356861e-01
1.529687006370874514e-01
7.101302826823790992e-02
1.164672716766759347e-01
1.799127356939714262e-01
1.879734399127218347e-01
1.881124159491424364e-01
1.945917678223670622e-01
1.986787563789725874e-01
1.762770110360738496e-01
1.014961138550483644e-01
2.646662866196052011e-02
1.367243257578150406e-03
-1.929896299624401373e-02
-6.063247289146896785e-02
-7.127299109030735269e-02
-2.673169970848204152e-02
3.420632658860042752e-02
5.132992167807752526e-02
-8.435446783005916271e-03
-1.197477816521733268e-01
-2.348589839338679763e-01
-3.240041113019633823e-01
-3.620449415139836979e-01
-3.235697827180522013e-01
-2.100771889131011205e-01
-6.868596740101860776e-02
4.038497300690688241e-02
1.068529129328703448e-01
1.591807228249387807e-01
1.921555669617880935e-01
1.830508229315923885e-01
1.553910528118564172e-01
1.405515288552929565e-01
1.328532711795805676e-01
1.328705585088112151e-01
1.408777073465697915e-01
1.103717250912058939e-01
1.875883549131599284e-02
-6.188646190371377420e-02
-5.474091655143436402e-02
2.789876726341034702e-02
1.192311061531998034e-01
1.611813515049733692e-01
1.396775658632232187e-01
7.697309098887086809e-02
-2.298730903813875695e-02
-1.546336182013024474e-01
-2.553950687392034236e-01
-2.868260195710576888e-01
-3.023367646925120278e-01
-3.363769040146071254e-01
-3.383902549877678134e-01
-2.856675370960048976e-01
-2.296344002386325189e-01
-1.892553428966645690e-01
-1.279392125491699561e-01
-3.261365293741556176e-02
6.821738724831884204e-02
1.399404980949010002e-01
1.873195357888004509e-01
2.468770628348088969e-01
3.059462860052500899e-01
3.219549296036752217e-01
3.242201207864988666e-01
3.610632460734307103e-01
3.988352095059087277e-01
3.973847099223916102e-01
3.746794834108853611e-01
3.368702005840987779e-01
2.752210646953281992e-01
1.937508449198979410e-01
8.761114755284298006e-02
-1.662257757404064784e-02
-9.587939903259788677e-02
-1.978977583259496353e-01
-3.089364759466855515e-01
-3.504215902454385634e-01
-3.627384902400179745e-01
-4.298272799023957758e-01
-5.357655560989923460e-01
-6.208176986872806502e-01
-6.336405075050167701e-01
-5.737882883511574716e-01
-4.912546840327692288e-01
-3.824035334636000649e-01
-2.257905668024615398e-01
-5.966837662335634784e-02
1.126161065454724386e-01
2.912185308026128405e-01
3.880458219757555449e-01
4.275548912354548703e-01
5.446925575447272294e-01
6.378496995728677454e-01
5.445112610410820508e-01
4.135856227503611482e-01
3.799986059141373662e-01
3.151425477444449452e-01
1.953035841857476695e-01
1.636349924889325125e-01
1.598812309590721958e-01
4.053540301570013327e-02
-3.436695230290949532e-02
6.614331235810250176e-02
8.975143086554449035e-02
-8.267741890042686059e-02
-2.313259221040959435e-01
-2.975670722533712009e-01
-3.757894212887572527e-01
-4.215237007199015284e-01
-4.062466265006789423e-01
-3.948845667738648535e-01
-3.803511591060959596e-01
-3.209041648270817837e-01
-2.377563468276054637e-01
-1.523102116033806797e-01
-5.482851627926220439e-02
4.737583614966429935e-02
1.271487274744190210e-01
1.839724453634505874e-01
2.441569999326786977e-01
2.864712602881586689e-01
2.658060181595479077e-01
2.213719842508005131e-01
2.063651325377726109e-01
1.853473302330834738e-01
1.365695835522065249e-01
1.132267020836934257e-01
1.376964109650434809e-01
1.489344773724138038e-01
8.349649484020817136e-02
-2.273678979174464931e-02
-7.558634260614952027e-02
-7.033784595235775816e-02
-6.672743466174546612e-02
-5.853153549056457072e-02
-3.755766335108470799e-02
-5.878206226348596519e-02
-1.204725119651740284e-01
-1.643579457472566507e-01
-1.983646476180222495e-01
-2.482389743471735966e-01
-2.708379270498276759e-01
-2.136158774750975264e-01
-9.445997476170300833e-02
1.093897077921593408e-02
6.634969514258048928e-02
1.134577624855642453e-01
1.670540783917963124e-01
1.806937616962563942e-01
1.558809942381239044e-01
1.426525141449060397e-01
1.375459570708962020e-01
1.158057785856972943e-01
9.375269526812825271e-02
6.424261163389768936e-02
1.697069426900628397e-03
-4.171778547403880155e-02
-9.829760291145864248e-03
4.403388918391362705e-02
6.812875629884788953e-02
8.758961236027071329e-02
8.990606371286821719e-02
3.163207986276735800e-02
-6.223462609350198516e-02
-1.364364598423853103e-01
-1.725155466027595008e-01
-1.929628800662346877e-01
-2.188759088440289657e-01
-2.229005578827593093e-01
-1.828685810318346483e-01
-1.339235746523157189e-01
-1.009969665544113437e-01
-6.666444751603704810e-02
-1.906599872794247780e-02
3.226141401444208162e-02
7.423373017413940900e-02
1.083645790350752647e-01
1.373811861237323462e-01
1.543299060684993063e-01
1.640317772391454432e-01
1.604261802772442291e-01
1.345464422812671923e-01
1.164848768161060588e-01
1.066127830526387293e-01
7.416246934763788545e-02
5.387241261725637942e-02
6.833058788810852935e-02
6.149440999465156932e-02
2.240125899634497902e-02
-3.842788653325063947e-03
-1.973188920289766640e-02
-4.455186871668356113e-02
-5.941246119257456715e-02
-5.887413094468688102e-02
-7.982688406918109214e-02
-1.404527632778054813e-01
-2.057050701078642629e-01
-2.353993310652886528e-01
-2.259616287582786320e-01
-1.938293670960470894e-01
-1.429900227795612710e-01
-6.573977580101700302e-02
2.590009518430853169e-02
9.318854213870358949e-02
1.220499452194303558e-01
1.452488854495818937e-01
1.752976573649421277e-01
1.891137500308013586e-01
1.999314813392982226e-01
2.264876619234129640e-01
1.865430925108767235e-01
2.253959777392440869e-02
-9.742129192426030038e-02
-3.293473539066502087e-02
5.327196638731815370e-02
1.395628474598302471e-02
-5.233625136063532746e-02
-3.628371955624369594e-02
5.367601955129550073e-02
1.123641198921380285e-01
3.104124522959074428e-02
-9.975202560229629034e-02
-1.223164386753405053e-01
-1.000818332278674977e-01
-1.452765174324807118e-01
-2.042634598541248903e-01
-2.091874341146947869e-01
-1.858075186405696855e-01
-1.675704036242114947e-01
-1.316175594934370086e-01
-5.672208422442120979e-02
1.065511017687426065e-03
7.677637874267437268e-03
3.755059458251524401e-02
1.161428527333545624e-01
1.641693128386345346e-01
1.691068496492685036e-01
1.844925786757139474e-01
2.018220127220103355e-01
1.845507895531590392e-01
1.398215128957999431e-01
1.179903364204047816e-01
1.443935198486394900e-01
1.117218105669278427e-01
-5.681800387262189028e-02
-1.765771008023615529e-01
-1.115643748483508280e-01
-3.027229701405090290e-02
-3.439490145446688629e-02
-2.785069067009572630e-02
-1.040987168924730095e-02
-4.061571364634879167e-02
-7.210633389146058059e-02
-7.994291995467144030e-02
-1.137155715790474225e-01
-1.576618698594214329e-01
-1.790337507746823653e-01
-2.129143873138499288e-01
-1.839638631425186133e-01
9.403350381438305844e-03
1.752457933879601470e-01
1.269997247320841516e-01
3.523270679452213811e-02
4.898981069357367241e-02
9.454594047119500855e-02
1.332603940223335282e-01
1.574980662054029090e-01
1.366712858061524261e-01
1.163619373392959649e-01
1.267431934241975700e-01
1.127723762125958373e-01
6.862166818767737042e-02
3.521810278609335820e-02
-6.906328155093226229e-03
-7.730190865020299118e-02
-1.305343287068830849e-01
-1.312422809588446593e-01
-7.836126983802899071e-02
1.753248717311527843e-02
8.332217445064180050e-02
4.648422563549942099e-02
-3.408567328546133895e-02
-8.008929007654091992e-02
-1.207592705640695985e-01
-1.788364765439776904e-01
-2.146206462102359103e-01
-2.104165840059892822e-01
-1.668720025012629393e-01
-9.221181443605497297e-02
-3.885447532196213000e-02
-1.651815511224167393e-02
3.336555968525202476e-02
8.449409963078380326e-02
7.510228179469725929e-02
6.472428873894742196e-02
1.057810071300212262e-01
1.390869619088078712e-01
1.355216456203363340e-01
1.333974005706412003e-01
1.393777654527249277e-01
1.294680282033952856e-01
1.042632897101345435e-01
8.591427280907229513e-02
8.623407208205079166e-02
9.355297643297669219e-02
8.301656584250813320e-02
5.306317862593702694e-02
2.968795117764980868e-02
9.470227100866236702e-04
-5.975345563532787063e-02
-1.067484712896385191e-01
-1.065825735299615884e-01
-1.157089141017910439e-01
-1.557832576650776957e-01
-1.811097665103777454e-01
-1.936149402783362838e-01
-2.023666756362341723e-01
-1.616674203124642828e-01
-1.150648217466377909e-01
-1.547819743543257243e-01
-1.672751870222769777e-01
-2.192467410410190234e-02
1.383438069354874511e-01
1.794910925732785267e-01
1.734128553801545791e-01
1.745089910262957733e-01
1.680187623943558972e-01
1.494977205192887237e-01
1.119583711408446147e-01
7.019408168428777073e-02
5.071433759888165083e-02
3.841646441877538676e-02
1.568101230744078922e-02
3.572320847964199214e-03
2.398788494181781569e-02
7.057773304266851122e-02
1.149180169597717183e-01
1.240200727543240566e-01
9.580008477088071406e-02
5.621517783752579683e-02
7.109164035003223692e-04
-8.829187944185248882e-02
-1.717473996531138913e-01
-2.129239059676866219e-01
-2.425094454644906028e-01
-2.629204502919194608e-01
-2.293731342283919505e-01
-1.737088123424465613e-01
-1.529679676150553502e-01
-1.227872670964827162e-01
-4.282329485031038940e-02
3.606029598055415092e-02
8.266780127854753135e-02
1.153113613870879323e-01
1.329598548520525281e-01
1.303864659207989996e-01
1.346592795778771556e-01
1.616084812932863934e-01
1.697679693838319848e-01
1.333710358430094112e-01
1.055444740957142691e-01
1.078931228766241840e-01
7.800934109284735074e-02
1.139274148965118555e-02
-1.861471160942053740e-02
-6.160174362166363771e-03
-3.897758356482525222e-03
-1.140544625830838994e-02
3.431070859945012375e-03
3.386369373054337606e-02
3.745364151903557426e-02
-2.934670842800204266e-02
-1.578542052941835638e-01
-2.616463100855273005e-01
-2.816051744602962037e-01
-2.678588464527319468e-01
-2.635938705224678547e-01
-2.160615947117549007e-01
-8.825420653930882153e-02
5.909138685871007796e-02
1.687786566936919641e-01
2.446002996656020390e-01
2.638718516847635143e-01
2.107752769542578508e-01
1.623819853185277939e-01
1.605407223805619121e-01
1.469381899539160263e-01
1.020767490819981388e-01
6.308339636792201222e-02
3.813695901977862124e-02
-4.219320130294350324e-04
-6.440562952602647828e-02
-9.627286003758436794e-02
-4.266123059344727880e-02
6.627730282644433979e-02
1.851720354393328605e-01
2.234983545805955818e-01
9.065669043535531935e-02
-7.650449020239749598e-02
-1.177114635116493085e-01
-1.377694931256320254e-01
-2.249908226269276001e-01
-2.928438784057995070e-01
-2.976938974512798319e-01
-2.730314375104926361e-01
-2.503370811954901409e-01
-2.248855884977406239e-01
-1.559983927920691182e-01
-6.664020391276667676e-02
-2.252150052564130117e-02
6.732470245030819367e-03
6.169101787081830712e-02
8.555557818602013698e-02
6.755059539724064810e-02
7.191492074201630280e-02
9.174248602421558596e-02
9.668960016869167229e-02
1.130437603357977300e-01
1.285121421837844002e-01
1.027514510004938070e-01
7.583657021897240169e-02
9.689603519309809843e-02
1.369874950834078231e-01
1.668700817593284369e-01
1.922216138221167214e-01
2.118995796417682265e-01
2.353858542170894352e-01
2.762122443936152472e-01
3.161796951818108270e-01
3.363286313849159770e-01
3.219655239980459549e-01
2.349617239824153825e-01
6.353194402682588171e-02
-1.338544123695412646e-01
-2.813930379680545379e-01
-3.594699954698052924e-01
-4.054126734661913090e-01
-4.415898640285353949e-01
-4.462105698035133128e-01
-4.098334518693035333e-01
-3.483577775304889101e-01
-2.732194483151772491e-01
-2.170636946347006269e-01
-1.866868011028767205e-01
-1.188284496870765650e-01
-6.241560641613363991e-02
-1.293318160211245904e-01
-1.738969647233793991e-01
-4.151351607529085719e-02
9.033078118727937145e-02
1.029826069662398702e-01
1.340160051944886410e-01
2.260461076732696029e-01
3.154194378640597374e-01
4.166311409722296411e-01
5.074380822803984392e-01
4.884232282121902524e-01
3.638514497898653333e-01
2.278949261576191376e-01
1.046122722119355863e-01
-7.732338716130840450e-03
-7.237360189154071199e-02
-1.009078241057057013e-01
-1.484130965415473291e-01
-2.155561593310051371e-01
-2.490743279200195448e-01
-2.272444319356199394e-01
-1.958361966409073174e-01
-1.827919043347914496e-01
-1.575775793524850088e-01
-1.126890449527871846e-01
-6.529403599872141140e-02
-2.022779544594506540e-02
2.117760398471977418e-03
1.735559719709681842e-03
1.462681021061075851e-02
4.145509412650036363e-02
6.440426520316509806e-02
8.974695778463599727e-02
1.126763674743545274e-01
1.264523253046355988e-01
1.404313034046540121e-01
1.360711075525679048e-01
1.011402315398546164e-01
8.136188005727215677e-02
8.959804643876220775e-02
7.606169716844517203e-02
4.578883555196735372e-02
4.795644110415810124e-02
5.461904947008888733e-02
-9.157759948492131749e-03
-1.347945482695000197e-01
-2.314239715681595533e-01
-2.611192038312295516e-01
-2.618149430391626398e-01
-2.361748966371824687e-01
-1.716086696777848752e-01
-1.000534955310508345e-01
-2.097249757819469318e-02
7.699927312290180681e-02
1.354527842548837457e-01
1.305669468739565076e-01
1.241998217599416532e-01
1.351954946991170692e-01
1.190344966899502116e-01
6.789591804950891041e-02
2.455351320786662572e-02
2.066720871889598382e-02
2.642988596146660096e-02
-1.631763418167616470e-04
-1.597320768131922294e-02
2.655343217776551940e-02
8.588013607338057520e-02
1.331037817598730300e-01
1.600542059380892224e-01
1.181355754301240263e-01
1.633615323169664707e-02
-7.317588293943218247e-02
-1.301912906897984001e-01
-1.712226450453843141e-01
-2.047318843285134138e-01
-2.361219189195941370e-01
-2.433551927018110517e-01
-2.000095633197577216e-01
-1.384482741976439391e-01
-9.972663146475638229e-02
-5.820074552316104738e-02
1.588828080643234220e-02
9.294802120278383706e-02
1.372053808552683440e-01
1.599874552516836745e-01
1.967966657174408940e-01
2.360725832528463020e-01
2.091522853077482091e-01
1.290270059483273057e-01
1.153469327138016559e-01
1.317008349403398504e-01
2.434624083222827057e-02
-8.535338989991347880e-02
-1.923221650562242230e-02
5.086132538912094964e-02
-4.408625468450882469e-03
-3.176111720485176593e-02
-4.523002386907240546e-03
-3.206922732663420456e-02
-7.386819002657013522e-02
-6.281105947641994758e-02
-4.853511049105466157e-02
-7.392214757222670407e-02
-1.263369584753487040e-01
-1.840710864717188255e-01
-2.151073574497118501e-01
-2.039818397143725592e-01
-1.681216636865902891e-01
-1.120895891040340625e-01
-3.335292994745889250e-02
3.987817266662759680e-02
9.202067195889532258e-02
1.444209147201480914e-01
1.878609485954196856e-01
1.935097380518717713e-01
1.776466121348335703e-01
1.587634631754738512e-01
1.253292544651874729e-01
8.078850042676989640e-02
5.003293174939212051e-02
4.294308882728629234e-02
3.737645738898846826e-02
1.153811905804081467e-02
-1.949605343974369909e-02
-1.645934822886363849e-02
4.281361204521563768e-02
1.168554996582272104e-01
1.241170092880288511e-01
5.033004981684713330e-02
-3.890777831881971072e-02
-1.080742185275735956e-01
-1.669299568168654269e-01
-1.965294973366455977e-01
-1.941501645984564928e-01
-2.120974862977588193e-01
-2.472740333619037334e-01
-2.493414831403127918e-01
-2.329503163970055302e-01
-2.038065087665454078e-01
-1.101868231838344231e-01
2.383375031381147757e-02
1.208992035057888520e-01
1.868066717802636112e-01
2.368852389704877714e-01
2.323555428867054851e-01
2.010479319626939099e-01
2.083496194433163973e-01
2.135818341254237807e-01
1.540117944208558298e-01
6.771749670252222297e-02
9.495713039754064000e-03
-2.029619513893517885e-02
-2.388489669329376189e-02
1.498155343768854675e-03
3.299984440663253360e-02
5.260776381459801587e-02
5.528039388359117651e-02
1.730285733228022205e-02
-5.099446320216531603e-02
-7.449015669648642590e-02
-3.868400070461763818e-02
-3.373756214796892750e-02
-1.050287137112516089e-01
-1.890316808286488515e-01
-2.189759870539688402e-01
-1.985418667873753984e-01
-1.589949923313620506e-01
-1.147141709098446344e-01
-7.412214080160478558e-02
-2.812891772625452161e-02
3.458946806980749133e-02
7.694084558462292722e-02
6.523543662207606508e-02
3.380614528450332640e-02
3.396162016521907245e-02
6.948975488352435170e-02
1.117927106984936969e-01
1.464061824973606485e-01
1.716248938716097294e-01
1.738172346600011520e-01
1.346569069483463943e-01
6.037979285510493288e-02
-2.657489823455618655e-03
-6.865529022157194905e-03
4.407204897278883815e-02
1.092723060426408210e-01
1.461161974057943180e-01
1.208279621248360830e-01
3.976419673856951276e-02
-5.019398151703741151e-02
-1.285232232995452140e-01
-1.996992796366257317e-01
-2.347523667616940868e-01
-2.107837374305906453e-01
-1.708860534461126290e-01
-1.593489166217175734e-01
-1.634087841679285058e-01
-1.689492224785122121e-01
-1.603270958369021337e-01
-9.193022421173231706e-02
1.755718623581712518e-02
8.218562521250750985e-02
8.821892143873336090e-02
9.253080950569531060e-02
1.190315261388659729e-01
1.443361933730899493e-01
1.425785719620364100e-01
1.265818994725110558e-01
1.292487843277328463e-01
1.356525707037009032e-01
1.098238552498326109e-01
7.456392866610077330e-02
6.654939118209775295e-02
7.092705125220402640e-02
6.672085974884094106e-02
4.950229362481241291e-02
7.948557726819471120e-03
-4.818441208938696596e-02
-8.110470915751233356e-02
-8.652962282225401536e-02
-1.054471806008487611e-01
-1.500728116225837350e-01
-1.927840242623176104e-01
-2.185515484309191736e-01
-2.066536779265168433e-01
-1.454412325351262247e-01
-8.647112649142625618e-02
-6.154469978469867542e-02
-1.722931668994271900e-02
7.763205416857837937e-02
1.645712137393363639e-01
1.899167508533844417e-01
1.683048516088503366e-01
1.247430518380451825e-01
1.028690551482963067e-01
1.539407558536169396e-01
1.644345809382443679e-01
5.561736042890399849e-03
-1.321901175523699234e-01
-7.582951451294570044e-02
-1.278343911966960816e-02
-3.935296194810652265e-02
5.587576913174591847e-03
1.248281803694659409e-01
1.802432815420878798e-01
1.552138619784782791e-01
9.060760090481996543e-02
1.659708874659597544e-03
-8.670957153216451996e-02
-1.568741446162189301e-01
-2.098764756511455887e-01
-2.400829634712405569e-01
-2.326452467499347809e-01
-1.849883098786664348e-01
-1.321142457115528357e-01
-1.117545106861010246e-01
-9.987549685980680325e-02
-5.735055115516633772e-02
-3.953033222123009116e-03
3.391493761463613282e-02
7.319168185662450199e-02
1.266189369095067074e-01
1.788841983302510152e-01
2.141236469705558032e-01
2.243642728859852886e-01
2.080419380300380094e-01
1.751627500201174414e-01
1.392885249093259448e-01
1.088928271925115737e-01
7.440698179606378138e-02
1.454619099053417602e-02
-3.858340505235469120e-02
-3.379763493809732205e-02
-2.683660883943042585e-02
-7.920297418559625602e-02
-1.074287980089290856e-01
-5.269063449956411238e-02
-1.391589931131592683e-02
-5.796256215357806912e-02
-1.246896843962970874e-01
-1.951442732215105946e-01
-3.079533881919883642e-01
-3.644970917146458378e-01
-2.475401401643888832e-01
-1.084055348780348510e-01
-1.077593221202314683e-01
-1.037315406365820480e-01
1.477281994856361955e-02
1.180427569008814515e-01
1.459611037018724300e-01
1.822723353032286997e-01
2.229756219542630147e-01
1.997579684982143666e-01
1.430499003253002388e-01
1.217740071009338065e-01
1.236353928201167907e-01
9.483962457062154738e-02
2.966020960359818867e-02
-2.628397702820496618e-02
-2.558260019072310792e-02
4.189567667949124080e-02
1.466993220828475275e-01
2.620517997296595847e-01
3.534461558872414866e-01
3.608127741499312924e-01
2.935736977095193545e-01
2.185656000580460390e-01
1.303697167967557968e-01
1.700682864261920946e-03
-1.362185705199861485e-01
-2.498692613054843692e-01
-3.279049446868788631e-01
-3.814704704563431359e-01
-4.334597691724526025e-01
-4.676199954999510910e-01
-4.620942826387523517e-01
-4.298788964672219381e-01
-3.642890942197249959e-01
-2.515805257574746379e-01
-1.336886691602028887e-01
-5.559607642507964631e-02
-4.977781515883378249e-03
3.951013830684593775e-02
8.172066468909341963e-02
1.274090794309019059e-01
1.625955634562492313e-01
1.845281892995381812e-01
2.364135493600631188e-01
3.045523295063294889e-01
3.236130582843504966e-01
3.138120228256601751e-01
3.064284327594326562e-01
2.653307317168681068e-01
2.173311747865498411e-01
2.137781251236605673e-01
1.959816613354254666e-01
1.409800073536208731e-01
1.240495327728078495e-01
7.219742997887081126e-02
-1.507243711912430173e-01
-3.815411452554006710e-01
-3.943016708084640110e-01
-3.079552662771068428e-01
-2.991552166720210515e-01
-2.988537212357280648e-01
-2.130890145067901587e-01
-8.427671614402046374e-02
3.999474591315201055e-03
2.779011302802106287e-02
3.592561790514671449e-02
6.429010992474863684e-02
9.109630347611839818e-02
9.319007632310795375e-02
6.877042150200722570e-02
4.190973291217268970e-02
4.902541413478152255e-02
6.197495440432249092e-02
3.369173315351029624e-02
9.795513028115656121e-03
3.768526360807950004e-02
7.893462416529975489e-02
1.138470720299023936e-01
1.566668414949215771e-01
1.452145515129418252e-01
3.000433389707983511e-02
-7.257979802850195172e-02
-6.913910965121677910e-02
-4.483653965027958183e-02
-5.099380868536856209e-02
-8.375792838001361318e-02
-1.780820900089562231e-01
-2.559369021747966988e-01
-2.264535237499071263e-01
-1.711173260774004057e-01
-1.419085937987210888e-01
-8.510214288718244424e-02
-8.036081381033347709e-03
5.850030348016260068e-02
1.344974452170678292e-01
1.958546255340388176e-01
1.859973090445694865e-01
1.429994182691344540e-01
1.476668486061622765e-01
1.712887199190966658e-01
1.281008161106263477e-01
6.359233176019703226e-02
8.835146545837835319e-02
1.122620045506093761e-01
-1.751863222817107504e-02
-1.511321424424526272e-01
-8.795315693982472260e-02
2.963121884700600089e-02
2.763917208926316288e-02
-1.774692528446364381e-02
-2.090329211600957388e-02
-5.211548195573956210e-03
-2.209076829848186097e-02
-9.838472157607722202e-02
-1.773030038426241517e-01
-2.038789822936323826e-01
-2.141576808582096592e-01
-2.103757663187840465e-01
-1.418796774020558149e-01
-3.938694717862014499e-02
2.667107845623325341e-02
5.505170394429616254e-02
7.486291906675310304e-02
9.458650134294419032e-02
1.221729350737321279e-01
1.551894550636100656e-01
1.581922737747565033e-01
1.178753027621105842e-01
8.905394084329008864e-02
1.089978703830196266e-01
1.236956918417558837e-01
8.040086237745107389e-02
1.451655679244819724e-02
-1.405682682274970660e-02
-4.553643321652076081e-03
7.097794459352064350e-03
2.577104892132097563e-02
7.245196964102930404e-02
8.913385826100467257e-02
1.530756533051196022e-02
-8.294316098398994697e-02
-1.415033299126912392e-01
-2.049959974889863645e-01
-2.572427391190929558e-01
-2.195856281678561228e-01
-1.569971491932012075e-01
-1.638370248777801241e-01
-1.676538556545530412e-01
-1.069166138776713598e-01
-4.484712903708232279e-02
-1.571693453943437402e-04
5.334070938893347574e-02
9.088171742047537749e-02
1.164542274563790114e-01
1.649452217470201432e-01
2.079760875505672346e-01
2.088209816849231071e-01
1.854513510242642993e-01
1.587698541260998686e-01
1.247097956351822662e-01
8.359929456412308613e-02
6.131240576065394299e-02
6.665432582746720624e-02
4.974014582155668329e-02
-1.127468011516741253e-02
-5.280581397085911538e-02
-4.522415709433257047e-02
-4.929141342426611450e-02
-9.477035256143251374e-02
-1.204213195031803157e-01
-9.033894944569482999e-02
-7.760463448950266629e-02
-1.417469118503030256e-01
-2.165366398337937870e-01
-2.198636905679380860e-01
-1.699966283604378292e-01
-1.233667625238674126e-01
-8.693458358847923340e-02
-4.013034112168602230e-02
1.854559496866260010e-02
8.479782104514513308e-02
1.531352699775072601e-01
1.947592448112384078e-01
1.971386462971838616e-01
1.934428066502592580e-01
1.708509614178407854e-01
8.241262780307447022e-02
3.347492611674821039e-02
1.400108861152864204e-01
2.154701085770414359e-01
8.876841440235692937e-02
-4.486745439496273025e-02
-5.312784645182179466e-02
-7.880827065236983842e-02
-1.088010852149513680e-01
1.460374888442875219e-03
1.042418936092078391e-01
-5.769357161296622891e-03
-1.385529827383638612e-01
-9.871773215431639548e-02
-7.881378560668644839e-02
-1.846864001983738457e-01
-2.350155945580429118e-01
-1.908054383307388746e-01
-1.705702713315638552e-01
-1.624939792822843176e-01
-9.646639200506912371e-02
-2.427170501910370232e-02
-1.495659709934660242e-02
-6.607366295200256534e-03
6.419343286309087127e-02
1.321160404589059312e-01
1.554127129039089283e-01
1.971745919320826990e-01
2.354880922560895762e-01
1.750765609571761361e-01
9.477614398156565534e-02
1.121216922922217557e-01
1.390983428392182364e-01
1.153533324868570159e-01
1.174036186463423559e-01
1.103179233235746515e-01
2.408017171441783483e-02
-5.877529426186704070e-02
-7.044579918288917941e-02
-5.728671606784490472e-02
-5.867714452238104172e-02
-8.159530828940521341e-02
-1.120851034594194523e-01
-1.150617188774490512e-01
-1.149662963077575095e-01
-1.712222654490325735e-01
-2.343827888265335724e-01
-2.057057916618037496e-01
-1.464794942277430345e-01
-1.787910584636100142e-01
-1.846071866309129117e-01
-6.372180344759482973e-04
1.740248742155098283e-01
1.107119602326819413e-01
-3.406930605140218171e-03
3.719688305250683225e-02
1.255629860906073980e-01
1.666491809098229193e-01
2.010699061052663716e-01
2.219855765847828510e-01
2.044565295265105276e-01
1.737447483614127375e-01
1.307952118477278547e-01
5.342598872094451307e-02
-1.651676359465088784e-02
-1.387729468040430764e-02
2.822472964074469043e-02
4.168346496207832319e-02
4.943394508154582562e-02
7.109398393551852324e-02
5.117450182186842472e-02
-1.564239676039937826e-02
-7.466896753668468556e-02
-1.237971136144835616e-01
-1.811666971781528690e-01
-2.210375521283225730e-01
-2.356377406200725610e-01
-2.512034145441556787e-01
-2.475472473148769836e-01
-2.104583433729145248e-01
-2.012693894538084838e-01
-1.740967610214063932e-01
-5.538323198679015458e-03
1.667786353000017263e-01
1.431365661165791003e-01
5.498082789361577460e-02
8.141928122887516495e-02
1.548035218854416084e-01
1.695010899731253240e-01
1.407472528443577120e-01
1.207585896236550160e-01
1.173915321177266130e-01
1.210444937115879860e-01
1.329377494979442353e-01
1.384543987183840530e-01
1.372511631509242547e-01
1.418726754572678939e-01
1.139739721112276588e-01
4.276375660027489922e-02
-7.621909198222226456e-03
-2.444369552512740823e-02
-2.611449820882803113e-02
5.127956038941627187e-03
-2.182389594257093043e-02
-2.161972809633172232e-01
-4.090600951863620494e-01
-4.019424967132653181e-01
-3.059321078439618535e-01
-2.488701240508727763e-01
-1.778370340047185638e-01
-7.183157385096268499e-02
3.245781298733713127e-02
1.260269329907970637e-01
1.943274433633017384e-01
2.237225725886463346e-01
2.226631258531922009e-01
1.960968369612514917e-01
1.535022039944093364e-01
1.202044159211740487e-01
1.066114674761196590e-01
9.801164995708211425e-02
7.487292721934976636e-02
2.388464740965643915e-02
-4.819509288563974397e-02
-8.460311819878309214e-02
-2.922098253935854345e-02
6.475901138113264455e-02
1.123183075325008412e-01
1.088929133571172048e-01
4.322208438068265990e-02
-7.924747555756540829e-02
-1.637413626963598046e-01
-1.879736659598952586e-01
-2.211375657598693700e-01
-2.537682520097844785e-01
-2.499452175230537920e-01
-2.421539408499591428e-01
-2.444703186368309966e-01
-2.359979135936513539e-01
-2.239760001462562378e-01
-1.915577690373226616e-01
-1.167269988629303645e-01
-6.121619749730902726e-02
-1.409161267645405585e-02
1.388009572410955628e-01
3.162909137852498165e-01
3.524669239958711509e-01
3.339342653663838756e-01
3.996212786319821020e-01
5.081322571154911483e-01
5.840403463616765656e-01
6.010789492883995555e-01
5.513804772891505168e-01
4.574550854926226484e-01
3.532533104603942098e-01
2.358910679195319604e-01
8.185877133823302176e-02
-8.502745235440636873e-02
-2.154073061531378563e-01
-3.141956772011123555e-01
-4.152803658346203020e-01
-4.912236623484407261e-01
-4.917404473045813296e-01
-5.056153505387188662e-01
-6.474459394396356871e-01
-7.766458083366555298e-01
-7.295741149660017744e-01
-6.221910954064883148e-01
-5.494864170378791490e-01
-4.149823629025083394e-01
-2.049828888160413198e-01
-8.130747681241695668e-03
1.641728030726735399e-01
3.191303014347600109e-01
4.339668823970834755e-01
5.351747956716985666e-01
5.832697585513385574e-01
4.767599364229651027e-01
3.547551788833601671e-01
4.057770838334022190e-01
4.770048178477894196e-01
3.998542054776245691e-01
2.826249547519851246e-01
2.381697867689900883e-01
2.501251319338351209e-01
2.677404204135664934e-01
2.514515091713435124e-01
1.855348889694044268e-01
5.727015124733399187e-02
-1.196524207871845630e-01
-2.815124043983168733e-01
-3.919575870150930896e-01
-4.555012551444146407e-01
-4.581257484103121169e-01
-4.062034890971791823e-01
-3.536763161449163473e-01
-3.260937978450856867e-01
-3.061695334066007468e-01
-2.776941918777827145e-01
-2.224665663075031108e-01
-1.408720829083201509e-01
-6.494081553275544982e-02
6.880550934807924679e-03
9.742789495350932805e-02
1.736720081020259321e-01
2.055338618237945170e-01
2.238486651949667672e-01
2.385243705920724600e-01
2.268981112656599242e-01
2.051550340381839421e-01
1.971095738890116522e-01
1.867404222287435689e-01
1.668058759461137353e-01
1.563381612486872685e-01
1.439346286150512133e-01
9.912417988483146480e-02
4.374942661385674419e-02
2.252508945100602233e-02
1.605353852306803941e-02
-1.465202930586959051e-02
-5.334036284811759926e-02
-9.978796618486372727e-02
-1.908746992300240919e-01
-2.978371489034961073e-01
-3.506632128957510863e-01
-3.423914783112352311e-01
-3.021760460700327333e-01
-2.360891599896798310e-01
-1.498495754242263056e-01
-5.267677970917065966e-02
5.828827645957620346e-02
1.618149259462167699e-01
2.130215947631849405e-01
2.032288498397517573e-01
1.807821788368140226e-01
1.909160841323409852e-01
2.020238883869691637e-01
1.722983452964439444e-01
1.457571655203750982e-01
1.377529331042818272e-01
8.068714874595100950e-02
7.869513769140763088e-03
2.172238807971493130e-02
8.573598381070438035e-02
1.218006550433893692e-01
1.345110847365733886e-01
1.161177507794542013e-01
6.615229930580378281e-02
2.042058901112567965e-02
-5.178978703285636032e-02
-1.898083843476336408e-01
-3.376513892287216212e-01
-4.320872802965601833e-01
-4.738263914542606425e-01
-4.716678639899086756e-01
-4.080031862455856251e-01
-2.824688952945780818e-01
-1.399921034648924922e-01
-2.114152100783778243e-02
6.503968553797957741e-02
1.104721670354874424e-01
1.307743859906855266e-01
1.692099244806985481e-01
2.096601087451034628e-01
2.189767971657757273e-01
2.521018508450842410e-01
3.232264913932795247e-01
3.363346171963575992e-01
2.738866765408588533e-01
2.046988938066190700e-01
1.491628885095309387e-01
1.150575073915955093e-01
9.676994194535158689e-02
5.361941284355223325e-02
6.040158719995754322e-03
2.593503982799671981e-03
1.704750207615961938e-02
7.674955832316587845e-03
-2.292141325154944259e-02
-7.596111267945679368e-02
-1.611786673969038408e-01
-2.538311174306381868e-01
-3.272189443042932688e-01
-3.699597456249146821e-01
-3.473362129124307751e-01
-2.624713031561444199e-01
-1.832988100586480096e-01
-1.261038541944530800e-01
-6.293330485326162349e-02
-1.144659685644907471e-02
2.116164242739093648e-02
6.920643954159413913e-02
1.325200620006270480e-01
1.776353641649300874e-01
1.926450562593287896e-01
1.904817284346802253e-01
1.910128782809252246e-01
1.888387466547748195e-01
1.484884756278809503e-01
8.101900426277587608e-02
5.593712043072251311e-02
9.140764359180628129e-02
1.299045396617326820e-01
1.539817781835003674e-01
2.021153660437097488e-01
2.016757432114091586e-01
3.536654741932339363e-02
-1.605940952798277643e-01
-1.928324117664976245e-01
-1.666804374797657418e-01
-2.136619018894929944e-01
-2.619062241500563215e-01
-2.564939668773116299e-01
-2.208686592039034446e-01
-1.867337683514578295e-01
-1.757498300263534707e-01
-1.402289480445953751e-01
-4.837516986093692850e-02
2.001434030189696428e-02
2.418792259897827035e-02
3.840700437454792893e-02
1.003557855343064076e-01
1.540738396501874774e-01
1.619415158704919089e-01
1.565206292809172284e-01
1.585144814286452986e-01
1.351622968358424937e-01
8.804471508905295507e-02
6.632445346301847622e-02
6.148280400640095122e-02
3.888436012542643982e-02
3.135744901641197846e-02
6.127788052608106051e-02
7.811090919660619580e-02
5.615384461809051070e-02
3.402953039374834177e-02
2.744701544596488824e-02
-9.468425527961801813e-05
-6.955272834834730356e-02
-1.510215874538614611e-01
-2.032447904571126895e-01
-2.185772335363197483e-01
-2.218393868403613356e-01
-2.317871327868818443e-01
-2.261852675595424078e-01
-1.700458365398545002e-01
-8.215877374569982572e-02
-4.182446939311204592e-03
7.456927191934126231e-02
1.631284645651536469e-01
2.152659219889837550e-01
2.134092084498704078e-01
1.950491330302948911e-01
1.684668791322572190e-01
1.238019642567406153e-01
9.255133123574127429e-02
9.701384864504339345e-02
1.069103777208712108e-01
9.011434691873786151e-02
6.851897712247308203e-02
9.340148952201013377e-02
1.468431670961546087e-01
1.528576204804117933e-01
9.815229915387561899e-02
1.972411216514575322e-02
-7.582607169012825499e-02
-1.906340711067036342e-01
-2.971124515976173441e-01
-3.602374286508892576e-01
-3.795833004056069493e-01
-3.778932727613721343e-01
-3.506586586150844953e-01
-2.875354271258335759e-01
-2.210785060296251991e-01
-1.910435551969734413e-01
-1.798496638117542124e-01
-1.182818095913967804e-01
1.050578673359938570e-02
1.185430712238950968e-01
1.513818693741321164e-01
1.700964709834210942e-01
2.264818649927625716e-01
2.994509729061980430e-01
3.610822780363313611e-01
4.029201759149560469e-01
4.288574612097691974e-01
4.622789077046869921e-01
5.025792935275705808e-01
4.898806736551468144e-01
4.237278918244887227e-01
3.832823175841683083e-01
2.898651517811641209e-01
1.100036617070690448e-02
-2.560864606941452570e-01
-2.691367913755550179e-01
-1.952567540368919108e-01
-2.530586810852403223e-01
-3.680331575834671631e-01
-4.415334173841822807e-01
-4.984089580854128565e-01
-5.743067029425491521e-01
-6.650827509766297219e-01
-7.072626988338241993e-01
-6.562164695987853236e-01
-5.590017891616511081e-01
-4.211138132648189480e-01
-2.008844130675409567e-01
4.353332728641834404e-02
2.478149973855370003e-01
3.951693003215998035e-01
4.402658325485202528e-01
4.287347984288217839e-01
4.651768730781452588e-01
5.155191975759209067e-01
5.071005141439273167e-01
4.601633786559097827e-01
4.035005396180496584e-01
3.274892410170682222e-01
2.329178939146253624e-01
1.630478317523587073e-01
1.548256306554513517e-01
1.763802365619884793e-01
1.717458160018117130e-01
1.126017625722967458e-01
-1.882097785731423611e-03
-1.386124901475352389e-01
-2.653440418510886745e-01
-3.648930934971905682e-01
-4.157871863714703298e-01
-4.313098112296553932e-01
-4.410306515692181129e-01
-4.334957694586475396e-01
-3.967350068812263708e-01
-3.350707244595325651e-01
-2.474867467846848246e-01
-1.559104210718984251e-01
-7.935622206379429333e-02
-3.267842196818526723e-04
8.524631519370114152e-02
1.746438104878693665e-01
2.722691263606722423e-01
3.262338282880912210e-01
2.992510096820329424e-01
2.784201768725966253e-01
3.172168809413671298e-01
3.066723668888527987e-01
1.965478226977344922e-01
1.170989616431910296e-01
1.250427303970380044e-01
1.080086701263476001e-01
3.530136264979051586e-02
-4.250583710011378302e-03
-1.625306085452411092e-02
-4.953574492734674761e-02
-5.959964526810643259e-02
-4.862824757335187237e-02
-8.106282271772353998e-02
-1.181878310610332411e-01
-1.588423681741745475e-01
-3.057931512123872597e-01
-4.548281654441277966e-01
-3.942351702810435454e-01
-2.087605955992769824e-01
-1.205561827337683911e-01
-1.333840819984837001e-01
-7.240429908423429151e-02
1.232708996090943476e-01
2.589671818730939212e-01
2.118529016536350174e-01
1.480818216890006089e-01
1.681456992047618559e-01
1.757035788174520219e-01
1.579822359021939571e-01
1.724294982751117256e-01
1.736697089571769270e-01
1.174088730134407871e-01
6.222042897728845279e-02
4.052076453135375345e-02
1.755733140506682277e-02
1.540773275051963292e-02
7.089778370026723897e-02
1.160600959369368634e-01
8.196874269247308997e-02
2.224180288100450695e-03
-8.057284772308442866e-02
-1.568495986830229505e-01
-2.095633419081193438e-01
-2.348517366791248173e-01
-2.368704611807711247e-01
-2.178169283505676512e-01
-2.039203905987704846e-01
-1.991025948104485632e-01
-1.718158778712536305e-01
-1.218221063707679575e-01
-6.231459704083493895e-02
1.151776684948885993e-02
8.766137650051288033e-02
1.442262399050928678e-01
1.728206540460838492e-01
1.808499219274651848e-01
1.918566636174675044e-01
1.978715226542676064e-01
1.647930767802259500e-01
1.163827717769850140e-01
9.242177745454947801e-02
7.988993782296904822e-02
7.361257579914062821e-02
7.141224775212527687e-02
3.836847320861276611e-02
-1.237093922080428898e-02
-3.459010755364330669e-02
-3.629221422533380342e-02
-3.175340274374813948e-02
-2.711004930734541712e-02
-5.332387742502380651e-02
-1.002110933283201499e-01
-1.253134355133014577e-01
-1.409578431588703606e-01
-1.814568058425777564e-01
-2.242309390775299727e-01
-2.137055898059798953e-01
-1.511467717519292819e-01
-8.149419673458886682e-02
-6.902028660070412547e-03
7.627780563789535173e-02
1.312901134811923498e-01
1.454829920563375234e-01
1.514304900168406964e-01
1.820505421196460527e-01
2.203025873264741752e-01
1.990466446448215798e-01
1.074077665248951152e-01
3.179131465471013440e-02
3.460228685032255835e-02
7.050932023254417869e-02
6.104687786960091844e-02
2.164689722340932404e-02
2.176366206888143140e-02
9.154385139490621437e-03
-8.461820425198277040e-02
-1.208939798070575999e-01
-1.974383507860372200e-02
2.323677445647447451e-02
-7.780102171429212343e-02
-1.676069457214117431e-01
-1.832786537806042337e-01
-1.824455128830131390e-01
-1.854113050888855641e-01
-1.791353616776543700e-01
-1.296407632595625858e-01
-6.296889175252878834e-02
-8.144805681748032433e-02
-1.135350163483853092e-01
1.075489360726115257e-02
1.660978539963955114e-01
1.519137285846595686e-01
8.551908047087276865e-02
1.182393025930942032e-01
1.815290263970721907e-01
1.832120094729891291e-01
1.296233988488763034e-01
8.015200067107691728e-02
6.053943592361837878e-02
3.498870858313550547e-02
2.303962600002342626e-03
-3.305618436896792800e-03
1.094743888569475743e-02
4.583747104812596618e-02
1.164798440130204032e-01
1.659786682401927227e-01
1.311364068528553251e-01
5.200029270648702517e-02
-3.138107812591897638e-03
-4.525141562848238735e-02
-1.256998784923376578e-01
-2.247373353439383603e-01
-2.572840583185027064e-01
-2.233052604140693953e-01
-2.120350783328092126e-01
-2.181037346420688361e-01
-1.607974584787931760e-01
-6.676181351873258785e-02
-2.336927030255036425e-02
-2.023283929811107301e-02
1.516981886612672054e-02
8.711544270740820273e-02
1.252414194431488714e-01
1.053521750548647717e-01
9.521917307768612559e-02
1.240203970596274186e-01
1.300301642689621617e-01
9.993118914918189266e-02
8.953768862680927532e-02
8.937953485564020806e-02
5.420623608621326361e-02
3.338614154600995365e-02
8.822120812997634454e-02
1.480122464650572289e-01
1.436927144667990430e-01
1.369022660228540189e-01
1.283888953221277163e-01
2.300472006224867777e-02
-1.199236697315862188e-01
-1.673963913107804624e-01
-1.684079724334313632e-01
-2.112471612198159598e-01
-2.349277026888448583e-01
-1.921017189631275546e-01
-1.575726143533371926e-01
-1.669592959001675592e-01
-1.641313458593966212e-01
-1.241003253330021372e-01
-6.103294152161035241e-02
1.214085894980893726e-02
5.504599650470633210e-02
6.156772288351643196e-02
9.121362153841591769e-02
1.401590853472343134e-01
1.531045364795939334e-01
1.426629173904883918e-01
1.369161290514001872e-01
1.333671452626433163e-01
1.435313343405328901e-01
1.574418383031086222e-01
1.296852063311251524e-01
5.571187434360493074e-02
-1.861923818445738316e-02
-5.229241231497420983e-02
-4.224195354803895325e-02
-2.848476109560673514e-02
-3.335086234257421400e-02
-2.550514413446123424e-02
-1.112912829288058292e-02
-4.425689918926947741e-02
-1.179469516698106041e-01
-1.823773032682512452e-01
-2.243291979139613035e-01
-2.508385652414747979e-01
-2.494343202509121393e-01
-1.865441845910502383e-01
-6.607516831159881976e-02
4.238069492773063190e-02
1.088724610763039946e-01
1.706483646586082203e-01
2.148682620155615008e-01
2.079300607170054827e-01
1.881375789086046080e-01
1.740757377813726692e-01
1.316271175757915135e-01
8.801337127519553993e-02
8.697472256540317304e-02
8.625553647352418585e-02
3.922083671060325877e-02
-3.083121316912926929e-02
-6.852794838171384628e-02
-2.875427152183939600e-02
6.915481175702878347e-02
1.402156805789925298e-01
1.234782550442212468e-01
2.411871108067626876e-02
-9.634247829174216737e-02
-1.540163231886866324e-01
-1.466888713765625574e-01
-1.565509002927480964e-01
-1.902574014905290545e-01
-1.885074425189613712e-01
-1.891604580359183552e-01
-2.346850180688802578e-01
-2.339786396104479027e-01
-1.672664955408954823e-01
-1.523316068422048974e-01
-1.310382860812471517e-01
4.308944443310404326e-02
2.082996929614545634e-01
1.808397588912959708e-01
1.319117430240476230e-01
1.859292315232222437e-01
2.199700928497554941e-01
2.118471081881815044e-01
2.100372221593896360e-01
1.587587493743194966e-01
7.050628192619169676e-02
3.638917586526094206e-02
4.223137152881922818e-02
3.772791663019513242e-02
3.514325680693527326e-02
2.728391482647306993e-02
-1.155737916108658114e-02
-5.521888446939489381e-02
-6.899904653987473657e-02
-6.778998872713815071e-02
-6.425610942308281059e-02
-4.249498969202890331e-02
-8.027725861526047169e-02
-2.641441924989180734e-01
-4.222876719511888810e-01
-3.710576723167129942e-01
-2.445071243322094467e-01
-1.697514788572622724e-01
-6.777045664227171473e-02
7.757812150269309537e-02
2.103068295203573967e-01
3.393539323579194411e-01
4.507802448772050274e-01
4.943000498428502532e-01
4.743735679860580090e-01
4.195374336308833607e-01
3.404177000126784591e-01
2.464407190141714721e-01
1.422344292570061897e-01
2.205964681864755472e-02
-1.126667655404255952e-01
-2.398524666868957211e-01
-3.288155133966397248e-01
-3.473278399543396899e-01
-2.753348974776385627e-01
-1.660848233147581010e-01
-1.168063384418344258e-01
-1.568632447002847874e-01
-2.637762332494624773e-01
-3.548332419534288018e-01
-3.023216441678188149e-01
-1.997138984453416810e-01
-2.471789337571621559e-01
-2.895835013280424475e-01
-1.205466477375032597e-01
3.987924777224767514e-02
1.380798889473937308e-02
-5.763235006106495750e-03
7.410999764434178516e-02
1.430890320598703913e-01
1.980614479850373311e-01
2.893872914012122211e-01
3.836785035458860627e-01
4.112158525829356925e-01
3.637875980805708731e-01
3.307823483502444484e-01
2.983848295955681129e-01
1.386630547550342374e-01
-3.178164233954740292e-02
-4.820646466219352666e-03
8.552435869420223213e-02
5.711249099429803466e-02
2.762841964071206802e-03
-1.561140514999218021e-02
-6.989571539821766433e-02
-1.332204124203427709e-01
-1.413868570204516173e-01
-1.371804054293044584e-01
-1.636069081356624488e-01
-1.875757859386107951e-01
-1.824964646056786710e-01
-1.794961281158785615e-01
-2.105222230228137315e-01
-2.415837011294960368e-01
-2.229118751985650626e-01
-1.734556275467153685e-01
-1.281266811493121383e-01
-6.398562954309669482e-02
3.480638742900308419e-02
1.255721984749892106e-01
1.729897189788526524e-01
1.903930169411037210e-01
2.081673164756896732e-01
2.319082061252563665e-01
2.299135356963084575e-01
1.860649401559802130e-01
1.357827175776120943e-01
1.020500788853973551e-01
6.747187650509925416e-02
2.812937441200784316e-02
-1.938056778007922476e-03
-1.645070633481911931e-02
-1.469926657487469895e-02
4.698024728107295239e-03
3.432580782923716489e-02
4.394979710935550260e-02
1.703445070209270995e-02
-3.097031315033002899e-02
-9.938254036079102738e-02
-1.788211619439899203e-01
-2.213695975401114291e-01
-2.173219829784790447e-01
-2.051889658578308351e-01
-1.926890884391333214e-01
-1.650233861509416144e-01
-1.275335313085979305e-01
-9.384795583685315301e-02
-6.261353438230757296e-02
-1.226093194407626430e-02
5.257391763939700535e-02
9.177190235434876109e-02
1.176325841280758955e-01
1.716633296578694012e-01
2.158206459627029783e-01
2.010565440117669245e-01
1.669356750625063390e-01
1.536113451245607608e-01
1.306307280752292410e-01
8.453033325775874407e-02
6.566922657103790861e-02
8.018006565659492602e-02
5.285689283610851830e-02
-1.443700075601618560e-02
-3.037108587542639362e-02
-2.582725870609002550e-03
-1.890630382926694608e-03
-2.477195875663415134e-02
-5.557304663166032221e-02
-9.737868059630885864e-02
-1.364259635709418050e-01
-1.761584636453541464e-01
-2.177155740267091577e-01
-2.295344069460160674e-01
-1.951007116645068484e-01
-1.332239007772124950e-01
-7.627791596430652521e-02
-3.761651909811507266e-02
1.141702852332011214e-02
9.358523141269857459e-02
1.706992466513146400e-01
1.921333287758706931e-01
1.691270461358764798e-01
1.472916530470846919e-01
1.426323282972608020e-01
1.369740776156891104e-01
1.068735964942330308e-01
6.083918146628148477e-02
3.059256372916413502e-02
8.516706341781667827e-03
-3.057026368393786497e-02
-5.509416440499102785e-02
-2.323203526728975787e-02
4.446313577645982784e-02
9.886051359717354381e-02
9.325866218087727755e-02
9.148712215184380547e-03
-9.295844648588005854e-02
-1.515754207766788486e-01
-1.932824485924119207e-01
-2.315146175253414429e-01
-2.309154070812391157e-01
-2.111494961131400727e-01
-1.864720031189555649e-01
-1.258986749203240552e-01
-8.483162440649279212e-02
-7.631555201962911261e-02
2.540404583281655193e-02
1.602522146730495922e-01
1.493752728691686849e-01
8.453580408936370305e-02
1.130562099879414140e-01
1.739331536106767107e-01
1.993863477516904514e-01
1.891342588559447035e-01
1.427912973279729103e-01
9.971679987620508945e-02
8.501117793431595127e-02
6.161870453544305432e-02
3.427999837204122324e-02
3.515298546153753506e-02
3.064893965548099938e-02
-3.325447361498801851e-03
-3.446602334591158945e-02
-4.706360782209127736e-02
-4.461472892746212726e-02
-3.524393421958054579e-02
-4.522347056362766710e-02
-8.062711848065166886e-02
-1.263811241352564840e-01
-1.827515662520836082e-01
-2.268589517829102120e-01
-2.189259795802145636e-01
-1.776195915048628116e-01
-1.363574227730707522e-01
-8.454264708324722710e-02
-1.769230851224491349e-02
5.710236414366452740e-02
1.298465535821418104e-01
1.620523679666310835e-01
1.505336313140902271e-01
1.469448180418173600e-01
1.566844531396519302e-01
1.523579419830777826e-01
1.463199661889619252e-01
1.345683490858856357e-01
9.142794752418861859e-02
4.733304727777642301e-02
2.803943240143596735e-02
-2.522275660043281353e-03
-4.646678341687796032e-02
-6.007029672538469894e-02
-3.265978045137238328e-02
1.895304362953732780e-02
4.613233567582984002e-02
-3.500095298513077047e-03
-7.648282541654376210e-02
-9.517092234850890731e-02
-1.019659546528448868e-01
-1.389569523637884108e-01
-1.533312518389093049e-01
-1.318593647239729993e-01
-1.349399239241733106e-01
-1.657172869192044817e-01
-1.620620891458556811e-01
-1.082693135879224111e-01
-4.317546901207891530e-02
1.085638542817281282e-02
6.252888533863301679e-02
1.143974443012645281e-01
1.416538766303063190e-01
1.374542261664564446e-01
1.366262337280900185e-01
1.331435973587299648e-01
8.474713005294350066e-02
5.634092894110936250e-02
1.311058127062599277e-01
1.902295161807922574e-01
1.190979772530148945e-01
3.867897143748988409e-02
3.596837201376187898e-02
4.192389891485388126e-02
3.069787903258669459e-02
2.377215625109497382e-03
-4.277926745391320146e-02
-4.431959885255594422e-02
-2.281000393583390920e-02
-7.716738134515606362e-02
-1.671670197615304221e-01
-1.999815901947708530e-01
-2.071657372034574895e-01
-2.109788778529282371e-01
-1.626189315592701523e-01
-8.744461442277734475e-02
-4.824965091319576016e-02
-2.348642168316101425e-02
1.999802173764504698e-02
5.644897951062401165e-02
6.528040196257418881e-02
6.364685767652455972e-02
7.572816314518281133e-02
1.092648009684983740e-01
1.465080015130988400e-01
1.552681178328132183e-01
1.222580957617767777e-01
7.536679457727357700e-02
4.872420268650903136e-02
3.208679752375405425e-02
6.004573335180955068e-03
2.321130271831308572e-03
5.393425411432948430e-02
1.278854371313419835e-01
1.654591088646335528e-01
1.336098633200958063e-01
4.439829456529095775e-02
-4.955906186786653012e-02
-1.219804272363102238e-01
-1.825414141292657222e-01
-2.207653983917352569e-01
-2.338245282202744413e-01
-2.334609597594262675e-01
-2.019343509590549590e-01
-1.408521692218119847e-01
-9.075619274586291252e-02
-6.725088663314360282e-02
-5.883412717215664306e-02
-4.717889145860115763e-02
-1.944060572763712039e-02
1.335495320637766076e-02
5.164910513505004130e-02
1.088434257839443059e-01
1.623391174712346952e-01
1.866629952389865232e-01
1.956909516692909856e-01
1.970770798492388620e-01
1.625023413726705279e-01
9.128196475493660644e-02
4.523361931456798546e-02
5.112744242524006055e-02
5.629960481182783721e-02
4.065862350449969687e-02
3.988987826330433334e-02
3.643413816449448533e-02
-6.629032647142922563e-03
-3.341477253758316779e-02
-5.071834111798147887e-03
-1.496196362850179401e-02
-1.131839822706474374e-01
-2.021323329976990602e-01
-2.308769003273857257e-01
-2.523932952753883407e-01
-2.559059172918512481e-01
-1.962584822439872312e-01
-1.062037309047313277e-01
-1.436652172027828162e-02
7.687621711288245008e-02
1.446947676756123180e-01
1.880508411466051966e-01
1.910511423425604594e-01
1.511641497959721470e-01
1.586235454687507096e-01
1.705193213404045394e-01
3.096553412447393058e-02
-1.145631179027663538e-01
-5.983254010991313071e-02
2.447332745444302793e-02
-1.937056040287210568e-02
-5.451390026382119114e-02
4.147862932222599885e-03
7.870758298374595785e-02
1.164863208341459094e-01
1.219472076207288452e-01
9.720836479886936499e-02
4.403658699748853184e-02
-5.470980680737241170e-03
-2.060949408409135444e-02
-3.961247178722363677e-02
-1.088994376309815881e-01
-1.821114631639458581e-01
-1.983005627997665998e-01
-1.812119602166211707e-01
-1.719557816286641505e-01
-1.508759435242303382e-01
-9.008970145642600236e-02
-2.445803965697567611e-02
8.183180095341961724e-03
3.737049836026694327e-02
9.207823599423668737e-02
1.437926758102936464e-01
1.521783542337110939e-01
1.205140952803428755e-01
9.608110803466712868e-02
9.574938029454206634e-02
9.115711475385097906e-02
9.345128475668676438e-02
1.159129082245815845e-01
9.701832871545978954e-02
1.497183289417457555e-02
-5.173420834925346323e-02
-7.459254931473253969e-02
-1.040669073586216881e-01
-1.304447767776910905e-01
-9.636713672290540822e-02
-2.197312941695299740e-02
1.398351867577032198e-02
-2.143551798627059413e-02
-1.006699757687551378e-01
-1.819637334805511153e-01
-2.318009435005585206e-01
-2.363047428748806800e-01
-2.097180658498403738e-01
-1.641414985637106860e-01
-9.068652444262315093e-02
4.275503004403248541e-03
9.789012058105941994e-02
1.733296692105575909e-01
2.105517259619369141e-01
2.154714404276050210e-01
2.214967872790077064e-01
2.253643254019086495e-01
2.130044437135978630e-01
2.144973712913877673e-01
2.451085352948733642e-01
2.534407223888153760e-01
2.008158393985775281e-01
1.427891056992589836e-01
1.379377762367198224e-01
1.557090422864332024e-01
1.800387316336705956e-01
2.242433106574664436e-01
2.034553121183332591e-01
5.262388117567473600e-02
-1.283742170865595777e-01
-2.696521857486234852e-01
-4.194553355537651296e-01
-5.484505959231398275e-01
-5.799786465463352414e-01
-5.569314144452894855e-01
-5.442292327169295785e-01
-5.202580155680146534e-01
-4.569926896726033694e-01
-3.512650800687673880e-01
-2.073248512334615878e-01
-8.290766346106637208e-02
-2.411085844515213628e-02
3.899275094307125267e-02
1.597349006500834445e-01
2.768976620421355062e-01
3.508834020938858544e-01
3.983612529116075107e-01
4.228398557146015313e-01
4.303343924650409047e-01
4.217207976386125878e-01
3.830139651494063324e-01
3.357809778342731866e-01
3.077860874940008817e-01
2.666833646526676760e-01
1.797461527428792505e-01
8.367502200354688668e-02
1.929046586247909478e-02
-2.385954348052295171e-02
-6.293309247711449672e-02
-1.001546665949726300e-01
-1.283907018563618108e-01
-1.406820343173534327e-01
-1.689474819579147857e-01
-2.535518900989117141e-01
-3.654776185663559662e-01
-4.191476254775484134e-01
-3.686752266136548717e-01
-2.736267352506193129e-01
-2.092316502658824739e-01
-1.396066094812408176e-01
-7.965015589909994753e-03
1.163911288089859719e-01
1.484112494027300111e-01
1.434299330252981064e-01
1.666748512641794133e-01
1.692538313745398093e-01
1.387089142630237859e-01
1.336119772028983299e-01
1.317057079410665632e-01
9.405107879821424099e-02
4.759304519564395985e-02
-1.499909355574585712e-02
-4.377700000467880936e-02
8.094014919377974515e-02
2.361399656738388531e-01
2.114150673516868584e-01
1.061599765192575151e-01
6.089582105555594455e-02
-5.077016464818197988e-03
-1.257112441376298517e-01
-2.033520474162590630e-01
-2.117140861271784025e-01
-2.183763917316881298e-01
-2.436660356066039368e-01
-2.381745899520300025e-01
-1.950368377796397601e-01
-1.563992878699407563e-01
-1.170230982107805240e-01
-5.351981725737051110e-02
4.921755371465594275e-03
4.150329261808978487e-02
8.891280996067138509e-02
1.488655420781472005e-01
1.900536419735077143e-01
2.103198184820769534e-01
2.069140872824580535e-01
1.647386833414131724e-01
1.194415196889885844e-01
1.162994721647180318e-01
1.229234199519925741e-01
9.947801558707979053e-02
7.184497275765276691e-02
5.234487422760872311e-02
1.623627738717009841e-02
-2.859405027525507154e-02
-6.528511600341191379e-02
-9.930029739416873502e-02
-1.069503341841457900e-01
-6.355238729821278965e-02
-2.548014325728174129e-02
-3.865507156558616042e-02
-4.990431644098699410e-02
-9.551206649357416034e-02
-2.848500188783269493e-01
-4.528732068877172612e-01
-3.584857648968500232e-01
-1.417596918866708411e-01
-3.097563351610610471e-02
2.993346493663013447e-02
1.223586032981086175e-01
1.910608584211154759e-01
2.232862647067859752e-01
2.493415181407985237e-01
2.502261952219471675e-01
2.130756981732792044e-01
1.536701713110687484e-01
9.450636685774128909e-02
6.932233392793311910e-02
6.164048592394589382e-02
1.490409731916159455e-02
-4.061687218331148930e-02
-4.013463944589247545e-02
-6.569411546369786914e-03
4.449051064302857184e-02
1.302318657392137202e-01
1.682925118126260833e-01
7.122156369858601010e-02
-8.794684998349194816e-02
-1.861853670983071030e-01
-2.101209369452441966e-01
-2.233710889085691320e-01
-2.476145750646913113e-01
-2.405168633462741734e-01
-1.933585927502792789e-01
-1.598088953582180727e-01
-1.627222320721957161e-01
-1.520839845104509369e-01
-7.157501034918302418e-02
5.295011272560539578e-02
1.278380173666500974e-01
1.294166166687368280e-01
1.336107015011869237e-01
1.673640017419003034e-01
1.771184338534796954e-01
1.521650528345622200e-01
1.322496329363725409e-01
1.244816173290393679e-01
1.056610806755082232e-01
7.468570682208433564e-02
5.570472270101405055e-02
4.075363663532947933e-02
-1.934002191323266895e-04
-4.023637935250506253e-02
-4.403425567086634296e-02
-2.641459471402594211e-02
-5.821630049801502713e-03
-5.787498763393093826e-03
1.029964088008050900e-02
1.149270398604427812e-01
1.619815613670194665e-01
-1.061236800570428129e-02
-2.066036181738916122e-01
-2.373786541698814645e-01
-2.182010373644579504e-01
-2.158874030002019828e-01
-1.568101817952202159e-01
-5.590481299279788374e-02
2.375475705821179090e-02
7.493745284649125371e-02
9.941183791033804396e-02
1.005618014754312145e-01
9.130319434921554955e-02
5.602338566711945189e-02
-3.593038194386886583e-03
-2.005450704020519948e-02
3.675373405633261537e-02
9.290196069826106573e-02
9.036695950077629214e-02
6.218445080800917568e-02
4.231521640126919420e-02
3.260658461783171730e-02
5.449169697014594194e-02
1.069856308733378586e-01
1.265512054163693001e-01
7.375147728998143748e-02
-1.541631417386306845e-02
-1.103485203518641683e-01
-2.231415918800987441e-01
-3.241017769642660640e-01
-3.316390766041746874e-01
-2.266908374575153651e-01
-1.008665532473256021e-01
-4.470637154236531408e-02
-2.530586893221463407e-03
1.062695854710167809e-01
1.607682667838848389e-01
6.076594566318765933e-02
-3.582993803685936840e-02
-2.919521629775338745e-02
-1.696617211055340482e-02
5.624556019259406743e-03
1.156317030747992525e-01
2.296132314255150131e-01
2.565691444314635583e-01
2.456415613594956637e-01
2.163633183517484071e-01
1.427464156003608597e-01
6.896165357039797661e-02
1.543392145983438907e-02
-5.424510786042312932e-02
-1.105762677818254158e-01
-8.666769781202496303e-02
-1.720349604161219847e-02
-1.138970896857077232e-02
-6.392275606254062270e-02
-6.326878319242962290e-02
-2.089730897627460615e-02
-4.708314329443487323e-02
-1.373574828413993421e-01
-2.134179608896655256e-01
-2.519077350480286581e-01
-2.480101067633687650e-01
-1.971937920030348568e-01
-1.227665433412700180e-01
-3.797407415452540291e-02
5.044542494334305210e-02
1.021770289212051291e-01
1.020797183306482170e-01
1.071042305177243720e-01
1.440044473139281134e-01
1.532831240206797840e-01
1.169494532480402083e-01
9.652026758624615566e-02
1.011510527936329007e-01
9.002572192199137513e-02
7.348290878598580378e-02
7.027260181888037027e-02
3.727700230283369220e-02
-4.711462402190745580e-02
-7.122558087695712858e-02
5.354297002328253091e-02
1.741642728607305790e-01
1.422919736491533027e-01
6.670991942081973269e-02
4.604778804299846512e-02
2.329549275590960672e-02
-3.372720304009058784e-02
-1.010270834022140019e-01
-1.528847026224015582e-01
-1.887909213125575081e-01
-2.406849859684459525e-01
-2.834516541076093632e-01
-2.544225449926691973e-01
-1.758333875057181972e-01
-1.058821654572137810e-01
-6.430930350595243095e-02
-4.047845217652525085e-02
1.452194616318500803e-02
1.064493601725498423e-01
1.551941891230846915e-01
1.518934113989123813e-01
1.684930378720049249e-01
1.786131289783471354e-01
1.295688327979870325e-01
8.978337184099148549e-02
1.016370196688872601e-01
1.001552760809767822e-01
7.013542460726755745e-02
6.067084636097862249e-02
6.569223317756170410e-02
4.266927619334014155e-02
3.285918724600548485e-03
1.345486499269875347e-03
4.258271924263408448e-02
5.775416408430474047e-02
3.286833431478630024e-03
-7.084199040672513326e-02
-1.261170613327450563e-01
-1.961054911445283266e-01
-2.749608946086836148e-01
-2.960062232173712449e-01
-2.451246981446925932e-01
-1.687563276063337725e-01
-9.389362078734468653e-02
-1.414358621790022530e-02
6.702255480291367806e-02
1.101502726929754622e-01
9.563312113679148241e-02
8.249112536678585017e-02
1.195249039107425526e-01
1.592885717128711687e-01
1.527711541736536671e-01
1.314228138500146414e-01
1.322022195471648232e-01
1.275134588371137634e-01
7.526652556635929359e-02
2.560974397286142068e-03
-1.828118115636418600e-02
2.093170829584616727e-02
6.788791184303849535e-02
1.036881723944184236e-01
1.270379175889310430e-01
1.075355715658456168e-01
2.644486009649885463e-02
-8.758576769872515599e-02
-1.760205150266251628e-01
-2.228023745121281152e-01
-2.777374253438714691e-01
-3.061627100610107566e-01
-2.064141478788375783e-01
-7.750281495759143990e-02
-7.928525070829967047e-02
-1.062205684036579834e-01
-2.064747530680112117e-02
9.554546700663854586e-02
1.428668297817403676e-01
1.290504019059357521e-01
9.544229658442704434e-02
7.008466893692419375e-02
3.781410159243170366e-02
-2.360262808598795337e-02
-9.113623586001411148e-02
-1.299364240611876053e-01
-1.123674428384183743e-01
-3.726095795271364142e-02
3.144702782296961846e-02
5.666677153974216535e-02
1.018589600902670977e-01
1.907493383954895760e-01
2.378850982433280692e-01
1.986854010542210558e-01
1.336586870741682254e-01
1.029623415301260392e-01
9.560628713509373988e-02
6.840190207738172656e-02
1.135250575736414247e-02
-6.207522829671482945e-02
-1.439297879321726481e-01
-2.047508642513803379e-01
-2.097287161145127143e-01
-1.679130888096891372e-01
-1.042337480208208322e-01
-1.992105124245840964e-02
8.347723817202300223e-02
1.706508632509523005e-01
2.000481083151927075e-01
1.794317691991710872e-01
1.456881312228482384e-01
1.073280101902336636e-01
5.180808522991087184e-02
-2.281431844743610909e-02
-1.020549208317627216e-01
-1.597797437461529468e-01
-1.934528789671084437e-01
-2.442883284922329756e-01
-3.078727496319482171e-01
-2.903413511671275593e-01
-1.493443343689035974e-01
3.258923515450884434e-02
1.619597203018189879e-01
2.105578909642186192e-01
1.933024978708860475e-01
1.327725032143571293e-01
3.727483756009634941e-02
-6.775708734905683261e-02
-1.221879697639580292e-01
-1.162483828329005653e-01
-1.106910782274320992e-01
-1.030943644226604561e-01
-3.492766641742596490e-02
2.165784951538237899e-02
-3.268927105057636145e-02
-7.188900523645561091e-02
3.195961642132748998e-02
1.584039514877524923e-01
1.969836633055679354e-01
1.913768967187155501e-01
1.817603583529971145e-01
1.759188663488529814e-01
1.634801941701616856e-01
1.108797821940720046e-01
3.441361589842307361e-02
-9.718982432684673822e-03
-2.492124006299099165e-02
-5.610928108631372396e-02
-9.097119392001448701e-02
-8.392544877230835587e-02
-5.481160360651403385e-02
-5.929475199611546066e-02
-8.180918232579161009e-02
-6.271313428167681059e-02
