-2.124051249528701585e-02
5.828626276091775082e-02
8.019674947768453202e-03
-1.343767012649454418e-01
-1.422619917711910875e-01
-6.303374717911884584e-02
-4.358000941251767568e-02
-3.829974541099509522e-02
3.453987787182958950e-03
4.568265296428172806e-02
6.497981871728197856e-02
5.793306429588845896e-02
5.186312191628209695e-02
7.928693597925597081e-02
1.094266068629947963e-01
8.411772408635016796e-02
-2.312000677869268522e-02
-1.566013459779633243e-01
-1.844361816058321946e-01
-8.880684453315881854e-02
-3.599685575939514000e-03
2.150179725434306355e-02
3.916502904374119520e-02
4.967920125519937474e-02
3.787990121518756970e-02
3.713643907943186412e-02
6.460209451686838023e-02
8.329245591113726421e-02
6.190018811331084864e-02
1.744945229503645431e-02
-5.473255839383416727e-03
2.065760393103102666e-02
2.052558997837998153e-02
-9.622442074721151983e-02
-1.905660057187347212e-01
-9.189236380640068702e-02
5.224179335527256995e-02
5.591786021325270001e-02
7.807847821270010036e-03
2.209053241028007333e-02
4.890952068692375893e-02
2.664834575996228444e-02
-1.690966823181036874e-02
-3.257962080537392391e-02
-1.075644968276160546e-02
4.541949988955856082e-02
9.863602285875183728e-02
3.410422694965672963e-02
-1.499551695810519281e-01
-2.233944391239092164e-01
-8.037896091266151510e-02
5.563306478186126613e-02
2.807775704712749121e-02
-1.804548499101234910e-02
4.376523038477864863e-02
1.129636012511966159e-01
8.327584930162910959e-02
1.037581649144432225e-02
-1.885771951104104824e-02
-9.765098885986008351e-03
-1.791750766990974492e-02
-5.496546142996443229e-02
-6.369530760561090132e-02
-1.580158112154522385e-02
3.162098917116976798e-02
2.934383912719028265e-02
3.692038707483557766e-03
5.851274817878669363e-03
3.243018448448023450e-02
4.479071154192329485e-02
5.600080230266628323e-02
7.681644342117531499e-02
4.552118987257315619e-02
-4.409475892269236474e-02
-1.090243676997129513e-01
-1.231395412844090709e-01
-1.045732575036962264e-01
-4.924542585906567516e-02
1.637338326872729566e-02
6.111363583495581231e-02
8.047441563020028832e-02
5.769808020543078231e-02
1.689066258915010443e-02
4.820658262510444172e-03
-5.151147315480517595e-03
-1.809441880085698937e-02
1.333415452694003411e-02
4.273026679946747425e-02
1.782353664699255769e-02
7.694196156128416120e-03
3.506388603844495105e-02
3.164937784016774031e-02
2.460252937286517075e-03
-1.457696484871796871e-03
2.354888785829439141e-02
5.784657270786949107e-02
4.330223726223560166e-02
-6.243827619121591899e-02
-1.308824851045148341e-01
-2.365264139972184446e-02
1.042464278357197877e-01
6.022679383729794000e-02
-2.010673835351489344e-02
-2.840200167753254012e-02
-1.208924839611721647e-01
-2.444556706540677304e-01
-1.713291164299814984e-01
-9.096286938436821609e-03
3.453543917486124465e-02
1.057251309409390494e-02
1.811905467238598272e-02
8.742652839996786773e-02
1.944367701461754694e-01
2.123800949429327511e-01
8.991981563564206692e-02
-3.570158363444461691e-02
-6.556992810999034971e-02
-5.225770228359404024e-02
-4.911682989925039711e-02
-4.701016223982183023e-02
-4.357964290409835351e-02
-4.588884386059031290e-02
-4.410631595145360351e-02
-4.011808446669549305e-02
-4.734456678850393341e-02
-6.691802955219995630e-02
-7.685434481989347755e-02
-3.820862466051476447e-02
3.634007147987949882e-02
8.400497427971798103e-02
7.395093710542609278e-02
1.764449717539788229e-02
-1.161142589692488319e-02
4.777071550244293974e-02
1.019562190663518969e-01
6.476229806628165664e-02
1.792978917244052520e-02
3.734257481538505452e-02
1.025946020012841881e-01
1.433938434552160524e-01
7.326026030705956593e-02
-7.333581878764131035e-02
-1.427310286512009641e-01
-8.655545189840938014e-02
1.455445115253959157e-02
9.859288853045379553e-02
1.246114410142672713e-01
9.116858045275699762e-02
8.721392161099732199e-02
1.251163315016672606e-01
8.651796217665332078e-02
-2.797386629826762242e-02
-9.683692781641123348e-02
-1.250254628233926635e-01
-1.936148204513637450e-01
-2.743695187295366877e-01
-2.840342046918199470e-01
-2.129288671488251683e-01
-1.352407105150039146e-01
-1.039203216788004563e-01
-6.495153032662676074e-02
2.962392715336031185e-02
1.198700984737605113e-01
1.533829487811034231e-01
1.426525269160499043e-01
1.265713199461535876e-01
1.638415915114966315e-01
1.924897547939197484e-01
6.473877386603904549e-02
-1.037494524814563390e-01
-8.468646668543017286e-02
1.563693939706176095e-02
6.266560183694469370e-03
-3.115548718912629356e-02
-1.485673671403925714e-02
-3.885610155705523927e-02
-1.078833449413985485e-01
-9.242506728824917417e-02
1.173180585079449528e-02
8.583110797860815655e-02
1.007908409200016786e-01
9.626986641949303314e-02
7.437706066653465564e-02
5.078514604624923684e-02
5.391639193389709261e-02
4.644649181109623826e-02
-2.514408779198158347e-03
-2.568804145296619754e-02
9.446499818607762000e-03
7.653634760891895802e-03
-5.471087405011122035e-02
-6.240430105560058199e-02
3.603173016246269400e-04
3.542772930186921521e-02
1.830715352715276897e-02
-4.130959238987973875e-02
-1.301587782462589882e-01
-1.446108800480502554e-01
-4.185673236930376878e-02
2.568341156735143294e-02
-3.353479698032683920e-02
-8.937140264103526910e-02
-4.788940845003398367e-02
1.134985850907956062e-02
2.827618910878049174e-02
4.425608531298392406e-02
7.951731044762599954e-02
8.811105380053904645e-02
4.953146400726936294e-02
1.553200522502388298e-02
3.574053889732731887e-02
9.118771994000661463e-02
9.838376077265206798e-02
-4.774841324272473611e-03
-1.338387588482036761e-01
-1.443453111172060543e-01
-4.810764819237064310e-02
2.987649246975080178e-02
3.535252666629286333e-02
6.670599904450945708e-03
-4.637938216647534417e-03
1.350965887520669435e-02
3.358673653669256437e-02
2.568493813312962629e-02
-5.437900857290314111e-03
-2.454202347977145482e-02
-1.158446903328526172e-02
1.588347697357964453e-02
3.181900569079779140e-02
3.588713183328334777e-02
4.241685397326754037e-02
4.461424252054533440e-02
2.722428385824290226e-02
-4.101635866742351678e-03
-3.640156603850216999e-02
-5.398697194351716189e-02
-4.737066682422054475e-02
-4.676893223686572759e-02
-7.381952368702845990e-02
-8.649372940740449045e-02
-5.349560486473436960e-02
2.238633398468997324e-02
1.408140908929034207e-01
2.061591156366884281e-01
9.956889603565355351e-02
-4.696687804125976307e-02
-3.685548090238471852e-02
1.647482697103891044e-02
-4.624092361752420860e-02
-1.073692088629580599e-01
-8.160750378066633504e-02
-9.981559679622616088e-02
-1.931003626638627679e-01
-2.256300026798657432e-01
-1.621384040090653178e-01
-7.222908747704018251e-02
3.875745825104028042e-02
1.749435690973650259e-01
2.745558252736006732e-01
3.051944648603414634e-01
2.723963736188534934e-01
1.604618993670241800e-01
1.874993490434517796e-03
-9.024394058342746772e-02
-3.704176242747352771e-02
9.441942062541275327e-02
1.376655365214144999e-01
2.624847496191443086e-02
-1.272373747086426865e-01
-2.039900663714977469e-01
-2.074751476364423974e-01
-1.819787726167686193e-01
-1.361588250020279167e-01
-8.077140795993743849e-02
-4.462207630582616658e-02
-1.859393624429970387e-02
5.045947406592604656e-02
1.593532684551302592e-01
2.130610175855638944e-01
1.522225134679335568e-01
3.856444994689262051e-02
-1.939677435094648572e-02
1.079986858826428517e-02
4.436790277542411454e-02
1.456787330333527385e-02
-8.168578145223910278e-03
2.600100547961013003e-02
2.267035682390489484e-02
-7.265434142491070113e-02
-1.662609363646224137e-01
-1.507517476834836223e-01
-2.321533467664681563e-02
9.233829404439002075e-02
7.623163032154503527e-02
-9.035428363213811320e-03
-1.951814464289992890e-02
4.633273170999784724e-02
6.111625213875923612e-02
-3.900840867521238042e-02
-1.587790743309245856e-01
-1.777788317692216569e-01
-9.270811647442819825e-02
2.266419699756602388e-02
8.798374262286209890e-02
6.851286782043072843e-02
2.256205080089065951e-02
1.501413021020673623e-02
3.105454525663161464e-02
6.238553159793468889e-02
1.228994365402697742e-01
1.370810381680448442e-01
3.390767791614858473e-02
-8.201510631844252663e-02
-8.513806408037163931e-02
-3.326487613221045664e-02
-3.171726604947760347e-02
-7.624975965477981399e-02
-1.239353202518247155e-01
-1.513035130942753381e-01
-1.482632815915121971e-01
-1.264960998951701332e-01
-8.165759806776475005e-02
-1.572348463095515209e-02
-3.256800086103357750e-03
-2.937656805919558120e-02
9.852591955851722205e-02
3.877539533332019506e-01
5.451765956502206967e-01
4.554864378666280134e-01
3.263864360573079382e-01
2.942818905909822536e-01
2.391219131378607698e-01
3.939495005298260938e-02
-1.470403127809815635e-01
-1.357862271172085578e-01
-9.183368778606421090e-02
-2.099238689907146904e-01
-3.747373277677631953e-01
-4.404161621564227080e-01
-4.212900330059133891e-01
-3.450973433731542861e-01
-2.223110393942323293e-01
-1.310847942024506441e-01
-1.254511526637352437e-01
-1.131753748988569841e-01
-8.479626202816781255e-03
1.151467584814427070e-01
1.549997003733208922e-01
1.184520694640503191e-01
7.727280213190340641e-02
7.186741283771680422e-02
9.187170167769639906e-02
1.131159237411055590e-01
1.226982739759285984e-01
1.290834725778027270e-01
1.515048045528639975e-01
1.774992507607383585e-01
1.709945661485738067e-01
1.387650368432404857e-01
9.958292204076241161e-02
2.162309509104628352e-02
-8.532488651118008693e-02
-1.322912443265027160e-01
-1.048629352686189786e-01
-8.680600193509263596e-02
-1.003805862318480346e-01
-9.548152203544917060e-02
-7.313834499174008685e-02
-6.590960479934268590e-02
-7.079685049547636277e-02
-8.193549126798768678e-02
-5.047584653854682302e-02
7.339947812841619845e-02
1.523673932994768221e-01
7.066184431905056518e-02
-2.753748130968559221e-03
4.822090903882294416e-02
9.674183503149989816e-02
8.102408179249780129e-02
6.159773641533074912e-02
4.307217204648378095e-02
-5.921634975357185915e-03
-6.698050619939364958e-02
-1.028379811920761000e-01
-1.063503162161756194e-01
-8.034089018491327727e-02
-3.327965211928929357e-02
-3.564964499717026766e-03
-9.164995304934550266e-03
-3.397623137454251763e-03
3.645240504886433641e-02
2.881813371075128000e-02
-7.638338650468595725e-02
-1.198815089414006219e-01
3.450260297396856579e-02
1.708452742065215690e-01
7.055489289682456699e-02
-9.142932045966065124e-02
-1.107383536330921459e-01
-3.788160193972317513e-02
3.634207856831686567e-02
7.780863536746070175e-02
7.774148337279959686e-02
6.500706853088880632e-02
5.770139747095860694e-02
3.884986793735772242e-02
3.316751274888631029e-02
9.573070043103054649e-02
1.340128810835169992e-01
-6.482814903554023206e-03
-1.908619610285492707e-01
-1.688232066014112853e-01
-1.987626194721281436e-02
4.282381859690448378e-02
1.188808099705660967e-02
-3.406734576453861185e-02
-4.906216292410307128e-02
-1.438835812091608310e-02
1.725857050842337717e-02
1.418912301634957934e-04
-2.448316901133006790e-02
-3.595575128383655256e-02
-6.280887182699783355e-02
-9.948927227568861442e-02
-1.223468918104683445e-01
-9.544447623200666420e-02
1.923545167676235165e-02
1.530757660135737275e-01
1.761409847975835552e-01
8.559095852562231821e-02
-8.599300296099480698e-03
-4.829854793611428054e-02
-4.722387365779807944e-02
-1.492661567556098808e-02
1.975299740441606097e-02
9.063115885970885258e-03
-5.463015821526223670e-03
5.199232413749182991e-02
1.514143323960597531e-01
2.326130983790951345e-01
2.319851533846634117e-01
5.421998804840774677e-02
-1.917037676575734095e-01
-2.359199140416406160e-01
-1.032598716288200269e-01
-3.264058238728258232e-02
-5.495187435786800384e-02
-9.378039433271087577e-02
-1.380097199311514644e-01
-1.206185758561937743e-01
-6.495763749917702473e-03
8.475497416684049656e-02
8.206068943728461740e-02
5.255382243804284509e-02
4.239534597664972038e-02
4.639811176535136444e-02
6.235592392410112955e-02
7.005777677136379444e-02
4.302365076384993131e-02
-1.223678825517948536e-02
-4.913742815828968380e-02
-3.970513193521192294e-03
1.003524199632795239e-01
1.338740351549073948e-01
5.151064765147077285e-02
-4.009301047127421941e-02
-6.685729631534848005e-02
-7.324040285783778303e-02
-1.085744347594843062e-01
-1.457830114728388138e-01
-1.375091576450419573e-01
-8.489815097094484397e-02
-1.144201648518242305e-02
7.237085690498376578e-02
1.344639618461866970e-01
1.282782979150721703e-01
6.716416543883370338e-02
9.763246301798211152e-03
-9.585955080683957949e-03
9.927469800537484790e-03
3.121611158758818075e-02
1.396732787596694642e-02
-2.527124439865613068e-02
-7.709638427311404918e-02
-1.651288664599413480e-01
-2.312555580730758509e-01
-1.711449529438562878e-01
-1.328809127023371228e-03
1.427345067724752059e-01
1.633704394466345966e-01
9.294697107105014122e-02
1.983356586177950631e-02
-1.207914771239522282e-02
-1.898055827359411765e-02
-5.057317634041251508e-02
-1.108865697695318869e-01
-1.369888204839286583e-01
-1.027157457318723099e-01
-2.711048644353620043e-02
9.930111129610091902e-02
2.687739416855343122e-01
4.175400774723482256e-01
4.861502487460214739e-01
4.389927197230433231e-01
2.997096470606850360e-01
1.860840732325724223e-01
1.387469925432931461e-01
1.972494606271569390e-02
-2.276845043124309798e-01
-4.477864461655566841e-01
-5.314484663540647302e-01
-5.219537637952906817e-01
-4.526291783158443716e-01
-3.333389864693214188e-01
-2.202432027103552459e-01
-1.493502902057294301e-01
-9.722504114509517015e-02
-4.293324847877706685e-02
1.281949602056137172e-02
7.195255698694481838e-02
1.294123031491423159e-01
1.670171347978245679e-01
1.940243885177107552e-01
2.450361402971382996e-01
2.891333953434695458e-01
2.566473008631969810e-01
1.852902737489939000e-01
1.521015664881500140e-01
1.254195723165173471e-01
6.147994258651243160e-02
-5.202018504636460317e-03
-4.203383843769407241e-02
-5.609304785413674749e-02
-8.387145464342057877e-02
-1.610266102057443249e-01
-2.229442610784639622e-01
-1.530999674816063139e-01
4.722992304474427083e-03
8.628150447053112293e-02
3.981098109884183972e-02
-5.808770114101509396e-02
-1.078029120265847074e-01
-6.151633630926906654e-02
1.325400128384613199e-02
1.746072659104904584e-02
-4.058811735438372370e-02
-7.574434258758558358e-02
-4.603912119238108558e-02
5.837976517831096508e-03
3.627566660570252094e-02
6.695877944727497699e-02
1.021313779753065115e-01
8.844917170834122599e-02
3.169911083318974893e-02
2.342646575994569019e-02
9.089367309775400749e-02
1.250676831354269603e-01
3.201660328850042952e-02
-1.038087086497875566e-01
-1.458373060230582219e-01
-1.228842492984243973e-01
-8.381149166617470059e-02
3.489296462690760076e-02
1.525873922223377754e-01
1.066193302315857350e-01
-3.461427904353824025e-03
-2.098138989737227678e-02
-8.803923217851969060e-03
-1.184979639253734736e-02
4.358441020856542586e-02
7.337632594268696240e-02
-6.228098205012209954e-02
-1.782677860891399013e-01
-7.023397690033285345e-02
6.233983102778184460e-02
3.642119739032285974e-02
-1.066095629159955101e-02
9.022467885324623668e-03
1.367309964419357801e-02
-1.175501587009986776e-02
-8.661176814277107144e-04
4.804057253796038124e-02
7.055286740831218095e-02
4.671527957794356645e-02
1.043843955179000679e-02
-1.950118707751072669e-02
-2.631179050741188491e-02
1.895097746824926654e-04
-1.028523668562831422e-02
-1.196591923458075746e-01
-2.110876524484870953e-01
-1.203555691444336551e-01
8.556348219849624348e-02
1.707917446017561958e-01
4.952430817009228353e-02
-1.080777484946734424e-01
-1.216768311085089649e-01
-3.385425717697369136e-02
2.336206768683470048e-02
4.934710348574487121e-02
8.933151159452548673e-02
9.348452284441846616e-02
3.012051337910085641e-02
-1.458807154698312826e-02
7.790542103779010685e-03
2.146748404019960255e-02
-8.695858953035911360e-03
-2.544014694921003725e-02
4.125778532752567840e-03
6.845230274456676201e-02
1.004310079082812723e-01
2.297694786208658024e-02
-5.262048227951827278e-02
2.356434812767969553e-02
9.069932694445177745e-02
-1.825862733506280339e-02
-1.182940047270287787e-01
-7.432687774744951847e-02
-1.358307845203942169e-02
2.833949867296519515e-02
1.052980691191702789e-01
9.060998082882351645e-02
-1.142095496193707704e-01
-2.693125554810732458e-01
-1.636993404846317501e-01
7.122621508249438183e-03
5.645828231683139298e-02
7.311097253961967857e-02
8.832931170629465534e-02
5.568135277442961412e-02
5.041853471556904248e-02
1.003329834930180298e-01
9.451228155216857829e-02
2.267542594553154101e-02
-9.204723169769104749e-03
-3.985360389450871149e-03
-2.240272372742339174e-02
-3.845133704117255358e-02
-5.362953934370925935e-02
-1.055213838409251870e-01
-9.607282656825655298e-02
4.873313266138649263e-02
1.421008502422605735e-01
2.921837648908760798e-02
-1.224547106232088678e-01
-1.300159073952786848e-01
-6.412797378861724573e-02
-3.573528028375372312e-02
-2.709302782869269649e-02
6.958169457875347172e-03
6.037303628903699371e-02
8.216643792646401157e-02
4.430393405820665792e-02
2.137441720366652087e-02
7.056435410448658185e-02
9.874640517687072183e-02
3.499233447983635809e-02
-2.819517192126689761e-02
-6.380233222032464374e-03
4.102024343417180752e-02
3.118735140914812368e-02
-1.065447502719947190e-02
-3.350363499191651162e-02
-6.635640878175043389e-02
-1.212977552107464135e-01
-1.401977100659832776e-01
-1.182723404018718588e-01
-1.020681665217012396e-01
-8.247718177020814390e-02
-3.942709142191337668e-02
9.254695562558279756e-03
6.828856699972364608e-02
1.284342820032549626e-01
1.416189576307243514e-01
1.523003632869837087e-01
2.064564860062825802e-01
1.528097293237034582e-01
-6.772870363715687014e-02
-1.812363506261699120e-01
-5.175148154594394478e-02
6.334083237995588589e-02
1.450445527501071329e-02
-4.037924135003095882e-02
-9.731787240017438639e-03
5.562420588833602575e-02
1.536407574229999018e-01
2.427977397475515331e-01
1.918718872684110899e-01
4.143367131536605102e-02
-1.174997386347526040e-02
2.533396537982622251e-02
-1.942749271483412699e-02
-1.304436363241538444e-01
-1.632845073991903428e-01
-1.710770705896165200e-01
-2.896254739343145923e-01
-3.855186760493805043e-01
-2.860521312506962843e-01
-1.416876860766822788e-01
-9.314169645545303244e-02
-3.126152235349233949e-02
6.851654565038901856e-02
1.107285227169907404e-01
1.142219794150667322e-01
1.187355281826411452e-01
1.022844459569956233e-01
9.935542531714339209e-02
1.456984630068551834e-01
1.695933101860130354e-01
1.178230113412717384e-01
5.913500435630284630e-02
6.079076345372316781e-02
8.560255889803809748e-02
6.173322898535350128e-02
-2.007853632374862959e-02
-9.322422872606248023e-02
-9.458514120737249176e-02
-5.594769134428939639e-02
-4.512530053760864523e-02
-4.490294696977886746e-02
-7.324926385839168608e-03
3.891107489886013598e-02
4.219526907036405539e-02
1.822679327268371743e-02
1.109776169245862282e-02
1.144607113965561904e-02
-1.493715305583524951e-02
-5.155376065437279609e-02
-6.308482652131712498e-02
-5.357982057898334760e-02
-3.748437197516639452e-02
-1.640056771368439067e-02
1.058098817779900766e-02
5.710624627109468776e-02
1.243708792738437013e-01
1.533454238582779849e-01
8.046250054139017505e-02
-5.377572553178781856e-02
-1.318439674598972655e-01
-1.068481017101007013e-01
-6.525164487917850531e-02
-9.726654494147664309e-02
-1.473623525821688152e-01
-1.034269467325450442e-01
2.044041166538392365e-02
1.205599793393061780e-01
1.373267937957530493e-01
1.016164215798995574e-01
9.531276158898631390e-02
7.982235894952201261e-02
-6.314274010168878515e-02
-1.847888630225950068e-01
-6.418926567623156609e-02
1.060237125908821132e-01
7.377538249178060281e-02
-2.494259153797273240e-02
-2.848537874563083008e-02
6.906448162676872768e-03
3.414660179464732576e-02
3.524617103092779480e-02
-1.633678277527262496e-02
-4.692048396315649794e-02
-1.400058449145358611e-02
-1.182821481515014886e-02
-4.427310270248647345e-02
-1.859930388936720941e-02
2.324125010268408148e-02
6.894226605965517174e-03
-7.917494341063827101e-03
2.416968713578533309e-02
6.285626421762181837e-02
8.959059666435868763e-02
8.888618172387606486e-02
3.814624995444215738e-02
-2.304174211355891622e-02
-4.391918944547910236e-02
-1.008530427798959468e-02
6.370352122184086419e-02
9.170480732290352266e-02
8.236745821101811721e-03
-1.019168179835463622e-01
-1.344733128951772216e-01
-9.510546384156448596e-02
-1.704437213068893398e-02
5.533751169270208908e-02
3.072533400889783384e-02
-1.032590700759962038e-01
-1.742445930501934082e-01
-3.558511572821138058e-02
9.779314474072808849e-02
-7.084566840350024763e-02
-2.768182445005424874e-01
-1.272870869101243863e-01
9.397931281030587336e-02
4.617103622489157622e-02
-3.231835089809545480e-02
3.484476770292878334e-02
1.123194367540947397e-01
1.474060073650897973e-01
1.374597032436697119e-01
1.513306800976458588e-01
3.217275769947239850e-01
4.067232206142449846e-01
9.999898535240653308e-02
-2.651863511425696096e-01
-2.794403905485846606e-01
-1.228418020394402566e-01
-4.753139937686137045e-02
-3.205872569489660873e-02
-5.754189579185994136e-02
-1.101550096455421179e-01
-8.768885404378849724e-02
1.748688752009654873e-02
6.100160305065251143e-02
-2.239266666907709785e-02
-1.094088581782001607e-01
-7.486208356851989376e-02
3.249670471705518732e-02
8.200403735385349002e-02
7.084819705789496824e-02
9.025289218203776109e-02
1.150260119092465227e-01
5.842244183170033217e-02
-1.358274434889597884e-02
6.518249149154831112e-03
4.474029714751963371e-02
-4.061437455528903867e-03
-7.829392821297063987e-02
-9.216756619784879923e-02
-6.283344247817293504e-02
-3.327864546987609889e-02
-2.382729888574559515e-02
-1.138051131481671897e-02
5.176080675786485369e-02
1.130080990841518251e-01
6.196819096493760837e-02
-5.109464299369888968e-02
-7.202705939469536411e-02
-1.068767030767782747e-02
-1.281374903125977877e-02
-9.087770410265631760e-02
-1.114997034572165341e-01
-5.586862330288768635e-02
-4.669170073930627163e-02
-9.555786478509499526e-02
-9.629516257959061520e-02
-4.361370368446302465e-02
-1.275930750926910530e-02
-1.363767552087221356e-02
-1.313376446167728410e-02
-3.619437812670480911e-03
2.624851253047671452e-03
1.690878697838570435e-02
5.024776610610655336e-02
3.092591953541459077e-02
-4.604440280319365558e-02
2.147692146933005697e-02
2.835990810599129941e-01
4.672977036258922912e-01
4.517103345154839800e-01
3.964061280904080942e-01
3.540277225537339367e-01
2.538688681346029097e-01
1.014015907732770255e-01
-7.180020994557123615e-02
-2.300447187138983662e-01
-3.167395957073746993e-01
-3.676544775408387977e-01
-4.416115657620002244e-01
-4.237015723298425685e-01
-2.372325367455900280e-01
-9.677331758897947389e-02
-1.403419078330212788e-01
-1.928670637181991721e-01
-1.560285597121870704e-01
-9.896428270732274268e-02
-2.450976738498889668e-02
5.417573870215602189e-02
8.105805229081897156e-02
8.365216635545909274e-02
1.007881008652216220e-01
1.289945326722717056e-01
1.858310888707000452e-01
2.301890441617095995e-01
1.537250541388229808e-01
4.645259863891991470e-03
-2.613859135587645599e-02
7.230589969135847728e-02
1.095491223540804721e-01
2.964462375390418403e-02
-2.624689325000140530e-02
-1.129142624515965670e-02
-2.537584927724931619e-02
-7.134214518867687538e-02
-6.685424254404019606e-02
-3.723211579956488271e-02
-2.975868460781019853e-02
-1.416854536708732695e-02
3.021392436949561083e-02
1.202910356009624926e-01
1.925579784478020917e-01
8.215106210682879273e-02
-1.108757533996417854e-01
-1.078584168122374010e-01
-1.366988865878088211e-02
-7.233367504212261101e-02
-1.464828050774270307e-01
-7.662228608695589860e-02
3.868091364916516860e-03
1.971736054531604901e-02
2.776553946058668565e-02
1.081416743217672102e-02
-1.716168118570193801e-02
1.150824973268380590e-02
5.596435949336372312e-02
5.299503114693059069e-02
3.747125443983187476e-02
3.736106976983381150e-02
2.302002315979713443e-02
-4.658366395756776031e-03
-1.368587219774439895e-02
-5.989553108215765233e-03
2.081731161932623420e-04
-3.647648057927179409e-03
-2.671136830111309549e-02
-4.743699317572261376e-02
-2.376039186364466149e-02
1.715366023066342352e-02
7.547237577858310724e-03
-3.112628497417368675e-02
-1.522481099218863168e-02
6.547210324896256262e-02
1.192317058744132297e-01
4.576504219727445949e-02
-1.057955672625137677e-01
-1.439332524502978661e-01
-3.144981092797370648e-02
3.616467670858463518e-02
-2.785772565320005639e-02
-8.662533394303501000e-02
-5.488690485044738637e-02
-2.880639708001556196e-03
1.790918831818853058e-02
3.567506733970628174e-02
5.561422917313380704e-02
6.812786275838839112e-02
7.491052830025578257e-02
1.628468852270532896e-02
-8.068402733531294946e-02
-2.142625161005962120e-02
1.516478631550917666e-01
1.434273638804834106e-01
-1.554523206960799903e-02
-4.114965313453140816e-02
4.352187421036556036e-02
2.307263083395558190e-02
-8.695844105116194711e-02
-1.363142205150174591e-01
-1.004441660003510817e-01
-3.126471378305127613e-02
2.370620265630189044e-02
2.986190348596347646e-03
-7.423077386496353125e-02
-8.984254761727855643e-02
-2.683271194470409488e-02
1.269292646763904402e-02
1.083547451945392551e-02
2.001773496151909582e-02
2.867236377513195794e-02
2.699616300716301681e-02
6.485102557436894788e-02
1.384346871946225965e-01
1.498135061861663175e-01
5.903711297358681109e-02
-2.213224209460611103e-02
-8.076689281585294755e-03
1.485109667155606189e-02
-2.264692208105775414e-02
-4.770384820504097734e-02
-1.625523576700104583e-02
4.797443873771723571e-02
1.226669847648761968e-01
1.049633824929401132e-01
-6.940654473611825026e-02
-1.913191682891819401e-01
-7.353837374960658924e-02
4.484802829608396796e-02
-9.808344042314827427e-02
-2.580606724044450240e-01
-1.531433212500118435e-01
2.744098113641290845e-02
7.921169540988545754e-02
8.328388734815268812e-02
8.258634430683206573e-02
4.377983709788364763e-02
6.128279585173637342e-03
-3.398378967078397907e-03
8.011877406626956646e-03
3.907466575988002150e-02
4.426826632312393095e-02
-3.967753634498408753e-03
-3.178490500342484593e-02
2.028657557825202379e-03
3.319807293047586511e-02
3.694615665504120267e-02
4.733819176382452615e-02
5.189424617228428210e-02
2.078148610228112286e-02
-4.272053551481086453e-02
-1.150721315907308889e-01
-1.505325608302155449e-01
-1.330859969861542536e-01
-1.085203857128549387e-01
-8.082594965082265381e-02
-9.199515634018048255e-03
6.650572486852104892e-02
9.470087498091538103e-02
1.201729801237479273e-01
1.468106148646011744e-01
1.067544047223912967e-01
4.025492563483235031e-02
1.417703880939086107e-02
-2.450562693369104372e-02
-6.720173020472886005e-02
-4.032225221681642879e-02
-3.028382699329860636e-02
-1.111114632260033902e-01
-1.546281462670407170e-01
-7.466966250797776872e-02
6.884560224865426958e-02
2.261372673987118442e-01
3.401823031108431317e-01
3.138835612367156247e-01
1.755874087606889566e-01
1.081264914336795557e-01
1.674051409272173663e-01
1.687902179720798812e-01
1.267704585846093565e-02
-1.471063576174559406e-01
-1.992238581178933654e-01
-2.233866093624977678e-01
-2.836270599807023673e-01
-3.425896461545214766e-01
-3.597632427709742675e-01
-3.249942043066250119e-01
-2.534196174321231010e-01
-1.818545962308248387e-01
-1.154756756319483824e-01
-2.007126535887676644e-02
9.428132226315938391e-02
1.647125733100633371e-01
1.744407895559912103e-01
1.825731410479219941e-01
2.265203733231119232e-01
2.514270134170116244e-01
2.113318533778714703e-01
1.572838291060461580e-01
1.294348473376758513e-01
1.058226548130281330e-01
8.019833041402020524e-02
3.944955483092549980e-02
-5.174194220465416771e-02
-1.435825266054399918e-01
-1.367179277552942607e-01
-8.549252664465620266e-02
-1.132754710470667003e-01
-1.356866143204384922e-01
-4.468380463638075423e-02
3.019375356903567648e-02
1.338497337423303832e-02
1.974869396557447573e-02
5.261642558351400933e-02
3.573585949604879408e-02
1.755723559707605269e-02
2.866895728240039659e-02
1.621427391471000345e-02
-8.112024744152211003e-03
-8.122977971791709578e-03
1.298287648532585846e-02
5.717884783923891934e-02
6.672204875511442146e-02
-2.653995175920434435e-02
-1.174239791440352537e-01
-6.386697836136169537e-02
5.835749077491375614e-02
7.483597894302015940e-02
-2.688970779494921290e-02
-1.084836269352941751e-01
-8.433317233325313134e-02
-1.181690074888169101e-02
3.330947058055265531e-02
6.341882479884605739e-02
9.912568450923377184e-02
1.072565713999537734e-01
6.353523059543055018e-02
-1.754578043814326513e-02
-9.988329170800960832e-02
-1.387899294790154725e-01
-1.379858767348976500e-01
-1.535007659181882034e-01
-1.647930496935210987e-01
-8.449287082455453346e-02
4.396293868641638902e-02
1.022009848497497930e-01
1.144615653631413377e-01
1.238695963574537318e-01
5.851702726049393122e-02
-4.532393367111301613e-02
-3.445301416980205145e-02
6.406185009910785044e-02
1.067456139655245106e-01
9.319428461715936751e-02
7.994586780070035703e-02
4.426815184249002083e-02
-5.559497716532435865e-03
3.666517330768240268e-04
4.021970409777089750e-02
1.716873540025190201e-02
-4.426413236923828348e-02
-3.162350688568986434e-02
3.213799882111964545e-02
2.529362341922865298e-02
-4.599503845692020504e-02
-8.291004533238752194e-02
-8.285924393594620851e-02
-8.643526599591615234e-02
-6.398907626041745733e-02
7.874217249359520207e-03
9.462657255484104024e-02
1.430582299753723752e-01
1.021877277569633036e-01
-1.217220925475833403e-02
-9.273633391410147919e-02
-7.980650519921911323e-02
-3.736522730732572128e-02
-2.012203550437631494e-02
-4.144148665223170228e-03
1.048496261119544540e-02
-2.345273480404951733e-02
-1.059914623570877429e-01
-1.612006003497778173e-01
-1.116321123050515174e-01
1.159337149562960842e-02
6.309395762815228625e-02
-7.284029738497347500e-03
-3.063549193919296032e-02
9.501367148925793371e-02
1.971825561656289083e-01
1.337149761726323105e-01
1.478539540373099634e-02
-2.116529369025777624e-02
4.393082042341348720e-03
1.116028807723993058e-02
1.099523117086236360e-03
-7.171772132495058197e-03
-6.010092220658708878e-02
-1.247663709993382386e-01
-1.322414623508426923e-01
-1.913219743705453224e-01
-3.167857594036570523e-01
-2.811260465055784308e-01
-8.008766995569113756e-02
1.056397531618786800e-01
2.836027306189391473e-01
4.331714996188197331e-01
4.810586925769376188e-01
5.280615615194572676e-01
5.887533670059628133e-01
5.215882169749646025e-01
3.342068529875195093e-01
1.472105637075912243e-01
1.375595241179415618e-02
-9.221198307327799215e-02
-2.429507564430152811e-01
-4.570673444698711840e-01
-6.458513081745689277e-01
-7.077129494169661639e-01
-5.930677428764798975e-01
-3.656463450793159264e-01
-2.269503444446821228e-01
-2.703020298125164977e-01
-3.313399082829120434e-01
-2.505920266731057056e-01
-6.317789398103830500e-02
1.031584169477034046e-01
1.795389166840079542e-01
2.152725565078718317e-01
2.628482663880712389e-01
2.904313891883728571e-01
2.887941559758666621e-01
2.953245058200790751e-01
3.003341305719111620e-01
2.762671908989607905e-01
2.301508633172659746e-01
1.806256479174545293e-01
1.519860407747162245e-01
1.253807207008048041e-01
2.815701215148058711e-02
-1.148105617066745021e-01
-1.877000382630089614e-01
-1.924466115239748532e-01
-2.079246479839460537e-01
-2.042735179430632819e-01
-1.286543536483277517e-01
-4.752709787708477018e-02
-2.812504437794921541e-02
-2.591552343807097120e-02
-1.141546655975199387e-02
-2.858156443597857643e-02
-5.768368705454036266e-02
-2.819562964606714059e-02
4.088145591937772383e-02
8.688963664900639650e-02
9.673274405782039675e-02
8.213095079571684776e-02
6.708308452230553331e-02
6.517104082238861507e-02
4.796602339002149079e-02
1.587099006106307622e-02
1.496446049864594979e-02
2.553598898578801624e-02
-1.871520787957238127e-02
-8.196966856314517880e-02
-7.614086666790292890e-02
-3.502472103932197794e-02
-2.612398303031232549e-02
1.201685335621648781e-02
1.089626377399591506e-01
1.200929900478820977e-01
-3.529425608927326541e-02
-1.807984965429716429e-01
-1.270432967152357318e-01
-2.615961854713822268e-03
-5.356539494843468724e-02
-1.804029380455919318e-01
-1.441603766753482008e-01
-2.709411834985005207e-02
1.403978156419358192e-02
3.453124170138360816e-02
7.051989317209890473e-02
7.424661909776196500e-02
6.679583121027754533e-02
8.055484267205104132e-02
9.435892853502461652e-02
9.914754942642865776e-02
9.964245424514832361e-02
7.391595202249584551e-02
-1.699800979204127080e-03
-8.014058398221099444e-02
-5.745917111485086132e-02
5.510184004087886889e-02
1.088912404729210220e-01
4.543738431248552784e-02
-4.157386321722106315e-02
-6.680099870129939388e-02
-4.748170373521237025e-02
-4.536231136629981231e-02
-5.473395357385369558e-02
-3.217086484232260790e-02
1.816078373867781315e-02
6.634836927747633784e-02
2.478234423957098934e-02
-1.549970214609903418e-01
-2.541202230421910624e-01
-9.357474699878476354e-02
9.465763989436785930e-02
9.911181490292766960e-02
5.833780889541070186e-02
7.714406925290934192e-02
6.723021374315266141e-02
2.344443741074671989e-02
3.426250059402397019e-02
5.584463857570089174e-02
-1.654545273298306876e-02
-1.284674996488435750e-01
-1.461427769847471470e-01
-3.999944358663966304e-02
1.033086867698669586e-01
1.470565357856191691e-01
4.636188753835676635e-02
-4.839330276308606571e-02
-5.726473107206437457e-03
5.163180655406764824e-02
-2.401400520192406574e-02
-1.277921506658954431e-01
-1.116151293917839460e-01
-2.772535229165954893e-02
1.660775570408722784e-02
2.346416628933805509e-02
3.463218238200795746e-02
4.708049261753313036e-02
4.734260281758532335e-02
5.442953791331667235e-02
7.292423807212571052e-02
6.492107081410375402e-02
2.609177847033827477e-02
-4.763526940302006962e-03
-1.602557658010823199e-02
-1.244967262112648895e-02
3.766380665594985105e-03
2.118749214426604577e-02
2.553435576363601370e-02
-7.261296970675620160e-03
-4.292224785161635053e-02
6.416703914711091757e-03
3.940262494263162274e-02
-1.151827193042326558e-01
-2.668895589627308662e-01
-1.650174047801932220e-01
1.705515871225639704e-02
6.632249596687744830e-02
6.194103935909062164e-02
8.584761655509737244e-02
1.163613014353688524e-01
1.263700838275168825e-01
6.422486587418191339e-02
-3.140313386036167748e-02
-2.534507299348971385e-02
-7.465672350936543300e-03
-1.534690641789976107e-01
-2.488330364653519866e-01
-6.980547141228216068e-02
1.072917766081049190e-01
4.778192688438297892e-02
-5.124885415089686785e-02
-1.307949659387232927e-02
8.912274930988786648e-02
1.009764499848521124e-01
-2.544469178086053787e-02
-1.282426632205391492e-01
-8.701544763058231824e-02
-3.057680195417207883e-02
-6.053922056963712689e-02
-9.990793478877697809e-02
-7.837620203931985885e-02
1.125082338641564955e-02
1.438396152585331156e-01
2.633942675376707010e-01
3.445614174885556213e-01
3.898053785907996116e-01
3.766158301978280165e-01
3.019851847250601407e-01
2.074106331349175603e-01
1.136482443545381443e-01
8.352828582992161133e-03
-1.142182207495695129e-01
-2.558176130706525386e-01
-3.983692043399758020e-01
-4.806422372889338490e-01
-4.622452350151862177e-01
-3.666874954466254888e-01
-2.443648441018043127e-01
-1.578060986154319334e-01
-1.413601005150341150e-01
-1.393129350251080534e-01
-8.662008775845232711e-02
-1.130549980586758457e-02
5.067652826996506266e-02
1.186439275815052707e-01
1.863523129516322374e-01
2.424404062610611976e-01
3.018012171488804185e-01
3.176750445969278025e-01
2.754944991212482375e-01
2.674524471312864082e-01
2.383150035085771223e-01
5.589996353971173060e-02
-1.097304461835382633e-01
-6.311495818373716316e-02
2.169336300320038463e-02
-3.611392769851013568e-02
-1.462311575848704859e-01
-2.154565707180109979e-01
-2.406034210163928155e-01
-1.680822412797740861e-01
5.903682423871143420e-03
1.008217256895059394e-01
6.683633314439503537e-03
-9.158388810315577777e-02
-3.183673060079472705e-02
4.936770453800323755e-02
3.444323019788726736e-02
3.792258496967734066e-02
5.738720424359747968e-02
-5.199960516376626873e-02
-1.527641223108981428e-01
-4.798416071459379179e-02
9.327648925419410042e-02
9.692066133149071505e-02
5.454948233172456085e-02
4.019739038446214913e-02
3.963227322455069312e-02
5.190769716155652774e-02
5.865832256428182151e-02
2.484418196336285120e-02
-5.849348677477847480e-02
-1.348296099660249159e-01
-1.137259348158300848e-01
-8.897015052483307068e-03
6.413005403463518939e-02
4.774339891875315628e-02
-1.253299013345887843e-02
-3.728098750790473370e-02
9.586514196026092033e-04
3.874337169180949031e-02
2.480633622320647241e-02
-6.070726225627844780e-03
-1.922254667974315767e-02
-1.692083629423504765e-02
-2.353415112189083738e-04
1.481803790673258923e-02
8.464798980934579165e-03
4.711093396032527483e-03
2.105146429343876871e-02
1.712946970105942018e-02
-4.212744030964971076e-03
2.229063671467148428e-02
6.449632899332947977e-02
3.608788565627717854e-02
-2.595576840597374133e-02
-5.437877578104328979e-02
-6.827848504589328904e-02
-6.309204216770936124e-02
5.179120296770357151e-03
9.439614935336898549e-02
1.019075256736252377e-01
5.859574816647308143e-03
-9.320923364255788435e-02
-8.114073816045834497e-02
1.861123673073835499e-02
6.654387592653278338e-02
5.733497099078561920e-03
-7.786226618954150691e-02
-1.042608082981918843e-01
-7.648195986055907059e-02
-1.662849654543717415e-02
4.641654121079684392e-02
4.831812347622517489e-02
-2.401876577670063184e-02
-7.991436231270321322e-02
-5.066078385451536908e-02
3.993230113651570490e-02
1.292047302532780551e-01
1.355817979619253488e-01
3.384498125188720868e-02
-4.866984645869333603e-02
1.064940463932146156e-02
1.297539199210212546e-01
1.554304692532787746e-01
7.395561393260420557e-02
-2.874189546830326764e-02
-9.864492604616519056e-02
-1.344090085503303889e-01
-1.393486073492896105e-01
-1.176346376373980790e-01
-9.685650904816547890e-02
-9.053722657934548668e-02
-6.299097913123567760e-02
5.900680569301918268e-03
7.147158104858765404e-02
9.802526362618561862e-02
9.774682991696002909e-02
7.569197812111000401e-02
3.717087222901643839e-02
1.465872355645099143e-02
2.676242925788718807e-02
6.183807294329460996e-02
9.291833925067387312e-02
8.685600603935689223e-02
3.470476000461480970e-02
-3.825181170352282001e-02
-1.020751832491268440e-01
-1.169426905888353574e-01
-4.523362247674829473e-02
4.432516442716766952e-02
1.610197704005890060e-02
-9.134159930588281462e-02
-8.614405296166199877e-02
5.050993013359495604e-02
1.262198294983820634e-01
5.343630100172289815e-02
-5.060259923855223857e-02
-8.540381262086550740e-02
-7.364058036856149791e-02
-5.413638136237582804e-02
-2.748563499335245769e-02
4.308582697806021336e-03
2.458995953050158167e-02
1.889481097728262435e-02
2.259174495817563300e-04
7.806172437180911375e-03
4.405014287876348605e-02
5.701529698509893995e-02
3.266959018071954185e-02
2.637665108474711653e-02
5.484745140329807395e-02
6.243046941452892046e-02
3.079960137895544625e-02
-8.142060353856658828e-03
-6.098355449828912755e-02
-1.289617638316506443e-01
-1.565374231986547959e-01
-1.384219209654147520e-01
-1.212125825453295724e-01
-9.020831870421129606e-02
-3.187212644347756779e-02
2.072210696484843781e-02
8.183910211428158110e-02
1.428934398781364634e-01
1.173374619340675218e-01
3.831250507035732084e-02
4.526133607721508079e-02
1.055776894597233728e-01
9.052621373824587536e-02
4.263969806570160753e-02
4.864369378343826739e-02
4.845803356544739482e-02
-3.060665296533163215e-02
-1.347369536680343705e-01
-1.608612436882669305e-01
-9.557109795852825052e-02
1.943270295474131687e-02
1.908064946744291446e-01
3.542370963368095538e-01
3.498779275704755332e-01
1.938396922060183769e-01
7.485785398289515613e-02
6.397516233083051784e-02
7.500781416117388578e-02
-1.927884780448093152e-02
-2.440448546068307023e-01
-4.056706971872222067e-01
-3.778727950115843282e-01
-3.291496803374234781e-01
-3.541581793638415299e-01
-3.149032955988874116e-01
-1.810637284543960557e-01
-8.004168381726581294e-02
-4.501722337627321602e-02
-3.703773169068509674e-03
7.389405762717571324e-02
1.757965994787792363e-01
2.718107034798158961e-01
2.903780083346433893e-01
2.198403625409503515e-01
1.516024376137731777e-01
1.351066912242195606e-01
1.291402150292899620e-01
9.803642386642776041e-02
6.291386716971993087e-02
4.528958782071985933e-02
8.347575987978236856e-03
-6.708597724318034194e-02
-1.258471839159406302e-01
-1.345873471609492222e-01
-1.176480651569973002e-01
-8.402119778663197369e-02
-3.048835606643256202e-02
2.036424405372324470e-02
5.745635055384817891e-02
7.836132008820399786e-02
6.009403902094655886e-02
2.742372652822804013e-02
3.380850381010289812e-02
4.856828058635292988e-02
2.087990806586180470e-02
-1.830731146247481511e-02
-3.289134800127905406e-02
-5.493883915719017380e-02
-9.765013494900663671e-02
-8.831143040386740806e-02
1.223466807000344117e-02
1.055569064865460732e-01
6.840338229636128142e-02
-4.937400080243335709e-02
-6.360470891383557257e-02
1.313829844036861622e-02
-2.517449066363432186e-02
-1.491621153788678655e-01
-1.600632423796221060e-01
-7.860346892128929064e-02
-2.642034358371074532e-02
-5.692451830902917065e-03
2.701892487582158511e-02
7.942900045299275402e-02
1.116386549131027917e-01
8.720152665388232471e-02
3.985632860149793816e-02
3.985762999720507405e-02
1.019935881640727515e-01
1.340586067126102454e-01
4.039033907070815194e-02
-1.127942757240803923e-01
-1.695884078111377646e-01
-9.151866207788356133e-02
2.546662363279601771e-02
7.339246335350846362e-02
3.243042126757546273e-02
-1.130684339288124188e-02
1.553971010536284517e-02
7.044548190843180624e-02
8.470101385421197060e-02
6.291833563446604105e-02
2.284428105716998156e-02
-4.161928777694039183e-02
-1.000382805843110651e-01
-9.976520314442813286e-02
-3.860999000909492995e-02
2.642779743599032657e-02
3.678902174856297363e-02
1.637670451389930740e-02
3.331629278059052707e-02
5.318670735381809261e-02
-3.369059342310385535e-03
-8.875018087891282936e-02
-1.116482891732334115e-01
-9.153324523548089786e-02
-7.413504732626367832e-02
-2.898526442477415699e-02
6.300726982623199024e-02
1.489292947400713829e-01
1.640345025640490284e-01
6.754256692294605124e-02
-1.087124024609836814e-01
-2.178897939725682742e-01
-1.321871701502644048e-01
7.404507625423216444e-02
1.802425868321310687e-01
8.559958925489954962e-02
-8.558213634995821828e-02
-1.815670221405104312e-01
-1.696178071547653210e-01
-9.255568567364741428e-02
-2.117086512411921542e-02
2.627130229075029175e-02
1.051736072681667550e-01
1.806655131596618113e-01
1.507354617394033869e-01
8.075792311439877746e-02
1.035483031928311898e-01
1.534837048543852278e-01
9.791519082709296273e-02
1.799643110322607029e-03
1.222150107308959954e-02
7.774471513760436436e-02
3.024262018151429102e-02
-1.108077518761255986e-01
-1.789139956539389231e-01
-1.377925457527422459e-01
-9.551656300075384021e-02
-1.023224318837289148e-01
-8.852185660198808037e-02
-1.698031085952689256e-02
3.290908330049760466e-02
6.619984000058681123e-03
-4.054880997734905401e-02
-4.463801794093816278e-02
8.740704800834348670e-03
9.794501542307956776e-02
1.616349677425301390e-01
1.439491274472497473e-01
5.145482437661468011e-02
-5.208807005317434707e-02
-8.223096516788283572e-02
-3.928074741032271111e-02
-3.705989574352305804e-02
-7.567705514472940209e-02
-2.601542125389405546e-02
4.221074242169911561e-02
-1.134123833119536108e-02
-5.250968490628062091e-02
2.549855926846023718e-02
5.391049663193769187e-02
-3.421718683784629594e-02
-7.449244110676642161e-02
-9.912383304974705517e-03
3.293055749598710474e-02
-4.411064900116367857e-03
-5.989643557682151898e-02
-1.102784271269200977e-01
-1.542987188668258347e-01
-1.346202353769571647e-01
-5.253956766858332295e-02
-3.444098721171549166e-03
-1.630954289415801478e-02
-1.550663441001102170e-02
3.878649077752745894e-02
1.206443772935527070e-01
2.373261071664040656e-01
3.576744471930076719e-01
3.595334281674559262e-01
2.566140691455551237e-01
1.960990443526357818e-01
1.868718887180760846e-01
1.580777199082148421e-01
1.282929558564431249e-01
9.796511726363862915e-02
-9.835876113837641044e-04
-1.542007200294358560e-01
-2.838883751600016492e-01
-3.996143152577936175e-01
-4.917533900255565138e-01
-4.542130628932924963e-01
-3.031991980425642330e-01
-1.751457366362868806e-01
-1.016790129755977268e-01
-4.475864935371380582e-02
6.837452801005255987e-03
6.503683377770599905e-02
1.121191336424012808e-01
1.162668985833894691e-01
1.011225990758093662e-01
9.938270532306107963e-02
1.063897148743982168e-01
1.015261143775888081e-01
7.943109912036286357e-02
6.995125284323690240e-02
7.451953094277448397e-02
5.981023505536275930e-02
6.580664906824527927e-02
1.255333585292024157e-01
1.309764453506355730e-01
1.337957177109704715e-02
-9.658117480111515218e-02
-9.493504928057899805e-02
-7.579554250674266913e-02
-1.086889762824785194e-01
-1.186352852307275829e-01
-9.049297675983439260e-02
-8.280974793914031018e-02
-6.145262531906333509e-02
8.330309072173492160e-03
5.777551285465658271e-02
6.487775407622545232e-02
8.090100729968290050e-02
7.895986555142169017e-02
3.198491614830230312e-02
4.172180226011577842e-02
1.323918511718913671e-01
1.407726878937328174e-01
2.234948717455453177e-02
-6.146670580715575538e-02
-5.009302426712564094e-02
-2.612638543820019338e-02
-1.359202959977988054e-02
3.442427847338598232e-03
-1.847752981657315580e-03
-4.438952776962059449e-02
-9.132601874901488670e-02
-9.815671709235446185e-02
-5.781455942522709113e-02
-2.499014497685092887e-02
-4.243248771244772372e-02
-4.502123999079023914e-02
3.146141223096909911e-02
9.995005295805751977e-02
7.637827850020736942e-02
3.365107399523770138e-02
3.361819422395866119e-02
3.941597129056438609e-02
4.568302514603331255e-02
6.266058687522960136e-02
4.451010216705923728e-02
-1.754113247668937642e-02
-6.998121962542627750e-02
-9.595946091425419655e-02
-1.042461131713429967e-01
-6.463199942392137964e-02
4.128988553109724097e-02
1.125170018771805835e-01
9.811498498388956935e-03
-1.439962484862441494e-01
-6.601384892446279795e-02
1.471996826718272311e-01
1.636754006227007507e-01
2.884955293554154060e-02
-4.220396163585887761e-02
-1.046813043344737432e-01
-2.136349624752687526e-01
-2.239889875959896193e-01
-1.015149700397425248e-01
-2.696974095880268554e-03
2.975319332095666819e-02
7.930278389892835011e-02
1.017505935674170164e-01
6.534066905060158248e-02
1.123995189406530593e-01
2.190788963210174300e-01
1.620574095959921579e-01
-2.806515261896127406e-02
-1.080302339823845104e-01
-2.050684958322728652e-02
9.836685940811754070e-02
1.294402896787446855e-01
6.185314522895860034e-02
-2.195965905148088843e-02
-3.975049171097641554e-02
-1.574758085934711838e-02
-5.908368759560045369e-02
-1.916415616692286050e-01
-2.782094547512699023e-01
-2.062125381927607803e-01
-3.782169798271609040e-02
8.309450835833648297e-02
1.070114997803659762e-01
9.809033495689647997e-02
1.038851066099648890e-01
1.027192398685593810e-01
7.761932027351058083e-02
3.774568373731303911e-02
2.916922815584275207e-03
9.463727770036360967e-03
3.461924618879199528e-02
-3.170991736988499048e-03
-7.993870594379574868e-02
-9.528098464291698266e-02
-4.574823712115157898e-02
2.526461481920087501e-02
9.511876164017166180e-02
9.190026900865562454e-02
-8.822071036617586473e-03
-7.020360898467406519e-02
-1.578192178410189536e-02
2.049965525560854679e-02
-4.182979734227357943e-02
-9.950258161375913346e-02
-9.637716409553573338e-02
-7.965853953144080846e-02
-4.943363915539326914e-02
6.768470701755753723e-03
3.435364804952442674e-02
2.899042511778207598e-03
-3.867831207065226817e-02
-3.546621266149153212e-02
1.880107863592876336e-02
7.166647952727475679e-02
5.532019265220436410e-02
-7.483485658819214251e-03
-1.694102392934054499e-02
4.411011488222479904e-02
8.846274323605624046e-02
7.804759884253777147e-02
6.478139701571683506e-02
6.756192516344132482e-02
3.666186587494082993e-02
-5.250928991293195292e-02
-1.735438600964071820e-01
-2.656810167391779887e-01
-2.617127209093224049e-01
-1.933002562970134175e-01
-1.288323566224091610e-01
-4.242802469575278346e-02
4.164781860761380961e-02
9.711013761182939186e-02
2.720155093180252615e-01
5.272280834109710490e-01
5.864025216942276852e-01
4.899672313304429538e-01
4.325765516254608811e-01
3.290576412786160310e-01
1.343480346060151875e-01
-2.137598077835853316e-03
-1.068908345894470369e-01
-3.137254057055333112e-01
-4.824776343194683847e-01
-4.346334485654588242e-01
-3.436824352598347732e-01
-3.673323432159038004e-01
-3.690741764251986856e-01
-3.241085299437487799e-01
-3.352190315845615110e-01
-3.108961580373236777e-01
-1.716908870238041951e-01
-3.942412421584499949e-02
1.462303409571140411e-02
6.700802526949271865e-02
1.501164476543918047e-01
2.058832821769510379e-01
2.255714249905521884e-01
2.591903784388226439e-01
2.992007353937633507e-01
2.872265320308725056e-01
2.227559540189883169e-01
1.799530986963334689e-01
2.059495454827014460e-01
2.396570880833206185e-01
1.745061927757478037e-01
5.528240701608823360e-03
-1.469188265391707660e-01
-1.893124431233407789e-01
-1.702683141981210513e-01
-1.757916128274969736e-01
-1.766157369961888213e-01
-1.357411695252714878e-01
-1.263851647810501633e-01
-1.159655042714945739e-01
2.273818296955631979e-02
1.495911760545385327e-01
6.451003129175757189e-02
-7.635686139732944522e-02
-6.234097076469838350e-02
5.446582559716660332e-02
1.398378666946826221e-01
1.338157997520434406e-01
7.331313411566872662e-02
2.912398974878800326e-02
-4.203939818076443680e-03
-4.131066816796211821e-02
-4.220968041380392805e-02
-2.157109686509278701e-02
-3.347139836625382531e-02
-5.131452626774446468e-02
-3.985414062070254115e-02
-3.756643427404911945e-02
-3.929071628615144612e-02
3.475501678400917671e-02
1.509773676709540158e-01
1.584245365805050654e-01
4.385689805838577371e-02
-8.723365771030659743e-02
-1.890166746431458655e-01
-1.926477799422987580e-01
-7.811228530212127596e-02
-6.447800158243587564e-03
-4.359342620801379131e-02
-6.943281726473947424e-02
-2.825078637158072101e-02
4.231082990948151212e-02
8.927237792612822964e-02
7.772175577562895343e-02
3.890607982551964883e-02
7.804104078256660776e-03
-1.728210345162800587e-02
-1.784035931899276284e-03
6.764629040756260647e-02
9.974573857322860393e-02
4.860239360122200342e-02
-2.187565954006907582e-03
4.080447497619012903e-03
4.126665284284012497e-02
6.461291586517008134e-02
4.193304611804542920e-02
-7.846068574574014548e-03
-5.302533819974306756e-02
-9.241521623077980641e-02
-9.175731222159408396e-02
-1.975329146235272476e-02
5.317494230479129919e-02
4.223125742046799497e-02
-2.134570149933023159e-02
-5.141919251275352959e-02
-1.340129479193605949e-02
7.046427281805740794e-02
1.219129906795796831e-01
6.988239607350961446e-02
-2.865386114631936557e-02
-7.245606887737626733e-02
-7.671497139387235820e-02
-8.806244364413345904e-02
-7.232141758349952543e-02
-1.640562979815256631e-02
1.487888160918932751e-02
-9.662979444931990916e-03
-4.640648376672875525e-02
-2.986097418274136564e-02
7.270558185894329672e-02
1.575772422847733223e-01
5.993683869389709873e-02
-1.261878633305497932e-01
-1.060829313025921927e-01
1.170587266843622354e-01
2.030171059053768601e-01
2.339014989124135746e-02
-1.725831816089238580e-01
-2.082754250233773419e-01
-1.674742231599974374e-01
-1.065673741027000077e-01
8.700974139994892623e-03
1.235076032439846316e-01
1.575288571994257758e-01
1.332298544342546687e-01
1.014610583165460461e-01
6.840994573355088648e-02
3.347414820001509694e-02
2.017192116610142666e-02
3.084461644516135401e-02
1.461281657262433753e-02
-4.379195852829544794e-02
-6.155643023254383367e-02
1.035973453253793281e-02
7.215900304183894831e-02
2.643524092912085538e-02
-5.766939502660248934e-02
-8.118575470607161670e-02
-6.996193678346235290e-02
-7.967647358490083376e-02
-9.405898461775574759e-02
-6.022405843850716506e-02
1.816923840853819014e-02
5.632803952221604460e-02
3.421516202139628093e-02
4.195326222602948490e-02
8.250257194399576721e-02
6.174618951101986525e-02
6.277479347314610103e-03
7.311505947098810229e-03
1.715782740650198882e-02
-2.211713921011429149e-02
-5.114206419344910493e-02
-6.771823835904915156e-02
-9.220682143717073842e-02
-4.165278061572579710e-02
2.984399338303155014e-02
-2.982794273233650012e-02
-9.920579203192744777e-02
-5.562940676561232978e-03
9.884922681729357841e-02
2.841085385378870273e-02
-9.529683308089029192e-02
-6.855894219771761777e-02
7.134192915023601644e-02
1.497722601976394230e-01
1.125609198962258944e-01
1.275686038116715694e-02
-9.177186915613083640e-02
-1.453102148441906549e-01
-1.385118180542367905e-01
-1.048437569361171245e-01
-5.296773439640066472e-02
-1.391478441296103638e-02
-2.614181403418177480e-02
-2.418904696477975486e-02
6.553083568474299403e-02
1.951564035446145817e-01
2.802957591493473455e-01
3.060121537967436245e-01
3.223741528584820881e-01
3.336473715501030446e-01
2.676216248552733545e-01
1.768458556895618483e-01
1.900918983828660536e-01
1.614455104552676157e-01
-1.084668271206203627e-01
-3.935907410514506433e-01
-4.320521278616126781e-01
-4.033737171890788842e-01
-4.673242216969872853e-01
-4.468804199148036504e-01
-2.775821681796764029e-01
-1.565657394625866450e-01
-1.576779413392177531e-01
-1.504015774591822008e-01
-7.093777823422736661e-02
2.867321518150703352e-02
1.254859031534653058e-01
2.170653256447824531e-01
2.609632771063174483e-01
2.350089325723448141e-01
1.758094133534823800e-01
1.341622400820544070e-01
1.281037059856505733e-01
1.231022071348347041e-01
9.369372527932755268e-02
7.847869512650737511e-02
9.542049299986585242e-02
8.705667996010409138e-02
7.377467501609474843e-03
-1.022766519581262135e-01
-1.394437598975398762e-01
-7.057195999812354570e-02
-1.143346184447901343e-02
-4.685714601827694475e-02
-8.763680268411178087e-02
-7.579323491872674845e-02
-7.600580701493213354e-02
-7.729089536409931849e-02
-2.052231335316928584e-02
4.376004214697063605e-02
5.616959329125789657e-02
4.823430951916654608e-02
6.017866115056308418e-02
9.734833509665899443e-02
1.393000205439136052e-01
1.233392146116185500e-01
6.920497184903900631e-03
-1.316854612074573050e-01
-1.670429618668626826e-01
-9.133578084747472070e-02
1.920268227280839263e-03
4.053756621001736171e-02
1.171356675244263068e-02
-3.342329797625120252e-02
-3.332596871870026345e-02
-2.104855844777218932e-02
-5.143243954622242486e-02
-7.255682497526978747e-02
-3.937835623777723171e-02
-7.222331109483874460e-03
1.366792371393012184e-02
6.018462728419467223e-02
7.858874387385106353e-02
6.839170828664706270e-02
1.208858460020687114e-01
1.411003465958960423e-01
1.777453535683794217e-02
-8.377633162935191335e-02
-5.820403691638421917e-02
-1.886261599007305403e-02
-2.550804143670945198e-02
-7.675687774030198751e-02
-1.102679639297390879e-01
-1.057907170113661297e-02
1.173090149442294061e-01
9.340429794871042690e-02
6.701677521191676257e-03
-2.830723508168305619e-02
-4.793769640316225544e-02
-3.672749761276381669e-02
2.124307057506671231e-02
3.950894268749939597e-02
-1.706837422093784168e-02
-8.364452890692256060e-02
-1.105390180423453106e-01
-9.014896193523093404e-02
-3.062823752795209090e-02
3.336297976143061395e-02
6.897079260027799696e-02
7.463912206805238536e-02
5.619862300337115368e-02
4.044021688017733485e-02
6.558268507296520500e-02
1.012686948300315776e-01
7.667848037817176499e-02
-1.810588052566639537e-03
-5.579126095247601003e-02
-5.445493607174255873e-02
-4.466532957402396392e-02
-4.335389909681148374e-02
-1.696212928501723491e-02
1.675128467476242819e-02
2.200076382063161778e-02
3.634453273976948062e-02
7.126992709056376163e-02
4.388747209252383263e-02
-7.096181780440070919e-02
-1.769525397447802295e-01
-1.914240388900632084e-01
-1.189131651415964719e-01
-3.163205960655944646e-03
1.168120558709763446e-01
1.850193633326648324e-01
1.336755753835132954e-01
6.181587382558216548e-04
-6.495895565879870881e-02
-8.427285066408291697e-03
5.438363349389037371e-02
3.146480267048881729e-02
-1.111460878881746772e-02
1.249958594447247301e-03
1.367030505047616383e-02
-2.347019107873918667e-02
-3.790354575229973322e-02
3.840747941017891298e-02
9.864869390649280700e-02
-3.283768523317670551e-02
-2.337580121933628963e-01
-1.885811515372483316e-01
1.873330509800256310e-02
4.596580501973029920e-02
-6.045302273416501559e-02
-4.348861747410336098e-02
6.121632909922903459e-02
8.874900295235518821e-02
5.744947766148295054e-02
5.453408113293321813e-02
6.546608755658220313e-02
5.653267787299785796e-02
3.603744750794298651e-02
8.819416657312003499e-03
2.274654829254621133e-02
1.107233737860410933e-01
1.362464196381808490e-01
-1.107502303078459344e-02
-1.717383552264941937e-01
-1.588819386702275960e-01
-2.945461384868136578e-02
6.341120255471582867e-02
6.025112544609130538e-02
-1.386211210208991747e-02
-7.360738409599755505e-02
-3.938640156943225973e-02
3.618267760740895289e-02
3.925252102335377580e-02
-1.946157271534453004e-02
-6.386464532134973615e-02
-9.251948926846195742e-02
-9.079356454211955085e-02
-7.154925953762854632e-03
9.045830851042460652e-02
9.674818804009462092e-02
5.315513303992470961e-02
3.981261336947814616e-02
4.384417067972753296e-02
2.584256990053634961e-02
-3.052676852887504805e-03
-5.395384573716085520e-03
-8.580813876006003482e-03
-7.117551450390308121e-02
-1.431084250098849653e-01
-1.410276300972689023e-01
-8.597302758949063040e-02
-1.611022340850824450e-02
5.424541474166008626e-02
5.170993134148725578e-02
-5.752183145750054682e-02
-1.431138527805245753e-01
-9.944843017063012547e-02
-1.955640195406896376e-02
-8.994110663767401759e-04
-1.482364036017103613e-02
-3.957031752364054827e-02
-5.383691847048513446e-02
1.146008312683965101e-02
1.349998192213332504e-01
2.190400604382688188e-01
2.863092139191121821e-01
4.028747448893275074e-01
4.632738241066358120e-01
3.631038476527790326e-01
2.307334720377241521e-01
1.954060088263481210e-01
1.689462224452774330e-01
4.179965211891618904e-02
-1.481049171464245973e-01
-3.120980175749471508e-01
-4.214572297452275906e-01
-4.890473566989327336e-01
-4.958628524241006641e-01
-4.137526398537271222e-01
-3.030685116320867567e-01
-2.518419266124201084e-01
-2.473241859713816160e-01
-2.372000197286612821e-01
-1.997550169766826866e-01
-1.113180080680199191e-01
2.857269412324242586e-02
1.916071969623079352e-01
3.467213248435209727e-01
4.309289824697322691e-01
4.105682669469026269e-01
3.550230647205415702e-01
3.226443755464440399e-01
2.799674001816053193e-01
2.044299096043652730e-01
1.285362861343114782e-01
5.947170933486171235e-02
-2.969122959971971093e-02
-1.356481219793937432e-01
-2.214154850293109655e-01
-2.416919827973267321e-01
-1.637684960389036992e-01
-3.570275881696012565e-02
1.249262997806984549e-02
-6.472272977488262302e-02
-1.433295288087215735e-01
-1.203426158895061077e-01
-6.803759198115390261e-02
-8.290158546233078463e-02
-1.230823235124779841e-01
-9.850750667689332774e-02
-1.155336305532756770e-02
6.227872479069579414e-02
8.563956635161325270e-02
9.498987231226443950e-02
1.168213938054960266e-01
1.168095589424260616e-01
8.131535668696707186e-02
6.799680077297537428e-02
1.049937688849489070e-01
1.303620432560795850e-01
8.492118393800487941e-02
-2.366402134915829986e-02
-1.318457709493320307e-01
-1.551059205879626868e-01
-9.980637564935702921e-02
-6.377997029495641179e-02
-5.452158731831450306e-02
-7.179368192539538340e-03
4.281183139069210525e-02
3.289367757833550066e-02
2.191577476142811051e-03
5.002264449409781280e-03
2.463114711774709240e-02
1.991721343715725095e-02
-1.701358355158883243e-03
3.443753632389648378e-03
2.098116962353964790e-02
4.229336006293803359e-03
-1.461948370029288874e-02
1.143951755724316108e-02
4.499252770462413425e-02
3.784590832616972766e-02
8.531500409384414410e-04
-3.607928819361470169e-02
-5.323105185187445437e-02
-6.403224139197793985e-02
-1.178214294440986937e-01
-1.544836388416168105e-01
-2.839766320323366955e-02
1.563168392120392047e-01
1.621123133256913151e-01
8.500517289701839396e-02
1.170014554900020293e-01
1.271891924521306727e-01
1.535072751917386687e-02
-6.001371008500477194e-02
-7.414959401630660807e-02
-1.322723017044613592e-01
-1.566366462197215093e-01
-6.820277008350003611e-02
1.892545783890680830e-02
3.403879173862796315e-02
5.075577193382017904e-02
7.984094733215670037e-02
4.855859313472188354e-02
-3.067065266305517984e-02
-8.682322112252752189e-02
-9.466044776510783298e-02
-5.195239323624836064e-02
1.459422107028570531e-02
3.530780926995110564e-02
3.939760926171398739e-03
1.193947086931687260e-02
8.921545728584451274e-02
1.125297218515006747e-01
-1.080858144144796265e-02
-1.301833120653099196e-01
-5.163759813559709588e-02
9.935245647518706202e-02
9.238494529975978253e-02
6.101921134176385014e-03
5.480584879518831179e-03
2.290268685779817820e-02
-3.036411879095684413e-02
-7.801105835226512797e-02
-5.288056704916488382e-02
-4.557102154689750967e-03
1.725896186637495763e-02
2.069335486094703996e-02
3.838758874191700639e-03
-4.922183126581190088e-02
-9.263923598390438885e-02
-2.122317506334756021e-02
1.748327072971501417e-01
3.005526536044720309e-01
1.952915922723488240e-01
-1.003818904710721341e-02
-1.352142923462685276e-01
-1.506469542689610475e-01
-3.188221372726181280e-02
8.702824120181289203e-02
-5.800172245571996732e-02
-3.001805146344187492e-01
-2.457439191683769009e-01
1.861228565603932281e-02
1.428423871272160306e-01
5.813282740654680814e-02
-3.476496384846908261e-02
1.199808245727088107e-02
5.889428213210350788e-02
-3.944610388830026987e-02
-1.076449739811224243e-01
-1.365250281466034998e-02
8.015502702258232859e-02
7.290417235564565501e-02
5.018833986522594492e-02
7.740619838391396557e-02
1.381618560091266434e-01
1.555927332362007365e-01
6.265999761293522541e-02
-7.879684140287099292e-02
-1.335073141042124878e-01
-7.161484439103135702e-02
-3.611029528771788483e-03
-1.865491299622276319e-02
-5.877307510690841369e-02
-3.819319134489546769e-02
1.008328696379062750e-02
1.120429931367212563e-02
-3.073203135420625801e-02
-6.246734940853514856e-02
-7.277061178598057123e-02
-7.893061004455739771e-02
-6.131984062386057477e-02
-1.772517230131871388e-02
4.982303416007893490e-03
7.928200062693827391e-03
2.264838004947682462e-02
3.860983418215879065e-02
6.344401936877253068e-02
1.122178458509179716e-01
1.319190928732542900e-01
8.330517589470164130e-02
2.559843924820318778e-02
4.005033592585777180e-03
-5.163085064391159662e-02
-1.548909938655078922e-01
-1.461390060573232452e-01
2.519697029606349226e-02
1.790741898812419630e-01
2.108693327262581851e-01
1.748477885823433164e-01
1.225950428178835400e-01
9.084731460826707405e-02
8.414374205343040647e-02
5.549340543960033095e-02
-8.524717080323769569e-03
-7.695653105419307527e-02
-1.261569052858040052e-01
-1.596102058903473009e-01
-1.995119131761582676e-01
-2.275267693373941025e-01
-1.910027623370801619e-01
-1.235797467270176309e-01
-9.538196479266733419e-02
-4.444592459390105804e-02
4.312782832313263870e-02
4.831894840495884469e-03
-1.110593013702547704e-01
-6.980465583568200294e-02
5.783836899528774916e-02
9.377299419875960440e-02
1.094377605197908443e-01
1.470420226416493392e-01
1.191123537433598500e-01
6.030976947581094538e-02
4.597325970569823839e-02
2.739186288814119546e-02
-1.657478115088888843e-02
-2.802231452719704252e-02
-3.944930512366487396e-02
-9.775635839383636783e-02
-7.871427556918854374e-02
8.965148975956488409e-02
1.972160381387706718e-01
1.028248985056528231e-01
-1.716438491248424916e-02
-2.381301644847144336e-02
2.185086323373529316e-02
5.042955084833534302e-02
1.823124153443458906e-02
-2.619181277359818732e-02
5.260411191975122164e-02
1.611142577035539480e-01
7.349554633607910392e-02
-1.004117615167635369e-01
-9.440059638965513089e-02
1.928844127951864079e-02
-2.251616526162483756e-02
-1.988283288076306832e-01
-2.091177352496249864e-01
3.482470385075438213e-02
1.860810501833062847e-01
-2.248793654165762157e-03
-2.203012305927105619e-01
-1.501792417396247692e-01
-6.623941088410204014e-03
-4.357276689183765123e-02
-9.644467828928991737e-02
1.420744868826846752e-02
1.282565362119444941e-01
9.658029217884306350e-02
4.463193878066211429e-02
6.209462591213959354e-02
8.292741376523722618e-02
9.773101122659999529e-02
1.148619522783893565e-01
6.085388551132649843e-02
-7.439842043635006008e-02
-1.589551061552351152e-01
-1.015541465158314727e-01
5.280497286073364965e-03
2.973070845774691481e-02
-1.516177043832022189e-02
-3.007759037739812791e-02
1.322504490708081501e-02
3.695598366700574705e-02
-1.565043126035280119e-02
-3.795832005781872576e-02
6.578094001100479038e-02
1.307665213007076777e-01
2.247046106443173485e-02
-8.059615426346899980e-02
-4.003467894349310718e-02
2.780960758392584872e-02
3.200656641444709488e-02
2.875730612462041452e-02
5.525431389615038935e-02
4.562009292214360551e-02
-3.414002745349477286e-02
-8.057729134681711203e-02
-2.545373513287968806e-02
2.497058848818593108e-02
-1.454805497338492945e-02
-6.758641689692745924e-02
-5.528201281221477303e-02
3.539529004549824519e-03
5.561120333521751835e-02
4.184571569418028825e-02
-4.996456672629994572e-02
-1.210248378065271468e-01
-7.753411543990805510e-02
2.550174599542485987e-02
7.376840145164549611e-02
4.681872960709192177e-02
9.652206061268944759e-04
-1.616776638968471166e-02
-4.774107624774157413e-03
-5.545200191629452886e-03
-2.096987964057427448e-02
5.683498874716488847e-03
5.554307410162984127e-02
3.026987414525268705e-02
-4.662486139996931123e-02
-4.494461147981418381e-02
3.296665760682469803e-02
6.151071075346053324e-02
2.316447476390749716e-02
1.356441166372878045e-02
4.775906161193491095e-02
5.479920711001486783e-02
2.358100073314227732e-02
-8.951675186432764275e-03
-5.771693337243909150e-02
-1.217460872544778444e-01
-9.483273469136151157e-02
3.999365031687182603e-02
7.173643845085916904e-02
-8.098597482450428653e-02
-1.726014084627539025e-01
-6.442521868400863383e-02
8.198938225634014310e-02
1.508331507592872156e-01
1.872966709472466129e-01
1.937048552353178854e-01
1.137491025518515414e-01
-2.345633237195459200e-02
-1.286022513961397606e-01
-1.629015050964840450e-01
-1.256477312512086220e-01
-3.161144576076308638e-02
4.788039962892313289e-02
3.500370403657038915e-02
-3.688692177744630485e-02
-7.240854606002523897e-02
-4.631716357931732475e-02
2.104013905700325912e-02
8.939226034696344525e-02
7.868353103464076348e-02
-1.306830121730436639e-03
-2.476926730640685928e-02
2.993450231668509307e-02
3.270174719210777042e-02
-7.894373909321701632e-02
-1.630151972899121504e-01
-7.212371993879931886e-02
5.839040441602433990e-02
4.163111067332374987e-02
-3.067054668436784703e-03
4.668876843699840823e-02
6.419562445794066430e-02
6.600871525803610196e-03
-2.398298882665609970e-03
6.161990681925065549e-02
1.161183388201946082e-01
9.937319510861779281e-02
1.587252953393705063e-02
-5.522955254742032555e-02
-5.648110200639397394e-02
-3.054921622602722181e-02
-3.442548441939212445e-02
-6.235799700872735746e-02
-7.809240644143933263e-02
-5.960189384913737454e-02
-2.046636813590529957e-02
-4.629228055392232456e-03
-2.431087612089469219e-02
-2.492381184298350996e-02
3.417776353802273737e-02
1.028181213420542028e-01
9.776267570562881259e-02
2.216490800249067486e-02
-3.794879241640362888e-02
-4.245294600309588995e-02
-2.423792316976614014e-02
-7.677254440721464207e-03
-4.527645475941744629e-03
-2.508432560351407659e-02
-3.102795532045222321e-02
1.197084744913297014e-02
2.965132404222412324e-02
-5.710675951153548757e-02
-1.674595824724803006e-01
-1.788703591824353789e-01
-1.036645036767073758e-01
2.260979419340830229e-02
1.956629814865309402e-01
2.846543580101444371e-01
1.923375957292523808e-01
8.933849756988129776e-02
1.240832250214909810e-01
1.910894533182427302e-01
1.762000678086777516e-01
1.108064066946422288e-01
5.801866160798976185e-02
-2.663483863954194120e-03
-1.382029193252353461e-01
-2.639864838037322414e-01
-2.151208639552501523e-01
-1.011205029717155979e-01
-1.363119806470886597e-01
-2.127454992739084838e-01
-1.492271051934211668e-01
-3.936327379112977004e-02
-1.174493810298461033e-02
-3.060131560652974703e-02
-4.714376575344067510e-02
-6.469931354300659243e-02
-6.977544056144392715e-02
-3.730812160993524085e-02
3.321115938621911623e-02
1.052189717970660882e-01
1.288965551141597055e-01
9.456021429932440214e-02
3.912096276333094924e-02
4.033133103086074256e-02
1.336431660252432874e-01
1.911912203653419184e-01
1.157550003275304717e-01
2.617511292227941988e-02
1.134190786196052902e-02
2.083785294800141394e-02
3.480922994157277517e-02
3.620793984673387200e-02
-1.601100033202873182e-02
-7.123611323596146239e-02
-6.439558566902034431e-02
-3.797860163950735057e-02
-3.845353663303072156e-02
-4.444628166533214075e-02
-5.088639016915914165e-02
-7.475582297322869163e-02
-7.688571943086966454e-02
-3.965728639989073850e-03
9.620233240243716843e-02
1.326186984485576703e-01
9.663939218524680852e-02
-6.721628590594559693e-03
-1.481643283562008861e-01
-1.721380920410666426e-01
-5.533894932225066898e-02
-4.042281579653707844e-03
-5.013375309493608295e-02
-5.360769241677767333e-02
-2.471625969824386634e-02
-1.227319633115295933e-02
1.722689011224298045e-02
5.082785679044346527e-02
5.555837947313880393e-02
5.280758546413411025e-02
5.017477465489378341e-02
4.698238453475837850e-02
8.696559263197448097e-02
1.218490502709648760e-01
6.374917415753424653e-03
-1.520729564933656908e-01
-7.691647969804366047e-02
1.253877253637907807e-01
1.348063836653641823e-01
-1.302976958005451144e-02
-9.491928665471315030e-02
-8.296535797628268316e-02
-5.942445858730104058e-02
-3.362115178362876100e-02
2.223543812134672060e-02
5.813664143345698143e-02
1.649732229894277161e-02
-3.277594426708024117e-02
-1.069748051662111274e-02
3.753234348322595504e-02
6.549889842675275797e-02
7.551482695590561178e-02
3.296890025564189197e-02
-4.335533190640608603e-02
-7.306836867877250508e-02
-8.531211874555341690e-02
-1.045002048543454964e-01
-6.350401724527532377e-02
-2.567713745847766821e-02
-4.569106588040133810e-02
1.911835489628282633e-02
1.363730847106532085e-01
1.176199677320251824e-01
6.708615007178049539e-02
1.161864686865907853e-01
9.909331751733209404e-02
-4.326968784455029193e-02
-1.089862266623575493e-01
-4.361788972165768496e-02
-1.150031662594862281e-02
-5.453331652405456892e-02
-6.205694511124537627e-02
-2.610025804430740615e-02
-1.702723646023012946e-02
-3.730983084492493079e-02
-7.210645500549735243e-02
-8.604528168595988735e-02
-9.140278848359812899e-03
9.095468313588503384e-02
6.411513814373581699e-02
-2.458992795234812151e-02
-8.863183981439417755e-03
5.822783884892251266e-02
4.070829110009151208e-02
-2.100877743865132985e-02
-2.040696799301825598e-02
4.111592808067807137e-02
1.103438042567803368e-01
1.511008322168394258e-01
1.207049461324532363e-01
2.445546692223750027e-02
-6.035321394393687588e-02
-1.034122154240550706e-01
-1.413034258116587505e-01
-1.822716772502646632e-01
-1.798078548115001896e-01
-8.863172472586819395e-02
3.825377070292747955e-02
7.606132053510114566e-02
2.852939035383385974e-02
4.480989754091141419e-02
1.400856115903334753e-01
1.540266762188101379e-01
6.948001165559113124e-02
1.340764120422295938e-02
-2.007021547060484912e-02
-7.183834348205851705e-02
-6.891645999525934652e-02
-6.410735659776629902e-03
3.144816652961491404e-02
4.323613320224466150e-02
6.679917081248110122e-02
8.089539281469505794e-02
5.031645764751298266e-02
-2.298127961501440775e-02
-9.683831084120841926e-02
-1.108597608719215782e-01
-4.663000533311423279e-02
3.189064900372166889e-02
4.484837802648863891e-02
-1.200399997384639893e-02
-8.306665464745888183e-02
-1.126152830443887948e-01
-7.450838150399451132e-02
9.921728417558008453e-03
9.078667941872475833e-02
1.159509344529670166e-01
4.365589640277890704e-02
-7.929608960861705969e-02
-1.062607987955414834e-01
8.656107302060053743e-03
1.133133920071853623e-01
7.785521108794604683e-02
-2.947566035345556418e-02
-7.642622071781537962e-02
-4.329669815526701604e-02
1.455840901285603874e-02
3.946457584836229188e-02
-1.773322984193407767e-02
-8.641892941341589029e-02
-3.246047697129050835e-02
5.189260827818293481e-02
-2.931384121280048924e-03
-9.941332777119377129e-02
-9.155990449879491955e-02
-2.682645601697867394e-02
2.234296344298279668e-02
5.282571857939367954e-02
7.504267947759299395e-02
9.102565070266105396e-02
9.443824341439253922e-02
8.336927962652088131e-02
4.762111444246738823e-02
-1.977624805738630032e-02
-7.197416661131861293e-02
-5.613092895668650439e-02
-9.395088577996670715e-03
-1.743138342929284601e-02
-6.502972235177585658e-02
-4.390380964607536879e-02
5.761897750974549759e-02
1.554080644023802249e-01
2.146066978667157121e-01
2.194411253823111418e-01
1.613414847764399196e-01
1.086118686506399172e-01
1.162577615786629659e-01
1.255135693307109224e-01
5.546195794579888289e-02
-8.071155570349833330e-02
-2.057363799336944243e-01
-2.708421083715519817e-01
-2.944154144441714638e-01
-3.248464946413027743e-01
-3.454156835126530600e-01
-2.804281403651644466e-01
-1.733079518872729374e-01
-1.701322320011695310e-01
-1.928704463343098585e-01
-1.553839980546904004e-02
2.307433912915221597e-01
2.486111084707774421e-01
1.537554790284490491e-01
1.784020351186416942e-01
2.168963107358936881e-01
1.564348940402429389e-01
1.174507239628769240e-01
1.601182754871988967e-01
1.792304437114990434e-01
1.191680721162865775e-01
4.356334435628890500e-02
3.095356648388419840e-03
-3.008723478719174671e-02
-8.828200117317834550e-02
-1.439184962361775288e-01
-1.466818836132861847e-01
-9.160162359841264590e-02
-1.823973886110255571e-02
3.195832536657090828e-02
3.471568533003341339e-02
1.786454607506881426e-03
-2.103564255247487511e-02
-9.827237316604987838e-03
7.381571187350310578e-03
-4.915129217801020127e-03
-3.657943659216679466e-02
-4.782330511384585980e-02
-2.632906939553840420e-02
8.923527245128168306e-04
9.735228150247901210e-03
2.606368405536204497e-02
8.811346345447310102e-02
1.310286830014959769e-01
4.122254411537181612e-02
-1.213921110748518439e-01
-1.637042279602443084e-01
-5.677935936989162574e-02
1.466740816353137404e-02
-6.414111253506375732e-02
-1.359974462782680971e-01
-1.920361763089328822e-02
1.345649830375219569e-01
1.017490513446129008e-01
-3.177731139024777413e-03
7.443958062648362711e-04
5.135526837288623137e-02
4.910552508304556057e-02
1.407428737410768016e-02
6.767825411193185287e-05
3.054908731827325752e-02
6.072097333851150108e-02
1.510710281709295479e-02
-7.178612047847143796e-02
-8.333264105780996411e-02
-9.935855617692290059e-03
4.012365650185865246e-02
5.254656941250998928e-03
-4.632180081723666354e-02
-2.629059832613424991e-02
1.107418102352978988e-02
-3.564460507500145925e-02
-6.701466739911129955e-02
4.578315558631003424e-02
1.298042854708900684e-01
3.325258892362592533e-02
-3.776451510731772265e-02
3.971892801227676351e-02
8.301738893590294988e-02
2.168660249540545204e-02
-2.668279478228025026e-02
-2.940610219847002854e-02
-2.892115877602469826e-02
-2.331747467875038352e-02
1.700764553351392927e-03
3.087494313586254535e-02
2.757534934187904838e-02
-2.309454101133465512e-02
-6.464495237394794758e-02
-4.321281167132470791e-02
6.544095380145611811e-04
2.649145227165650845e-02
3.929254971130273499e-02
-2.193828029358995367e-03
-6.562458990870957687e-02
-1.450804766220938763e-02
6.109015183031907964e-02
-2.996277736189601956e-02
-1.427258857135083603e-01
-9.156504896444953023e-02
-6.707277923814793097e-04
2.382161897575887921e-02
2.538603255437828221e-02
-1.131852754673421009e-02
-7.611126913728122334e-02
-5.921390082236444030e-02
4.392967461860444733e-02
1.028405862771988172e-01
7.601012904488098354e-02
6.443135983738634831e-02
1.131359009007099764e-01
1.277047669259691598e-01
5.385851740980990981e-02
-8.073799662133984353e-03
2.767519025992547926e-02
7.997113186635301796e-02
3.979545374579879918e-02
-6.848460356381606828e-02
-1.460247388775416655e-01
-1.308184669563936253e-01
-5.440644295931175434e-02
-1.693763012076076810e-02
-6.309846662449783428e-02
-1.376822898635951253e-01
-1.620226587475232516e-01
-1.013108388645630326e-01
-5.792307236093501531e-03
5.718080962284988189e-02
1.147872829541343453e-01
1.968741682344778976e-01
2.366820307961958469e-01
1.764846543077926433e-01
5.220820977855430978e-02
-2.613272022802946154e-02
-1.067266791446113902e-02
-2.470599931312984429e-02
-9.852944967830530587e-02
-8.027241296688342187e-02
-1.435206488711332148e-02
-1.229607349244926130e-02
3.335111757824447964e-02
9.308326142404663162e-02
1.483217066178060470e-02
-1.002208529334066706e-01
-1.106166874504067449e-01
-3.870529234752061176e-02
4.271207532232505072e-02
4.273906519120895808e-02
-4.452899425867606897e-02
-1.064514537489349433e-01
-9.770201408162483558e-02
-6.371251010932138525e-02
-1.955365052600310100e-02
2.787492954664383751e-02
3.400708869154825398e-02
1.359025285501972574e-03
1.727995750940067993e-02
1.117387979354370342e-01
1.770023573696592745e-01
1.188007734108995073e-01
-2.172745766186432587e-02
-1.361924530475187856e-01
-1.433808912934641522e-01
-4.579792231466806030e-02
5.662210109536978259e-02
7.345421388582046296e-02
1.741255815451184588e-02
-6.302307621608874144e-02
-1.342277589943432492e-01
-1.483163579153312095e-01
-8.615188244614783997e-02
-5.127892564181524629e-03
4.606125144190698420e-03
-6.840350449534429722e-02
-6.468201558431388443e-02
1.394616499210443172e-01
3.284341020464353611e-01
2.619600886991007016e-01
1.213326368314732728e-01
1.069006017550554466e-01
6.539742162579387230e-02
-5.299124960440718124e-02
-4.488884175328411441e-02
9.386102432222616365e-02
1.650742636560209864e-01
1.410757490750650101e-01
1.388765308092909656e-01
1.160190008958944391e-01
-3.091258486313121570e-02
-1.358022765370681395e-01
-4.205449122339166568e-02
