1.358126188235087885e-02
6.916257770145685380e-04
5.477566023181371091e-02
1.460913941119153514e-01
1.736820841479127797e-01
1.130575347113572798e-01
3.154357582590688880e-02
-4.751625420130255184e-02
-1.292394188465815497e-01
-1.832259714225659697e-01
-2.055711755782603511e-01
-1.980954987684031277e-01
-1.397841494085601544e-01
-7.327384388238301904e-02
-5.100565530000569087e-02
-2.414713627124902978e-02
5.034051948193103698e-02
1.123153739186383421e-01
1.182456281272314808e-01
1.140837715601969171e-01
1.227324406578022137e-01
1.023242977072383875e-01
6.041904272359385764e-02
5.677949685268401936e-02
7.181539174092521627e-02
4.126737270797645185e-02
-1.178234845575793811e-02
-3.437613128493118703e-02
-3.250238929211861361e-02
-2.244781895200491026e-02
-2.110803543455993733e-02
-6.008632542870120247e-02
-1.110113342112549750e-01
-1.065659071728235208e-01
-6.411367165205733576e-02
-3.969199927549301593e-02
-2.236171226833736508e-02
1.602747626734509628e-03
1.081835307918034214e-02
2.280986147893216895e-02
5.868293169294433453e-02
6.458711897205375585e-02
7.261852130560204205e-03
-4.522728814362547006e-02
-5.238079236704004660e-02
-5.413884571178115279e-02
-5.568419675231809501e-02
-4.259431296828247726e-02
-4.199682208936307559e-02
-5.591314357946646635e-02
-5.546892063109273158e-02
-2.954691796254338074e-02
4.588989842191835977e-02
1.832003668650647454e-01
2.845595163843899766e-01
2.330022134775042164e-01
1.004505636355763343e-01
2.767384782436427271e-02
-2.130394388820395363e-02
-1.076346644354169435e-01
-1.537081315279582028e-01
-1.315477264826183934e-01
-1.229050315715050079e-01
-1.308629997472093021e-01
-7.643383119084121158e-02
2.381104005458789877e-03
-1.037545477837527839e-02
-1.785657015970923411e-02
1.343429167707148875e-01
2.548468459052550261e-01
1.522146589480248280e-01
2.698020182541892298e-02
2.480032533466157429e-02
1.790967437599961729e-02
-2.909076748271534341e-02
-2.775356590941827767e-02
1.453954410156421857e-02
3.098084186173688526e-02
1.378861855325259726e-02
-1.312080648534997424e-02
-4.339251934042000214e-02
-7.459907175871291485e-02
-1.141443172046828769e-01
-1.679341007873481340e-01
-2.010067485249939223e-01
-1.739659122674644953e-01
-1.023643181275297048e-01
-3.655958882099300672e-02
1.455819362247344484e-02
9.673506963263767133e-02
2.009396045090197924e-01
2.376597610153147466e-01
1.892942909184327505e-01
1.332451498840752091e-01
9.444473629141339477e-02
5.181976926682695800e-02
2.005553546553364569e-02
-5.781838223459814102e-03
-4.464275825210312076e-02
-6.345981618480311948e-02
-6.445396518778732931e-02
-9.643760209434656949e-02
-1.049344355052180544e-01
2.112391258962361892e-03
1.500532456186035035e-01
1.792492379690922566e-01
7.250051874241458805e-02
-6.381155613271291549e-02
-1.518789238388197071e-01
-1.989728869295257219e-01
-2.585787746930774400e-01
-2.785500476562951522e-01
-1.485738507006823805e-01
1.209814837620065697e-02
3.920360749483828289e-02
4.201484864926457313e-02
1.156432301675743568e-01
1.766573440072323198e-01
1.876351157517938406e-01
1.633007311201833123e-01
1.281252517851760309e-01
1.100305887113099679e-01
6.041358135711991789e-02
-4.361281388063069364e-02
-1.249076076265837887e-01
-1.352339520771626558e-01
-9.166337191198384304e-02
-4.326590813807771468e-02
-3.653741130484054744e-02
-4.666569301996802144e-02
-3.183432778955668646e-02
-1.833901972802453109e-02
-3.766431739983492483e-02
-7.251464200990327680e-02
-9.943043295065019660e-02
-1.143578444316279696e-01
-1.127029381463211799e-01
-7.671378278170586096e-02
4.759386505372878960e-03
1.207767331531972438e-01
2.423839740506092688e-01
3.185495726543072226e-01
3.228274062513410425e-01
3.146406083918981134e-01
3.281003921361838604e-01
2.813405772075296962e-01
1.761164184131726318e-01
1.342993760395767011e-01
1.024690461873826036e-01
-5.693488450180848870e-02
-2.419624069328850102e-01
-3.147437696283132968e-01
-3.198948694964145467e-01
-2.736421170497310706e-01
-1.597834591826895467e-01
-8.869007972256684469e-02
-1.398609566215704147e-01
-2.364082923225180599e-01
-2.886988230807210898e-01
-2.883925779628614405e-01
-2.626041261462088161e-01
-2.278398456264745520e-01
-1.872456639857331961e-01
-1.260094950684725879e-01
-3.213221863838942871e-02
4.833815078949887933e-02
8.971940013986584583e-02
1.675331896154010902e-01
2.950855496855610549e-01
3.608374716992740483e-01
3.354133907814177973e-01
3.096597923847143607e-01
3.096930761008336863e-01
2.641764491266249126e-01
1.654735725735906882e-01
1.076409107517775632e-01
1.090267389159674111e-01
7.379776009463054343e-02
-6.745742920735764425e-03
-3.264363524855721371e-02
2.722890629013471897e-03
1.146944231981179146e-02
-3.077334997162103208e-02
-9.613593414477009103e-02
-1.728501290659792966e-01
-2.342928022565340940e-01
-2.649037145778406765e-01
-2.914166380445691873e-01
-2.613400111012159077e-01
-1.057246463612045717e-01
2.466649710419982836e-02
-1.066444202772292432e-02
-7.183842310529200970e-02
-5.505018578608378288e-02
-2.672198029008579154e-02
9.156257363654232706e-04
1.936739975877783959e-02
-1.193928472116596168e-02
-3.126849351680460742e-02
1.908055119661451748e-02
6.784457555122891392e-02
6.422869082983362343e-02
4.954521159941287223e-02
6.387751487784734672e-02
1.544970114801487437e-01
3.071303237355620386e-01
3.659600446556403042e-01
2.714953184014704535e-01
1.374650240630357068e-01
1.226324233478349318e-02
-9.870923587483476647e-02
-1.633704257941915872e-01
-2.132894618543544341e-01
-2.105573283949494501e-01
-7.522323995661690799e-02
2.692878341249580615e-02
-4.820286247701768834e-02
-1.093166153667345514e-01
-4.297618409975776516e-02
1.049530592950270388e-02
1.495106226242839259e-02
3.338058344516441067e-02
3.610574564705754108e-02
-1.726387127376240865e-03
-3.584486606938429298e-02
-4.428778785122015893e-02
-5.141396981788273063e-02
-6.650647434878763364e-02
-4.933143385907935718e-02
1.226446014887195082e-02
4.632200942771343144e-02
2.287209049487012869e-02
9.023812507359165944e-03
1.492997362783213960e-02
-1.962529596985279970e-02
-6.520575055563990197e-02
-4.909158158188226678e-02
-4.800880102330971379e-03
1.397647289552673630e-02
2.984129189416001582e-02
4.509795697101728201e-02
3.581993794608855780e-02
4.175189514807212121e-02
8.049297073654626544e-02
8.181492196021447616e-02
3.895668707987371554e-02
2.972518764079607953e-02
5.421902296570102475e-02
5.586368572516503539e-02
2.589099658086382871e-02
-3.319966936065878171e-02
-1.051301519108359811e-01
-1.279953234101443849e-01
-1.027072433771414606e-01
-8.484639586453161797e-02
-3.271325759365806968e-02
7.682052380626319676e-02
1.332357029995496767e-01
1.157307029704792711e-01
9.849337595506649223e-02
2.908444539249766675e-02
-8.953580447775333351e-02
-9.732128465631864622e-02
-5.268344121228998866e-02
-1.231223246874466742e-01
-1.637522721875048770e-01
-6.347825238205118126e-02
-5.790102386074750390e-03
-3.016210835154920639e-02
2.518962283584679634e-03
9.800848936327122285e-02
1.711784809970755550e-01
1.624734395001788956e-01
1.054796188186996331e-01
9.344934322459143294e-02
8.913712913206059407e-02
1.793329528674170170e-02
-3.705321255870683284e-02
-1.782729995879553733e-02
-1.262485782020673561e-02
-5.514742513651266220e-02
-7.607405590457962108e-02
-6.655603236915125231e-02
-8.549618095687638863e-02
-1.294935519143360358e-01
-1.359892159107536913e-01
-1.029684093569203790e-01
-9.325391990167526679e-02
-1.055340473150825770e-01
-7.105354654271504866e-02
2.558271492188346485e-03
5.401545350160279202e-02
9.918218953724491915e-02
1.566021828137384442e-01
1.737551092976757638e-01
1.543367537574046600e-01
1.441628539069500503e-01
1.077423358528854236e-01
3.927220619632694476e-02
1.651182222798251720e-02
3.857108585954188706e-02
4.126284377521075020e-02
2.044897943757765721e-02
-9.521678828934513478e-03
-3.876407864977353401e-02
-1.338606845421001779e-02
7.377481830460695666e-02
1.150102807537943667e-01
5.786841245314497395e-02
-2.282198958953081044e-02
-9.177437629064232050e-02
-1.625287796293308495e-01
-1.965821393653537086e-01
-1.817044698949020209e-01
-1.678823436198913499e-01
-1.689921251114610279e-01
-1.595323947733995329e-01
-1.166170518875388612e-01
-3.712220434203371278e-02
3.376608122053137429e-02
6.949449005190208584e-02
1.072971631459122277e-01
1.388460237766304950e-01
1.178610791768224947e-01
6.323254990319038260e-02
-1.467437892457551692e-03
-7.238970280426486326e-02
-9.991213178016318530e-02
-6.534123727652264846e-02
-1.889950884965538314e-02
2.521193937857181891e-02
7.511610631143597616e-02
9.837204322025687453e-02
7.903638201560211907e-02
3.946020437297421274e-02
-4.706507347470035782e-03
-5.088195972325904037e-02
-9.628482046377322134e-02
-1.116900529402894554e-01
-5.040306992426817068e-02
7.362943483309435100e-02
1.865399212567361020e-01
2.520680995582789130e-01
2.844469983966901871e-01
2.874518258938638104e-01
2.598288030001112969e-01
2.163734105366867944e-01
1.633572231952298281e-01
1.053580905344072560e-01
5.037185116233938720e-02
-2.356530240463011044e-02
-1.262366900837846861e-01
-2.055187908856535017e-01
-2.418452040140425252e-01
-2.810713763884096772e-01
-2.896401573312877287e-01
-1.917143480902556985e-01
-7.569549929611917027e-02
-8.845017389486847792e-02
-1.873578850681463515e-01
-2.486683105707426233e-01
-2.704669272538705038e-01
-2.864780311688202574e-01
-2.682299270806156599e-01
-2.059070627071140358e-01
-1.278781182506951719e-01
-4.761221875598841552e-02
2.535186096851639592e-02
9.991463585933810232e-02
2.045443465341230671e-01
2.947836039369995387e-01
3.033107115561527456e-01
2.798850519632074541e-01
2.900387049415805163e-01
2.927957864748465533e-01
2.524565903170312153e-01
2.145301869331092404e-01
2.099821342317234329e-01
1.914771402286697122e-01
1.235204315399708597e-01
6.106580992175972278e-02
4.547141961393171006e-02
2.026605719888197044e-02
-5.735883075963161409e-02
-1.329898116811387698e-01
-1.453416613924354839e-01
-1.324963879277945011e-01
-1.790056055874298391e-01
-2.628351457102194866e-01
-2.871414577378214594e-01
-2.500831701460668466e-01
-2.034393284123532930e-01
-1.423335927614486351e-01
-6.684745151241641703e-02
-5.339450982201725260e-03
3.203935428196984930e-02
3.884801013933684988e-02
2.162511297128461366e-02
7.500872534399231906e-03
1.072712894977846318e-02
4.028777880081342577e-02
8.260144685508898077e-02
8.747920081548815618e-02
6.095850093335464931e-02
5.707696361642197042e-02
6.792222030815903144e-02
9.712389546695968101e-02
1.866729421353681140e-01
2.579160755817203055e-01
2.095448421745760847e-01
1.058769300681954018e-01
2.062261575381821657e-02
-6.217172176047357224e-02
-1.198722931602774211e-01
-1.316920874389659046e-01
-1.421931791965160286e-01
-1.509163033229179995e-01
-1.216347017647501361e-01
-8.488529380832482429e-02
-6.929610221859007491e-02
-3.011039308578325469e-02
3.623991586555221078e-02
5.049112903532662622e-02
1.338099507294331081e-02
1.308390640648006246e-02
3.478215106963112452e-02
9.651776715375981475e-03
-2.033625842425011016e-02
-1.367843969270501371e-02
-1.670184036625580251e-02
-3.205066230727484505e-02
-2.441476965522630660e-02
-1.169510744801285744e-02
-3.870051721248465686e-03
9.144796502504918059e-03
6.764477503897622056e-03
-8.461480432036365407e-03
-1.791909370526139147e-02
-3.722079915572767961e-02
-4.947434452034930180e-02
-1.655935743735974242e-02
3.173916419263136252e-02
5.088996338274459630e-02
4.713287775193000795e-02
3.594173058069481674e-02
2.145881778880857557e-02
1.032908433125846390e-02
6.084033680360602901e-03
1.064785118072326085e-02
1.682779480952863171e-02
4.409493724198540986e-03
-7.278323353636958863e-03
3.218041181391806393e-02
8.680096515823168546e-02
6.250833534913380340e-02
-1.738257619709600993e-02
-4.014422171386623772e-02
3.094134238563425732e-02
1.445511632330944152e-01
2.221490033310672962e-01
2.153210086297991099e-01
1.383980955371009181e-01
5.648608552735162602e-03
-1.551590487036679233e-01
-2.456313367083984844e-01
-2.264851422938881920e-01
-1.817395779184743931e-01
-1.630802268141562095e-01
-1.374528935861233647e-01
-7.642481541631084008e-02
5.651595004873888328e-03
6.278817758454463549e-02
5.892093977080893608e-02
1.043290852414540532e-02
-4.279218024388826980e-02
-8.765681577731219976e-02
-1.061723777226944443e-01
-6.087896993338414581e-02
-1.287211624145899458e-02
-4.845052438958974417e-02
-3.631710458850355427e-02
1.416063286754673245e-01
2.945068643797335017e-01
2.612427108726246283e-01
1.441822599326152421e-01
4.755009277515714200e-02
-2.590747450660603121e-02
-6.590325147283350449e-02
-6.303381694901996624e-02
-5.454946434500446834e-02
-6.928269612937207333e-02
-8.630320178308614754e-02
-8.366583894159268509e-02
-5.069827531143916710e-02
1.542191880291376646e-02
7.410267908915819934e-02
8.389999034254393140e-02
6.015712277503273281e-02
3.844343906090867680e-02
3.162371155139038353e-02
3.499412900947981853e-02
4.952001453693860578e-02
6.540323033760825355e-02
4.926778582681467372e-02
-3.967570642147922634e-03
-8.161098386176643404e-02
-1.642426309618041091e-01
-1.491064653694108011e-01
3.392648656137384200e-02
2.317245986112350109e-01
2.487859664610089783e-01
1.179916624255676061e-01
-1.200204211796996635e-02
-1.021264775291852583e-01
-1.808732168123599604e-01
-2.269861482522315121e-01
-2.168370040051274539e-01
-1.768685709221082536e-01
-1.293808804102088428e-01
-6.945030050141171030e-02
6.644365492420947067e-03
8.878456960123642938e-02
1.430737424568624405e-01
1.363293256045620683e-01
9.404915049844876640e-02
7.573768178203249546e-02
8.129435421931262284e-02
6.118294460563935416e-02
2.152746788894660881e-02
1.582272603059143787e-02
3.735409035214555529e-02
3.614511888554653579e-02
1.354098196797616158e-02
2.115676501599491471e-03
5.081909691239464011e-03
2.281167250770162191e-04
-3.030769430826147151e-02
-7.319129233981301608e-02
-1.051471028066448543e-01
-1.317239909959323496e-01
-1.528545812617494726e-01
-1.390798492980877543e-01
-8.587012757612051683e-02
-1.728304845770731180e-02
6.880092398434801970e-02
1.597420217567948608e-01
1.926661839095025197e-01
1.664967635383808875e-01
1.422188652215133631e-01
9.873410397605725253e-02
2.357448767215385675e-03
-6.549576315698163453e-02
-4.450432415602025710e-02
-6.460176302018321576e-03
-2.190009316073895235e-02
-7.481058348809498104e-02
-1.294433631905488324e-01
-1.329598931922072180e-01
-3.421182112449977497e-02
8.474047325247337226e-02
9.431363212535306961e-02
1.349521596033819923e-02
-9.249560861110303622e-02
-1.611495404741526416e-01
-9.316132623768062782e-02
9.526122754199835979e-03
-4.025105051287543312e-02
-1.170004422233549418e-01
-6.293333699797785952e-02
1.298365942148315029e-02
4.759452642270536882e-02
1.022983928058052300e-01
1.560944820980228465e-01
1.733451512624793467e-01
1.743730966362884716e-01
1.599774233030175630e-01
1.486260868494263254e-01
1.727076621673666879e-01
1.833028193252840832e-01
1.355181520164405184e-01
7.789939310296986608e-02
4.576264709601021718e-02
1.449260338784815610e-02
-3.356201085019195479e-02
-9.777708686284905526e-02
-1.679129954773806166e-01
-2.162831512688419555e-01
-2.302316492226560984e-01
-2.369641216344287871e-01
-2.610420971206824925e-01
-2.846443868913094422e-01
-2.851757939139035192e-01
-2.717964637358377678e-01
-2.308630641579896559e-01
-1.262041708166808940e-01
3.173493579705227718e-04
8.404089585485145786e-02
1.542897433945211727e-01
2.292860780333847992e-01
2.516090483878441475e-01
2.236325096918644895e-01
2.055610546253057447e-01
1.998002792471833267e-01
1.793027689697085647e-01
1.459201641550806894e-01
1.201569033137941667e-01
1.019045407496340094e-01
5.132724455380895806e-02
4.326074973189097950e-03
6.939117199145330983e-02
1.739006651059833986e-01
1.455715790437820123e-01
2.449090077460540360e-02
-8.047193197080335092e-02
-1.787877984207024151e-01
-2.531097341073853535e-01
-2.843399766391355721e-01
-3.176217361348879220e-01
-2.807563172028021969e-01
-1.005755429184960054e-01
2.955374276104011030e-02
-2.952599339608448503e-02
-8.694229997085847761e-02
-1.393175126018152479e-02
6.657280030668941140e-02
7.361300026690656417e-02
5.710456359654316610e-02
5.544993179243383474e-02
5.423418159530967592e-02
4.756509230311310038e-02
5.733024501233054127e-02
7.621594351566322867e-02
8.359532870000369043e-02
1.022577498828596831e-01
1.263566278763429696e-01
9.830664527294036281e-02
3.347804101617785771e-02
9.785489336167560448e-04
-2.109720225385549458e-03
-9.083617393882494756e-03
-1.748485345618160103e-02
-2.531847215016770625e-02
-3.201903914155342090e-02
-3.385177483444690161e-02
-3.561710362793574225e-02
-1.695200528368630971e-02
3.474863611450289269e-02
6.560226816560549290e-02
3.200419795118850802e-02
-3.807298175856758254e-02
-1.012588116600364740e-01
-1.248570672988809638e-01
-9.413200870038308798e-02
-4.298543935017886536e-02
-1.721926100135696275e-02
-1.668974733097627200e-02
-2.050050779909341064e-02
-4.642829380472753009e-02
-1.027511073799826508e-01
-9.200306024065380006e-02
5.051401478977728815e-02
1.863079750981442850e-01
1.910801803059376525e-01
1.388445670088747641e-01
8.308103024009415305e-02
-2.227285299380331665e-02
-1.325707391350430531e-01
-1.595599609163886046e-01
-1.369891891650217297e-01
-1.284082901697413404e-01
-1.056787016604164992e-01
-3.122481814242666909e-02
3.777539136960523375e-02
2.869332235118281921e-02
4.062928996851249142e-02
1.927836849057573965e-01
2.949576356588972104e-01
1.640011191122835721e-01
8.980251899821680567e-03
-3.749103422279881359e-04
-1.860714355430934108e-03
-5.690080079030771648e-02
-5.890538919150230951e-02
7.752108222913781793e-03
5.041274964917982077e-02
3.122571410787925578e-02
3.469222819651153478e-03
8.208257353086780353e-03
1.162900000779421364e-02
-3.000379147816274739e-02
-8.517803690346151257e-02
-9.511861348320821419e-02
-8.119756548622761305e-02
-9.105837711209355256e-02
-9.423821959471820331e-02
-5.199669001559559939e-02
8.817331675894140436e-03
6.378819238215058252e-02
1.087821906499431834e-01
1.099223992591215199e-01
5.644822540455470689e-02
-4.514561681363020960e-03
-3.630809140659377321e-02
-2.273779985487981922e-02
2.406761757287046929e-02
4.648095748228424362e-02
3.200075747564265494e-02
3.029190583657884791e-03
-7.398189423007349441e-02
-1.727287913168155109e-01
-1.585400627156967612e-01
-1.290994739840011993e-02
1.220234601598972901e-01
1.621614043642001790e-01
1.251421286078525097e-01
4.195347111119400452e-02
-4.100224005311722819e-02
-9.810928032350629824e-02
-1.377442564740934128e-01
-1.442698054194152812e-01
-1.224902941815224355e-01
-1.033144280676486781e-01
-7.444912163107363090e-02
-2.319958009258798332e-02
3.898144818191702499e-02
1.035327036833661035e-01
1.439916432716980277e-01
1.560450181578396656e-01
1.762009049284951334e-01
1.952047325280950318e-01
1.714733433788579453e-01
1.077371197542533604e-01
3.167177699525550172e-02
-2.999477042564124840e-02
-6.079012034337790554e-02
-6.883558550395149633e-02
-5.754440876514933800e-02
-2.514275535285251384e-02
-1.053820074908754997e-03
-1.995200651656017093e-02
-7.623847794204136052e-02
-1.303225990809221968e-01
-1.521748624159450780e-01
-1.480718821985631262e-01
-1.321802160338145515e-01
-1.105866085495895712e-01
-8.976649067904257651e-02
-4.605726737546925881e-02
5.254144473679868421e-02
1.661692644274496700e-01
2.146888545507480706e-01
1.774115443146158100e-01
1.026432389395606215e-01
4.138937934961548631e-02
4.380039214269758688e-03
-9.361533440338664844e-03
3.218487918512098755e-03
5.534700409709193691e-03
-4.129093885419977961e-02
-8.312453038848081899e-02
-2.724436464665392493e-02
1.157658468294210513e-01
2.243316145180569432e-01
2.017828983252308306e-01
8.610699881615557771e-02
-1.947299465193901014e-02
-9.430825515410393156e-02
-1.760795980589619503e-01
-2.465553414412688105e-01
-2.602139627141428213e-01
-2.181086331841599890e-01
-1.496260877829865277e-01
-7.403836496678251056e-02
3.726312984325609590e-03
7.477025674291282176e-02
1.224004768947823535e-01
1.373534057763893812e-01
1.114340146434454476e-01
5.795429876178592732e-02
3.204670216133525401e-02
3.727999404441426773e-02
2.966296994407387373e-03
-5.848719089889876932e-02
-5.523700703057957129e-02
1.672954275937610369e-03
2.964989577023492695e-02
2.976914248300039159e-02
4.269227920914669266e-02
5.476238000325251570e-02
3.852906488693810805e-02
-1.099447404172106992e-02
-7.848100904850666137e-02
-1.310129645080021499e-01
-1.564733444986797783e-01
-1.503329287364111311e-01
-8.831847305084600253e-02
5.246137697116338289e-03
6.535407391232528340e-02
1.113299433628624491e-01
1.967579109979762098e-01
2.233872596959869394e-01
9.656744866469035848e-02
8.601961385054718995e-03
1.266896400260347777e-01
2.482988618959377503e-01
2.034403773933778359e-01
1.385004817193054849e-01
1.324865044957576898e-01
5.450901862278605126e-02
-6.391866686447825185e-02
-2.232167902813281951e-02
1.233802202308069418e-01
1.370080545363677738e-01
1.243299030833220492e-02
-1.166162048067424795e-01
-2.319345540048629584e-01
-3.492210020053908015e-01
-4.170567972239412891e-01
-4.284643066872185768e-01
-4.557501051510201018e-01
-4.579966535920884096e-01
-3.217375776852621216e-01
-1.603553067883537186e-01
-1.376024761333204116e-01
-1.215604004342652894e-01
1.658640647864197126e-02
1.413243914121023181e-01
2.066859146607281650e-01
3.304256419527384914e-01
4.294257906812518621e-01
3.591387922959033974e-01
2.600295116695302555e-01
2.772111832446464419e-01
2.958770302873042213e-01
2.309473744631719838e-01
1.736725375935405657e-01
1.761293522813757173e-01
1.719157981742522323e-01
1.287199980094788643e-01
1.036896001467734474e-01
5.998512364570179195e-02
-1.138922071917858464e-01
-2.875480331390162236e-01
-2.546191696530453741e-01
-1.511038197617967094e-01
-1.700280739926000872e-01
-2.018444118228134854e-01
-1.332319746863692422e-01
-6.188102177479178762e-02
-4.998675889587358978e-02
-2.402616150068309295e-02
-2.004895913283473094e-02
-1.568973880754069850e-01
-2.892182669217226998e-01
-2.101954954036248380e-01
-6.781975753600139045e-02
-3.771377066086848556e-02
-1.593411142355436599e-02
5.616649322549326778e-02
7.179828766573120857e-02
8.151211638461761111e-03
-1.070612230932663916e-02
1.079770458964148250e-01
2.636037524742932958e-01
2.948591736743645941e-01
2.303118186914578369e-01
1.552543538084726893e-01
3.662008812533061597e-02
-5.810939502177909360e-02
-1.754078625616523057e-03
5.708600887524488410e-02
-4.857541020089585493e-02
-1.573832051641998464e-01
-1.242649823049316593e-01
-3.621382410082874675e-02
3.937974909490199460e-02
9.500508244609830177e-02
1.041407087798872089e-01
7.724863448905738839e-02
3.882451515407763648e-02
3.902970097557425209e-03
7.073585288902293003e-03
3.390437550879850381e-02
2.194180102397437146e-02
-2.776423247926871826e-02
-7.408391405080880232e-02
-1.050982858133974601e-01
-1.160709187928679886e-01
-1.088284345919528079e-01
-9.149015252467049275e-02
-6.347357118426273648e-02
-4.811927763691654925e-02
-7.143649759747412731e-02
-1.044656285116302430e-01
-1.099071348468676629e-01
-9.740881095777413623e-02
-7.399375871980720665e-02
-1.425984955860551059e-02
7.476584117133000529e-02
1.414246548175282225e-01
1.604980581250732286e-01
1.428689734491600527e-01
1.110378291890374985e-01
9.156031840033325431e-02
7.026610832614788027e-02
1.756968744513613331e-02
-2.867345392856538930e-02
-2.633939296804676394e-02
-6.691976420478973342e-04
1.964066416859469241e-02
1.580231962224017822e-02
-3.516981034114557980e-02
-7.999723367810600283e-02
-9.732119633873173581e-03
1.450032436017570925e-01
2.052495242687966126e-01
1.219214477209639713e-01
2.426483708640023856e-02
-3.843983914828381920e-02
-1.028867697702387507e-01
-1.382486779132227617e-01
-1.358919989654378546e-01
-1.433586749638939561e-01
-1.377358265632416534e-01
-8.937663516873349534e-02
-3.833264168819439099e-02
8.163694276219907175e-03
7.192776145047845293e-02
1.283464354562570131e-01
1.488814459922088718e-01
1.340468589739828020e-01
9.530919331747374212e-02
5.240061365161649554e-02
1.745238601032671547e-02
-2.086653394820917051e-02
-6.637784303726559920e-02
-8.819156910908043656e-02
-6.306082576209262602e-02
-1.933409265100077823e-02
2.664040236514566944e-03
1.411768122183436683e-02
3.973823797758022081e-02
2.910111548568399681e-02
-7.262631579664172166e-02
-1.974393464968905998e-01
-2.421542670581121048e-01
-2.000601376977788615e-01
-1.190672066280269309e-01
-3.547057240466817279e-02
2.779116375301981384e-02
6.507939981751778569e-02
9.703982894325981212e-02
1.399385635314282228e-01
1.575947181142780262e-01
1.166111174180193832e-01
8.287998994253681362e-02
1.221059109903739753e-01
1.598357689001726201e-01
1.130352361846961168e-01
4.179286982223817670e-02
1.206814457390360112e-02
-3.328431566009801279e-02
-9.303426119960266083e-02
-1.201838912708876744e-02
1.688234157045850059e-01
1.585107791433799651e-01
-2.403188406220433532e-02
-9.288654145485809865e-02
-8.009486612801264283e-02
-1.565285538986490033e-01
-2.484560634167654325e-01
-2.300765259057871992e-01
-1.053662342600461821e-01
-3.519921407709026770e-03
-3.166390014959177129e-02
-8.557321602877421274e-02
-4.752447098576156187e-02
2.820259603881573873e-02
9.173600382800976838e-02
1.257696378729931119e-01
8.797772320831309667e-02
3.830690260930548485e-02
6.976660217107609474e-02
1.156979931796692923e-01
8.080043596205768730e-02
1.551446452747860111e-02
8.635293466837244691e-03
5.444091901113146115e-02
7.764957740337569136e-02
4.803382674055020618e-02
1.722220030474236330e-02
1.528333440050901396e-02
1.522789871824826481e-02
-4.228870857194180766e-02
-1.961565545559156021e-01
-3.121856130831447973e-01
-2.430480005097745977e-01
-1.076359738874912986e-01
-2.937178220264271764e-02
3.969533979873948737e-02
1.046238893389535574e-01
1.619452253976182421e-01
1.922539253612389476e-01
1.090130879649485185e-01
2.452737385859733721e-02
8.048740109811708399e-02
1.047378629925980048e-01
1.240369276865575451e-03
-5.555257743359530431e-02
-3.462437809219058582e-02
-5.458897317327802284e-02
-1.027236188107523707e-01
-9.199830963428980157e-02
1.042134499354950387e-02
1.675528315761651288e-01
2.533407480487355201e-01
1.730875405193043060e-01
1.433871491260099544e-02
-9.761372233998198700e-02
-1.659808255704130209e-01
-2.198311299020706266e-01
-2.420097022892914451e-01
-2.343557439481555038e-01
-2.114500396661366244e-01
-1.602208133854092220e-01
-6.080686511219528245e-02
7.461760760167747419e-02
1.879557869039548690e-01
2.283062424154237435e-01
1.938407616554708446e-01
1.001757452871148840e-01
9.406538888012601698e-03
4.920643126907257858e-03
2.414630205360450421e-02
-3.892720250546190253e-02
-9.025287786316095462e-02
-3.548620418737909871e-02
1.693119709136621867e-02
1.181138808901359763e-02
2.870313046643608798e-02
6.425963239538554084e-02
6.312615230539622702e-02
3.870131908932922249e-02
1.991529540665186448e-02
2.182044001646656073e-02
5.736057770926179106e-02
1.088894484870409074e-01
1.397973679582829032e-01
1.493463224473328965e-01
1.625219923404261912e-01
1.720812480867224270e-01
1.543786279129092109e-01
1.022263960832161672e-01
1.174238660052185496e-02
-9.792479470462694957e-02
-1.847755709709885674e-01
-2.363933007149556786e-01
-2.674299368299105639e-01
-2.846317826722892796e-01
-2.902213387449030790e-01
-2.855504000278863974e-01
-2.659594284915730578e-01
-2.279625996136400989e-01
-1.506278774405080956e-01
-1.125935533103258890e-02
1.282508521157697257e-01
1.777607689726383999e-01
1.630647724676612398e-01
1.389587580751390772e-01
7.810613501137247949e-02
-8.137464211259163444e-03
-3.883655718288325787e-02
-5.956938616050531932e-03
3.136872141233400246e-02
5.544471965368980709e-02
8.109246599454035531e-02
1.076679106737122166e-01
1.360995001428008111e-01
1.783013979323768150e-01
2.225586425492224740e-01
2.221102747304846692e-01
1.493602642519206436e-01
6.249628836446210339e-02
3.963258969203361376e-02
4.500711913946207898e-02
1.271880228834467580e-02
-1.565142018989205963e-02
-1.236911828807456259e-02
-3.972929471641981070e-02
-1.014732050888696446e-01
-1.332185617906013753e-01
-1.381050641218957986e-01
-1.592609635712968763e-01
-1.835787706359817972e-01
-1.827138074749991847e-01
-1.690782990804194086e-01
-1.546730461507470900e-01
-1.344901540995627198e-01
-1.140372741400063061e-01
-8.978184644489564659e-02
-4.953520032642391019e-02
-2.107460808745638403e-03
5.006998620930961513e-02
1.157330863807749383e-01
1.753681583112049469e-01
1.980192463059523011e-01
1.780758310713938253e-01
1.371732140163004210e-01
1.055509569799734232e-01
9.227595346592430692e-02
8.113101913162838741e-02
5.871921715546259829e-02
2.315456026601732734e-02
-1.998291102648414724e-02
-2.614584045731004058e-02
6.137946537865118790e-02
1.799934975043426810e-01
1.883958117493176598e-01
8.621019535424204183e-02
-2.155498045871955676e-02
-1.155375827128902466e-01
-2.063144590786742116e-01
-2.570545052852727386e-01
-2.711179813220017110e-01
-2.692788068668127144e-01
-2.207952796875632950e-01
-1.354996200880087265e-01
-7.365492756606580038e-02
-1.769687186450042554e-02
7.320349865504788278e-02
1.454708145502747740e-01
1.555005063028989387e-01
1.434676299783431141e-01
1.279370911827314994e-01
9.313643343807286035e-02
5.845233839967699241e-02
4.800039920543795052e-02
5.011348770718512813e-02
4.737487649920212734e-02
4.302656852843191049e-02
4.495676863144496688e-02
3.943506616984769619e-02
9.379235035372534418e-03
-1.786220511018537030e-02
-1.448708427161228204e-02
-3.221213318284701921e-02
-1.034231094752472990e-01
-1.401878167585954849e-01
-8.535049599915048302e-02
-1.228113933174811157e-02
1.906792407582317411e-02
2.888366444652989279e-02
3.220222979579116795e-02
2.676950815241750659e-02
1.178548409358046861e-02
-3.241042854925987177e-02
-9.330660559237409502e-02
-1.141099566771139051e-01
-9.296310000886261193e-02
-6.788002221249885004e-02
-3.145561723152005135e-02
2.267539229857453570e-02
4.951597582379133056e-02
2.455771400733732304e-02
-1.643303465747165265e-03
3.794302842011647303e-02
1.511390980765037195e-01
2.574440312337829551e-01
2.493345978514344141e-01
1.360432346333607101e-01
2.773493924805171124e-02
-2.782356336758354948e-02
-6.053902554717673079e-02
-9.664970366355307707e-02
-1.334565616545951294e-01
-1.492515543210716222e-01
-1.301076310516749157e-01
-8.635636057098254603e-02
-4.226043084229424290e-02
-3.070506310515207921e-03
4.244283942309159952e-02
7.324813736060939440e-02
6.344986902229306225e-02
3.172782825317189276e-02
1.260739696033001504e-03
-1.849482910228384194e-02
-1.728725304697166509e-02
-6.287986705192052071e-03
5.134406070077513450e-04
9.325735373106613241e-03
1.261736900059750102e-02
3.127426056778752263e-03
-1.450201830465567329e-03
2.607894777243679064e-03
7.101604146616587003e-03
5.544649545331154818e-03
-3.305140608547087189e-02
-1.143900429687128573e-01
-1.767003266793074623e-01
-1.732704781221320323e-01
-1.214827897700500592e-01
-5.252907943699622328e-02
3.347914767853990559e-02
1.484776548698311383e-01
2.462766707825765067e-01
2.449779511442075342e-01
1.671345055412443714e-01
1.162137629141178491e-01
9.281949348743021022e-02
3.425897892353149676e-02
-1.896210813743651191e-02
-1.498536031835686483e-02
-9.322727654139290748e-03
-3.362198787153765356e-02
-4.970974338089108324e-02
-4.915770417778587975e-02
-1.255476333151114322e-02
7.282804390236370662e-02
1.201475538665195825e-01
7.978057580904565627e-02
8.661708758263851615e-03
-7.022861461024137997e-02
-1.497121588750094656e-01
-1.897613303393455297e-01
-2.050042186738992855e-01
-2.297927720649345917e-01
-2.288837701642756906e-01
-1.639014867679099152e-01
-6.885178531830223048e-02
7.484267392089009874e-03
8.776116887297225055e-02
1.843247208069126453e-01
1.747303979701025356e-01
2.490440981334521992e-02
-3.281612885870137386e-02
7.744283767896910364e-02
1.069479413917424904e-01
-1.310276714584286337e-02
-1.033092300734940877e-01
-1.068968486533094231e-01
-6.160251744621322856e-02
1.517142690361282346e-02
6.325981571647996959e-02
6.493175712503938823e-02
8.224831390899479955e-02
1.019386451732392090e-01
7.191922956536676848e-02
2.313590226168601993e-02
-2.725774295525725324e-02
-8.263286374189116046e-02
-6.688006191086910690e-02
4.429820519548830632e-02
1.553721963246868509e-01
2.366907160138706501e-01
3.341079481601518797e-01
4.092273555177463606e-01
3.874143713399083033e-01
2.939305298189442417e-01
1.995855004011813927e-01
9.323612531297158224e-02
-7.723151840824386827e-02
-2.638568764250310283e-01
-3.635853209621999205e-01
-3.971216968294561944e-01
-4.624127884162743674e-01
-5.388300863592778711e-01
-5.045096564082586221e-01
-3.272950631027810031e-01
-1.422891532903764189e-01
-8.088259074971335116e-02
-9.573560674227241107e-02
-8.891531931373208852e-02
-6.753009505158125148e-02
-5.383722557883352522e-02
-3.005768214988441961e-02
5.259109849960010019e-03
5.148723797868749730e-02
1.159715131305193714e-01
1.856250497578634806e-01
2.457643158912612980e-01
2.891322845123197594e-01
3.095958731629379623e-01
3.185182711171671288e-01
3.158476039145031167e-01
2.745702182905220279e-01
1.989023088253970006e-01
1.256878736604201963e-01
7.836548714612094624e-02
6.007991563060717521e-02
5.114080465410973664e-02
2.874966662870422074e-02
-3.833947697334971760e-03
-2.981595846950038653e-02
-5.047594102171824859e-02
-9.623787209759829264e-02
-1.760989597482557900e-01
-2.457707382764231230e-01
-2.671568096109597223e-01
-2.489895066530555812e-01
-2.235629551469794640e-01
-2.125072407427843757e-01
-2.124239859657609253e-01
-1.996355920316931210e-01
-1.316090272553329110e-01
-1.298449894564353280e-03
1.059277542200139921e-01
1.230720571004454700e-01
1.089883652127872221e-01
1.249386019612659937e-01
1.271301313678897815e-01
9.527552674613221084e-02
9.949895514499401683e-02
1.135212232917895553e-01
3.825495209780858941e-02
-2.855372456750249893e-02
3.493021988442157610e-02
9.897101794218948756e-02
8.720041943075461377e-02
1.438810339497034463e-01
2.655343422785529373e-01
2.571207548722514447e-01
1.072101549185787428e-01
-2.055402573552228898e-02
-9.405374938432300991e-02
-1.726989246586697058e-01
-2.240377898303551885e-01
-2.160669353672519666e-01
-2.030817884877434143e-01
-2.039380169835355860e-01
-1.714717126262093050e-01
-1.059196766470811429e-01
-4.983779865493060540e-02
-7.024907905053959234e-03
3.147304526095571348e-02
5.888194144003518898e-02
8.092607980294556913e-02
9.001110370701477514e-02
6.670416548448053484e-02
3.569317247315705044e-02
1.550756688991966094e-02
-5.676888646904191399e-03
7.812478469556427031e-03
6.120829851739179039e-02
7.152558482739787560e-02
4.578467715880243927e-02
6.837608864780371498e-02
8.721183068539729855e-02
1.366850211743412223e-02
-7.467535202102709713e-02
-7.613726350335874027e-02
-3.619037034871031011e-02
-2.536733428829693673e-02
-1.551405333163384179e-02
2.644038811737360259e-02
5.827500096796346674e-02
5.712708347602356990e-02
6.317360323982722237e-02
6.480253209018663196e-02
3.117161639781106369e-03
-8.549802415049001514e-02
-1.170200240332108788e-01
-1.064468173900725567e-01
-9.522509825706405862e-02
-5.433383331144775452e-02
1.541214467010602537e-02
5.000598254761844108e-02
3.180936472416071026e-02
-4.686313187256249679e-03
-1.735212366015160407e-02
4.432061786699627998e-02
1.552625855409491273e-01
1.915580384056963792e-01
1.063077876253873261e-01
-6.548735784950028560e-03
-5.792203044152158253e-02
-5.637212251359911830e-02
-6.800310929933618687e-02
-1.062433751519016173e-01
-1.094120267356051834e-01
-8.070014158909218083e-02
-9.036902201016173974e-02
-1.081287204752035408e-01
-5.379386097156600016e-02
3.555719523155466411e-02
8.367186700312387315e-02
1.025871183697538852e-01
1.124047234327539696e-01
8.575588950816204203e-02
3.123139518861332842e-02
-8.735071744032547880e-03
-2.299681879060922612e-02
-1.502760448460619194e-02
1.630301571009092759e-02
6.512738347720097021e-02
1.057993792525724064e-01
8.928558926495329395e-02
1.668292289397867514e-02
-3.369586195583587629e-02
-5.348192285757677467e-02
-1.230875819985313979e-01
-2.222417294314529002e-01
-2.524741424838409243e-01
-2.087671943392632179e-01
-1.317724241633307092e-01
-2.336776245868839308e-02
8.056568749318387956e-02
1.152851768010336175e-01
1.310952404750588829e-01
2.242604611401578796e-01
2.924993912891082348e-01
1.900916292469187474e-01
3.886136397538125786e-02
1.464108982400671305e-02
5.812316740095820056e-02
4.343631043159999761e-02
-1.643747126262296715e-02
-5.724201321493452288e-02
-8.507810002906901481e-02
-9.016653591638457144e-02
2.293655509198064268e-03
1.514078067621441870e-01
1.968132626936258678e-01
1.157615005288246401e-01
1.894441007422412865e-02
-5.858412295940512715e-02
-1.373136409921505430e-01
-2.025532399406209660e-01
-2.557898558694369218e-01
-3.018419815219213209e-01
-2.823615654814258802e-01
-1.751981793497314754e-01
-6.498332513467575122e-02
-6.104906022544945299e-04
5.504030341623009775e-02
1.040568909325950558e-01
1.125442762420487686e-01
8.989658996334851104e-02
6.638742566111920096e-02
5.104984306084747042e-02
4.430048304959589150e-02
5.453621926632782474e-02
7.984852517771726110e-02
8.887065320108927802e-02
6.560595968142854395e-02
3.985651902829302068e-02
2.549932269391479156e-02
1.134827397279079136e-03
-3.901133381322598181e-02
-7.795446587469520572e-02
-9.251879240837357354e-02
-8.267091982233228109e-02
-7.821233985838198233e-02
-7.465315450216070126e-02
-4.899135676861548355e-02
-2.049276123135550243e-02
1.161419433851678881e-02
7.689779102399374455e-02
1.450265244743347559e-01
1.852759150750210582e-01
2.367696103228768556e-01
2.688448965923440626e-01
1.895099218285361264e-01
8.769154470513532140e-02
1.236822566684580571e-01
2.185933790700283486e-01
1.715811021977372008e-01
-3.038781405186087581e-02
-1.857117217747384086e-01
-1.562721265928345149e-01
-3.899577017592564809e-02
3.554024207293025178e-02
2.639539654849723527e-02
-7.922084225782413669e-02
-2.194234748204826613e-01
-3.125479280985941632e-01
-3.669382616817427056e-01
-4.046142360752760792e-01
-4.228653699227620799e-01
-4.156268097227175384e-01
-3.511096255480500306e-01
-2.310801396627711057e-01
-1.111960308116117790e-01
-3.579870612230071081e-03
1.187744946345035413e-01
2.395740511784502091e-01
3.106735074765068494e-01
3.256068685885871727e-01
3.298396175501313032e-01
3.342779399424022913e-01
3.201585518562206079e-01
3.234054691878260335e-01
3.159559818159975997e-01
1.891965770278121461e-01
3.550268590110129685e-02
3.334986510758343459e-02
8.844618081365664131e-02
4.752565231167049653e-02
-1.935722042204272852e-02
-3.007908244219860416e-02
-4.481898235635497357e-02
-1.128608977415972714e-01
-1.818176502233701253e-01
-2.036098071572865209e-01
-2.006024507474956364e-01
-1.926136492221071916e-01
-1.718331320193986489e-01
-1.444280226310651061e-01
-1.118234973096120244e-01
-5.201126798858533851e-02
1.717645938709452119e-02
3.256925654538596338e-02
7.425762399961392812e-03
3.554930220611308284e-03
-1.722470363569550064e-02
-7.812577527245312403e-02
-8.120486479906818822e-02
-1.189306658902035754e-02
2.971351792014655796e-02
2.883056951936073878e-02
4.651762376315742020e-02
1.195609674222817970e-01
2.373082805878122536e-01
3.217842570439242156e-01
3.000816869730857928e-01
1.903476387190572161e-01
6.657541983196882396e-02
-1.529087939025632753e-02
-9.914993825681389650e-02
-2.419717740532011385e-01
-3.158349589451907580e-01
-2.094535015123497879e-01
-7.307047082592392495e-02
-3.216727865659468194e-02
-1.401080496927490163e-02
2.918862073075549277e-02
7.556092812867581943e-02
1.103151484616493316e-01
1.026618438088652691e-01
5.647545256005500475e-02
2.278021769973266955e-02
4.886541444403745028e-03
-7.524966846221128880e-03
-2.982788255156282493e-03
-1.963955710573792035e-02
-7.003804580347855469e-02
-7.975173906862360884e-02
-3.925608769078361981e-02
-2.173582904181963274e-02
-3.376696608101636271e-02
-4.114835748245790348e-02
-5.637317213167772345e-02
-7.550009290681591878e-02
-6.551940322622533397e-02
-4.487121299211424552e-02
-3.642138293650157982e-02
-1.221885684287117753e-02
2.588179301907305926e-02
4.415781283892383086e-02
6.265847275177811870e-02
1.035750269012249147e-01
1.114649956431323086e-01
5.286095938937034056e-02
-2.299404534704971824e-03
-2.324839596831228955e-03
1.471448802298768593e-02
1.897445894169911759e-02
1.807174937834894052e-02
1.384909272585936081e-02
2.055314993565428988e-02
2.290935153388298090e-02
-3.446486965491332016e-02
-5.396925678980914187e-02
1.212419572568534248e-01
3.175781703613503870e-01
2.660354157640653083e-01
7.796705549696067439e-02
-4.339789019346751431e-02
-1.273482221972734307e-01
-1.926524090307375481e-01
-1.810776705671309217e-01
-1.347243040711844919e-01
-1.192024588784418443e-01
-1.109790466082516830e-01
-7.715868881629951714e-02
-2.890711916609777984e-02
8.193275005807753447e-03
1.126904629398214203e-02
-1.746833889210087573e-02
-4.029448553907254149e-02
-3.827635891202848389e-02
-4.534008359396661525e-02
-7.203724466522901104e-02
-6.135206291054171035e-02
1.195783336640436102e-02
9.372632306839896732e-02
1.509844262183282770e-01
1.974040305828715647e-01
2.072492960930488182e-01
1.449392474644228823e-01
4.782863617549679841e-02
-2.704438556886749195e-02
-7.280203173011937090e-02
-1.025157280758830086e-01
-1.094080249483527639e-01
-9.791692624252908150e-02
-1.013211687928871757e-01
-1.062680535975941282e-01
-5.444910339309218250e-02
4.074109615503636317e-02
1.033686572043486934e-01
1.011174262451531858e-01
5.802006261386745412e-02
2.260447132079291405e-02
2.341715937431788214e-02
1.593934692418590496e-02
-2.801752276803924635e-02
-2.658013954647951704e-02
5.740872087725910899e-02
1.100223122960779648e-01
4.296062332090311298e-02
-7.555571957807834249e-02
-1.088732871421523168e-01
-3.743793447327992824e-03
1.434158218787996986e-01
1.963225531331266593e-01
1.288794657489504558e-01
1.806975683344522882e-02
-6.103879615758278643e-02
-1.083199251991351503e-01
-1.687487968898421786e-01
-2.298593417438249409e-01
-2.277987736668115604e-01
-1.666729308379752417e-01
-1.150785612591888607e-01
-7.948418386382348488e-02
-1.305617242511830645e-02
6.898519314315029738e-02
1.280347680812346789e-01
1.762749916539166628e-01
2.027853248444517753e-01
1.733186592420303540e-01
1.142116595157410958e-01
6.018765566477116136e-02
5.071156391084380433e-03
-3.239137490565691807e-02
-1.441630066290120263e-02
2.655966006385627673e-02
2.088196557709118273e-02
-1.074123649401934749e-02
3.316325527748891638e-03
3.008021662550379449e-02
6.888254721833089733e-03
-1.607849214663215065e-02
-5.285656114041983877e-02
-2.018100960552905443e-01
-3.180483908215899769e-01
-2.099382294935856763e-01
-3.822348332155669354e-02
2.073812279332105935e-02
5.911568030513577460e-02
1.340079972288006904e-01
1.691458545220924370e-01
1.389000134828133892e-01
8.129192306501777099e-02
2.338843337971310832e-02
-2.493252439328769166e-02
-6.045239255152497215e-02
-7.383491359519234187e-02
-4.385405527287117300e-02
-2.515690388037243944e-03
-2.333426200446720930e-02
-3.424434773690608613e-02
1.015808767858552425e-01
2.362706189545941138e-01
1.482722621026403564e-01
-1.056129191049508947e-03
-5.530575258856744447e-03
1.932597688656972901e-03
-8.444246660590563891e-02
-1.675137532618722613e-01
-1.969611055734421523e-01
-1.900178163603405412e-01
-1.496479715199031113e-01
-7.053148854504739940e-02
3.919084383839483571e-02
1.249683651207471047e-01
1.525238917104802527e-01
1.614616192406237993e-01
1.686922711570597311e-01
1.536937377748795741e-01
1.381243996231904247e-01
1.378422960275577924e-01
1.159599810777246637e-01
6.907950121180286840e-02
3.870351746831519890e-02
1.855350423764071111e-02
-2.635925971834993456e-02
-8.613279988535632592e-02
-1.329630900471881205e-01
-1.595055726597101042e-01
-1.745511340734731687e-01
-1.938518871351138650e-01
-2.078404880303360291e-01
-1.926735593457768458e-01
-1.741520560692089437e-01
-1.834350586889078871e-01
-1.766471110079405604e-01
-1.173385851819095521e-01
-4.588256476211277635e-02
1.939155817239157642e-02
1.040450722740670075e-01
1.878569686363242286e-01
2.372841291868096614e-01
2.604878102638996662e-01
2.562431471519584503e-01
2.160442257493316309e-01
1.694322004707948526e-01
1.296910629372428070e-01
6.438171178423401919e-02
-8.796449625836276487e-03
-5.010468640737446994e-02
-9.902134375501656094e-02
-9.633643953379421310e-02
9.672897751888950846e-02
2.940247370207917932e-01
2.193524284981031025e-01
2.020682754881181903e-02
-9.633576785238563700e-02
-1.968469161504997067e-01
-2.906549523985759720e-01
-3.009656503277579054e-01
-2.714769837632107774e-01
-2.438567707411727625e-01
-1.916221902828192103e-01
-1.243963549864443019e-01
-6.248028784601616925e-02
1.004422680281839148e-02
9.463146569060520985e-02
1.450031867658546914e-01
1.295501589680685406e-01
1.026414390212206373e-01
1.147390840819106916e-01
1.229126298223790353e-01
1.123126774235782693e-01
1.240524210502261804e-01
1.183666971548936880e-01
5.502235712284990476e-02
1.526270930754871150e-02
4.501507194015983565e-02
7.002880527324095716e-02
5.028869150297025914e-02
1.587812695759651185e-02
-2.787383190065968394e-02
-7.757468298720138211e-02
-9.479313444190054505e-02
-7.627193440653955159e-02
-6.239006971602546747e-02
-6.113561314283692816e-02
-5.696393492189275737e-02
-5.386874739739797024e-02
-4.697444290281584112e-02
-2.086248866313023670e-02
1.029105849636366768e-02
2.146519961626532774e-02
7.048114548642101657e-03
-2.855081057307806008e-02
-6.102686051319747979e-02
-5.570408936528271904e-02
-3.284150268970734837e-02
-3.451101954473308198e-02
-2.962580196453616990e-02
-5.334786952936798263e-03
-2.145757635400681596e-02
-6.672115110066156873e-03
1.676672791475303514e-01
3.486512702963062704e-01
3.184738765493304036e-01
1.747584369147275607e-01
7.493812648615985617e-02
-1.502824354079455513e-02
-1.335840753938371261e-01
-2.321301953049227929e-01
-2.663108352205537099e-01
-2.399277586235428750e-01
-1.813276937824265245e-01
-1.059164684813191926e-01
-2.895678345961188657e-02
3.669252776462549048e-02
9.298087999020922256e-02
1.056681482731886279e-01
4.378658202840801650e-02
-2.871296764396526202e-02
-4.346628828758224150e-02
-2.728056170775928699e-02
-1.759595384789777381e-02
3.000424458755516013e-03
5.190119938812789296e-02
1.090329779043044817e-01
1.472699762031482174e-01
1.604615342343560513e-01
1.466685244019838019e-01
1.065865813315064886e-01
6.187786013054787093e-02
1.797071809212776386e-02
-4.683380441419923018e-02
-1.197971295294665839e-01
-1.678798427430920059e-01
-1.908977039863636038e-01
-1.799944648750583798e-01
-1.043591847234464631e-01
1.112172124582224558e-02
9.308797814851453578e-02
1.185185720047457203e-01
1.131496380256483136e-01
7.804918816180991814e-02
1.524765254213937202e-02
-3.907001339873735629e-02
-6.997952162881977689e-02
-7.950899239826896003e-02
-4.134949581615753045e-02
4.131472933499395067e-02
8.582999828479687121e-02
3.578332095635554377e-02
-2.814066633396090575e-02
5.750393536599208988e-03
1.015691347027025404e-01
1.293940583899715890e-01
6.726254690543817527e-02
6.288766760701235831e-03
-2.367228946718956742e-02
-6.172078340597671187e-02
-1.068163232919566719e-01
-1.542622477167019668e-01
-2.026477984427893508e-01
-1.890398543479605009e-01
-1.039196577161925622e-01
-3.577547408783410265e-02
1.120092903134678117e-02
9.085508283241054694e-02
1.518940096586514077e-01
1.378627592913301836e-01
1.040723628994737332e-01
1.098259908370390892e-01
1.259200072766085421e-01
9.667302501966260064e-02
3.308423925213295480e-02
-5.306877538185397064e-03
-9.863939654511613697e-03
-2.144873771235909429e-02
-4.325792643400393211e-02
-4.475111510051744956e-02
-1.734744452379308188e-02
1.139566734556855289e-02
-3.088944465174114223e-03
-6.410947506340829161e-02
-1.249629136474019048e-01
-1.534491182803523202e-01
-1.374485375972557266e-01
-8.033728625574176885e-02
-3.287883539850555009e-02
-2.125849828200195718e-02
1.014248847107385859e-02
7.133627720920165949e-02
9.257729742624755398e-02
7.959353109628200529e-02
9.709747712302492506e-02
1.189359006146672587e-01
8.797281363587797220e-02
3.517877205399965596e-02
-5.543046817153033864e-03
-6.223756216070658320e-02
-1.198831160731832352e-01
-1.360945523374804400e-01
-1.389995188011176608e-01
-1.122105900958145774e-01
1.269889657641401493e-02
1.382885697061101982e-01
1.295901731094287190e-01
6.223109336414144044e-02
2.307009081266310491e-02
-1.110129218967898304e-02
3.577903766904822966e-03
7.956692526014655376e-02
1.058071010239239329e-01
1.033155931474859651e-01
1.826673773127916456e-01
2.605407694352149806e-01
2.353134547637510399e-01
1.899166168216877004e-01
1.610470248006837801e-01
7.621086278894648181e-02
-4.575971201098744112e-02
-1.411154011795172636e-01
-2.222902813439168179e-01
-3.000582514948225699e-01
-3.420231630444415249e-01
-3.432771965468175979e-01
-3.312241655421788722e-01
-3.148823448993080532e-01
-2.886591022096059445e-01
-2.430164639456083575e-01
-1.597257056502893180e-01
-5.821769933087656002e-02
1.155856780042630039e-02
5.732055247530699893e-02
1.056600298663380733e-01
1.193226194570630172e-01
9.801580207987506399e-02
1.233683647869169564e-01
1.955951624998531757e-01
2.346110369871854395e-01
2.499263313886728732e-01
2.850323723743009019e-01
3.014757902820728308e-01
2.753826593261772260e-01
2.321743685637304988e-01
1.718099612481503446e-01
1.103212920385329143e-01
7.292209767810045595e-02
2.006204410261140658e-02
-6.895198920718201285e-02
-1.353766771186398488e-01
-1.492632381349490722e-01
-1.615903723749433085e-01
-2.030492165419688078e-01
-1.972951952482581706e-01
-7.729315857373526832e-02
4.891156110264711920e-02
3.981927144178899064e-02
-6.216142909374272607e-02
-1.593666663369746328e-01
-2.388172138541130585e-01
-2.771370656225183304e-01
-2.612171215108338163e-01
-2.418740991190792278e-01
-2.129580837156692386e-01
-1.270322267212373457e-01
-1.982772920562283353e-02
6.049323345791698253e-02
1.304165543003505956e-01
1.991479934830538978e-01
2.458127961755556257e-01
2.648619543502070406e-01
2.630125242820263165e-01
2.404777202225148458e-01
2.021852299168148959e-01
1.715949340154712399e-01
1.574091829352116945e-01
1.256672112785273687e-01
6.633325340269186077e-02
1.822352815154118510e-02
-8.399587570946498438e-03
-2.771777043034134164e-02
-3.763642819075731227e-02
-5.451282084339709871e-02
-9.818351518966023095e-02
-1.497009080228091371e-01
-1.809619482612217223e-01
-1.746454935835098643e-01
-1.367922978761678399e-01
-1.054625054887165514e-01
-9.126320963799935959e-02
-7.028032488546684386e-02
-5.108783767854188640e-02
-5.167753182110279564e-02
-4.924492531073101920e-02
-2.615800495392872280e-02
-5.072001977855615518e-03
-2.274441454905497262e-03
1.365594109792166166e-03
1.999047136737044580e-02
3.354390908242525782e-02
3.756477518417609962e-02
5.321179201846968493e-02
4.745290180629488375e-02
-9.114297620315368886e-05
1.871666182176571006e-02
1.573492703776298574e-01
2.648023223082788258e-01
2.275083206088938104e-01
1.285367099962672621e-01
4.656667778019421555e-02
-4.898957611049949840e-02
-1.445178711633428592e-01
-1.705110297134776465e-01
-1.533376941017511041e-01
-1.523358278475168692e-01
-1.243948762122607937e-01
-3.946396077513035505e-02
3.037938909687780409e-02
5.504916517549963972e-02
8.555108665698527015e-02
1.136516917117782466e-01
9.168202738897590631e-02
5.624713571511027327e-02
4.988929413012134495e-02
2.515634271835659463e-02
-2.673471870077614998e-02
-1.674570787313385545e-02
5.396898874849961891e-02
6.134176845289560781e-02
-3.569044509371959058e-03
-4.119708437358832187e-02
-6.447220051922698814e-02
-1.118993157865708493e-01
-1.203621261460147279e-01
-8.284737459273394666e-02
-6.962692292401279071e-02
-7.925580877650341416e-02
-8.669114434519276102e-02
-1.111650942950675319e-01
-1.237041056419847240e-01
-6.655336551656211574e-02
2.675319499690385905e-02
9.021270318374731423e-02
1.284758065900792334e-01
1.552794411128798902e-01
1.508260286479430334e-01
1.265302233090287998e-01
1.095942471558245257e-01
8.900358904328053988e-02
5.545089582927772293e-02
1.842057307309614284e-02
-1.116163855826881809e-02
-2.307307710943390378e-02
-4.229063606431023026e-02
-6.060371945301010199e-02
1.500774178141825801e-02
1.490470897835753650e-01
1.669312760885919844e-01
7.280712719571522107e-02
-8.129713511007436236e-03
-8.479499593425032788e-02
-1.738358301093871072e-01
-2.197502970253312204e-01
-2.386225369780562156e-01
-2.496986043460046323e-01
-1.909471316863353418e-01
-6.436567474568587188e-02
3.843339137282667656e-02
8.547219913210876707e-02
1.107339003713709302e-01
1.088680356380760939e-01
6.633924381878478216e-02
5.237481143722264726e-02
1.116292364998105607e-01
1.428310732171686748e-01
8.384876904504248718e-02
3.276484464177521760e-02
2.718126430827442347e-02
5.480098191522311118e-03
-4.339076171993833109e-03
3.076428187290343452e-02
3.258942909446594510e-02
-2.094600136716456493e-02
-4.331377109840751916e-02
-3.839890622293498645e-02
-9.868139426737784770e-02
-1.602367712493425467e-01
-8.598074063666893974e-02
1.877219504200818706e-02
-8.636412533241530354e-03
-6.452401613590932894e-02
-1.279785351159972578e-02
8.073664875520759898e-02
1.239985791652610525e-01
1.252282142590532832e-01
1.177520608222408505e-01
8.973819652693101889e-02
2.361362880878925194e-02
-4.407295180385128325e-02
-6.635597255068741152e-02
-4.129760880292034086e-02
-1.465542739717657326e-02
-3.886783954298247273e-02
-9.153794391481827331e-02
-1.035729374135463676e-01
-5.614107607872551031e-02
3.696649996610748556e-02
1.322598348136298785e-01
1.245409840287952374e-01
-3.552073080287019430e-03
-9.901654090084492654e-02
-1.215464784342788623e-01
-2.109436355658875217e-01
-3.059994260843109659e-01
-2.175887974893893906e-01
-3.962471248065753404e-02
5.081674469601285549e-02
9.371325157330165356e-02
1.424683795775922857e-01
1.502637772747101863e-01
1.104857688178579739e-01
6.110086791265875034e-02
2.883890823992742158e-02
4.600599656519189368e-02
1.087738670202574587e-01
1.592832035238765931e-01
1.883126893229025156e-01
2.278183672961600348e-01
2.534222773297216680e-01
2.385370528709040427e-01
1.937059445670183400e-01
1.250793670074132613e-01
7.150545574440882179e-02
2.834688962925852734e-02
-9.144209046802087570e-02
-2.242547808588590263e-01
-2.401640350057687168e-01
-2.355711942879715193e-01
-3.323376571516569733e-01
-4.553942454504437687e-01
-4.574277376136973716e-01
-2.934995698315137069e-01
-1.419063851897783279e-01
-1.555277188359562857e-01
-1.720732380755146951e-01
-5.397307883812710316e-02
7.582751952151818575e-02
1.393417599234234028e-01
1.774949438209013075e-01
1.997661476002310921e-01
2.098772817827123660e-01
2.092986599901894007e-01
1.830025071659879821e-01
1.441956010342364258e-01
1.031386006537213379e-01
8.399315715808140792e-02
1.530411425111143087e-01
2.703815752834512476e-01
2.833401931319689537e-01
1.632992342720601397e-01
2.146613017776644733e-02
-8.423256888582573987e-02
-1.585686897262078565e-01
-1.915144636374011833e-01
-2.104593810519044261e-01
-2.558183259634684847e-01
-2.396427410085621990e-01
-8.463500179418519120e-02
4.852170763300520107e-02
2.985203305942529459e-02
-1.315914633019950319e-03
3.775805413427504864e-02
4.237643376272513807e-02
-1.740394963867769595e-03
-1.051854230328288717e-02
9.834193123128064790e-03
2.824849672656880653e-03
-2.176857842411961119e-02
-3.677968508627884464e-02
-4.392272101894606484e-02
-1.896985137734877661e-02
3.580258285977940685e-02
4.430686163531842581e-02
1.786511135480494186e-03
-6.727770637635915527e-03
1.394332416570064938e-02
-4.664627838299783072e-03
-3.186486862898806754e-02
-6.997492496251934632e-03
3.119624391681939321e-02
3.693250868419074157e-02
4.208933844518831374e-02
5.613668427249104281e-02
4.623824989140565972e-02
3.936364864297691585e-02
6.222353194270708460e-02
5.594431422918710872e-02
8.012520408047979492e-03
-1.133593708449310428e-02
-2.384361427671864708e-03
-1.226863954790790613e-02
-2.902951689855527359e-02
-3.914326634212171585e-02
-5.730375029545412696e-02
-7.053952449661490820e-02
-6.681378062423934394e-02
-5.743752579935541142e-02
-9.999001483625164638e-03
1.059894038367478197e-01
2.050661035571002544e-01
1.831362884799720148e-01
6.850780943214443419e-02
-5.115605569642340394e-02
-1.426786911916709810e-01
-1.978540223726664715e-01
-2.000446992585846739e-01
-1.582676174065678343e-01
-1.085386346266466462e-01
-6.359299573451916709e-02
-1.039250102525173663e-02
3.950405878615780020e-02
7.346062667020659964e-02
1.208159318647515773e-01
1.689821039356281251e-01
1.403372863735580234e-01
5.058645742213849217e-02
1.245308544583369377e-02
3.672173418049252958e-02
4.308798646506864505e-02
3.271997893914700001e-02
4.258226524613573788e-02
3.441128159351716093e-02
-1.068209477296137161e-02
-3.975849545356568288e-02
-4.360304266312263477e-02
-6.314498497624608520e-02
-1.062774897207754837e-01
-1.565266186819726790e-01
-1.834719017594531876e-01
-1.558872426593196914e-01
-9.670945217083959378e-02
-4.944532921425549843e-02
-1.118699098339041853e-02
3.829303834233732662e-02
9.264761641110171031e-02
1.335786232200908696e-01
1.603569549181883547e-01
1.818219125833483718e-01
1.833309589430661413e-01
1.388042395566226328e-01
6.718573756086826387e-02
2.346681944661894309e-02
1.756665595849754569e-02
1.386848269761268779e-02
-2.740040499697178611e-03
-4.069216737587189048e-02
-1.019424562389585065e-01
-1.178546032460811716e-01
-2.805677912719184777e-02
1.037536174654729026e-01
1.852891309105494932e-01
1.778614090571465078e-01
6.249566027336390245e-02
-1.051094775148616045e-01
-2.210141726965121345e-01
-2.829267816282169390e-01
-3.251752081702418695e-01
-3.047065627339343163e-01
-1.928407653905970520e-01
-3.554161408924901011e-02
5.808603430891817743e-02
1.732283972823361190e-02
-1.098928535237087695e-02
1.040661853120547486e-01
1.979275071431793598e-01
1.668768106320460409e-01
1.340519961851034947e-01
1.112777414277126842e-01
4.757750295053331246e-02
1.508219332698854283e-02
4.342659348446126222e-02
9.060546865516999615e-02
1.406244237274225373e-01
1.454925619338641452e-01
8.502970475392247762e-02
3.105599170788740301e-02
1.548254391966451260e-03
-4.710539365638923698e-02
-1.060343619816675464e-01
-1.545992634198427862e-01
-1.970164413152476202e-01
-2.180845231603859014e-01
-1.817688295425076983e-01
-7.217039538709807411e-02
5.897287566185592522e-02
1.297704104658611579e-01
1.404249628720908305e-01
1.357569652692216244e-01
8.832355446804669719e-02
-5.244527446795045969e-03
-4.350430100732533695e-02
-2.020238908057362531e-02
-4.387442578835892837e-02
-7.534532542212593609e-02
-2.575814917723989739e-02
-8.280291062518716286e-03
-8.403010153467424526e-02
-7.107099499411197174e-02
5.728485099530171432e-02
7.169366784457259500e-02
-3.206898425566770405e-02
-4.451930974470078017e-02
7.696068952609753586e-03
-2.575979731673940648e-02
-9.872168953482249321e-02
-1.157327473803787810e-01
-1.077700030784930207e-01
-1.054164822211536290e-01
-7.160517826935006158e-02
-1.707245629504472104e-02
8.974894776350437683e-03
4.243299966441955312e-02
1.303839147391041842e-01
2.085062070440260873e-01
2.120543877991661885e-01
1.761465539432981176e-01
1.608322614873606560e-01
1.918492673815676286e-01
2.486480213483784896e-01
2.785961620905209601e-01
2.543055758881896389e-01
1.957069007245116066e-01
1.404534863271907630e-01
9.120664050735494133e-02
1.369364754537762824e-02
-7.837553915355854883e-02
-1.403563211931712074e-01
-1.958799436838005170e-01
-2.793662350951725548e-01
-3.738722993946761441e-01
-4.720248481858623224e-01
-5.485398364009319572e-01
-5.361167859797486557e-01
-4.369410690025749555e-01
-3.185915500476544371e-01
-1.997578510118847295e-01
-6.297548652852830164e-02
7.867140654584438286e-02
1.804580013724744747e-01
2.138711553239392993e-01
2.136214716121215274e-01
2.323405759797150250e-01
2.689495269782609110e-01
2.873375931853511811e-01
2.698180086644456077e-01
2.513290490066256155e-01
2.552692933864558200e-01
2.256249152294000360e-01
1.789969634899956363e-01
2.251215545036277244e-01
2.969333943953926247e-01
2.304106203431220412e-01
7.241410492938796239e-02
-5.639350831003238362e-02
-1.607895361887909380e-01
-2.493925635753251879e-01
-2.961800779256055227e-01
-3.029959042597344387e-01
-2.891148443431256210e-01
-2.918540202905249292e-01
-2.719237992382408931e-01
-1.209653949826517416e-01
6.163679865800168745e-02
6.781195737114603661e-02
-2.795926978307546051e-02
-4.116239452872083593e-02
1.158802467032288286e-03
1.615048939470242750e-02
3.735484203076958748e-03
-1.246649905327004357e-02
5.096565720194779631e-03
4.906973161338176737e-02
6.208984708943764835e-02
5.412857954327950083e-02
7.183501180772422501e-02
1.016530518869160071e-01
1.119105974917475876e-01
1.076562866100289895e-01
9.845898873737579660e-02
6.894702965908255932e-02
2.186760521281205794e-02
-1.013783649776037882e-02
-2.465215004602995530e-02
-3.345880759922963132e-02
-1.603590925530510441e-02
2.797871027708394298e-02
6.068562841647676814e-02
6.657474207599660410e-02
4.649868511633781232e-02
-1.423861257820820472e-03
-4.441269661877457475e-02
-5.436970861967822810e-02
-6.483595751830213694e-02
-8.736230949411936952e-02
-8.158258516819490158e-02
-6.001436930510333639e-02
-6.879185396495221538e-02
-1.006907288485338753e-01
-1.242292470338261234e-01
-9.666305867638570748e-02
2.417716046974959648e-02
1.731343861683721230e-01
2.187392718465860919e-01
1.475727392077844924e-01
3.943733232812199341e-02
-6.133836224609945376e-02
-1.294885485143240644e-01
-1.456187421648467428e-01
-1.309093099992328091e-01
-1.143236609591940650e-01
-9.487312858267810123e-02
-6.055400597192333451e-02
-8.047111480962633456e-03
5.672170269846689428e-02
1.072816931239414517e-01
1.238392863124138377e-01
1.339994991720849793e-01
1.445678125821269755e-01
1.146103823871034988e-01
6.402540502099955677e-02
4.979814435877942536e-02
4.642199274412402155e-02
1.228785740827892381e-02
-1.404198241330978890e-02
-4.362635710411844059e-03
-7.559262280447013455e-03
-4.179649500566093995e-02
-5.179778863295109170e-02
-3.127484520318111333e-02
-4.276152614989617295e-02
-9.263431295976796986e-02
-1.166116522444130554e-01
-8.693911328820534690e-02
-4.882772142786742653e-02
-2.812814875366798084e-02
1.875301702656775871e-02
9.082482361041964436e-02
1.149466246082984505e-01
9.136969307128831042e-02
7.853525216277570942e-02
6.257311253757556757e-02
1.433232427441501894e-02
-2.850418471069109810e-02
-3.964840894442676900e-02
-4.664037091750598135e-02
-5.278684783906089500e-02
-2.020666298304261629e-02
4.298208745535922470e-02
6.743108808900104278e-02
2.699331172333989393e-02
-1.753353124344684405e-02
-1.417110724442372655e-02
8.862772971173637701e-03
1.932436393799618832e-03
-3.945376401463391441e-02
-9.459035646863522828e-02
-1.434370347199323548e-01
-1.552175929889826056e-01
-1.151232720056256376e-01
-7.246339391884545900e-02
-7.194084497553678015e-02
-6.129761332946936231e-02
-1.956567660339529613e-02
-2.890428660592402749e-02
-3.140331812584319648e-02
1.117999963891908866e-01
2.559838031218835686e-01
2.146745181432912764e-01
1.268581295707172651e-01
1.318202245421413177e-01
1.446719360385174402e-01
9.634951865470613164e-02
2.126274934072261771e-02
-2.074589053472513517e-02
-9.297206469365808940e-03
7.656216946881986424e-03
1.166239088634865237e-02
3.437652967442889063e-02
4.205565526175487900e-02
-4.824639198029461243e-03
-8.088369702312454834e-02
-1.907402105453282759e-01
-2.678055600884787779e-01
-1.776678027195663923e-01
-3.542401409255514777e-02
-1.674584983684173842e-02
-3.725356562157126905e-02
-3.379541135552095038e-02
-1.815529754298057796e-02
7.094935554150769152e-02
1.611267191012756561e-01
1.282955197491499610e-01
3.966020326275818131e-02
-1.114244950864978247e-02
-2.374058623231247236e-02
-5.490336726088087399e-03
2.031153392215345743e-02
1.927162452468103582e-02
7.164383761559841093e-03
-4.108316150626263076e-03
-1.458042939183885889e-02
4.809601626052869422e-02
1.729242181797671085e-01
1.840004946538014996e-01
6.726525765824689640e-02
-1.437184268238510254e-02
-5.847254217477235172e-02
-1.245929370419030791e-01
-1.580358357607997977e-01
-1.486202843889693481e-01
-1.373023411427836682e-01
-1.203314870099036482e-01
-9.186790467612937494e-02
-4.172285368587003163e-02
2.364389611090178880e-02
5.746918315041581182e-02
6.411226826690910596e-02
7.918120625191409079e-02
9.175063424263844858e-02
9.858912680449878618e-02
9.915073807833797714e-02
5.648089243460859693e-02
-1.145613836281633192e-02
-3.349855060038495896e-02
-1.865224434451696889e-02
-2.303300565141371686e-02
-2.794910462178380739e-02
-8.219437654047728747e-04
1.211278837945748907e-02
-2.412237701517868163e-02
-6.269481299228296667e-02
-7.460207440537838797e-02
-9.504162269508741046e-02
-1.402446335721383164e-01
-1.782683311612646981e-01
-1.684227504632764827e-01
-8.639824406983373506e-02
4.129469277968988994e-02
1.456361943548223348e-01
1.962662917233826687e-01
1.992296126547779267e-01
1.560796871180534229e-01
1.080170472303799284e-01
8.876244228560786764e-02
4.789642857003630072e-02
-3.050392151155308790e-02
-8.040826994490266055e-02
-9.630558663498724192e-02
-1.131465027902009424e-01
-8.362651761163697461e-02
4.968213200412183173e-02
2.541690798061787548e-01
4.362126861138457268e-01
4.953097956138782787e-01
4.141974513690501181e-01
2.908060824459460791e-01
1.830356018743956037e-01
5.008086631078018103e-02
-1.105827824423495226e-01
-2.642781058281234996e-01
-4.107361742433473517e-01
-5.186262736086761915e-01
-5.444320686049486380e-01
-5.199884443045579285e-01
-4.756104591003380011e-01
-3.881566943464863084e-01
-2.686523754260249364e-01
-1.660042818510972795e-01
-9.099746585294027357e-02
-2.322809726505227490e-02
3.986156271282365049e-02
9.687693277132672365e-02
1.555171411521179825e-01
1.944015819209225227e-01
1.968108207807761634e-01
1.992379452412843532e-01
2.278816585623866242e-01
2.724208281767839801e-01
3.191750437378586547e-01
3.313905819000690922e-01
2.791246381366735974e-01
2.038311285932416228e-01
1.511540287664683846e-01
9.963377200789688692e-02
3.903720868164171909e-02
-3.377918219632652930e-03
-3.488975627245341493e-02
-5.352939702689121781e-02
-2.202454262436483873e-02
1.944267948070074054e-02
-8.436998823490263200e-03
-7.061818646669210109e-02
-9.306523633568232479e-02
-1.063614814147814114e-01
-1.593408494109655182e-01
-2.101142023007038506e-01
-2.124777129242417517e-01
-2.014931688306502156e-01
-2.090171267361951302e-01
-1.948597736286236393e-01
-1.469304508192683933e-01
-1.141711452760292567e-01
-6.416200121429754821e-02
7.365114763759103567e-02
2.066909483055833774e-01
1.994168890297199903e-01
9.968043541935425744e-02
2.171512758655015987e-02
-1.723066894341736613e-02
-4.831887620287680929e-02
-7.072762931171963641e-02
-4.422188790577599726e-02
3.352309661654851586e-02
9.032926830078988334e-02
8.726547955901479969e-02
9.360121652821469518e-02
1.825064490390558292e-01
2.484982876109086136e-01
1.325452793498358428e-01
-1.873260692894304635e-02
2.474052043440345267e-02
1.291628979994689785e-01
1.047803186728787778e-01
2.952906691566360708e-02
-1.118992737953182492e-02
-2.812088088322006740e-02
-4.398656762563459000e-02
-1.077443201565306263e-01
-1.637811444238636283e-01
-8.765367487412191461e-02
6.168328695753531876e-03
-6.422238933304530439e-02
-1.826049985428026268e-01
-1.819601395263054089e-01
-1.263060483399525979e-01
-1.151721758975906562e-01
-1.201548447070376474e-01
-8.428620549413354257e-02
-2.232692753678995959e-02
3.141427072470649035e-02
7.772934763007163794e-02
1.054324528239038161e-01
9.516851532940938385e-02
6.748204697374501904e-02
5.183222924479770344e-02
4.694705957924797529e-02
4.353169824696354745e-02
4.101120098236149536e-02
3.826760049031002059e-02
4.777580089183035977e-02
7.177649888497975028e-02
6.438481061759966650e-02
2.272156515967418966e-02
4.003872886737010195e-02
1.453110570555821712e-01
2.185055366061653959e-01
1.665521545351741906e-01
5.097355765968603764e-02
-3.625766218276293973e-02
-1.042258120386303916e-01
-1.907126854776477476e-01
-2.577119319209474346e-01
-2.516745225246049822e-01
-1.956795785612343297e-01
-1.333721242801951812e-01
-5.559382538398730672e-02
2.978133988892129810e-02
6.498529713900691451e-02
4.850486333285947138e-02
3.882869518037758427e-02
4.969953448481082697e-02
5.109793592771612325e-02
2.843245019247587352e-02
7.313529720527414679e-04
-1.066018947117867597e-03
2.130222229000771489e-02
4.407280967479779155e-02
5.839049969576462495e-02
5.788121307321281162e-02
4.332620685430162849e-02
3.460615961736863977e-02
3.781863683772165863e-02
3.659214370454336174e-02
1.504625206167310540e-02
-3.015671829331192932e-02
-7.852870586662777375e-02
-1.010548556838264805e-01
-9.908513795578545447e-02
-7.013769261391157583e-02
1.518329584801064551e-02
8.146924538101862900e-02
1.303705281145343606e-02
-5.979422618161275849e-02
2.198740427098754002e-02
9.837467334702719446e-02
3.432354849500591359e-02
-3.557716429148651688e-02
-3.462576901183538058e-02
-2.548417641402300413e-02
-1.671860772865515696e-02
6.754356084544716268e-03
1.016045435879840697e-02
3.278477514972658394e-03
6.325752628192853055e-02
1.734771864022761345e-01
1.950468850260184683e-01
8.656502631401317982e-02
-2.626301109906513040e-02
-6.467968463416165492e-02
-8.409130211401517896e-02
-1.218969554598930416e-01
-1.424940365239119322e-01
-1.293035949089953174e-01
-1.035146349947343170e-01
-6.779045875749234451e-02
-1.580603796029021388e-02
2.503397951416917039e-02
4.075693682501796422e-02
6.082019128556566401e-02
8.179503638906518437e-02
7.342312653677598999e-02
5.768513350095140491e-02
6.489346889267352814e-02
7.058570856903445545e-02
4.833149103245853312e-02
8.267974808766946626e-03
-3.384200278463142531e-02
-5.176404143386593992e-02
-1.990029022797239894e-02
1.885270029877400902e-02
1.079424701487549307e-02
-1.687067457051847491e-02
-4.694940987506879271e-02
-1.014746477712816231e-01
-1.670052399845828872e-01
-2.266977729453890644e-01
-2.160731471587370445e-01
-7.696536468411599441e-02
2.714536589470069317e-02
1.111531837903197845e-02
9.908527217046500524e-02
2.688333200850760996e-01
2.530176135206389509e-01
1.526110349134326416e-01
1.506905711866859676e-01
1.093803139504277572e-01
-2.325385629574054647e-02
-1.009862754779038280e-01
-1.137258573599528033e-01
-1.344399878021175776e-01
-1.402667902847787029e-01
-1.080970946218100803e-01
-8.019471258727603469e-02
-4.527376293818666242e-02
7.305931059318244991e-02
2.261766573956231763e-01
2.557341508098565641e-01
1.379915500079471613e-01
-1.598882834363873212e-02
-8.745766541317703813e-02
-1.191260665805921742e-02
9.281229268283044953e-02
6.151143748744976325e-02
-3.249677753909994971e-02
-4.050919961803972624e-02
1.714752085504334458e-02
6.006949918736216587e-02
7.399409474376993090e-02
7.925752460423242385e-02
6.745789079150829592e-02
1.391642563562926066e-02
-5.304791726333955848e-02
-8.254421151797772249e-02
-9.329074371287893186e-02
-1.403431275205804241e-01
-2.058305664435604032e-01
-2.273153037832073009e-01
-2.124608018310832902e-01
-1.957246582439528815e-01
-1.572673502577138227e-01
-9.680313838428508677e-02
-5.564625843448053194e-02
-3.327120527159358604e-02
8.899124262856245027e-04
4.176167280304012019e-02
6.035486406575971824e-02
6.424914342911557108e-02
9.461797227897897344e-02
1.487898366347817081e-01
1.782498731901438760e-01
1.762169623986092615e-01
1.898788947214185285e-01
2.325985657449278765e-01
2.485855106928855918e-01
2.055670616372729798e-01
1.475281267131940410e-01
1.018938420152143975e-01
4.277587539337716210e-02
-2.886583047499027138e-02
-8.577039872552189026e-02
-1.252535815124597440e-01
-1.494283248868866765e-01
-1.658579741545793129e-01
-1.837629277835053088e-01
-1.546110983494028979e-01
-4.178502475106196656e-02
6.315227720294183666e-02
6.393580580994744078e-02
-4.715379796252222588e-03
-8.845603586019254450e-02
-1.747106447020126407e-01
-2.240312060056225962e-01
-2.223038999677953986e-01
-2.231986748884610683e-01
-2.271454502210039084e-01
-1.556781548940913418e-01
-1.757789631369939196e-02
8.061844379139845862e-02
1.221702735861750072e-01
1.723674019347170572e-01
2.316711942060116491e-01
2.589381830221892944e-01
2.475596356362279038e-01
2.137002364489132555e-01
1.789690361468317392e-01
1.577815335842735478e-01
1.396142031406735207e-01
1.116657393853839331e-01
8.091415810769449213e-02
6.007248184530440682e-02
4.898419633725334399e-02
1.690033647909364167e-02
-4.108650094269478137e-02
-6.820033861613683523e-02
-1.058801209725206693e-01
-2.446859709685235418e-01
-3.444715777802513923e-01
-2.652821230869677471e-01
-1.680973169631878039e-01
-1.649822359846784270e-01
-1.413600287767954600e-01
-5.326579441328900544e-02
3.250015072924797299e-02
7.412875637724310185e-02
6.352505006760096606e-02
3.793130726401570951e-02
4.706926441110548254e-02
6.972290218981636034e-02
4.997891559049870425e-02
1.077824958307345773e-02
2.636033232247397828e-02
7.516411410920664782e-02
7.316560255904212828e-02
2.916081926698441129e-02
-5.323387294956389779e-03
-1.350783482073464152e-02
4.697649079073076134e-02
1.664391697863861486e-01
2.206852089415175799e-01
1.538842061667417827e-01
3.495174125463907516e-02
-7.397418859082102727e-02
-1.414218488617275116e-01
-1.572514064139313439e-01
-1.532886498395810149e-01
-1.510877453863137820e-01
-1.278189377524333037e-01
-8.289631912513281686e-02
-5.175812195789731424e-02
-2.269888084025301761e-02
3.956696693367516698e-02
1.017221668088137965e-01
1.275858516160137124e-01
1.510390636284559829e-01
1.755607328830578739e-01
1.437342761870578356e-01
6.211508122721491609e-02
-4.741224162060636224e-03
-5.249844942774961609e-02
-9.466345119371530337e-02
-8.797940470738588314e-02
-2.869454463244739198e-02
7.685203122943315944e-03
-8.739733427933753934e-03
-3.239998042090739411e-02
-4.399287066930938905e-02
-5.883158198095807950e-02
-6.183591356374683323e-02
-4.235375615774167324e-02
-4.117275541021579027e-02
-8.391025565286718002e-02
-1.201919770249135905e-01
-8.030871047575825761e-02
2.362849383806043396e-02
1.031177798599520329e-01
1.098250046651039480e-01
7.725200011901511843e-02
4.234216812432278765e-02
1.146556839762746284e-02
9.882028187027215929e-04
2.219068892654990979e-02
3.940961317735897085e-02
3.178506350048719564e-02
1.955827261002076461e-02
-1.996499663716190531e-02
-5.505165374837921177e-02
5.760243986630127211e-02
2.462585490693844914e-01
2.427655059769733281e-01
7.144639635401235644e-02
-3.419838986374799938e-02
-5.711975524375401819e-02
-1.003242788829723786e-01
-1.538761822226661913e-01
-1.727776164281420446e-01
-1.753428134598171706e-01
-1.770525909931116304e-01
-1.414110867367530111e-01
-5.966288678530211331e-02
1.165622410117803445e-02
3.988988291987544815e-02
5.421901740370303757e-02
7.401191419352659562e-02
8.252952166703660108e-02
7.546488518783923960e-02
6.296323407831813657e-02
4.888393598966622733e-02
4.729584225334258069e-02
6.870767363678191575e-02
9.905157503148101505e-02
1.104905190766688611e-01
7.985909476593022749e-02
3.213900547421809362e-02
1.139699847879676459e-02
-5.467222635027139260e-03
-5.250821208873136803e-02
-1.021420716273559737e-01
-1.293322725734751266e-01
-1.457093764331954255e-01
-1.668889477113368047e-01
-1.810730646017337520e-01
-1.351329065482848035e-01
-1.563317602903108172e-02
1.001522956306457324e-01
1.615309581042191633e-01
1.913187173988409873e-01
1.886392902196274979e-01
1.320220443534961263e-01
5.008677432934144358e-02
-7.104757433541761258e-03
-2.737229272960262430e-02
-3.312369284022162463e-02
-4.006987153344543362e-02
-4.345197078287574982e-02
-5.214337960045461323e-02
-7.151522217484443389e-02
-3.706742440675802469e-02
9.123368616616350790e-02
1.987439191385408366e-01
1.739474453409933508e-01
3.696608584432724276e-02
-1.688021999192712563e-01
-3.292295726992602312e-01
-3.013666178527249495e-01
-1.874360070317337146e-01
-1.636436824671480550e-01
-1.613612716317231743e-01
-7.894313238253464204e-02
1.724597487543597790e-02
6.744854462565663678e-02
9.728952639252208545e-02
1.078109598171898414e-01
7.447307637284916737e-02
3.181258346360365391e-02
4.518230690006517364e-02
9.962688007554568181e-02
1.073626731963637781e-01
6.105145419695540837e-02
6.413616420135456742e-02
1.553273794382910578e-01
2.570560424026464563e-01
3.128918711644095296e-01
3.209967768552388079e-01
2.944813502686052242e-01
2.630639828552668869e-01
2.203099572218149282e-01
1.312052152394705407e-01
1.197447066205976213e-02
-1.287918711788943738e-01
-3.054174698679888444e-01
-4.393772989370526294e-01
-4.529757536783847738e-01
-4.176747580551358752e-01
-3.975957652248415242e-01
-3.393642480465923206e-01
-2.398089748421259881e-01
-1.722687234220292574e-01
-1.355940047727773323e-01
-8.735230262885228247e-02
-3.404200290788651773e-02
1.648008163621025868e-02
6.056573722600162857e-02
8.504162540835799589e-02
1.098727501965707926e-01
1.332639906538983787e-01
1.131537243972113027e-01
1.055984564256212677e-01
2.344872013078322104e-01
4.453297981896406355e-01
4.840883046943688650e-01
2.602365077276871386e-01
3.695643947512768090e-02
5.120215032993549742e-03
-1.209808708646925579e-03
-9.395749147575807592e-02
-1.416918776369425481e-01
-1.110712094770522351e-01
-1.039888622181146249e-01
