7.559716891512310855e-02
6.078293628578035346e-02
2.125939040703331631e-02
-7.232481359120745967e-02
-1.282703482859851307e-01
-4.394557535224734302e-02
3.618379460747947474e-02
-4.375326906637910795e-02
-1.527388503755235383e-01
-1.284755787442531105e-01
-1.319288342609592490e-02
8.966036805023117062e-02
1.303725570814624202e-01
1.071772872835985990e-01
5.543900353565460459e-02
8.472195802199277564e-03
-2.598787337103757727e-02
-4.917602785854147118e-02
-5.433621064668743561e-02
-3.473436020138799540e-02
-1.170194714459957437e-02
-1.238225368628921401e-02
-1.498673241426418286e-02
1.404074513153728658e-02
3.754134137204148680e-02
7.425566780468819544e-03
-1.477486946714799167e-02
3.313270014047264844e-02
6.978602728296152968e-02
3.376831450643496407e-02
-1.278558157526800756e-02
-4.131325143037453684e-02
-6.047781886259953610e-02
-4.413872976086059136e-02
-1.369532135715553246e-02
-1.239766075049863331e-02
-5.724384654421833460e-03
4.037834266647680886e-02
8.900252723041851555e-02
1.118662329829137325e-01
1.191549270431570551e-01
1.012677243995529219e-01
3.707393790743269968e-02
-6.244205198344478930e-02
-1.596996661761068137e-01
-1.974183141470433056e-01
-1.408489596983007464e-01
-4.304353544661793790e-02
2.076363018221123735e-02
3.741851706553506185e-02
1.936996471934258890e-02
-8.518835123902061129e-04
2.129729580465725830e-02
5.725084094474315599e-02
5.752769644501237734e-02
5.358246959367467255e-02
5.695702172374022404e-02
2.618480544793972201e-02
-9.003723968111965528e-03
-2.812427889813181106e-02
-6.949452266136271761e-02
-4.867158261756895227e-02
8.833627411017239139e-02
1.235475870960572320e-01
-6.033472933771605318e-02
-2.267145076110179680e-01
-2.062618212091398007e-01
-8.614372837460215759e-02
4.341372803373626243e-02
1.349861494660509476e-01
1.413163531043500343e-01
1.026462099789361287e-01
9.167452952016166834e-02
8.846288969802090785e-02
4.815685515959824969e-02
-6.858042820555803817e-03
-5.046089427999826682e-02
-8.591713977976667138e-02
-8.791247043787485393e-02
-4.036382795508718091e-02
-6.332823752907224858e-03
-3.539064537018646317e-02
-6.055048117551947023e-02
-1.993709390253600722e-02
1.909339034460796544e-02
-5.408758218638979806e-03
-3.603489694618304540e-02
-1.696685618761744480e-02
2.449026605471097892e-02
5.825437797080201124e-02
7.385530933493701655e-02
4.494097881880218526e-02
-8.409271280674862972e-04
1.502740078102516620e-02
6.152883514269434639e-02
4.088240096368590121e-02
-5.278445338318890796e-03
1.205088146292155118e-02
2.909344641235696305e-02
-2.915685962678489854e-02
-9.324141405786735837e-02
-1.059989422275744025e-01
-1.059812860239461724e-01
-9.550114604077382385e-02
-3.664017261182802437e-02
3.912459052107292168e-02
7.051542170143482169e-02
6.404353192047290699e-02
6.072484298547783932e-02
6.641463827613428017e-02
6.902765352124295983e-02
7.657401420555975946e-02
8.583913046706079242e-02
5.004756260099994108e-02
-4.058329003585994105e-02
-1.098270867763798120e-01
-1.253858795242577817e-01
-1.183737694356936238e-01
-4.113028149636034636e-02
1.036404444861939861e-01
1.259016293351259697e-01
-3.897095625180283657e-02
-1.791573333163280768e-01
-1.466288744045634584e-01
-1.328624484771919086e-02
1.140476242040857346e-01
1.836797546927466107e-01
1.749419007809026316e-01
1.187438971273250682e-01
5.864911571406362240e-02
-1.575640613436513418e-02
-8.799686342695801911e-02
-9.686748649709195358e-02
-6.941110297398686568e-02
-4.311437963294692532e-02
2.961145234490475397e-02
5.928699812884043879e-02
-9.168486465328856694e-02
-2.187776742028975097e-01
-1.110561861589103305e-01
2.401610441665215367e-02
2.081111882321633189e-02
-5.804388281480721279e-03
-9.240670905504885790e-03
-1.499078626731277335e-02
-3.759517862966178098e-03
3.875406488880460062e-03
-1.483147651397018207e-02
-1.426986741343315782e-02
4.322479924727076761e-02
1.139442410061884264e-01
1.350894346234016719e-01
6.580437903925399901e-02
-1.051611906764918225e-01
-1.933085380333705583e-01
2.073155929587823521e-02
2.927539025030407860e-01
2.367276062052091901e-01
-1.532863631268182453e-03
-1.016649263528001390e-01
-7.662180302093937745e-02
-2.175846931500973955e-02
5.605217285745285605e-02
1.131034886893664826e-01
1.044460529339274329e-01
4.508625498126611619e-02
-2.492623604826571526e-02
-7.301620436878825116e-02
-1.044998693192036171e-01
-1.332412709011424057e-01
-1.312724645710703908e-01
-8.752638126421043163e-02
-3.819514747368867036e-02
-1.436822497169915405e-03
1.814501726465488421e-02
1.382414956912787415e-02
8.560815696837843769e-03
2.122938423283361048e-02
3.118739408060264978e-02
1.194912237041781400e-02
-2.877021457756112621e-02
-4.620931009003521883e-02
-1.369892057626563749e-02
2.590274631358769827e-02
1.186096285373199229e-02
-3.208667205254962101e-02
-2.704222089182993158e-02
3.206861204054933800e-02
8.311727582954048232e-02
8.569174878759606984e-02
3.945943508026798774e-02
-7.023743147564757983e-03
-7.457098614433885393e-03
-3.602080405644744049e-04
-1.501159329469768655e-02
-3.706920380274729074e-03
2.696744527845131717e-02
2.113392578859726867e-02
-2.860003112874592770e-03
-8.635924204824787023e-03
-9.719618222639104382e-03
-1.263170568129469255e-02
-1.124008884004421005e-02
-2.259487298455965798e-02
-3.669793980715731901e-02
-4.597509841584412893e-03
5.166949123689742324e-02
5.430411661155317565e-02
-1.836707657455246417e-03
-8.472752922796035480e-02
-1.481416535965536241e-01
-8.852674055212579607e-02
7.429536148875348633e-02
1.398958079825684264e-01
3.609313978011679386e-02
-8.515516697574979088e-02
-9.389542846429903278e-02
-1.274548922368469103e-02
7.019670212784677454e-02
1.153093432595805184e-01
1.336163058545321858e-01
1.131996657285446739e-01
3.915271705358251003e-02
-3.603844423648176754e-02
-6.353771520114098736e-02
-7.152442844642965813e-02
-7.803596845387766878e-02
-6.432489446562220103e-02
-5.046283192750308788e-02
-5.064271798885369713e-02
-2.919441183836124498e-02
1.641818946951199062e-03
-3.178588564072279757e-03
-4.886690648145154692e-03
3.467175073448023476e-02
5.985765247250647569e-02
4.180521254586849755e-02
1.274753493145201928e-02
-2.214166373570252214e-02
-4.311088095287693434e-02
-8.511896637841652458e-03
4.438227306216221968e-02
5.803794009274322596e-02
5.491862407056830736e-02
5.440198156573251842e-02
2.912745112132864717e-02
-5.108581154898577531e-03
-6.040422713142708233e-03
3.799074743092687584e-03
-1.816838582762202864e-02
-6.271807763905233590e-02
-9.896068703193863780e-02
-9.493344885910953712e-02
-4.518367568310333732e-02
-6.883516836861338153e-03
-5.899948237332712855e-03
6.558120189939420711e-03
4.057703954628363863e-02
6.748863014367444124e-02
8.061732437798743711e-02
6.074345733088871990e-02
1.452144813788977355e-02
4.943706152259468023e-03
3.026533919697720759e-02
3.732145782817948565e-02
4.431460378776704706e-02
3.634207651011831658e-02
-3.759074937964420465e-02
-5.724001611109324344e-02
3.367004641183719837e-02
6.294425831397841391e-03
-1.654163318022427720e-01
-2.061694515091396784e-01
-1.031906701429654016e-01
-4.368810828828845194e-02
-1.458588035632949267e-02
6.433275707558429313e-02
1.561529794271085125e-01
1.954468352273166509e-01
1.698339286210595878e-01
1.131738803940288834e-01
4.982874088914256150e-02
-3.641772895173231439e-02
-1.494130586123448845e-01
-2.295682330557897999e-01
-2.102889261798884801e-01
-1.128379832271363681e-01
-2.186171867111614403e-02
1.349391802069997010e-02
1.193242357946030716e-02
2.427928516252207680e-02
6.300924460256895898e-02
6.537710797477175317e-02
-5.741385819977719296e-03
-4.195396542864376910e-02
5.137128674158748798e-02
1.368203391617097142e-01
8.077911044482803671e-02
-2.786614555274330614e-03
3.694453342381626842e-03
6.362723960609613372e-02
1.124602897676772323e-01
1.141694772316171336e-01
8.381442737995312142e-02
5.726945521460434507e-02
1.199527675495711682e-02
-6.991524302066640106e-02
-1.381700229068428265e-01
-1.490895948268966265e-01
-1.168248558572988066e-01
-8.307199414876080545e-02
-6.651397793550352378e-02
-4.870581392844301749e-02
-1.639976234935858201e-02
2.644397098607631155e-02
7.428417948787890968e-02
1.011921903204356793e-01
7.810622205213653413e-02
2.260913793082231990e-02
-2.474907092588181021e-02
-5.420355491040278195e-02
-6.077258151773082262e-02
-3.104038332991297319e-02
-1.350376207704886283e-02
-4.371197334730492212e-02
-2.020139344105516613e-02
8.261407733443608403e-02
8.238781215967688754e-02
-6.589113352242211008e-02
-1.673374000988061827e-01
-1.287478233087442359e-01
-1.785062594578790129e-02
9.809687123396312880e-02
1.604587815675789786e-01
1.552461254479863828e-01
1.229654112149133477e-01
6.597208421436653869e-02
-1.112064851846713588e-02
-4.840976063788008515e-02
-3.419108380692913174e-02
-3.426443421360002295e-02
-6.751443921490311861e-02
-7.499385385713161489e-02
-5.116777562147211550e-02
-4.745114696692856460e-02
-2.484287226425619180e-02
6.036728751130028547e-02
1.017074515137493668e-01
3.555624400196130686e-02
-2.251069880780638341e-02
-7.281878751809476094e-03
9.796150407480963898e-03
-4.021638469110923840e-03
-1.360286943552080005e-02
-1.576693355024198946e-03
3.009401510704726515e-02
6.576028584948627465e-02
8.008360365938946290e-02
9.094980728585941310e-02
1.168625861850473152e-01
5.996657013729066871e-02
-1.352610266507234538e-01
-2.610849788020348505e-01
-1.620375369091618944e-01
-3.121224861306493709e-02
-3.443581559822377763e-02
-7.015139044749049702e-02
-4.832764195913898109e-02
3.727476585817443566e-03
5.775654060101519105e-02
9.041148380284362573e-02
7.110669863041606253e-02
1.341113533333717495e-02
-3.081888142818679788e-02
-3.858003648537136621e-02
-5.481918648823835491e-04
8.047177682024699019e-02
1.202827808497438922e-01
6.770625119302108030e-02
1.329740384216396374e-03
-4.181022676069857946e-02
-6.493321827300388427e-02
-5.717748705664747050e-03
7.906554179573678509e-02
4.277987245781243036e-02
-6.855247237514483505e-02
-1.329642697180124233e-01
-1.196425117587402442e-01
-5.820674671561427635e-03
1.109741755672179198e-01
7.391153716771889370e-02
6.241155231892610983e-03
5.509692759696328129e-02
6.747953673718505574e-02
-1.740529778081818107e-02
-4.931663248729029753e-02
-3.447110774889750040e-02
-6.243677975812927244e-02
-6.779444263812159366e-02
3.171725413739763175e-03
3.992860090029930198e-02
-1.346246341716512626e-02
-2.932988460407074532e-02
3.916146781001005744e-02
6.948155392756126536e-02
2.756449740841645374e-02
-4.609723630737826150e-03
-3.204045782885341608e-03
-8.837633319873567858e-03
-4.076344142368391876e-02
-6.086302100288906725e-02
-3.041703458372253810e-02
2.343835483015675389e-02
6.096487703818692649e-02
8.768381256519572342e-02
1.041523573128829289e-01
7.164690526287569028e-02
-1.365870726875218454e-02
-8.392015806026043023e-02
-9.576025535184216897e-02
-7.645294496328206013e-02
-5.374340231147022723e-02
-2.397644208803035443e-02
9.109542326996216549e-03
1.534708957154827871e-02
-8.947359169075116969e-03
-1.629979320692345746e-02
4.043407721000542854e-03
1.387539971713003598e-02
2.032007557924417340e-02
3.742906241582199395e-02
3.956631340737214175e-02
4.857058591949839355e-02
8.519067856095648150e-02
8.010997862063132247e-02
1.232643777241786837e-02
-5.302563654246992414e-02
-1.019961607870395193e-01
-1.085538721217666758e-01
-1.515866933563297936e-02
7.043559563195023188e-02
-6.469817218731035990e-03
-1.525493768220932689e-01
-1.714253829195336865e-01
-4.584689829971132918e-02
1.020436321176261263e-01
1.662854743606899666e-01
1.379835004690760647e-01
8.860312203891207439e-02
5.424682620628746427e-02
7.180060856984674458e-03
-4.584287383924442322e-02
-5.854018897530234578e-02
-3.529548465017245951e-02
-3.125296739318120243e-02
-5.765293121006278415e-02
-5.854077675758658644e-02
-2.649451191419711221e-02
-2.747948503096576262e-02
-4.288384877126252132e-02
5.715364045583621634e-03
6.579974736659838230e-02
4.877021919509337555e-02
4.933099834393371921e-03
-1.672969699244181499e-03
4.866883542275095287e-03
1.093940966865034406e-02
2.252376246703273119e-02
1.517515570013481391e-02
-1.418714219530459175e-02
-1.610739777422217495e-02
4.071735856887078592e-02
1.013564174766376086e-01
9.852566715392156727e-02
5.848572986087578751e-02
1.360963454959338362e-02
-5.949598075045851864e-02
-1.236207895025920322e-01
-1.168857115871724250e-01
-7.191455391077210269e-02
-2.965890891487048611e-02
1.669530909106714880e-02
5.177851522860933003e-02
5.497553856419902518e-02
3.528808245752023537e-02
4.331690805697015201e-03
-2.784219417062405721e-02
-4.431625896108674911e-02
-2.695372302955602664e-02
2.252390445106493971e-02
5.874164239813667310e-02
4.946782880145377675e-02
3.319663897950170944e-02
1.594948484608424075e-02
-4.833342473088368674e-02
-8.297653056292621232e-02
6.309353729834417043e-03
7.776905915491739985e-02
-2.635235789571574103e-02
-1.858162092137359278e-01
-2.072243092754882943e-01
-8.885328665650787938e-02
4.915943822926106127e-02
1.287289368030105352e-01
1.505654242759260630e-01
1.396351511769212128e-01
8.806772390400967321e-02
-1.339820217794105220e-02
-6.776278180618452995e-02
1.186257868671153348e-02
7.970822132097940549e-02
2.390986085863033156e-03
-7.511654245051654910e-02
-3.579237787271406096e-02
1.899038497026484668e-02
3.108198827009344203e-05
-4.665094187630962341e-02
-2.938424462836210227e-02
4.514788785893126405e-02
6.882568372441459637e-02
8.997989168958503078e-03
-5.416338970022357285e-02
-6.103296843710724617e-02
-2.521520987161640290e-02
7.148688705802304019e-03
1.370497081816819673e-02
8.103008122499057858e-03
1.423787845346783602e-03
1.365476262895772182e-02
6.488443007840298538e-02
1.033706648775766790e-01
7.122860818133004701e-02
3.809753121407683310e-03
-5.205958916476886161e-02
-9.325881437561552023e-02
-1.066265823157975523e-01
-8.740754859977699354e-02
-5.948289181184387292e-02
-2.440051356876198757e-02
1.818384017921746004e-02
2.991942774591866208e-02
8.154337559366960086e-03
1.142260854585885541e-03
1.352799101733994074e-03
-1.954331096700476569e-02
-1.179339312504184244e-02
3.280637570539750303e-02
1.489658496146213131e-02
-3.649839331107447571e-02
3.812968351345680240e-02
1.438992818073002444e-01
5.812357895054643536e-02
-5.400825859382994004e-02
4.601713217683996854e-02
1.343229323440784939e-01
-7.720247904241514525e-03
-1.621033172900147035e-01
-1.353200507033600342e-01
-3.409749700234668973e-02
3.148383134699560271e-02
7.408815709055112386e-02
1.005710152009696989e-01
1.193635967332320191e-01
1.651027557116433175e-01
1.471834232955643862e-01
-3.813584927919580481e-02
-2.095849112112092016e-01
-1.888155748758625352e-01
-1.203100544747969514e-01
-1.081053342150170293e-01
-6.695372383542251560e-02
-9.670815153483888066e-03
3.383254192101035202e-03
3.018882117640028090e-02
1.135831656116460392e-01
1.354792245008631102e-01
-1.759128170411753539e-02
-1.931608609300404233e-01
-1.790611927349442800e-01
-5.198678887590914982e-02
2.451142514844974196e-02
6.497080307097186092e-02
1.136860857124008944e-01
1.235624108686322609e-01
7.194361802707524567e-02
3.913157469422827439e-02
7.929628737974013519e-02
1.053303464226580527e-01
3.923446751375579689e-02
-4.824315902852847893e-02
-7.509732839455803000e-02
-6.830053454841394922e-02
-6.473437434441839389e-02
-4.141912851009293961e-02
-4.502798097208945451e-03
8.543015752636006627e-05
-5.336243081426664953e-03
1.580206367008227947e-02
2.284713735196366655e-02
1.418593559954358166e-02
3.730374855171757903e-02
4.144459086044922219e-02
-3.410250258205096280e-03
1.976366803488458640e-02
6.347398119050082221e-02
-9.010674547383228095e-02
-2.578813413599479465e-01
-1.093643389550836564e-01
1.018537173741309032e-01
7.980112845904974161e-02
6.175312129697007463e-02
1.420388924002935482e-01
6.883870857527334131e-02
-1.355273455543184735e-01
-2.105321415766881199e-01
-1.111577648471587521e-01
1.936189040678017517e-02
9.805345208028082293e-02
1.284343294948691594e-01
1.108423213639921634e-01
5.431769275536195429e-02
1.249347557028862576e-02
6.967984308664779483e-03
-1.146835982325366751e-02
-5.886348292884135275e-02
-7.825536352932049855e-02
-3.818530975019231166e-02
1.157430361272018121e-02
6.896008931691273089e-03
-2.700666652643862048e-02
-1.203717764744924659e-02
2.794443786115764772e-02
7.629467256121720206e-03
-5.003169667387598329e-02
-5.933631146401585621e-02
-5.349715254239776480e-03
5.649089706333217109e-02
7.456409496637123047e-02
6.326880662170343561e-02
5.764857619708266268e-02
4.371385156131932931e-02
1.748590619980362054e-02
-1.484145147588570787e-03
-3.083529468392951639e-02
-6.540384766793180815e-02
-6.280414779867156405e-02
-4.500920932711875017e-02
-4.963242428255038724e-02
-5.409410241072514641e-02
-5.805257565101825529e-02
-6.549953856387284723e-02
-2.061716378538633668e-02
6.698862148188541865e-02
1.068770074933883124e-01
8.629739901291652582e-02
6.147948840093710177e-02
5.084198209830419202e-02
2.056834644670045564e-02
-3.526540427464845695e-02
-3.366226074762622422e-02
5.678191616344881870e-02
1.067208499119472881e-01
3.397980448467997211e-02
-5.785527251398968340e-02
-9.678669877526921428e-02
-1.366979136144668983e-01
-1.336864941317238431e-01
-1.491488691446296935e-03
1.112839767579892059e-01
4.005247323489827260e-02
-8.789245461512300295e-02
-1.060937373203467426e-01
-3.598970374209158052e-02
5.276704291516610967e-02
1.109677871297748697e-01
1.069725289374380828e-01
7.842481272156898164e-02
6.975658119737086771e-02
5.476317481230622702e-02
1.132051029951230796e-02
-3.193354191164204936e-02
-6.614168836658657069e-02
-9.518974762743645512e-02
-8.260880099777395680e-02
-3.438419979201513821e-02
-2.442711658668153887e-02
-4.898096728347711010e-02
-3.383659387209908553e-02
1.584086991095885397e-02
4.974190079046737767e-02
7.006053754359913011e-02
7.859471144010408972e-02
5.068779989837277067e-02
1.508060524253743151e-02
2.049488292074377188e-02
2.696079934789663568e-02
-1.767719959046396005e-02
-5.598634080736992341e-02
-2.361873241114842079e-02
2.658991910084120003e-02
2.645411443660782014e-02
3.058745648718818981e-03
-3.141674480864851092e-03
-1.037240099090232411e-02
-3.810012848939182961e-02
-6.929521552338362145e-02
-7.298266900156769044e-02
-4.136670532172391501e-02
-3.998272185683347801e-03
1.780519883297222022e-02
2.471586517480152748e-02
9.496658528048707026e-03
-1.656930221348335008e-02
-1.514811395101674230e-02
2.024929740321065180e-02
4.586763027332823456e-02
3.810997691797535225e-02
4.462715853521209003e-02
8.125268067749970291e-02
7.199472986133070851e-02
1.085171378231394000e-02
-2.805581496213127232e-02
-5.330536380492492676e-02
-6.179395628362643889e-02
2.466592280436897752e-03
5.477771391294146419e-02
-1.553697709709112376e-02
-1.361438274654137026e-01
-1.844553938540484384e-01
-1.187838905840346848e-01
9.826346907233539721e-03
9.484490971545006532e-02
1.193817204348713024e-01
1.365168728840439327e-01
1.250591584329844019e-01
6.470185432273667381e-02
4.619686711765737946e-03
-4.211680775632184459e-02
-9.273720034992542771e-02
-1.159079961283929622e-01
-8.838561209337883473e-02
-3.883386546831728292e-02
4.037912185718463449e-03
1.420482146246271858e-02
-1.322360032150084706e-02
-5.251762762772395690e-03
7.649483869674914005e-02
1.349077060286371921e-01
9.726844956860200564e-02
2.104950187576067749e-02
-2.051668556067074572e-02
-1.963635302899763291e-02
-1.521228860240562281e-03
1.335819567605118011e-02
4.127407506539953683e-03
-2.390871281043565125e-02
-1.656046047875410834e-02
2.691991882117987164e-02
3.583794114172823841e-02
1.731728348997470593e-02
2.459975520300118970e-02
1.213854638030159236e-02
-6.775546827790973614e-02
-1.408892073114363375e-01
-1.233826293019806702e-01
-4.274528596608102859e-02
7.576151216131062419e-03
-3.475008018634047346e-03
-1.111659789582172993e-02
1.338149014453994881e-02
2.266040247314374603e-02
1.069832095901364528e-02
4.124729324967937698e-03
-2.166889558565217484e-03
9.003643379370391414e-03
5.757609340580944340e-02
8.661472700715930340e-02
4.519396635290625491e-02
-3.692732353669255646e-02
-9.563903843928750481e-02
-4.885616340261254853e-02
9.322554553216745588e-02
1.530915951988267576e-01
3.631994900011852045e-02
-1.266119763402782372e-01
-1.868633053053503634e-01
-1.188771861643233840e-01
-2.048705389099724286e-03
6.405618505341525992e-02
7.349336990378904644e-02
7.629570829234687268e-02
7.781661339260728671e-02
5.711677500499801052e-02
2.651710047742192409e-03
-3.027605744201538468e-02
3.553339083173683022e-02
8.711597026198980576e-02
-1.930217362409474696e-02
-1.364494757897382060e-01
-1.014502312024286729e-01
-2.170865997956479901e-02
1.064080353728599770e-02
6.148828709959318350e-02
1.210081758989348666e-01
9.826140058465859806e-02
1.312945949780416031e-02
-4.458240408819203610e-02
-4.883394863384418749e-02
-3.304767045475738574e-02
-2.356585671383845323e-02
-5.915778134065343037e-03
1.944680882012132100e-02
3.124971844471137461e-02
5.812893041548702205e-02
6.522859995358495921e-02
-5.186092931985088889e-02
-1.810921951524975537e-01
-1.401711785768079421e-01
-3.833055226572891494e-02
-7.631287960072556664e-03
2.210731918479395819e-02
5.210543134552442224e-02
2.734551953258902365e-02
1.405860831285629491e-02
3.722842732661495180e-02
1.628518742568593053e-02
-4.788845099013615270e-02
-7.394401686826450326e-02
-4.009941415133156523e-02
1.798640351101435386e-02
6.048633704553199597e-02
6.758118613005373310e-02
8.108716005515261005e-02
1.229596302490611470e-01
7.364477052399323598e-02
-1.155717976920512813e-01
-2.354144872657353560e-01
-1.399284127691928226e-01
5.592340869156738059e-02
1.617426336767394945e-01
3.901520052215833728e-02
-1.765254979083158982e-01
-1.502182471702463162e-01
5.968949927705188147e-02
1.345439734173415891e-01
1.060107827155712668e-01
1.318326599494055729e-01
1.487817876886599888e-01
8.729666415560324855e-02
-9.412580469782626247e-03
-7.535008281322186363e-02
-8.643728295287207708e-02
-7.952735839298542830e-02
-7.087386448611364409e-02
-4.366972514061137622e-02
-2.131403280504036782e-02
-2.067740732596527742e-02
-1.338397658230582737e-02
1.545998307146782998e-02
3.825466983544474620e-02
1.406379880104106049e-02
-4.243196010243206057e-02
-6.520690281597897597e-02
-2.965475632359770852e-02
2.875876830613325469e-02
5.610746322357338528e-02
3.564738143544748938e-02
1.778687913789688685e-02
3.467065164320155823e-02
5.118085119457382176e-02
4.575478640162294192e-02
4.008338370966105235e-02
4.338796946836007834e-02
3.035529389123928223e-02
-1.742657067284472672e-02
-7.480699873428581226e-02
-1.071638848362229945e-01
-1.097929699711576168e-01
-8.758797199062652583e-02
-4.186883650100699239e-02
1.536720689464420204e-02
5.942170532960630580e-02
6.484906423827194177e-02
3.872773486225045136e-02
2.147387717877970170e-02
1.730113788987078585e-02
-7.256202129027531506e-03
-3.185596230474555673e-02
5.805707298680881472e-03
7.901369406904527881e-02
6.763967265118557559e-02
-4.270103478623343829e-02
-1.157969244739113501e-01
-1.060204698584999716e-01
-7.482194297916754111e-02
3.367239135453938600e-03
8.712413655487313835e-02
2.712345866864973587e-03
-1.521677313804637166e-01
-9.129659918551139008e-02
9.364579330079821073e-02
1.278269587228984538e-01
7.798032474174865225e-02
1.056890926867725122e-01
1.349973785551052408e-01
8.931682694037465509e-02
3.667776457150684344e-02
1.096938524090389569e-02
-2.458960605973816924e-02
-6.285727275465230468e-02
-6.575334044077639495e-02
-4.340575147150954605e-02
-4.399350236595638008e-02
-8.191648644344516617e-02
-9.088401102756446526e-02
-2.422293817499774835e-02
2.735178638250313973e-02
2.546092360698644363e-03
-5.206131857431657919e-03
2.807626631914387702e-02
1.665245303333735827e-02
-1.903945550594080688e-02
-1.914692331307603010e-02
-1.698494688619649889e-02
-1.832311121657091355e-02
1.719296366760792241e-02
5.772744119589789946e-02
6.589419055936192315e-02
7.668324979803871344e-02
9.280890462477754677e-02
6.611760262750648875e-02
6.756610939104811843e-03
-4.425770860801548495e-02
-8.700433695988991911e-02
-1.114758733321741108e-01
-1.002086830415519353e-01
-8.029976820271918225e-02
-6.399015339899315202e-02
-3.517064790379591244e-02
-7.160022059003609551e-03
1.807770130301972200e-02
5.867810046867168172e-02
8.476811594336254585e-02
6.344942336115701187e-02
4.572834076196981290e-02
1.036724962023420904e-01
1.831272944155795113e-01
1.488458566000804284e-01
4.317547730978004393e-03
-1.323702645254740129e-01
-2.037773593685363593e-01
-1.735972752663979823e-01
-5.189806065987902228e-02
1.531607929410359545e-02
-3.979794819851757703e-02
-1.102152048759492409e-01
-1.333919602409951166e-01
-9.643591441707827228e-02
1.181849683102087489e-02
1.022025679283904420e-01
1.606179632212695885e-01
2.778432454880342406e-01
3.141863945589970508e-01
1.322212777294030084e-01
-5.188973369500339550e-02
-9.676378748703151622e-02
-1.258523661104283820e-01
-1.506070671771271297e-01
-1.011458774264861193e-01
-3.612532075742432708e-02
-1.959291086155678235e-02
-2.314447935287788222e-02
-2.452826709605548765e-03
3.034786191755490734e-02
2.604725706841876792e-02
-6.126821489946159341e-03
-1.261786470607702271e-02
6.042072001694984325e-04
5.701371930035455116e-04
-7.235175828907695894e-03
-1.309575560909727147e-02
-1.716769429753959783e-02
-1.210607798271940219e-02
1.136113317436005313e-02
4.901978492594522702e-02
6.858898476152171242e-02
5.649797145602158954e-02
5.660342739063287804e-02
7.032669988117788706e-02
3.236154655326335672e-02
-4.036162383267971610e-02
-6.589117563671167965e-02
-5.318234368115163507e-02
-5.501528368349571652e-02
-5.533533819363020689e-02
-2.734656035656214679e-02
1.049036244207324654e-03
1.110159339355702712e-04
-1.419581243901898299e-02
-1.682335102060954213e-02
-1.914671256061189000e-02
-2.699486938083838980e-02
-3.499601132589264408e-03
4.648225116825700082e-02
6.148041876150329987e-02
3.977122113102606049e-02
7.892840299573388591e-03
-5.436945929176191517e-02
-8.706963505068014697e-02
7.299851090147689223e-03
1.098477464631040651e-01
4.896018490809572743e-02
-7.911609186854283438e-02
-1.023822880351082515e-01
-2.803262387368185213e-02
6.529887420185068181e-02
1.268888351767037959e-01
1.288450756251709461e-01
8.824382425386606554e-02
4.203760764778684961e-02
5.455125028966919046e-03
-3.201061001910142367e-02
-7.919179175336275855e-02
-1.001714648724666701e-01
-7.591180036631003936e-02
-6.219836247315675692e-02
-6.778844414808980756e-02
-3.624680173738740324e-02
3.287901045613688365e-03
-2.963230702651911339e-03
-4.180714348958778845e-03
3.541895858960339427e-02
6.164037661890721387e-02
4.008209834488849627e-02
-1.548891289003691274e-02
-6.918978931478972361e-02
-6.409706655604302528e-02
5.615320315774347676e-03
5.674811393627296474e-02
3.691394734631634617e-02
1.322294194605835860e-02
3.867935638939516002e-02
4.948943035529038137e-02
2.511226286122935150e-02
4.093885712248267889e-02
7.614909702310396211e-02
4.280873620136784602e-02
-2.754141862014322997e-02
-6.671253991762965407e-02
-7.839413155058221061e-02
-4.794104132626057779e-02
2.986272577479340273e-02
6.536793050213639267e-02
1.400266241941389503e-02
-4.001505586489764732e-02
-3.366705041244835717e-02
2.508443741888788207e-03
2.336731837340094015e-02
3.154890298886142697e-02
4.651114450633566516e-02
3.629204367327509145e-02
-1.842390539470226130e-02
-6.594366241447154053e-02
-9.027905982659834017e-02
-9.286563377081767656e-02
-2.596987632714004360e-02
5.926717826256534122e-02
3.326627633563322695e-02
-7.928599986528293841e-02
-1.434894219275798521e-01
-1.072737492126445008e-01
-1.223657327767077412e-02
8.688884649487721434e-02
1.653623927248103476e-01
1.921944790564838745e-01
1.377152816683737679e-01
6.235479304767772846e-02
2.472514090046765145e-02
-2.066610651407341237e-02
-7.407343697822234285e-02
-7.642057565504775662e-02
-6.396425860330692825e-02
-8.102333844327759549e-02
-7.081293325169062125e-02
-1.950716981649351991e-02
1.048335908845253461e-03
-5.036820544744967029e-03
1.440110945776141779e-02
2.773136721916141106e-02
-7.360113376308763389e-03
-7.367252782476924056e-02
-9.869196455468967621e-02
-6.974145300003235098e-03
1.066705052057559250e-01
9.943277088182270185e-02
5.095993999467231944e-02
6.516023516688820849e-02
8.694161454301305159e-02
7.450113759000565050e-02
4.756614811700390216e-02
4.040608442014969118e-03
-7.144534145532549507e-02
-1.297694466534309587e-01
-8.311551099549407962e-02
-9.824253475764797156e-03
-6.909831425630814927e-02
-1.352413934268801854e-01
-1.219889537635975019e-02
1.276810396109180068e-01
9.406283790220965058e-02
3.303207191830748179e-02
4.798565740540250424e-02
5.050416361801421394e-02
3.154627399234534446e-02
3.778603010471547063e-02
5.028505727358856953e-02
3.748410138666023739e-02
-1.045691930009180412e-02
-6.566093473839011707e-02
-9.610686287330109934e-02
-1.199216154750480101e-01
-1.026201510575466824e-01
1.433318801921497875e-02
8.986214831246040757e-02
-3.001847653119035439e-02
-1.814073314830225436e-01
-1.499152188487115067e-01
-9.752076419048483560e-03
7.921926605736948068e-02
1.120418103378118535e-01
1.332805467151214063e-01
1.195003063198722543e-01
6.521217757667578663e-02
2.787305679771006836e-02
2.049900190918670789e-02
-5.822052307876119867e-03
-5.567437524677198296e-02
-7.259871874765075339e-02
-4.917599166138113265e-02
-6.631185026292284179e-02
-1.063780195595708244e-01
-2.872709625224456956e-02
1.024493359345701321e-01
9.002150632727982937e-02
1.002705736384737478e-03
-2.079925830598565450e-03
3.856857209510881901e-02
4.443361988422886433e-02
2.786174518800494174e-02
3.149476229010243506e-03
-1.643126731490170828e-02
-1.097479129850712637e-02
3.537595862431901217e-03
1.158630030992905541e-02
3.198236340129929911e-02
6.442955900488393783e-02
6.952277055904095004e-02
2.407628146467009900e-02
-5.300193784556344462e-02
-1.286421835720278628e-01
-1.610241204521856428e-01
-1.188347450253068455e-01
-3.519578619639594091e-02
3.255586711127540778e-02
6.958076653220421348e-02
6.984985259011050607e-02
3.153603480649634638e-02
-6.621736819831923297e-03
-9.183040910695685483e-03
9.800312806632554413e-03
2.599254341325505160e-02
7.118443946718049087e-02
1.622876146931746255e-01
1.446073845933218971e-01
-8.384617935610604034e-02
-2.747917423177300700e-01
-2.367909001120540036e-01
-1.289204330775195473e-01
-3.307572208263132030e-02
8.376441431092686296e-02
1.000166203016242539e-01
-4.262501317199518525e-03
-5.144459695071634114e-02
1.966295307296509268e-03
6.299538364341783492e-02
1.083781907462724042e-01
1.434022433602474833e-01
1.396505761454955030e-01
9.426451549509173855e-02
3.344675656000951208e-02
-2.535234187582302220e-02
-5.900510501897132665e-02
-4.795831892370609056e-02
-2.849154874682116589e-02
-3.899904837368252386e-02
-4.480890535064904756e-02
-3.601523364304285574e-02
-5.469537856618683636e-02
-6.331485456295668501e-02
-1.985423468240084602e-02
4.594202589184278110e-03
-1.975913162466842038e-02
-2.779061237478642685e-02
-3.780524373743773727e-03
2.400075117949777848e-02
3.829965556430826867e-02
2.421547452281580526e-02
5.031493458261230775e-03
1.364415267492360452e-02
3.457363005341620305e-02
4.973287354028341906e-02
5.134000463361100552e-02
3.276153775584701722e-02
2.275816385695654531e-02
2.910339539529484959e-02
7.342992739419122727e-03
-4.253154893957464266e-02
-7.764556605923744748e-02
-8.421528657023713560e-02
-5.953906147562698647e-02
-1.456612264510171936e-02
8.729606480383655595e-03
-4.765761794492803446e-03
-2.201142300080173239e-02
-1.704127272113122038e-02
-1.249067085667271253e-02
-3.112931036892265663e-02
-2.797331746170151397e-03
1.120084005195918220e-01
1.615878275264562569e-01
6.927823620660726600e-02
-2.234673167533725302e-02
-8.443615612455937502e-02
-1.527958194063903374e-01
-9.630054191975523370e-02
5.909964286822269597e-02
7.474812105754387315e-02
-4.666297448046047985e-02
-1.030217817437734801e-01
-4.517737796165739728e-02
5.061475178223395072e-02
1.276924205613572394e-01
1.533523978027360180e-01
1.210508850513438983e-01
6.413044374926743507e-02
1.795624577171240840e-02
-1.423748605363609268e-02
-3.807218309542291512e-02
-5.130284858600761555e-02
-5.418132040893708368e-02
-4.991907930520384645e-02
-4.292716111512975830e-02
-2.853060283535130762e-02
-1.190930206701664926e-02
-2.554745709124036507e-02
-5.224070994056256856e-02
-3.182132748888236856e-02
1.216794393452379913e-02
1.081788962712951566e-02
-2.927363974727036078e-02
-4.631312318919832832e-02
-7.402590990159467997e-03
3.902757226622479564e-02
2.407173418611635585e-02
-2.147542441167353544e-02
-1.720948704940338317e-02
3.271761025248200866e-02
6.965020352997093600e-02
7.843584402489497953e-02
7.446529506059423875e-02
4.707749507209214868e-02
-1.255414721842088542e-02
-6.122650956729371041e-02
-6.328107346672544320e-02
-4.641001097795244279e-02
-3.193581014310745148e-02
-9.090954235759562962e-03
4.730307514726877008e-03
-6.835990886626351452e-03
-5.994821141016314948e-03
2.391282620386417715e-02
3.017330820990987358e-02
4.116820240361716843e-03
1.770803159679643773e-02
7.412439666600763311e-02
8.337211143456785267e-02
3.165110148615073865e-02
-1.213535567969100185e-02
-5.694402656739899760e-02
-1.203055161011001850e-01
-9.334778477210108061e-02
3.197695802272428750e-02
5.868708089163353347e-02
-4.996293951689211033e-02
-1.170625454091209078e-01
-8.930409291882898670e-02
-1.344335019068638309e-02
1.072604584232195735e-01
2.062505833891765117e-01
1.928950875597912062e-01
1.015496736082600049e-01
1.021482456891172237e-02
-4.362608810737085563e-02
-2.847615914493392339e-02
-1.405909928086281416e-02
-1.225712925768615846e-01
-2.361291505174786809e-01
-1.734651102846061499e-01
-4.354576433057828766e-02
1.145502486176315157e-02
3.232292394545528691e-02
6.223373322870998092e-02
1.114749597399773973e-01
1.554754461278715083e-01
1.075964836634089872e-01
-2.763278986116155314e-02
-1.309037201312022447e-01
-1.484978655142242532e-01
-1.168995464481413227e-01
-5.084562933178198019e-02
5.299852534391218811e-02
1.396476977832839250e-01
1.364427320827397150e-01
7.081543536194026545e-02
3.468136646872438389e-02
3.959359165003044356e-02
3.366983478099835891e-02
7.877681978760457324e-03
-1.683859741660331810e-02
-3.717689891335798635e-02
-4.987341936951993071e-02
-4.520609696681097273e-02
-4.320663271605696548e-02
-4.321561739773253918e-02
1.410265126721798636e-02
6.287741589154657862e-02
-3.489977291667856196e-02
-1.425489082176621958e-01
-7.104536378484449521e-02
5.516098291831687123e-02
9.819181856866815439e-02
8.439252767218613505e-02
2.899619991878025008e-02
-3.450948127869189752e-02
-7.575395622881099522e-02
-9.880433303424751568e-02
-2.284735624764330786e-02
1.421468970985667324e-01
1.714380259199892731e-01
9.849069871766209794e-03
-1.231852832691171240e-01
-1.259022341938617895e-01
-7.187083119816162213e-02
4.214275925442273127e-03
8.250672328391571442e-02
1.358115972799279203e-01
1.786161472205444745e-01
1.462130920487255126e-01
-3.492330613686287638e-02
-1.902770650415234743e-01
-1.509150751521591283e-01
-6.501738193428070745e-02
-6.136368918164641223e-02
-4.371474775697500870e-02
1.905389157220576876e-02
3.330003565309418156e-02
-3.571576314515111789e-03
-2.208032935409767403e-03
3.965253887869173849e-02
4.205807003906595481e-02
-5.642476997336925287e-03
-4.594282257370321809e-02
-4.677864461305322741e-02
-1.942984928091807950e-02
1.108707207910965796e-02
3.051408704247988296e-02
3.056733251543876720e-02
1.896739382027548201e-02
3.684038953933180260e-02
9.113708222844447981e-02
1.069861980584743827e-01
4.511048113272956434e-02
-1.621345551742354313e-02
-2.698083167620335746e-02
-4.647357249677723512e-02
-8.376173416679048855e-02
-7.459571995773600639e-02
-3.679422892579468918e-02
-2.346983068544593320e-02
-8.773309151015023372e-03
2.637153156884749702e-02
4.050262846492166946e-02
2.527425670980505343e-02
2.117668493090528806e-02
3.798359698888795211e-02
5.342836909931733547e-02
6.588778854694504750e-02
6.881920576077273088e-02
2.850747970353424351e-02
-4.456166305150889573e-02
-1.095200033590918581e-01
-1.606579305238972077e-01
-1.467817705094685288e-01
-2.189130447693803799e-02
7.021420595480949711e-02
-5.991719286541595524e-04
-9.921142193095222606e-02
-8.186667046826917593e-02
4.561191534583793061e-03
1.004227365564794028e-01
1.767491891505087453e-01
1.629481762933650268e-01
6.523254891266783151e-02
-2.763444830418127374e-03
-1.712426997117380209e-02
-5.157244955366850625e-02
-8.198032679027890401e-02
-4.031233253109230141e-02
1.868654128040186935e-02
2.817997499182470916e-02
1.652267957236202428e-02
-6.932805611877609561e-03
-4.580812373884558808e-02
-3.764781583847741364e-02
2.195425183957856394e-02
4.599923648103544649e-02
1.353931566622049339e-02
-2.595270226649369627e-02
-3.591105880977626258e-02
-1.081941908943548358e-02
3.327554549915693206e-03
-2.464402705215536227e-02
-3.910383990158858986e-02
-4.405594017678027968e-03
2.524374691665831269e-02
1.843971177736195011e-02
1.847768081864164733e-02
4.250500387291189508e-02
3.970542042922970555e-02
-1.288962076779646623e-02
-6.229231657357181540e-02
-6.534238242369669325e-02
-4.193317045153976963e-02
-1.854173839835791121e-02
5.958952304134044337e-03
3.346069642718912940e-02
5.446896597630647430e-02
5.075435780237894101e-02
2.255818624911919840e-02
1.399492501668769817e-02
3.385132859168137748e-02
3.668735598682038024e-02
4.334021282659009100e-02
7.830721953588563877e-02
6.918079509660218784e-02
-5.082567032208457763e-03
-9.146192475811451561e-02
-1.648397170555492841e-01
-1.560598091920634423e-01
-3.435679402080157874e-02
4.164565664151910485e-02
-2.645222808432604739e-02
-9.529974397954502074e-02
-5.961668159534383449e-02
1.535096044851182867e-02
8.915711947007465277e-02
1.533283619337409698e-01
1.465711218643396263e-01
8.341460379255660751e-02
5.564736930380802249e-02
4.675946883883156519e-02
-1.421684389364072376e-02
-9.298690998862108037e-02
-1.181515168967184060e-01
-9.270063952013724018e-02
-5.680869305659749097e-02
-2.586828433566526128e-02
-5.867733444283944680e-03
-9.445691148430824038e-03
-2.163546821951895655e-02
-7.282917582230720964e-03
2.559496021802498689e-02
3.641277144764460544e-02
3.136216967404643896e-02
4.519669169769777173e-02
5.344990941272871610e-02
1.785237211931685331e-02
-1.944334870759896472e-02
-1.533574927751544560e-02
-9.921578784904794279e-03
-2.201327613515662029e-02
-4.531064710854876276e-03
4.008141932546700759e-02
5.439210799674739499e-02
2.586091129868763050e-02
-6.883798193036697738e-03
-1.579945908824345949e-02
-1.390851462941335333e-02
-2.175155030906544135e-02
-3.328007016588166445e-02
-4.240738104617074178e-02
-5.080839306740338179e-02
-4.498826068630604191e-02
-2.142917849634351848e-02
3.565001805761208557e-03
2.413363656330373697e-02
3.493132001754564731e-02
4.085542514369192718e-02
6.752410113902773681e-02
9.074038209622180273e-02
6.612761507170761277e-02
3.238043772452159352e-02
9.956155292935628398e-03
-6.228356760442978202e-02
-1.257017636664594373e-01
-5.667862118804307958e-02
3.011443574256224276e-02
-2.896632461665697017e-02
-1.299283078266749714e-01
-1.411480694910727252e-01
-9.548190016705239425e-02
-1.245948482475666905e-02
1.068025357340084275e-01
1.805724398015950416e-01
1.621686146610956392e-01
1.058182120873700505e-01
4.682468951801790208e-02
-1.596547059145020375e-02
-4.750785337612145609e-02
-3.510850070484990842e-02
-2.954576517142368935e-02
-4.903720725861840379e-02
-4.866858807925010522e-02
-1.622710179572092043e-02
-7.957300952849898426e-03
-3.989596427109760174e-02
-3.385995114122419825e-02
3.848471400436755119e-02
8.369096063782066608e-02
5.817250943631597365e-02
2.966867439550954083e-02
1.667167920431121206e-02
-1.207169332948042524e-02
-3.219009363726566680e-02
-3.611613996512631763e-02
-5.447427702100500480e-02
-6.344695520799290001e-02
-3.119480897792803464e-02
2.609211720406095711e-02
8.316626270877197635e-02
1.036488422999414794e-01
6.269479608183829711e-02
-1.936530952078541548e-03
-4.011989924043641437e-02
-5.042239318039816454e-02
-5.795052477793909834e-02
-7.889499916856509976e-02
-9.221572077724207728e-02
-5.582389732743389676e-02
5.588492931181316542e-03
2.557658335575316300e-02
1.782569035435294796e-02
2.735494376179613274e-02
5.374424287651460852e-02
1.049721908594099806e-01
1.425573706354573145e-01
7.103030735997835354e-02
-4.882948564059932939e-02
-7.585369766249649981e-02
-6.602917694990176334e-02
-7.618611639105818401e-02
9.997462310410907410e-03
1.432673886267442076e-01
1.006841058482736279e-01
-8.617804168101135531e-02
-1.819956779307691785e-01
-1.243584111949650323e-01
-1.647678320176024919e-02
7.904870657890872288e-02
1.386754387127251964e-01
1.323406994480100796e-01
7.481051097186391940e-02
9.142001980832589053e-03
-2.396304782562538177e-02
1.039142725227652428e-02
2.614821395497615025e-02
-1.019432913465153356e-01
-2.374389559631534530e-01
-1.762159916692816186e-01
-3.524066051113344117e-02
4.272633888341634267e-04
-1.005656309291510023e-02
2.642881291703795890e-02
7.947705419657206949e-02
1.102668785860091566e-01
9.861767192511139424e-02
2.189117303885051297e-02
-6.738149854972004527e-02
-7.982093015050287232e-02
-3.309055301568578078e-02
-3.877127016925269523e-03
1.130301423806465491e-02
5.840106881883373041e-02
1.026216621996165201e-01
7.529607521823143690e-02
4.545528732166254776e-02
1.073311367151499190e-01
1.308957309568709593e-01
3.505241488411373063e-03
-1.127004632432566239e-01
-1.093530381476779528e-01
-9.073544809444206161e-02
-1.026432265464308491e-01
-9.542694499411233378e-02
-5.653686944788876428e-02
2.479913555864634092e-03
5.644865185257309792e-02
6.076499994565346535e-02
2.910259319094654629e-02
2.804391356309644118e-02
6.063446988513038205e-02
6.899884088974729546e-02
2.796935113758550542e-02
-2.584122169412641362e-02
-5.463820964182679318e-02
-8.054267897951310207e-02
-8.392520649168375146e-02
1.836400154891225378e-02
1.290967164794677990e-01
5.246326978184667755e-02
-1.182718284433241923e-01
-1.553191492691165521e-01
-7.589073836629293968e-02
4.191075054124037552e-03
7.866209093212768455e-02
1.383876013435897112e-01
1.301007321777210290e-01
6.021552060337513612e-02
-9.555991738606398056e-03
-4.375287805868534330e-02
-3.758136319259709757e-02
-1.150295967353737528e-02
-2.055749001751688149e-02
-5.518435733894953843e-02
-3.399356822527899169e-02
9.161811681762940113e-03
-1.793272299015068877e-02
-4.444653011197342157e-02
1.247219732974838916e-02
5.704516104169726765e-02
1.796706376998490062e-02
-3.221998278757329248e-02
-4.641790913159458964e-02
-4.160072257426552372e-02
-1.722520376748370996e-02
2.148527451976511154e-02
4.798849961675448472e-02
5.342131858100526709e-02
4.718649925614059465e-02
4.202604980267863471e-02
4.722564347609981700e-02
6.052179646961642484e-02
6.582863985163603382e-02
3.684634947974450847e-02
-2.186224374318688699e-02
-6.048193447505137432e-02
-6.556672689271585142e-02
-6.993210326761717388e-02
-6.976833007270796805e-02
-4.032979779127224274e-02
5.119038987043582518e-03
2.768797791833529226e-02
1.614568864092552972e-02
8.349542255214951331e-03
1.848292175327682918e-02
1.585257141738703052e-02
1.102083173118279837e-02
1.829428420872280039e-02
-5.473732048153613292e-03
-4.701229836302001780e-02
-4.533087107170830077e-02
-5.050872568672089280e-02
-1.004038751330325469e-01
-8.576764993113117352e-02
-1.060373557028228969e-05
4.216202742224114952e-02
5.605599286946305604e-02
4.255818604012477635e-02
-3.465164116829966973e-02
-3.541856577862712019e-02
8.258367815652065125e-02
1.497225935352619886e-01
1.320867364190406179e-01
9.169766558480924035e-02
2.736875461546280086e-02
-2.422764040039367128e-02
-4.059780265632752932e-02
-6.537022595486485788e-02
-9.010194061316781355e-02
-7.323279959655119853e-02
-2.704695607592103729e-02
4.448948379466621632e-03
-6.785374756553375769e-03
-3.636419269461844267e-02
-3.925200672899416265e-02
-3.141310720826500508e-02
-4.019735579720125351e-02
-2.998618411489165428e-02
1.201135549756238846e-02
3.433278802313205480e-02
2.323043889381293942e-02
2.630232873663276849e-02
6.112486802669235553e-02
8.879740774307939843e-02
8.447815280895208667e-02
6.545657573084538716e-02
5.109733239215196593e-02
4.356511697175433073e-02
3.175404856919958330e-02
2.258524308181929230e-03
-3.976421143446159934e-02
-7.307373114975321271e-02
-8.180786338882657660e-02
-7.238168208350434507e-02
-6.479425635862280652e-02
-5.135997414104304798e-02
-1.711461378520150525e-02
4.873800022494098778e-03
-3.180655217712560767e-03
-4.122017723382165322e-03
-2.968171868573445289e-03
-3.340376416874428489e-02
-4.560848103569544593e-02
2.545410790591659880e-02
1.146148557943943019e-01
1.058843462696272691e-01
2.054823286605961252e-02
-4.580929120549170203e-02
-8.202391323870550366e-02
-8.224185062366222432e-02
-9.613472020791945932e-03
6.530146373748531297e-02
3.244902052059073227e-02
-6.765196105889520473e-02
-9.696965298377382969e-02
-1.593534162010272828e-02
8.054594347063004367e-02
1.190483447206478473e-01
1.221256144585107367e-01
1.125650390980281745e-01
7.872030733789693591e-02
1.717288622763741071e-02
-5.648277658233939735e-02
-9.939690985721608141e-02
-8.292946713442034268e-02
-5.035377309991929951e-02
-4.673131849537918991e-02
-3.965661724358861273e-02
-2.633185141941559761e-03
9.012057694872507158e-03
-3.270775862451356236e-02
-4.992447531432184227e-02
6.525949443719252820e-03
5.779856307522306808e-02
3.001015264737479440e-02
-2.207587049594950460e-02
-2.881063829591775510e-02
-1.871595338334969272e-02
-1.422822941494041558e-02
1.371843540586722456e-02
4.602112503266520688e-02
5.211259395064032907e-02
5.588171722908080730e-02
6.203338034724269895e-02
4.980349518377805151e-02
3.070829670316113646e-02
1.717551603662295992e-02
-3.565309036653981946e-03
-4.418887823006045767e-02
-8.579543786336513156e-02
-7.359525455366432156e-02
-1.463236065181503648e-02
-3.022068368037324725e-03
-4.309348773847389985e-02
-4.395870793822653083e-02
-1.832542559149604594e-02
-2.477858949196821634e-02
-1.760287008021254457e-02
3.456623006395433129e-02
7.678028486809705677e-02
8.226358351917460732e-02
6.417967684426782726e-02
4.039844308453391375e-02
2.029323073912082942e-02
-3.675731413524499502e-02
-1.101051901085588897e-01
-7.403990095452235576e-02
3.837403355511900815e-02
4.057304691927753060e-02
-6.522609550423982827e-02
-1.203883171167467320e-01
-7.559484761035989431e-02
1.434972021578466948e-02
9.258320664228389396e-02
1.272238719625532477e-01
1.182349252475281831e-01
8.250443319563169342e-02
3.692174422739642747e-02
-1.076520470343699139e-02
-5.465509097500047264e-02
-8.585867257313978262e-02
-1.088312313429975475e-01
-1.038910079422321192e-01
-1.427723290795631164e-02
1.211171633121358171e-01
1.469703152620537578e-01
2.978813987401285682e-02
-6.303690598169757464e-02
-2.864756356403802551e-02
2.682541862851337000e-02
6.886522083038148362e-04
-4.605698774347012636e-02
-3.754158506751019420e-02
-2.137595259287436086e-02
-5.539241598332914074e-02
-8.710751058174856509e-02
-5.095083113172697853e-02
2.180972026784659332e-02
6.897026032817635266e-02
7.319892966389329736e-02
5.720203282076857798e-02
5.737406206499648387e-02
7.253699138327182605e-02
6.896775677319733067e-02
4.057285865955807119e-02
-8.912902484468595773e-03
-8.503028002905155258e-02
-1.493058368845186501e-01
-1.334885248036798144e-01
-3.779877347899118778e-02
5.570986421674482131e-02
8.399597026695926338e-02
5.778956390844260105e-02
1.458555995112451910e-02
-1.665725888307777180e-02
-6.439313099715646659e-03
3.690454577762380256e-02
4.066761436080872788e-02
-9.704615035463116587e-03
-3.523340408780296223e-02
-4.933833459326901483e-02
-1.018295830011999303e-01
-6.525869835881906167e-02
1.185678551420706606e-01
2.043530513278294936e-01
3.727800536930502701e-02
-1.705165924202596273e-01
-1.971170521112839968e-01
-9.182317106372031579e-02
1.676463490001456336e-02
9.642581015685305901e-02
1.301252897578405454e-01
9.730583989913921261e-02
5.138009950751900451e-02
3.804086985253914144e-02
2.032062491029573009e-02
-1.337774685875197517e-02
-3.124653145745101210e-02
-3.877448658298945916e-02
-4.417731348491062138e-02
-4.155069660980861834e-02
-3.977873315247932445e-02
-3.347960663559133854e-02
-1.441156792261646599e-02
7.490923854985280517e-03
1.903163152333291197e-02
-1.908494718708276215e-03
-3.979252456114234365e-02
-4.053564617217537969e-02
-1.978833808593189261e-02
-2.418393164830313913e-02
-2.869759633544745336e-02
-2.022367968247057793e-03
5.280043006062906663e-02
1.330213834850804411e-01
1.697226314185702745e-01
7.120894459401824750e-02
-3.819147799232760349e-02
2.528541946760531900e-02
9.667555685132403487e-02
-2.642313748359294279e-02
-1.538177359926082843e-01
-1.250801098972098568e-01
-7.543434951823203838e-02
-5.682635321021613228e-02
8.921891973224600671e-04
5.064343037520694507e-02
3.309934266852583573e-02
7.190418442223959344e-03
1.891953417041488880e-02
3.245492044474312943e-02
3.682974521197764084e-02
6.718320073217343147e-02
9.272550751145783310e-02
3.407558901764248110e-02
-7.094891411514024637e-02
-1.192470396928088927e-01
-1.256878475831701425e-01
-1.042200388399031064e-01
7.582795017914902014e-03
1.079402122977769357e-01
2.954701019704774820e-02
-1.138639447966414836e-01
-1.220996597191040256e-01
-3.041159674955578804e-02
5.571169614827349570e-02
1.215226690712760405e-01
1.576418162307357540e-01
1.475457571477511720e-01
9.635124356545528290e-02
4.278395293002386357e-02
3.635662366024758341e-02
5.716296391861349843e-03
-1.376720692705871163e-01
-2.310452503903330790e-01
-1.112035708735522738e-01
3.943863124146482907e-02
1.919399763093941266e-02
-5.898775813819817637e-02
-2.835882546890264311e-02
5.275957359434984423e-02
5.964817556238435903e-02
1.667452296367489054e-02
-1.432983751788739074e-02
-3.459887423779473697e-02
-2.330890354623016761e-02
8.697423074931917575e-03
-5.168256968699196791e-04
-1.382535928216566123e-02
2.536593843228281131e-02
5.176855376760436389e-02
3.757362822241516742e-02
5.072550108957957909e-02
7.538877043922895260e-02
5.248003012551089030e-02
1.062930985039553348e-02
-2.887842669042271770e-02
-8.211626792243192918e-02
-1.104253247623423750e-01
-7.956470843590598974e-02
-3.248913806615297273e-02
-2.381478329135866545e-02
-4.744290971022264991e-02
-4.495666050593009888e-02
1.241780771872403807e-02
8.623803971084666176e-02
1.291055404072677659e-01
1.305072465054898101e-01
1.171813015888718973e-01
1.063570613729515335e-01
6.518821999794065236e-02
-1.861117107260517461e-02
-9.736549266278859971e-02
-1.743726955708197190e-01
-2.647794759159226574e-01
-2.403642313829337518e-01
-5.833379534442965919e-02
6.295124784417109598e-02
3.008207535579593417e-02
-2.386767983257816889e-02
-4.474343437936709883e-02
1.764665499884904981e-02
2.089788208109460976e-01
3.249014795225491081e-01
2.167772241640985587e-01
7.692591494218459225e-02
3.840633519012028041e-02
1.835644360785738949e-03
-7.513615735763068404e-02
-1.328211491259502497e-01
-1.332804399381216087e-01
-8.089828346028543615e-02
-2.633735455655419194e-02
-2.170440761667663185e-02
-4.806208395705340725e-02
-5.065741401278351513e-02
-2.106878719626704283e-02
8.581027511205208125e-03
2.189200501570545340e-02
2.147170825497735080e-02
5.386211338261025217e-03
-1.330159948517707982e-02
-7.660837947548773154e-03
7.916187012669743603e-03
5.933444757230306628e-03
1.881942046057879722e-02
6.625181965959425767e-02
8.767906632477799611e-02
5.357251555336264848e-02
1.956423498373707770e-02
1.453233109295948462e-02
2.139393272860592478e-03
-2.990849353894892496e-02
-5.478667658418538006e-02
-7.215447197090760212e-02
-8.420737625232267709e-02
-6.188176930990109403e-02
-9.680659389227160364e-03
3.074731856741101665e-02
4.128791364010320208e-02
2.522627519955933720e-02
7.035743366149115052e-04
-9.144838369541599329e-03
-1.098775762253616402e-02
-1.226256863546406131e-02
9.854270597780313140e-03
4.720479479474429946e-02
5.140551071066890715e-02
2.727373052214186744e-02
6.671643950179883230e-03
-4.468456329801349936e-02
-1.136096333055614527e-01
-7.662767108791673776e-02
4.612006256821914868e-02
5.629134612346945593e-02
-5.591007324963614966e-02
-1.001140000068770353e-01
-3.656056285213998835e-02
5.048926587867307719e-02
1.395841320410794728e-01
1.896154958857029227e-01
1.477530349224160933e-01
6.310357038845584854e-02
-1.047872800794957988e-02
-7.953680220394840350e-02
-1.212692137100856160e-01
-1.113240944302684304e-01
-8.867965529515836609e-02
-7.893180980515925038e-02
-5.449773697383945154e-02
-8.830408432234478772e-03
2.714415176538334529e-02
4.410096220899085290e-02
6.296698305352518843e-02
8.827354279206936494e-02
9.833493515496784243e-02
8.422285595217719745e-02
5.753388088278854617e-02
1.919761371185117055e-02
-3.850512703919710400e-02
-9.463763210458493724e-02
-1.026920503385626154e-01
-6.024071015762134940e-02
-2.949513767720260068e-02
-3.178627902804088967e-02
-8.153621637300588823e-03
4.220451682387667963e-02
3.639452317429765771e-02
-1.986675052188587379e-02
-3.691643893002685695e-02
-1.800412050915908488e-02
-1.176457726017283469e-02
1.691783247587781702e-02
5.462636784334941320e-02
7.645613246292622470e-03
-5.011677336872558119e-02
4.758829110095312218e-03
3.402435289622032094e-02
-4.682098169890601402e-02
-2.065877309093790137e-02
1.042938281685963781e-01
2.278635293797346209e-02
-1.733533041690944188e-01
-1.314350460512135332e-01
4.971216562162127789e-02
1.045559868608177956e-01
9.747922400967037881e-02
1.153228949672257114e-01
1.106823113070834474e-01
9.316451659906235805e-02
5.659720231237386212e-02
-2.953265741201408986e-02
-9.737601813801149975e-02
-9.967776757414487099e-02
-9.264218457551033625e-02
-8.574092810226789652e-02
-2.672288760878903380e-02
4.117033006600367973e-02
1.916847787957892332e-02
-5.639186641492838215e-02
-5.317907587884659892e-02
3.510790188152158181e-02
8.405753184915223941e-02
5.054308598109800987e-02
7.654883136396485599e-03
-1.481540494290886981e-02
-4.662166488812154175e-02
-6.983737061731175311e-02
-4.745784710561108677e-02
-5.391489942713783082e-03
2.175157890975689193e-02
4.645919949605101240e-02
8.075822602543543394e-02
1.091620680230923623e-01
1.018982590004134797e-01
6.300138640460439809e-02
4.308740005279885349e-02
-2.173571387571997943e-04
-1.387263427017308148e-01
-2.273439059404920859e-01
-1.441803672205609899e-01
-4.292371031141078985e-02
-1.464240418877459093e-02
9.234206249910758765e-03
1.870983784548738149e-02
2.638716735011705991e-02
8.688883319285614637e-02
1.223836312608985177e-01
9.597501784809335523e-02
9.415914545102493927e-02
7.323312796577814698e-02
-3.651007231115077634e-02
-1.141105763437540166e-01
-1.060721677917262629e-01
-1.066594997714765680e-01
-6.557375118791707036e-02
7.114802214749725573e-02
1.123970118235871479e-01
-3.447603868769583135e-02
-1.641640565182647948e-01
-1.426416318245199155e-01
-4.193549858586759910e-02
6.559531650437065708e-02
1.247615426490005508e-01
8.683007739755432830e-02
2.682157112497142448e-02
3.016632815450171617e-02
2.546816982803054227e-02
3.750535171582186980e-03
7.267282107270567337e-02
1.177891056692704497e-01
-1.054443467195770832e-02
-1.171224392228385897e-01
-5.460508280444133222e-02
-5.372581916932017698e-05
-3.061969291198929008e-02
-1.924332206629969511e-02
3.505251776551868148e-02
2.207470971452969027e-02
-3.749955486131279631e-02
-3.650204081871488704e-02
1.928583553187925362e-02
3.736052389488338232e-02
7.511908147990901952e-03
-8.021496610825896295e-03
3.146352149392735425e-03
2.087227776239544003e-02
4.628268450216199703e-02
5.542241567764155663e-02
2.314834749493935653e-02
-6.087614828886801083e-03
-5.604437776614191666e-03
-1.794887442800952720e-02
-4.657950005359530465e-02
-6.443849369322535159e-02
-7.680162699319745268e-02
-6.489255142466898718e-02
-1.448754097847504592e-02
2.075655641622320413e-02
1.278440814869175046e-02
1.230764066739664653e-03
2.717715268418383762e-03
2.643036068540787278e-03
4.994313050520789166e-03
1.929638574656913214e-02
4.629970486710814626e-02
6.322557476181162039e-02
3.024477437639307847e-02
-4.301973382656702760e-02
-1.210315962614948865e-01
-1.655898927922200281e-01
-7.834168600802970950e-02
1.296117843786989687e-01
2.008185469994700767e-01
3.006743998703050036e-03
-1.806842775751869024e-01
-8.310324120816246773e-02
1.124553422581845569e-01
1.509596346009589862e-01
1.151151110183855353e-01
1.225131996252685762e-01
1.120564204557771004e-01
5.904147995438033952e-02
6.890210673024246488e-03
-4.526983694097343192e-02
-9.885336627036070412e-02
-1.202733984551748320e-01
-1.043628767904060534e-01
-7.455913329338170747e-02
-4.693322720236087209e-02
-4.503072217327046961e-02
-4.639746414921021994e-02
1.171280780735655183e-02
8.133005057449971265e-02
6.800903760008594756e-02
1.006524470141611366e-02
-2.202609271472309727e-02
-3.542333816705953153e-02
-2.937943690170178104e-02
-9.742906461443583827e-03
-2.683320836271247192e-02
-4.969926963174376572e-02
7.835752393773560281e-03
9.939337360728646431e-02
1.089340641585435365e-01
4.016119937414629193e-02
-1.548681208410901747e-02
-1.692395827100666092e-02
6.982649043581895532e-06
-6.515089341064809157e-03
-3.170633375837236118e-02
-4.984380160786916480e-02
-5.963885248698035102e-02
-6.435506538805850496e-02
-4.683283459180161840e-02
-1.197288725740774766e-02
2.419221285689358847e-02
7.650933486409257356e-02
1.203026398041585066e-01
9.884603043279086010e-02
4.695620169241183223e-02
3.842322551268072262e-02
6.669611807153666416e-02
7.209709005345314725e-02
1.690156541232720744e-02
-6.328080216050033235e-02
-1.306044088966073491e-01
-2.003861907690335509e-01
-1.938138756073951308e-01
-3.730845067348038946e-02
9.086510162199781804e-02
4.094417984243638176e-02
-4.254242780989947459e-02
-2.684993100711801500e-02
2.369926220895892527e-02
4.990769800977398057e-02
8.065754950659941025e-02
1.172284985506469729e-01
1.143026769055270203e-01
7.177499794329646188e-02
2.719254898511246077e-02
-1.756177112250298378e-02
-6.588701583903583403e-02
-8.468307305640941640e-02
-6.195004487613099686e-02
-3.057182359063016774e-02
-2.415918411166566651e-02
-5.232141634040948092e-02
-7.142594269709542920e-02
-2.992330877310899612e-02
2.988709560440576743e-02
4.582964167665670718e-02
3.236655328947359023e-02
1.138045295335943750e-02
1.392739945413451128e-03
2.773697049916882401e-02
4.498605668925226980e-02
1.233276946049238591e-02
-1.472416647737408678e-02
-1.191814425989291999e-02
-6.916678843633221330e-03
1.907748874424598437e-02
5.310543533502550678e-02
4.088728731190750115e-02
7.686471093312101377e-03
-6.419883538690998419e-03
-1.657967513029030837e-02
-1.662469157483170701e-02
-6.587491092292486160e-03
-2.884575520376019692e-02
-6.659360657300535113e-02
-5.847999750739860808e-02
-2.083902600314857870e-02
-6.634896928168373259e-03
-6.595239758622081089e-03
7.127303323889912050e-03
1.193032943248407106e-02
-8.572263596181566025e-03
4.545456649639737640e-03
7.518939531024691758e-02
1.042098515868135900e-01
5.381052122280790412e-02
8.058132640835432431e-03
-4.423813271532443803e-02
-1.253368997212384595e-01
-9.535122601035619927e-02
4.155952124305073436e-02
5.455998174350418228e-02
-7.360761883234673286e-02
-1.256567199432199466e-01
-3.941263083518983801e-02
5.936473646196038095e-02
9.767364406190605364e-02
1.216658407471239850e-01
1.502175254610701449e-01
1.123061952178679157e-01
5.076812415405073178e-03
-6.677953281036325128e-02
-7.968611080978796335e-02
-9.468236144566270773e-02
-1.003425823429497099e-01
-6.831275928016836141e-02
-2.846888600152111884e-02
1.409345492310871452e-02
4.800882170317967435e-02
2.990227876070077062e-02
1.952550789983176216e-02
8.480567520803133919e-02
1.353094068875292100e-01
1.125649362927425290e-01
4.413048314612189049e-02
-9.580267232832864743e-02
-2.127171263943375967e-01
-1.421490997593874983e-01
1.007433555146626525e-02
6.021919567436713472e-02
4.029754187251502473e-02
1.829180018364807980e-02
-1.524717916545940272e-02
-4.031405758978667819e-02
-3.153192789699882370e-02
-1.861410717483193838e-02
-1.264026022979705330e-02
1.265648099062613788e-02
3.855270991942440911e-02
2.819270863868849480e-02
1.415312014170650064e-03
-5.395980844845617817e-03
-7.302139858738087609e-04
-9.019726367703527828e-03
-1.406658748692951946e-02
5.304105049209108941e-03
1.925453898755059151e-02
8.813307515572578812e-03
1.534641131929690913e-02
5.406135664975526833e-02
6.949313922925189069e-02
4.451559808084170483e-02
2.867049368036707346e-02
4.050726122476993978e-03
-6.405856029967116338e-02
-6.937899132135577629e-02
2.622142757524707421e-02
3.365393506352171160e-02
-9.821014675584147091e-02
-1.699781058202733952e-01
-1.220817394379418996e-01
-5.459295037739485962e-02
2.848976638002669037e-02
1.260192531753164535e-01
1.548512906685240720e-01
1.115275241339032108e-01
6.548936991638820704e-02
3.354076207506941770e-02
-3.847017660362721421e-03
-5.535469230221672782e-02
-9.227553540755106809e-02
-1.016680795827967776e-01
-1.363487902573406463e-01
-1.353869555538500524e-01
9.043392815978169505e-03
1.174617225079650495e-01
4.084736969705618503e-02
1.534548431937363122e-02
1.295959572622605027e-01
1.305593370344015347e-01
-5.575242393292944437e-03
-6.069560250060100637e-02
-7.737860182781112345e-03
3.603924544579238665e-02
2.842248552710291767e-02
-1.760384554731389117e-03
3.073047742651171220e-03
5.471483660978497532e-02
8.172397052390741046e-02
6.294469297068415459e-02
3.782343633805719529e-02
-1.238622346668728433e-02
-8.473276362477084878e-02
-1.105941871591704928e-01
-9.569492264188335373e-02
-1.013189131174357799e-01
-1.187903319752845466e-01
-9.615342646084104605e-02
-2.113583896889833016e-02
5.677425233172785080e-02
7.510016516227989436e-02
4.574474975522394016e-02
2.431766802186545798e-02
3.146252020938283649e-03
-2.492760699450150344e-02
7.652119959055762519e-03
6.604170675714830796e-02
6.803605440905823032e-03
-7.288711248350390748e-02
2.242382180527292129e-02
1.002604608191273450e-01
-2.121631459601995909e-02
-6.080501027359683230e-02
8.146944340810899354e-02
8.355574620421554743e-02
-9.253044596531752319e-02
-1.604958319145551315e-01
-5.771027342590501902e-02
5.867064211584863825e-02
1.077853981888838852e-01
1.174918453385755540e-01
1.122919585268228049e-01
8.649237577169456570e-02
4.475339069744235787e-02
-8.191674940074151687e-03
-6.290275362398151104e-02
-7.978834575174810484e-02
-5.222282194342094119e-02
-2.399794850862313131e-02
-1.887800554072640094e-02
-3.134738816021834934e-02
-3.367373556684871705e-02
-3.810394599455434878e-03
1.367177044500432828e-02
-1.261448642638627639e-02
-2.696838946773921081e-02
-1.705148885262698297e-02
-3.429481759726393103e-02
-5.229413201167939368e-02
-3.014612853197831677e-02
-9.103393260112601151e-03
6.650153526659412923e-03
5.489663666069370673e-02
8.844316932303701584e-02
5.749043997773030379e-02
1.590768425835908592e-02
1.499616937804447783e-02
2.706843731592737876e-02
1.529002683594951444e-02
-8.598025571352465798e-03
-1.748596975258442585e-02
-2.962609535238788436e-02
-6.507157045140524176e-02
-7.908881217322973056e-02
-4.733581850544081593e-02
-1.417868041866748689e-02
4.254269468062424515e-03
1.533295718644619131e-02
-3.081500819659488757e-03
-3.672539455743654979e-02
-2.265196920998776772e-02
5.945908466739495413e-02
1.396198015896973066e-01
1.354324754863480140e-01
6.172630718696866386e-02
-4.437037883732809773e-02
-1.684404141240955499e-01
-1.828979735256525130e-01
-1.483108924160120995e-02
1.295900880752504924e-01
9.496228572160828052e-02
-4.726436472499099400e-04
-4.348885378772968102e-02
-3.325521747983792992e-02
2.665054240701345695e-02
1.045668216715206211e-01
1.272718225382808710e-01
8.313054557981672255e-02
4.114681864487713947e-02
1.524042088850470315e-02
-4.451620803252174380e-02
-1.062563057955952794e-01
-1.005432570807211767e-01
-5.938099112463168794e-02
-4.039168175659264143e-02
-3.025022291775281494e-02
-1.786347785628980209e-02
-1.521217299119387995e-02
-6.586468467444584612e-03
6.165081093455353038e-03
2.007595143787951203e-03
-1.022548709308054860e-03
2.612183830887418456e-05
-2.227834161727446430e-02
-4.186473578783604654e-02
-1.759678137074718526e-02
1.579754694137178520e-02
1.172294069837060207e-02
4.717831085023733301e-03
3.829383238208690365e-02
7.254970055431260445e-02
6.886474934225626787e-02
6.174036308486077068e-02
5.793803174393948041e-02
1.685371618738611132e-02
-3.516745400129049626e-02
-3.700170349714977658e-02
-9.653004259464354267e-03
-9.134629803216751803e-03
-2.513439538899810144e-02
-2.590498957527040749e-02
-2.748592027960081174e-02
-4.075022439637000088e-02
-5.036496923329212422e-02
-5.583909452652698058e-02
-4.119927184858550306e-02
6.412374239170777999e-03
4.471521586807496867e-02
5.119699399400166190e-02
6.116086960477828960e-02
7.961828664980083459e-02
4.024350674848936604e-02
-7.636124431496436882e-02
-1.282514272408625811e-01
-1.993805813705183325e-02
7.581177832416509388e-02
1.846379790866471693e-03
-1.126569010767994455e-01
-1.047650765538882117e-01
-7.997875423432047881e-05
1.075593642260577604e-01
1.654304062206825576e-01
1.699112044461226767e-01
1.436451909820199435e-01
7.591527414303043952e-02
-2.480665395778204260e-02
-7.663857286288583426e-02
-7.710969708848067206e-02
-1.051468124903969237e-01
-1.340709836568246549e-01
-1.134316642971641420e-01
-7.196299430138389241e-02
-1.739574916172373711e-02
2.554176678757064806e-02
5.864483819546375404e-03
-1.745469001349870403e-02
2.720422188624446388e-02
6.925903242346052868e-02
2.875233073096686645e-02
-3.422176447617090306e-02
-2.371882151721332183e-02
4.222050686072744557e-02
8.001593909883539246e-02
6.335380539240320630e-02
3.515969132550221532e-02
2.818164931174087923e-02
1.640161143059059440e-02
-9.312354053966596934e-03
-4.752077734290120412e-03
1.734419495894904892e-02
-3.208272941613318427e-03
-4.671201632462851361e-02
-6.520061558125524181e-02
-7.505041067031296975e-02
-8.432627873937736940e-02
-6.006567423483796103e-02
-7.447122218382646631e-03
2.381039059432776828e-02
1.767323574925422705e-02
1.438774119933047303e-02
3.639732993638843117e-02
5.259731804246346037e-02
5.749527473203921990e-02
8.267432443147250398e-02
9.285465316502458655e-02
4.991720181478186830e-02
2.148594164460529768e-02
1.855395443159201310e-03
-8.809990635238372503e-02
-1.130098732314129273e-01
4.751739681463715975e-02
1.500446106676165403e-01
1.644353547142349964e-03
-1.951983948105108224e-01
-2.247094593575026389e-01
-1.224644793724914554e-01
3.461061846638907070e-03
9.311074840189456636e-02
1.178467093662902976e-01
9.262438794012475829e-02
7.236125672631416039e-02
7.870925590716872089e-02
5.866590269932484697e-02
-2.835920344084234823e-02
-1.301269341873719509e-01
-1.700609242682665778e-01
-1.249247781211899611e-01
-1.982159347064196830e-02
6.901385301916672377e-02
6.537973012633609138e-02
1.353301191502524065e-02
2.185219505049956421e-02
6.864792247848597317e-02
4.584903374191073855e-02
-4.020292964877428266e-02
-9.732912265438788124e-02
-9.498821270671241324e-02
-5.323080504950436498e-02
1.818652846395956910e-02
8.436285223376183140e-02
8.864311016571278790e-02
5.042961363283417209e-02
4.303883140574184252e-02
7.654694432158065664e-02
1.009317482504721308e-01
7.748571236372060744e-02
2.364728855203363303e-02
-1.474921606612586943e-02
-4.315410669820084200e-02
-8.591002303672884421e-02
-1.090928924759677343e-01
-7.351725472793871341e-02
-1.410269991171258369e-02
2.709363095630453432e-03
-1.697454958143677223e-02
-1.242274285820792884e-02
1.158589184159036084e-02
8.823053479626859902e-03
1.225038326321100692e-02
6.334933103733496329e-02
8.404506925653859595e-02
1.171966107682011378e-02
-6.267758535625282679e-02
-7.551619903552392321e-02
-7.620426656682027788e-02
-3.711216854187788378e-02
6.353621617665576593e-02
6.702364101709973321e-02
-7.522248949489328262e-02
-1.567548794054892114e-01
-8.062132359129288439e-02
3.957034731453621529e-02
1.161486026254012066e-01
1.328255952599017853e-01
9.326130977299447455e-02
3.182277885779573323e-02
-1.335163274176555913e-03
4.159267327424765598e-03
-4.686747493975230300e-03
-4.520570355950253444e-02
-5.141067234826797450e-02
-1.335429848522749242e-02
2.509378422613172364e-03
-1.656343117323810440e-02
-3.983639346079851512e-02
-3.988606579502490534e-02
6.732718086329060603e-03
6.062970782066624820e-02
5.534633865623473509e-02
9.428522515465269371e-03
-1.146473883935819789e-02
2.226584251778717001e-03
-2.930708076251934205e-03
-5.163761863093355858e-02
-7.901208944637168330e-02
-3.710090500867970625e-02
2.005743501390133340e-02
4.611229962854453135e-02
6.428044554368091135e-02
7.702365605644045932e-02
5.553699781415211839e-02
1.988134299604244620e-02
-1.210339841585858847e-02
-7.940999832554086757e-02
-1.211173957115100341e-01
-2.436034606636765590e-02
8.566570296031696119e-02
4.818730277269533263e-02
-1.258396735058060767e-02
1.342927586715533285e-02
2.995250041087960807e-02
9.231156711202561163e-03
1.308071643615066337e-02
2.100099215603765460e-02
1.551214005425981431e-02
4.196600442706070744e-02
6.647217357169754592e-02
2.186384166926943172e-03
-1.100870463216487710e-01
-1.851615524264311197e-01
-2.331114349896971083e-01
-2.096114269601776492e-01
-5.014212843114392026e-02
8.920760702434038514e-02
6.106137999382235670e-02
-3.939799643637734161e-03
2.115077769724984375e-02
8.340759799166594379e-02
1.342395235969942036e-01
1.700664260104701175e-01
1.640783416422681995e-01
1.107935437955162583e-01
6.311656714992058825e-02
5.764711247046154508e-02
4.731806658073767907e-02
-8.061965243535567510e-03
-6.181277645773165103e-02
-8.063736987764627551e-02
-8.340476960404055728e-02
-6.975270799279628675e-02
-5.835601903191944828e-02
-8.173519708116890048e-02
-9.123084567623120089e-02
-4.868442014811068252e-02
-1.336076640539242757e-02
-1.307991034566742018e-02
-2.089145039744903787e-02
-3.753987930593206956e-02
-3.962662650279688559e-02
2.273945396310906274e-03
3.561025614708775155e-02
2.893474398104463677e-02
3.527991474893445861e-02
6.981203385240147830e-02
8.695039241383906159e-02
6.552525024831010181e-02
3.326659135280769786e-02
1.843364889021465239e-02
2.510478367957874254e-03
-2.756887887114949434e-02
-3.958309797206569641e-02
-3.043844265005319488e-02
-3.240773973157452803e-02
-2.877527132426138667e-02
1.449055312637986120e-02
5.384373789449843628e-02
3.454801541984701269e-02
-4.180446276711225102e-03
-7.501068015427786277e-03
1.110195251244320766e-02
3.234247026557002941e-02
6.661687513347125389e-02
9.041771958971810130e-02
6.406888122554070530e-02
2.523125699363460567e-02
-2.338294193340750837e-02
-1.675299743556289689e-01
-2.878804366161851203e-01
-1.691141510628222377e-01
3.127884869838001847e-02
3.707117394286088552e-02
-7.402528727777130113e-02
-1.145824578862511128e-01
-8.404435197907313138e-02
-2.007298853601475336e-02
8.802262998884119449e-02
1.957009341050361950e-01
2.317254043090837268e-01
1.958533911523185345e-01
1.203513758332685757e-01
2.876388312745181003e-02
-3.561958188389303254e-02
-5.026967699062586531e-02
-4.984990200385128190e-02
-5.540303125705632603e-02
-4.058944495881550152e-02
-1.016957291073953759e-03
9.722709139104602355e-03
-3.596802748291814955e-02
-7.266642768310395406e-02
-4.173410684592814002e-02
1.128390772203088574e-02
1.720362354152672052e-02
-2.001471871411234296e-02
-5.365078601820541526e-02
-5.291928506385131653e-02
-1.374198632547756968e-02
3.077514565450950937e-02
3.128396502888285829e-02
5.484221717028423676e-03
1.454186083113264728e-02
4.298010842081493449e-02
4.581731393121211970e-02
4.370269819631818209e-02
3.740895464693186345e-02
-1.261068170759478344e-02
-6.226615254005708755e-02
-3.407026063670112737e-02
3.116291688946877872e-02
4.442032106370919636e-02
1.565473070420374258e-02
8.417741706598825743e-03
2.215407022648548108e-02
4.440485562596562311e-03
-4.440527261856438979e-02
-6.570446665682726228e-02
-5.176288502609271286e-02
-3.960340770949499767e-02
-9.837394610835062392e-03
4.718639730656282172e-02
5.928652988532220197e-02
2.352006198005509446e-02
9.698663514012850241e-04
-5.524012153258086449e-02
-1.209732452448062240e-01
-3.008991119797924801e-02
1.232739852597242586e-01
6.816528169447941266e-02
-1.167109735849423402e-01
-1.648026241023728689e-01
-6.838575615194923685e-02
5.368587395761122150e-02
1.625721347485344082e-01
2.091540781255256110e-01
1.708530924105783888e-01
1.255172108135263753e-01
5.870205827964817408e-02
-1.205776040885253170e-01
-2.682032630631814851e-01
-1.981841027973182401e-01
-5.988073306246016747e-02
-2.513658181532583274e-02
-1.248836954988088305e-03
6.606137024235146649e-02
7.697706440251700366e-02
2.021959888239653960e-02
9.288338419161382836e-03
7.425014731127350942e-02
1.022621494947161952e-01
3.155599744638271087e-02
-4.893697037269412187e-02
-6.128984339761406330e-02
-4.489524304764924700e-02
-3.892574353779573726e-02
-2.025403867416620748e-02
3.109285157477321374e-03
9.944913557171756319e-03
4.315627056013177087e-02
1.045607145163847812e-01
1.073068244982942065e-01
6.308932045590803783e-02
7.671111445715673993e-02
7.363847098164297278e-02
-7.266464773575834202e-02
-1.942293891660813177e-01
-1.551218211445382633e-01
-1.433101967283028078e-01
-1.846274244744988413e-01
-9.558219809364976172e-02
4.701103676834583744e-02
8.471432737018677606e-02
6.326369672417250789e-02
4.903407458719752365e-02
4.086352237032980783e-02
4.661835410046979988e-02
7.545086504583103926e-02
9.230013921419845391e-02
5.048280158511966875e-02
-1.925346590662931762e-02
-6.369628437295832279e-02
-9.069894704671144225e-02
-6.027289263111139384e-02
7.314469946724573568e-02
1.518381553809094175e-01
2.379736811213272255e-02
-1.596209463295140407e-01
-2.041156307444127183e-01
-1.331691893704615437e-01
-2.518067074631537630e-02
8.489934929069269109e-02
1.595625614787661295e-01
1.822898563864533139e-01
1.530514851176588975e-01
7.851547812994918996e-02
-1.831601201002725290e-04
-4.470794269722361963e-02
-6.712355901654112889e-02
-8.807585088480990310e-02
-7.544523694274987702e-02
-9.208229282044632508e-03
3.300561175649103368e-02
2.489144501687849675e-03
-2.275460187817255828e-02
2.375269836332078582e-02
1.043865541753088849e-01
9.140358755917325773e-02
-7.893604145328732280e-02
-2.027099502063400560e-01
-1.106677466535621879e-01
5.219881946326413932e-03
-3.485496410181893046e-03
4.451517175676997576e-03
8.642096779341744417e-02
1.211884531802870091e-01
9.721985872516795968e-02
1.075055863201137690e-01
8.137907662776984463e-02
-8.496576573830606771e-02
-2.072394573200467827e-01
-1.251744277154688834e-01
-2.628799341301726877e-02
-3.714772355741606524e-02
-3.251477834577561066e-02
1.516073798534696426e-02
1.770462177241694662e-02
-2.154372826776341718e-03
1.085743099145509115e-02
1.835053788922742790e-02
-5.641067269035231202e-03
-1.411562990530859651e-02
2.179615688786241609e-02
8.343360694121500221e-02
1.232364337257715603e-01
9.045316184296199602e-02
1.337165003577545780e-02
-3.647390118412260213e-02
-8.425507636862120120e-02
-1.512191750150242986e-01
-9.954523078928753654e-02
1.002455861705911638e-01
1.765391760631013496e-01
4.103829319853993796e-04
-1.666442785110205382e-01
-1.321517013091785264e-01
-1.533033666456375815e-02
5.208270094247347687e-02
7.385510011829933552e-02
7.592957286564419594e-02
8.322360814894144698e-02
1.060962778173851206e-01
8.386664247336300670e-02
-4.815605140397317616e-03
-7.585509326916080319e-02
-9.598798184570499215e-02
-8.933886332875651259e-02
-4.140955204498424080e-02
6.091554074842105496e-04
-2.896007317219813013e-02
-3.635214794806187338e-02
4.738238331681107057e-02
9.534244262142226034e-02
3.447653015643288577e-02
-3.703441499666848546e-02
-5.255532628968445641e-02
-5.129612972270645999e-02
-6.529985115565715981e-02
-5.885968939445447579e-02
-9.471581986404626133e-04
6.527268541893636866e-02
9.478124281285212060e-02
1.069327449399690017e-01
1.128586088965741197e-01
8.466027878431683917e-02
2.432800299429637575e-02
-3.537081806423952868e-02
-6.980580773527625404e-02
-6.822843637736465683e-02
-5.975072633333675803e-02
-7.978731889430196178e-02
-9.365153380042699760e-02
-5.729788210944752880e-02
-2.539447011229403056e-03
1.679163788468910484e-02
3.940084402076691333e-03
1.001209173624612557e-02
4.669380569698835387e-02
5.505333834892020550e-02
1.725398274439183047e-02
3.730058337651916047e-03
4.507610108594824194e-02
7.766627815525439793e-02
5.741703489113190312e-02
-5.634729860418329246e-03
-1.066652357152602926e-01
-1.677655839772803081e-01
-6.859075029225507325e-02
8.609551403223771049e-02
8.084503400853715327e-02
-3.805175930668167061e-02
-9.285489075296170236e-02
-5.694911462129918084e-02
1.658112037722600171e-02
8.967953683891599637e-02
1.315702357666506117e-01
1.316190597868619749e-01
8.888226073354946188e-02
1.851811790839303848e-02
-3.992446797869583786e-02
-6.452683842850101548e-02
-6.056055894153643260e-02
-4.918502607553545264e-02
-5.076562442139790493e-02
-4.545059683844969445e-02
-1.635445527770763505e-02
1.503342106634024487e-03
-4.061730162948050393e-03
1.603168812373840374e-04
1.051697931774437864e-02
-3.726509306045998685e-03
-2.015435899255622887e-02
6.022323157014069714e-03
4.873799051112452652e-02
4.877439845746371627e-02
1.780532591802929526e-02
