-1.502535831319962989e-01
-1.464273761937971985e-01
-9.220662549965485955e-02
-5.354913868706858565e-02
-4.588659802478770727e-02
-1.079753816565615435e-02
4.330389864038187986e-02
5.264266815359734675e-02
4.834887249027185196e-02
7.866630870327756542e-02
9.264035800195183357e-02
6.613069559754046478e-02
3.757942192637903078e-02
2.293672692356855600e-02
3.102210848727594492e-02
9.868582079761208797e-04
-1.404931894157732397e-01
-2.467246635112022579e-01
-1.735989509357509508e-01
-5.640024089782284811e-02
1.935843418714312814e-03
7.332942068169236161e-02
1.453501747316346127e-01
1.391216205180790533e-01
7.716533079390584804e-02
2.552589738835399358e-02
-9.859988285416494344e-03
-5.494626489316743745e-02
-1.045957616612825658e-01
-1.261186943414838446e-01
-9.863290721940358441e-02
-3.535108722756621913e-02
2.720621065579110348e-02
6.262705044280728051e-02
7.674818487834533798e-02
9.143087080969297675e-02
1.047175096230484742e-01
8.504990695083176899e-02
2.404793149937000871e-02
-2.917871830382553697e-02
-2.612281356391934345e-02
1.008506934061706439e-02
2.432276612685559808e-02
8.123578355122517553e-03
-2.583567783421467784e-02
-7.670994621092372401e-02
-1.135478117147299404e-01
-1.040047144720638306e-01
-6.760941291940195108e-02
-3.255356044969234808e-02
-1.895102938518811349e-03
4.335220836425127816e-02
1.119631732686307279e-01
1.483770890396764464e-01
1.048413084923029842e-01
4.176519568577145153e-02
2.732188844523644744e-02
2.530922222338862979e-02
-1.317847281046525751e-02
-5.971616183864893873e-02
-7.216624382600400622e-02
-6.089641469546447361e-02
-6.572178796233317521e-02
-8.816503512807569165e-02
-6.431600069449977530e-02
3.105525782773594853e-02
9.919290836410889212e-02
6.755302663608395153e-02
1.844035830598839479e-02
2.943813420099890277e-02
5.581591511398340671e-02
4.210703680995692144e-02
-4.499792300493314114e-03
-1.777242576023869980e-02
5.436074488389470993e-02
8.345729270999122096e-02
-7.601530864779608432e-02
-2.323802787095061440e-01
-1.509753199653734168e-01
1.816292815621189938e-02
8.075396408849991325e-02
9.317588749848997043e-02
1.220217268531098853e-01
1.471073092438963670e-01
9.891819607922501534e-02
-7.805044828722082495e-02
-2.378592856698772406e-01
-2.179614128576999044e-01
-1.338753951889096183e-01
-1.156030117268571772e-01
-1.014222156216763870e-01
-4.480459795716677102e-02
2.648675721392106802e-02
9.655596856836695663e-02
1.508362566586482212e-01
1.682738329470006011e-01
1.494845257870869026e-01
1.099588110283257064e-01
4.791996239878503622e-02
-2.491585090458527454e-02
-5.198989085895892176e-02
-1.947419561142191974e-02
5.240720542525525300e-03
-1.895946754937027565e-02
-7.627582761722015436e-02
-1.504817426799646696e-01
-1.952115343410051329e-01
-1.346124138706791262e-01
2.753385215008083420e-02
1.951616458786276653e-01
2.860827793868155888e-01
2.876119515433224749e-01
2.351759846433402190e-01
1.618597479130021999e-01
7.160851697498198110e-02
-2.945107753398737080e-02
-1.158700230924038233e-01
-1.755701743710672835e-01
-2.204561132378650701e-01
-2.486807114024163767e-01
-2.271733685609114706e-01
-1.564086637517672629e-01
-9.122277778483998956e-02
-3.509980372550957489e-02
4.954186035685877176e-02
1.157472568547006364e-01
1.106185025396454746e-01
9.854664263180011596e-02
1.256216170441083191e-01
1.136177419681721756e-01
1.913545934306391805e-02
-6.258850678928672140e-02
-4.527835514065876171e-02
1.333965793021513538e-02
1.443728148515353513e-02
-2.624838044260345560e-02
-4.295519588049067500e-02
-5.028636825512840941e-02
-6.563578162321048737e-02
-2.884363216021813142e-02
6.758907300510531846e-02
1.371317462812882138e-01
1.452184922290002123e-01
1.257988330105865860e-01
8.746888827543369827e-02
1.976528517878156296e-02
-6.564271651637401672e-02
-1.506176161987423101e-01
-2.183499569193766421e-01
-2.282451679048612403e-01
-1.581234846605660826e-01
-5.852881992146240914e-02
2.506936346459394394e-02
9.844307821723356777e-02
1.410214496921673999e-01
1.274474084291228881e-01
9.885051645852270530e-02
8.980923612589764016e-02
7.387632143087397019e-02
3.529340814866202547e-02
-8.340388955051772704e-03
-4.021907026868742907e-02
-4.136801620133284674e-02
-2.140531205961116595e-02
-4.364098891799213925e-02
-1.264099144606850578e-01
-1.817494533146422619e-01
-1.398512619827885772e-01
-4.967698527964500843e-02
1.279984969743225981e-02
5.032294981920401589e-02
9.964493077066190196e-02
1.564845779166843254e-01
1.862832136109011660e-01
1.621502842858912330e-01
9.794103356339632638e-02
5.465169880335413871e-02
6.612798096092775690e-02
7.127391767567023417e-02
-5.176125757138367797e-03
-1.217405692888305080e-01
-1.758971000413993568e-01
-1.587709872545904899e-01
-1.285528475271455195e-01
-9.096620313045630790e-02
-3.030916827777926231e-02
7.666052560516710759e-03
-1.010701568522733712e-02
-4.148842138715483352e-03
7.739695048016298484e-02
1.014348059521114204e-01
-1.175829206002035332e-02
-7.988936369098599555e-02
-4.958004119261689296e-03
4.084387745619588034e-02
-7.964813226561590076e-03
-3.410249462780953061e-02
-1.765634024765235302e-02
-7.238330406640817657e-03
1.121872934684596881e-02
5.070355399872595453e-02
8.804592065076377594e-02
1.241090069792143147e-01
1.635016765268110517e-01
1.474011305018668172e-01
3.081438563067264227e-02
-1.325399281069156443e-01
-2.630636419407740290e-01
-3.117937209261246179e-01
-2.605109563569358300e-01
-1.410579324825844416e-01
-1.161748998711286361e-02
1.013980806968836496e-01
2.081322248190975721e-01
2.922666721481190222e-01
3.057200380800877415e-01
2.402605584105577952e-01
1.220956602379710404e-01
-1.741707622213950132e-02
-1.317971319178307676e-01
-1.960560727689938110e-01
-2.119606222987942268e-01
-1.779218904797942313e-01
-1.261636665081042330e-01
-9.999187544941919026e-02
-7.719689698720383353e-02
-4.008437819791646484e-02
-3.605448958149519434e-02
-5.882076667411054866e-02
-2.656895831937496066e-02
7.733783758394643937e-02
1.910581636943705364e-01
2.395583023510299558e-01
1.772718458522138107e-01
1.038531857839454509e-01
1.514788240651613882e-01
1.848047911732272341e-01
3.687035408042812351e-02
-1.245091079483697516e-01
-1.272584411404629745e-01
-7.561379149381099174e-02
-6.900149951486081457e-02
-7.962493913175265614e-02
-8.025119602032002031e-02
-5.389652401641044366e-02
9.193619416640682121e-03
7.691821481188385046e-02
1.000782291461658896e-01
7.173694937737253030e-02
3.882791523818972940e-02
2.188770951820389818e-02
-9.597144780009409654e-03
-4.867465126043591522e-02
-6.217646888762177332e-02
-5.876215183377343082e-02
-3.912845991316949573e-02
1.486142346004655154e-02
8.574295099433906775e-02
1.460040342467394114e-01
1.293921829660989453e-01
-4.107014255913142564e-02
-2.429868896307059434e-01
-3.020581580542831546e-01
-3.162580078202532619e-01
-4.060853341152904639e-01
-4.635508944359265637e-01
-4.073620224762575237e-01
-2.959588651141391580e-01
-1.597976249808366056e-01
4.313715181451120706e-02
3.105986605119708810e-01
5.384095937289354872e-01
6.610959027039222669e-01
7.295296934744018857e-01
7.557947553925086215e-01
6.774998135857162040e-01
4.981770152040154720e-01
2.806679026487466921e-01
7.599066615864141783e-02
-8.416292134028091620e-02
-2.541029679359699811e-01
-4.988664377537082029e-01
-6.989408937418801759e-01
-7.152681473595228212e-01
-6.083300827699330560e-01
-4.639663029205508549e-01
-2.907578862414571530e-01
-1.170813758096727053e-01
4.344399050214024782e-02
2.055526327765053729e-01
3.316153243084788982e-01
3.755459159599168761e-01
3.487695214393358167e-01
2.751587290868156011e-01
1.802727980038449362e-01
9.398728043332742199e-02
5.263517224176415821e-03
-9.266928607905842996e-02
-1.534686367751781355e-01
-1.578913470211434911e-01
-1.366082753309820208e-01
-9.792062174336532698e-02
-4.929169409804456947e-02
-2.585811812666689857e-02
-1.829982836302103746e-02
-5.890859360974387560e-04
-9.465592321935712566e-04
-1.292303519520658639e-02
9.500526667906412925e-03
4.096540800022213658e-02
5.300618583664438999e-02
7.031071758812167116e-02
6.699409743458782651e-02
1.035959162227438439e-02
-2.871118734115418042e-02
-1.199457847156809240e-03
2.942723060373854393e-02
4.311246750493726021e-02
8.966821991180426443e-02
1.314316207107994461e-01
9.277438321701059198e-02
1.985409078438578681e-02
-5.681449553272314990e-03
-2.391824020189305469e-02
-1.056465215616964881e-01
-2.061914910834333481e-01
-2.371360789603723651e-01
-1.892486438241820779e-01
-1.038692837249903661e-01
-6.707819946985008053e-03
7.243431776949624257e-02
9.837634426607946847e-02
9.277882333967896189e-02
9.873861091444322002e-02
9.657521652795587885e-02
6.337259441599955856e-02
3.315486894839781568e-02
2.760763604626562465e-02
2.970896950050302618e-02
2.880409690791256583e-02
1.408044478343073273e-02
-3.587991469097470687e-02
-1.055438591650961766e-01
-1.409891329898309564e-01
-1.226852819072180023e-01
-7.365389027699041635e-02
-6.824067111844566227e-03
6.207494858167917490e-02
9.785751699039858809e-02
1.048743811849356389e-01
1.216950818731369760e-01
1.257644757038167416e-01
6.799160598613598894e-02
-4.227454446312163723e-03
-3.245583931486165780e-02
-7.134997187153110931e-02
-1.159475864826025049e-01
-5.755591388955828142e-02
2.599353620756727351e-02
-2.285213415223965455e-02
-9.934154375746287458e-02
-5.790965429501054862e-02
2.135009426392678669e-02
4.199899429668155909e-02
3.893073652673266494e-02
5.915689908959140264e-02
7.649390672787531598e-02
5.337946364591768245e-02
1.733183935075124221e-02
9.263027552770492640e-03
1.832988676419075591e-02
1.829965593113809519e-02
-1.302844000829135249e-02
-8.659373482323375060e-02
-1.386843457692654713e-01
-9.328313254086204043e-02
-1.099933055274269177e-02
1.989713255565333030e-02
4.944024843981230377e-02
1.117913897327799805e-01
1.161539995038996936e-01
2.939284320590185989e-02
-6.421180661437950188e-02
-1.031309350408029790e-01
-9.522670788689752142e-02
-7.277500259702578134e-02
-6.135332716124361485e-02
-5.761305537088579759e-02
-3.029806576473360880e-02
3.653327697992946044e-02
1.036072521706800087e-01
1.180766694695970370e-01
9.311236494841897138e-02
6.899618675924902578e-02
3.160833852262518590e-02
-2.569629761634360451e-02
-5.535304482127066661e-02
-3.498349150419452491e-02
7.580543663453075814e-03
3.047778048580494781e-02
1.477032390275692490e-02
-1.971992463992552902e-02
-6.226951309850906752e-02
-9.639017943650438069e-02
-7.810498552471875633e-02
-2.940828221599347397e-02
-4.482054238917316559e-03
2.533764666903067300e-02
8.903927248538345829e-02
1.355091809395732871e-01
1.189467148408301644e-01
5.784758607218744297e-02
-1.306087580447744603e-03
-3.012825584564458176e-02
-4.733867513195062771e-02
-9.421775379280628027e-02
-1.188310658836798928e-01
-2.780578132892292179e-02
6.701029825179732891e-02
7.307644002846152426e-03
-6.940753522694664834e-02
-6.290849675714103861e-05
8.946799617093588453e-02
7.147880168631455533e-02
2.063287349002269899e-02
8.390228203735449961e-03
2.072420594054003203e-03
-1.876457736922696254e-02
-2.120694546561202251e-02
-2.030694048051698026e-03
1.438236103684108896e-03
-6.740059991430599577e-03
-4.323977831593718915e-03
-2.272576583293224248e-02
-6.759480251037637555e-02
-6.832788991440696957e-02
-6.729163190687711960e-03
6.166601763730140962e-02
1.160313743384820129e-01
1.329405432185511715e-01
7.309932621098380601e-02
-1.479683485298998943e-02
-7.310123177434485475e-02
-1.264246487399459939e-01
-1.675393614248794349e-01
-1.625714232076507226e-01
-1.333042729913777313e-01
-7.140715830363379701e-02
3.893216652396564587e-02
1.140224774768319044e-01
1.150371588208952134e-01
1.260072179418782745e-01
1.526175997838788989e-01
1.089054385894191318e-01
1.241309550770340955e-02
-3.889266565708796031e-02
-2.598381039273138515e-02
-9.915316146038945233e-03
-1.590134995403626184e-02
-8.313030076896753620e-03
5.191814014304827613e-03
-2.986344667390347998e-02
-9.128748096303464232e-02
-1.071679677480057713e-01
-7.296650328460739521e-02
-3.004246767449427619e-02
1.303907212225799937e-02
7.913281894920487503e-02
1.508977633858365197e-01
1.702258558795825827e-01
1.309819994869821091e-01
6.851591982294337468e-02
-3.831740681200755672e-03
-5.641487191524371947e-02
-6.131008191524264794e-02
-5.971111388011687837e-02
-8.236493700767270887e-02
-9.258415312292815613e-02
-6.825745786634837553e-02
-3.431800816981647739e-02
-2.299298256683059150e-02
-2.689094643667292589e-02
-5.923878907840266980e-03
2.726587452177613169e-02
2.602285360710542700e-02
9.751387534047690001e-03
2.036359057875372289e-02
3.918387805162499432e-02
3.496981820412961572e-02
2.477294681808737964e-02
2.223402540505015068e-02
-6.372726600067188212e-03
-6.699680231043828038e-02
-1.074273758570471332e-01
-9.290590071569596042e-02
-2.777316883139747256e-02
5.461107004568363510e-02
1.037227199250864151e-01
1.145272438054887598e-01
1.085686008949442172e-01
6.483925222046571513e-02
-1.467507793566133131e-02
-6.690793394939957561e-02
-7.185742856902363473e-02
-7.153302470719904993e-02
-8.049067694697080444e-02
-6.503923635723179997e-02
-1.372730553921944902e-02
1.054125151677064512e-02
-1.951329621395734432e-02
-1.211939659872310164e-02
4.003008209229113462e-02
3.227692017268340291e-02
2.960255139019906181e-02
1.280099983174730338e-01
1.937409445964103916e-01
1.420295243947832797e-01
7.361288947657965154e-02
1.924078966444286651e-02
-5.904470438746884514e-02
-1.339207963166890170e-01
-1.742052772036621344e-01
-1.883557105462841941e-01
-1.741482249254171499e-01
-1.224891390618147169e-01
-4.880880692105275115e-02
3.988423420088639537e-02
1.432018673536419595e-01
2.046241120885230746e-01
1.956336261694004985e-01
1.934058219728022610e-01
1.665582291474161647e-01
-1.613884442616754511e-02
-2.139608304117331383e-01
-1.958314499585406820e-01
-8.240978902738096967e-02
-6.163955647400552740e-02
-7.332493927964425784e-02
-5.504296903158181070e-02
-3.857847003288698839e-02
-1.009146502614765260e-02
4.228776286084714314e-02
7.164883819971822054e-02
6.179911377417017515e-02
4.505176757933964521e-02
2.029166423613568485e-02
-3.361298328054373313e-02
-7.270181732508934624e-02
-3.339402016074019541e-02
4.680361182664978525e-02
7.844952816426113695e-02
5.539815717356434688e-02
1.669031229743385067e-02
-3.651878021145070485e-02
-7.434499765716623410e-02
-2.810065338636588694e-02
7.768823884288796056e-02
1.423403515517353279e-01
1.433353367818178126e-01
1.198619335622706367e-01
6.478534377974597136e-02
-4.065554385644727653e-02
-1.475471237705382188e-01
-1.861506020563099550e-01
-1.660444420926679987e-01
-1.390721052632664101e-01
-1.030683291582587258e-01
-4.804759342864663857e-02
5.692205203839971472e-03
6.011879124756788761e-02
1.040647254975283070e-01
1.263679605885291157e-01
1.707146711517863180e-01
1.722549745353643136e-01
1.207748802643342396e-02
-1.421065437523277575e-01
-7.564291354145831481e-02
5.544075349924087320e-02
4.708443462940748586e-02
-3.773748506357899740e-02
-9.337516129370007634e-02
-1.044868961938259788e-01
-8.343022961832473328e-02
-5.245354037565432698e-02
-2.657551204645421106e-02
-9.861550702799870560e-03
-4.676429483185872565e-03
1.562827513043684932e-03
2.946617692634517088e-02
8.091296272524781119e-02
1.268100285643372349e-01
1.299059770075466913e-01
9.073918938941839818e-02
4.361909173711343846e-02
6.113534130419498447e-03
-2.681153395297476011e-02
-5.687255377995859701e-02
-7.742180172388500592e-02
-7.664419811389207304e-02
-6.359015083101499100e-02
-6.398706210176120790e-02
-5.407829443005541387e-02
-2.989173991387691041e-03
4.484218348157938128e-02
5.728118834189906139e-02
5.920393099288304151e-02
4.280530175666114046e-02
5.994320398661016555e-03
-2.153167747056008736e-03
3.076155919145622149e-03
-3.173706092049195793e-02
-8.537492232303789397e-02
-1.317984289893842920e-01
-1.152433774701978331e-01
3.435749000982489532e-02
1.636036329986366167e-01
1.185332445414121472e-01
6.935995644806236538e-02
1.124542671018849554e-01
8.512976944255915002e-02
-1.465283262542067116e-02
-5.001305898161730046e-02
-5.004548212456371575e-02
-8.525820301161574077e-02
-1.059833641883597688e-01
-7.573508840196574443e-02
-4.863475966846179943e-02
-3.811385542765330370e-02
2.941884594756666998e-02
1.457895678178829646e-01
1.805072902370905008e-01
1.218532761353109395e-01
1.080424469685326849e-01
8.540426690242261532e-02
-1.104990545021509035e-01
-2.513130739376212008e-01
-6.002433031591559998e-02
1.398044946685143564e-01
2.666947884124438312e-02
-1.212462750220337504e-01
-6.567298306394321605e-02
3.284793142530123555e-02
4.353988955232292180e-02
6.093812079441362009e-03
-1.868688232819721434e-02
-1.095122137998710311e-02
-2.105818764568508084e-02
-8.580968499499851132e-02
-1.501586238738906731e-01
-1.863668900244528914e-01
-2.374766402055722980e-01
-2.947077233539324159e-01
-2.928234455830808214e-01
-2.095896051593116594e-01
-9.142360909124673529e-02
1.851189051002917474e-02
1.521601663140756400e-01
3.382662905485795957e-01
4.997316421794771313e-01
5.545872865134660046e-01
5.284607724123416839e-01
4.745124143622859725e-01
3.886878297116783121e-01
2.463594931238373142e-01
6.190668571602406245e-02
-1.138447688374609051e-01
-2.488846002875259034e-01
-3.386951952273426492e-01
-3.887635136040269446e-01
-4.221396774878621860e-01
-4.192509416234184161e-01
-3.272082012898246406e-01
-1.826700623572540538e-01
-5.214470076222444545e-02
6.131618328462969114e-02
1.518158248298475677e-01
2.181679806959057055e-01
2.618086844309436279e-01
2.283389993590201894e-01
1.162917761641731607e-01
5.299789359633252928e-03
-9.691888727005830428e-02
-1.922880318739516314e-01
-1.993209302340218647e-01
-1.312871885341324318e-01
-8.998547735592841990e-02
-5.097544176023607876e-02
3.315408851396209333e-02
8.706294714429517467e-02
8.030140487971451635e-02
8.025438363591071156e-02
8.543921269336794688e-02
4.526070264950918243e-02
2.330145928391164772e-04
1.937559386514917104e-02
4.818783072997329109e-02
-1.016706329602091487e-02
-7.626598525960837094e-02
-3.068034839678277989e-02
7.875904475722882506e-03
-5.604522258777826227e-02
-6.964974228971747283e-02
2.769679958314380866e-02
1.245396784329395601e-01
1.443474746738669656e-01
5.811514903972421486e-02
-2.618475384888728150e-02
3.209762190998734221e-02
1.112435220582098511e-01
5.895833061122195129e-02
-3.093663980111018008e-02
-7.768916989989867183e-02
-1.361112378938136858e-01
-1.564107122445942133e-01
-4.879163343850921597e-02
4.543099317238165347e-02
-3.637292515860073711e-03
-4.317519537021650977e-02
1.738341421407519835e-02
4.882881444672572402e-02
1.938125977888502383e-02
2.067833097830506367e-02
5.278055751366880766e-02
5.310762144860012302e-02
2.740036616115816559e-02
1.291988071588590428e-02
5.040099136733405122e-03
-7.127129046056272788e-03
-2.662791373570431996e-02
-6.516262575341195962e-02
-1.047437607262190623e-01
-1.060247353817792282e-01
-6.126843607070769221e-02
1.568950826045995353e-02
9.873937654624750926e-02
1.282535785999810163e-01
6.705102071813445752e-02
-1.995162553093506042e-02
-4.585879036663664809e-02
-5.315806178485917716e-02
-1.244871252824654023e-01
-1.610963390566114706e-01
-4.500253319594005319e-02
6.916556375207771890e-02
3.774697928366052557e-02
1.248158133581119683e-02
9.861003276727917100e-02
1.799066173785558442e-01
1.738416645371521629e-01
1.024738708405502352e-01
1.585275165116152921e-02
-3.260205089930528349e-02
-3.426579034337642882e-02
-2.529556632433612937e-02
-2.507497630128418392e-02
-3.133315329932333942e-02
-5.710738531061691076e-02
-1.065760881733109483e-01
-1.396026099144651311e-01
-1.274757615926149223e-01
-8.840073135304325758e-02
-3.648914820533952219e-02
2.609052134857086508e-02
8.794190540305479864e-02
1.387637667073932934e-01
1.616000350597026625e-01
1.489743674646205607e-01
1.227616079052241543e-01
7.908017334574657387e-02
6.888571172979866125e-04
-6.001935083254011233e-02
-6.156170259495460234e-02
-7.117471940691313947e-02
-1.234865764786269998e-01
-1.400759144954278890e-01
-9.732609058956806503e-02
-4.921854606521985226e-02
2.113468988758845923e-03
4.265812804766946909e-02
2.286611771291103060e-02
-7.406664112383252313e-03
1.515458003315935109e-02
3.690399327830196086e-02
2.389802626391374432e-02
1.838934611853051612e-02
2.419098151811994307e-02
2.294340934851925307e-02
1.876137424690626013e-02
-3.028110040797501751e-03
-4.948381229851447904e-02
-8.977151439433632418e-02
-1.088230061255665293e-01
-1.036104229955276124e-01
-3.785361986075491680e-02
9.109211019891809424e-02
1.957697951297422412e-01
2.249027000275998223e-01
2.322193984203386186e-01
2.174860479628442367e-01
1.122276554492594169e-01
-2.898266735747813405e-02
-9.786624635500823510e-02
-1.285825440734739977e-01
-1.889979027918005650e-01
-2.335098211072415553e-01
-2.017760668467490637e-01
-1.221242564013993864e-01
-5.863720365122625233e-02
-2.450618274496552812e-02
7.107359395825321030e-03
3.945651250569796875e-02
6.610335678807394144e-02
1.000483784720157809e-01
1.307856375394556292e-01
1.299760760545969895e-01
1.006533142122219837e-01
4.407472073405802049e-02
-2.573388523322001770e-02
-3.895075291373420456e-02
-2.073947917887403875e-02
-8.723775871680995719e-02
-1.613099629762642373e-01
-8.907296684687383836e-02
4.115317348347407450e-02
8.428729277185877111e-02
6.856699193891462041e-02
5.566605622902942585e-02
2.796689696460173680e-02
-3.105175637489371657e-02
-5.977011128460600620e-02
-1.259367870760631607e-02
4.679088071834653501e-02
6.645792861939413265e-02
5.570497578621338292e-02
5.976706652535952822e-04
-6.492076438892990797e-02
-5.465079102316633408e-02
-9.567934012584627945e-03
-3.705289373852829748e-02
-7.771006349814033043e-02
-1.299816131351040627e-02
4.762244473888554291e-02
-4.036693061520719994e-02
-1.014364419999184003e-01
2.836713644934564169e-02
1.553823586571083104e-01
1.323861258806482699e-01
6.222688745092443824e-02
1.610716193999331240e-03
-5.553443372336915040e-02
-7.805986141638154852e-02
-7.016766333719032245e-02
-4.814096250694005485e-02
8.249695759769193337e-03
9.441766640745839767e-02
1.446513708302366030e-01
1.042728356653980226e-01
1.246860266881553124e-02
-7.158828602351771653e-02
-1.444390070061125075e-01
-1.782288885781118659e-01
-1.602466574149910283e-01
-1.556325014855199640e-01
-1.163138373300894729e-01
6.404215898375206772e-02
2.329652368230888393e-01
2.044306609460675439e-01
1.039917236930608946e-01
8.196107046910230953e-02
7.934298702038718176e-02
3.087854751692377733e-02
-3.091315820467773617e-02
-5.738193875008919254e-02
-4.313170620925516063e-02
-2.084871888692197209e-02
-2.256809092168025888e-02
-5.200562679299267077e-02
-7.550074492293323836e-02
-7.123200824445947987e-02
-6.701911885698774718e-02
-6.593769114362227346e-02
-3.118636242847436929e-02
2.086236015420547124e-02
5.069288989825580793e-02
7.077279622404474002e-02
8.826470653718847259e-02
9.260119060822059878e-02
1.004784480446815342e-01
1.054134684271689354e-01
6.978278428941095402e-02
-2.038183746504550718e-03
-6.380748644510760015e-02
-8.465558744152240633e-02
-7.490960468559104690e-02
-6.109020361721684278e-02
-5.831924431680257648e-02
-6.048540389851843335e-02
-3.476034949857767509e-02
3.041821439293105472e-02
8.708875702055726697e-02
8.436568542258537917e-02
2.194089450050071277e-02
-4.532705487910679287e-02
-5.223612764601089087e-02
-1.253731343943487002e-02
4.239137704810760562e-03
-4.714633901359545354e-03
9.802328918800340407e-03
4.327352964859669526e-02
5.493814088012111130e-02
4.509776036382419362e-02
5.490439049087514345e-02
1.065285639965535269e-01
1.598271763631617659e-01
1.735344486340612835e-01
1.657055717763021296e-01
1.318891071330387521e-01
8.887586226233045589e-03
-2.194037908976901874e-01
-4.647609296122969247e-01
-6.119957141511634946e-01
-6.417532250481442491e-01
-6.155822137815613049e-01
-5.291433763486129704e-01
-3.198585013117967168e-01
-1.837127798085581853e-02
2.589327920712564679e-01
4.464846733424041592e-01
5.804402574378790813e-01
7.159136719503773616e-01
7.749470193328376055e-01
6.462878962023290708e-01
4.934184528337697273e-01
5.000650319561077417e-01
4.085634415273003417e-01
-9.834092572752389794e-03
-4.279277605371771820e-01
-5.334076128940881123e-01
-4.828229828733546780e-01
-4.477948267921764702e-01
-3.871452163167744542e-01
-2.948547349795145878e-01
-2.123498691608909084e-01
-1.425897001784619533e-01
-8.394472452652179673e-02
-1.881158340791955208e-02
5.867807287072446254e-02
1.099073741045008684e-01
1.302136416642329375e-01
1.528159862343643760e-01
1.625264760064228931e-01
1.144650018540906700e-01
2.737658149339851008e-02
-1.546755111279396640e-02
1.266480168975315720e-02
3.508794082942877368e-02
1.230250413262807055e-02
9.843336629732584928e-03
5.077536654754627454e-02
5.458249681131986664e-02
-9.040639001973115735e-03
-6.095518598041801267e-02
-5.829753768376703948e-02
-4.920232557139329888e-02
-6.238510462590950156e-02
-8.049584334038581424e-02
-9.962449008976895226e-02
-1.071941114591629801e-01
-5.880820400114598195e-02
3.578541894244745281e-02
9.667220634041098770e-02
1.125008051994459690e-01
1.335834800186540827e-01
1.231264803070256653e-01
3.961993941873196562e-02
-3.006963010858660496e-02
-3.832967449329934689e-02
-7.195952645404338210e-02
-1.141952273900753712e-01
-5.388367285321464528e-02
2.100245633402959833e-02
-1.169754592857642252e-02
-4.436013590118538519e-02
2.934425609042416380e-03
6.066604362745574297e-02
1.026414051653811443e-01
1.167438487278462805e-01
7.382494775842558810e-02
1.587373524576745493e-02
-1.343545964214492607e-02
-1.846669863430260364e-02
-8.260747108754618734e-03
-1.049814662465555284e-02
-2.970790825512917288e-02
-3.330623610415703317e-02
-5.776158277752056758e-02
-1.399801516865208928e-01
-1.762981894153503870e-01
-8.830819162102458708e-02
1.473046880563381837e-02
4.226202852833721435e-02
5.987017306155328900e-02
1.048676688772300081e-01
1.360296675315296744e-01
1.486087562575388044e-01
1.342728021877637457e-01
7.048978106807020361e-02
2.284223659458348328e-03
-3.087599528766894752e-02
-6.356700740577636566e-02
-1.047036435995352954e-01
-1.120368009238040807e-01
-8.679477255995610152e-02
-6.286017354937607771e-02
-3.815669382641988933e-02
-6.094338413159074153e-03
1.886943597215143612e-02
3.004637126679511258e-02
3.033241430561454260e-02
3.877837404691031331e-02
6.721209579121552313e-02
7.180530039098656503e-02
2.798026215690160856e-02
-2.315887660355655988e-03
9.926467392068311427e-03
5.155923129313736558e-03
-3.403529627374118210e-02
-6.359161019228448675e-02
-7.147011036833353370e-02
-5.170215882318811990e-02
1.445792912673638138e-02
9.142364869515395842e-02
1.224717264701499220e-01
1.082581712942857211e-01
6.672390387009562163e-02
-9.376681618672420143e-03
-1.074980522350336420e-01
-1.881751849784472908e-01
-2.197666618726262233e-01
-1.946974313171316029e-01
-1.387367513678232911e-01
-6.462275320954231905e-02
3.647874706216319707e-02
1.215651928439856339e-01
1.503535606219276455e-01
1.523461391108800189e-01
1.347497908497912178e-01
7.963951485934167573e-02
1.864746848602705578e-02
-2.599922353216491816e-02
-6.583928918995951562e-02
-8.596477936086587002e-02
-7.377107131912107041e-02
-4.644081216273551749e-02
-1.593191658586684545e-02
2.173303174680698419e-02
8.677122896180911038e-02
1.725965313045322302e-01
2.134821937115105872e-01
1.885901378571699372e-01
1.643056230597118306e-01
1.515845105348156974e-01
8.649744189750280254e-02
-2.703058028230885534e-02
-1.398211358943823868e-01
-2.364563002205300191e-01
-2.805521615354411025e-01
-2.569800810505185606e-01
-2.223212711354351778e-01
-1.756890098873687966e-01
-7.712730860259030263e-02
8.109560198238382339e-03
2.618116509747406284e-02
6.272996047933281083e-02
1.525618949976711991e-01
1.762734938158103393e-01
1.026381998151452424e-01
6.192103005061454224e-02
7.900972675141916535e-02
4.170117654800907514e-02
-5.321227538918120448e-02
-1.019233232784808041e-01
-7.417201834504177915e-02
-1.716871063642199519e-02
2.566807816432675401e-02
3.192645879755433291e-02
5.887411058406762446e-03
-2.072749009501130557e-02
-2.440409026621034178e-02
-1.177814857495636941e-02
1.501826304957541020e-02
7.697827228793295562e-02
1.502883555430167273e-01
1.472543491483613298e-01
4.686531208906816182e-02
-5.235368352834102179e-02
-8.165784428657701932e-02
-9.807895571693281411e-02
-1.539265836278625732e-01
-1.841124844373356606e-01
-1.401559574482497128e-01
-6.830518086669931654e-02
2.364008487366018457e-02
1.438397303101449087e-01
2.174209469710020604e-01
1.938620228337047946e-01
1.063329304023390293e-01
2.676597856458507591e-03
-7.178731902539166321e-02
-9.825163459466396132e-02
-8.697408308563230050e-02
-3.070918762929949336e-02
5.275635228623892781e-02
8.958403745430544574e-02
4.439208081636890346e-02
-3.266384697138251941e-02
-8.503524615495494654e-02
-1.068347044227034998e-01
-1.057903092073116114e-01
-8.424978634801208455e-02
-6.178231096529207544e-02
-4.360595121534838192e-02
1.046581575649315962e-03
9.124625575449132886e-02
1.975229459951724775e-01
2.418131382609017277e-01
1.745809121294155664e-01
7.235373376420202451e-02
2.680275736830298183e-02
-1.433390150313150480e-02
-1.050673586883602018e-01
-1.634745947476125283e-01
-1.518325229348210792e-01
-1.436211397387352762e-01
-1.405695027944828257e-01
-8.633382996642727236e-02
-8.233672746031504841e-03
3.781042215953429875e-02
5.733551376060387617e-02
8.223189653652887565e-02
1.084597192928496157e-01
9.677534163723172655e-02
4.911885575272858379e-02
1.190785141768065970e-02
-1.632665556806935439e-02
-5.171464337292316915e-02
-5.720608670506083238e-02
-2.285154269003059416e-02
1.353101990641072082e-02
5.329899993985241780e-02
1.076471255544981243e-01
1.316762663826277768e-01
1.028867650861644695e-01
7.457821511662132696e-02
5.188971413335973643e-02
-2.918368466311315607e-02
-1.329239966012232543e-01
-1.698252807718047541e-01
-1.658076918869716421e-01
-1.583825111727459323e-01
-1.116884264042957292e-01
-3.073684437683114543e-02
4.543253191906650168e-02
1.131205468644528866e-01
1.718927045275464027e-01
2.040816284505214961e-01
2.037050041235538567e-01
1.924471478515950851e-01
1.749305896509050495e-01
1.162392885849055091e-01
2.531299761055556125e-03
-1.356899962859892395e-01
-2.708864357621036389e-01
-4.222797269480585980e-01
-5.988760673561194237e-01
-7.077018738283419319e-01
-6.621614959171640002e-01
-5.035480565418761767e-01
-2.737514590364855671e-01
4.605407312944451159e-02
3.907965870817856069e-01
6.305897302769555290e-01
7.547136612562662661e-01
8.352602576085382813e-01
8.519668348400877278e-01
7.415579937304952463e-01
5.365716063663616975e-01
3.091350262469172994e-01
7.672153713708902700e-02
-1.573684947817278745e-01
-3.544414391291149657e-01
-4.746535172483587472e-01
-5.249487124772812541e-01
-5.393320821527888276e-01
-5.192458606172111191e-01
-4.347692672103230516e-01
-2.883968679544088309e-01
-1.409942563453862596e-01
-4.803643034333718309e-02
1.995495639416312861e-02
1.205233678211762305e-01
2.139212194944512535e-01
2.286014601147923764e-01
1.955172040676438350e-01
1.736200182376069767e-01
1.474019525660135721e-01
9.002124503328298721e-02
3.465599103855796642e-02
3.526897295920943670e-02
7.298214977951825166e-02
6.086271547312807617e-02
-1.801915760435676694e-02
-9.145496223435459204e-02
-1.370514889116134782e-01
-1.842094731101403260e-01
-2.057952380370718926e-01
-1.535625632016399955e-01
-6.235747394674249350e-02
-5.270380249051190985e-03
2.056919773594811235e-02
5.447666940804347241e-02
8.150336883901564133e-02
8.826251647675094347e-02
9.965658165563845428e-02
9.994881251453655024e-02
6.115416638936855415e-02
2.745467604300628681e-02
2.797548254982616667e-02
1.815451892987131680e-02
-2.393365281843314041e-03
1.416976172605853047e-02
4.215402272551113660e-02
1.285691344304976981e-02
-6.516713246620589595e-02
-1.100878509370080416e-01
-8.251582881798368019e-02
-2.644538847117972741e-02
1.185909194312868321e-02
2.420497788879327067e-02
3.322588206039427811e-02
6.693913090242686881e-02
8.941738317779306111e-02
5.893230093571544259e-02
2.479397777860956054e-02
2.262700538854079887e-02
1.344120136158405768e-02
-1.838919670581731086e-02
-5.850674757717055918e-02
-1.019180532477350076e-01
-1.234234751324750218e-01
-9.754410151063770684e-02
-4.706048672634440683e-02
8.870503328277448696e-04
4.385672654611501992e-02
5.486870674766482214e-02
1.678179815699816155e-02
-1.552576713955349484e-02
-1.154296870677387794e-03
2.375432027378624952e-02
3.048677971747600773e-02
2.456239412631038357e-02
1.167478855660113168e-02
1.674527679803581096e-02
3.263001173380434411e-02
1.566183174570927664e-03
-4.266421611044002998e-02
-1.392594290524919697e-02
4.542731809034633583e-02
6.532384416755089573e-02
7.814698847137124815e-02
9.860019614778800512e-02
7.862014303592115838e-02
5.402454689227472948e-03
-8.461116721481129477e-02
-1.586169653316846784e-01
-2.072971261609081184e-01
-2.184139050202150156e-01
-1.751196032280866455e-01
-9.383797877285642020e-02
1.288708550880642706e-03
1.028026815389071480e-01
1.755555559826051937e-01
1.906010930103118617e-01
1.719346929305103633e-01
1.264522630148830207e-01
4.644176666756939104e-02
-1.610372196321783328e-02
-1.508187733299068758e-02
1.361846354303837200e-02
1.588623391350597186e-02
-1.986226157585568169e-02
-7.411113350713187387e-02
-1.239941259598090761e-01
-1.564827954519259767e-01
-1.456411745116828471e-01
-7.282027007438211796e-02
2.120480563049735936e-02
8.962848684243775177e-02
1.278065181534602524e-01
1.375759513941152701e-01
1.294813920572356059e-01
1.177892729739423855e-01
8.797896694255359640e-02
3.111150229704221643e-02
-2.139965259398965425e-02
-4.561401326277551849e-02
-6.441872426048178557e-02
-9.619616456917583214e-02
-1.143125314178716490e-01
-9.854988924078346424e-02
-6.750652266783106759e-02
-3.633333996920390385e-02
-5.428987653941065930e-03
1.259459284248716331e-02
1.833008577459990449e-02
3.765883453260418512e-02
6.193483261786277005e-02
5.835353218186904029e-02
3.895780722049307920e-02
2.605659559195249581e-02
9.374469693443004265e-03
-8.874066483390877572e-03
-3.818890529912733617e-02
-1.220122217420293587e-01
-1.787249821132055327e-01
-6.633717186750176520e-02
8.953629585271591362e-02
9.637876793971447698e-02
6.083809870861112135e-02
8.572925543332288179e-02
6.906432039492682584e-02
7.910388429982293662e-04
-3.548309686577078015e-02
-4.671115357676602908e-02
-5.620445584572568432e-02
-5.247297927962704667e-02
-4.027634550695391447e-02
-2.880112055664555554e-02
-2.254943584887004679e-02
-2.676978830415054425e-02
-2.260645914664595468e-02
2.894378522977522628e-02
1.207668653497643296e-01
1.758292708977910734e-01
1.487828607393601454e-01
9.252486326803681382e-02
7.150264176004489380e-02
8.004371071603064158e-02
6.950146946310077622e-02
1.085108934862953102e-02
-7.530305564693556830e-02
-1.453832880759572954e-01
-1.912002511660781112e-01
-2.376523848869068201e-01
-2.661425055018004637e-01
-2.152161968781531320e-01
-8.356140431724881634e-02
4.986730299378338421e-02
1.254789034847738349e-01
1.624482234952394633e-01
1.904494343227110531e-01
1.893945557257233347e-01
1.564757604749699160e-01
1.164407050417379519e-01
4.806420379286868716e-02
-4.229878959857658050e-02
-7.945577148653397426e-02
-6.193178840372595001e-02
-5.294729510196942435e-02
-5.374969349065400470e-02
-4.814644044001131773e-02
-4.937506014746259608e-02
-5.788785833513087481e-02
-4.380822071979347671e-02
2.786948721418257627e-02
7.107493824298907747e-02
-3.270987355565616039e-02
-1.237861169055685384e-01
-2.512655982611235184e-02
8.005198766825916135e-02
4.827810979269191866e-02
1.550131592418464190e-02
3.048943651940754992e-02
1.252334765827031043e-02
-3.089414296219878883e-02
-4.283441673893186724e-02
-4.682105474708245577e-03
6.559715632580102873e-02
1.168054135974534030e-01
1.149339835386607445e-01
1.073773558088577385e-01
1.322563176975094512e-01
9.957173162430303648e-02
-5.710491756173202010e-02
-2.282277528429159097e-01
-3.146925504656656880e-01
-3.471885408157528996e-01
-3.259132994772973024e-01
-2.057863836574034266e-01
-2.533037974378284790e-02
1.462628853630632553e-01
2.865296382996381230e-01
3.600354910615732318e-01
3.297401742788570456e-01
2.340296796744352759e-01
1.402803341012718030e-01
6.983760855541067125e-02
1.209296850678221250e-02
-4.090555247709286996e-02
-7.630591483884523185e-02
-8.390439092658993903e-02
-9.474448962780485095e-02
-1.334100305019090271e-01
-1.635157579801021221e-01
-1.482641398132147070e-01
-1.121347453470177558e-01
-9.001652604469990993e-02
-7.158371845916870757e-02
-3.701756757872504133e-02
1.085342300370273003e-02
6.380898288061374879e-02
1.071682084101353849e-01
1.332059852434946956e-01
1.554303951386621363e-01
1.532537008905603959e-01
8.903184653144519123e-02
2.797044709028678917e-03
-4.737591170331090923e-02
-8.108484029306228802e-02
-1.251084658816306594e-01
-1.509910776127701970e-01
-1.258774283464469956e-01
-5.697603807771139950e-02
2.484169597533312027e-02
8.907938164676978965e-02
1.008697984559372984e-01
4.796025234704768409e-02
-1.698988851050101112e-02
-2.846664160231514654e-02
1.092709461514284122e-02
5.237401616851920100e-02
6.159859311576823537e-02
2.670090880873146610e-02
-3.101305135695725523e-02
-5.422630915722558009e-02
-1.917359445270824109e-02
4.156402299016404706e-02
9.769063299544521184e-02
1.245419635292526056e-01
1.048813575894014805e-01
6.252784803070388087e-02
1.765833447520655936e-02
-3.239457352948022645e-02
-7.206915686107276398e-02
-9.993518992750086150e-02
-1.216365999946962956e-01
-1.081757390795825002e-01
-6.458692841525524864e-02
-2.321859369498834730e-02
3.131771112528741047e-02
9.486509523738803629e-02
1.178922573095503995e-01
9.817743162467323925e-02
7.566281607445876634e-02
6.100465618148590702e-02
4.663885921669636003e-02
4.867055873379144693e-02
6.012334039939366825e-02
1.369129489413162953e-02
-1.205597494109375972e-01
-2.965979745242801613e-01
-4.685045260064860662e-01
-5.814920132818495180e-01
-5.788987307965509643e-01
-4.824355798763040326e-01
-3.309284972560341820e-01
-1.035792537618880765e-01
1.782345852808147613e-01
4.206040178409098385e-01
5.885608023241155617e-01
7.141530120219239386e-01
7.757478046312044073e-01
7.076762897267896424e-01
5.313017359281689833e-01
3.528264903745450543e-01
2.082514449556325531e-01
4.433405270964613232e-02
-1.418936221621004412e-01
-2.829955249419903174e-01
-3.419469259117475790e-01
-3.503736770074000750e-01
-3.628472389292215494e-01
-3.847490666512399793e-01
-3.643340703249233758e-01
-2.849143332152069830e-01
-1.999004192779829658e-01
-1.371365459607493120e-01
-6.318108656911930465e-02
2.894766478943181648e-02
1.019341929025788240e-01
1.418856416977732626e-01
1.568740757016894027e-01
1.464430677509892531e-01
1.202805288251125870e-01
1.100109462997357623e-01
1.335393758567068323e-01
1.570574257908408655e-01
1.416551608865593281e-01
1.017973564207913101e-01
4.678570813885440938e-02
-4.957619001645707790e-02
-1.632176735566331915e-01
-2.315500536657777719e-01
-2.598540135178955546e-01
-2.718504330325512974e-01
-2.206466358027666386e-01
-9.740039181275561564e-02
1.353283241878661808e-02
8.256111656970575863e-02
1.495078716705209865e-01
1.965568645412129889e-01
1.808084882560928031e-01
1.287343194910651190e-01
9.251233776115622143e-02
7.318801974054835180e-02
4.568225580833677746e-02
1.719286199639159796e-02
-2.109745136059763826e-04
-2.911551902739676137e-02
-8.838627255292416662e-02
-1.629887838828028290e-01
-2.022644307666005836e-01
-1.413028424471803324e-01
-4.412052302541283333e-04
1.005982605623727821e-01
1.122555503330146115e-01
1.084697416074958121e-01
1.354189704983109199e-01
1.586303431009053744e-01
1.401309837446774731e-01
7.831389441632520543e-02
1.164569685237827265e-02
-3.289705386636575246e-02
-8.037809639050300103e-02
-1.281261289080556365e-01
-1.372365219751034426e-01
-1.229944757894020774e-01
-1.111437647548393082e-01
-7.613642728978507745e-02
-1.263943071287634487e-02
2.805240363308176763e-02
1.613779336473448664e-02
-1.746087514931937701e-03
2.983686591797927654e-02
8.587213514643397827e-02
9.519529724578083829e-02
5.478176105604853907e-02
3.109046519061531982e-02
2.571095442208239101e-02
-2.004395087020010777e-02
-8.182726971187170850e-02
-9.437794367443290422e-02
-6.952751032622685179e-02
-3.319130991232899924e-02
2.460204660207996122e-02
8.242706058417686998e-02
1.051802502582585008e-01
9.782804091376197386e-02
6.343636752126997902e-02
-1.084806446589987004e-04
-6.289946600511092667e-02
-9.883684054167046762e-02
-1.024836795717752325e-01
-7.628395414175503930e-02
-5.015172772074207030e-02
-4.208899315617718739e-02
-1.691583208540944905e-02
4.128704235170838066e-02
9.227510490663211329e-02
1.055971794289882193e-01
8.646205548192663348e-02
4.052281864051970883e-02
-2.546555958605001974e-02
-7.010306857585926754e-02
-5.340071346098478056e-02
-1.900419672824525674e-03
2.689500847287812704e-02
2.063239234279770629e-02
2.034802862116929980e-03
-3.913476239180868621e-02
-1.131009131666319834e-01
-1.426883980442304189e-01
-9.262687927940811694e-02
-6.187516918018647755e-02
-1.941441918578626358e-02
1.639064071883891416e-01
3.177515834800628824e-01
2.302604235507724750e-01
8.444764241390385895e-02
6.133630479522508838e-02
3.813091521340805645e-02
-4.520202597558128921e-02
-8.755147317789083172e-02
-8.420324918899202427e-02
-1.049652339867237633e-01
-1.324032520840908722e-01
-1.122421986094280788e-01
-6.228781398398865188e-02
-3.090471175007546492e-02
-7.600329942256230792e-03
3.981034436598743925e-02
7.902917517319001106e-02
6.455814294897516126e-02
1.958816967353543478e-02
-1.234856269210948126e-02
-1.725130126143226833e-02
1.930043319922170562e-03
2.538996787113156212e-02
3.172317447453655570e-02
2.213595025400372576e-02
1.058397980100444190e-02
1.402097265635800834e-03
-1.290429705446970859e-02
-2.112805561166000712e-02
2.209948695152380745e-03
4.787858669631064878e-02
8.412070045460191825e-02
9.126929190508938083e-02
5.589818660226465036e-02
-1.363749408042756739e-02
-8.654288986556314678e-02
-1.412609897639830192e-01
-1.582703873650683768e-01
-1.318178708518047415e-01
-9.368309334428601143e-02
-5.585056989072020861e-02
1.281567309107970939e-02
1.006299876714009528e-01
1.439028008819890070e-01
1.293097235446435955e-01
9.163126691413137070e-02
4.150638678699298395e-02
-5.905998786309472372e-03
-2.439567422590439849e-02
-3.101403033905084788e-02
-4.299651448173373580e-02
-3.506279591577561583e-02
-1.199999368019259195e-02
-3.103387974056349627e-02
-1.047986348704811332e-01
-1.589363763013036390e-01
-1.386987921876079721e-01
-9.398040037310875783e-02
-6.278635144405605994e-02
2.705446339359674629e-02
1.831662041007319774e-01
2.869039447558921485e-01
3.103299519409662421e-01
2.763243805986939639e-01
1.473483122188889161e-01
-1.049504120324829155e-02
-9.017346773709875030e-02
-1.126671769150931202e-01
-1.114329080776860770e-01
-9.153763638216702581e-02
-8.611069253494985087e-02
-9.738083194952912303e-02
-8.591851352317275703e-02
-3.790845462144723510e-02
9.315887541574478098e-03
1.811143447830317055e-02
1.297192555192090355e-02
3.025638647863595349e-02
4.780924789507857986e-02
3.673936672085252597e-02
1.371488081427657893e-02
7.119829355418321772e-03
9.910062787465730508e-03
-8.088148230762412516e-03
-3.927267887497930959e-02
-5.934976012346221408e-02
-8.333042512526431245e-02
-1.003581844875575668e-01
-5.266289734894091107e-02
4.507362519628184405e-02
1.052258187756033303e-01
1.022240996735473695e-01
7.264448875949991447e-02
2.228211990649517360e-02
-4.559982687097502430e-02
-8.253645638085853331e-02
-6.744707540292810277e-02
-4.246043130240059749e-02
-3.129612833077962536e-02
-1.446557225591828776e-02
1.342197550639785859e-02
4.283827233198601869e-02
6.878915836875212908e-02
7.977493625627879448e-02
7.466925003777867553e-02
5.920512760705542998e-02
2.246712706709323715e-02
-3.114918919078200552e-02
-7.224918910575715836e-02
-7.472550203373563849e-02
-2.845674409408027739e-02
2.833870583353941680e-02
3.558567280055521809e-02
-3.490225516289968688e-03
-5.238269188808250543e-02
-9.597406652648010628e-02
-1.039992718586245091e-01
-5.846263278934492325e-02
-7.463679618421692301e-04
4.344522172103250368e-02
9.497099195483470202e-02
1.475578120974952445e-01
1.641078908346562393e-01
1.287745184087492889e-01
5.998289656464531050e-02
-1.471263902702090592e-03
-3.579058300835599726e-02
-6.556630691647521991e-02
-8.994447104645757196e-02
-7.887744209194388900e-02
-5.982193587768116355e-02
-7.172955256996786655e-02
-7.132662741822570762e-02
-2.348352750841154954e-02
2.031314196895901703e-02
1.897720155145574822e-02
2.421182845744451057e-03
9.541756589054144200e-05
-2.296940339220090305e-03
-1.231822459089799808e-02
-7.160389346214180231e-03
2.551756836057859565e-02
7.012823208700300071e-02
9.389465192527493564e-02
6.777836268460105118e-02
2.382621714068615566e-03
-5.552908086239569108e-02
-6.891201043781640390e-02
-3.694585908247476763e-02
1.740597645997780593e-02
7.090843591797757473e-02
9.823500337830884388e-02
8.156401922105735447e-02
3.483706168725841240e-02
-2.714149529981786310e-02
-1.031627297029645701e-01
-1.731436726135874016e-01
-2.051742280663398643e-01
-1.697606785456483580e-01
-7.060815949674827119e-02
3.381443708953292548e-02
1.073615047765523883e-01
1.541776459351234529e-01
1.559693349041536559e-01
1.136090429008329294e-01
6.840383949395505148e-02
2.409419932948759710e-02
-3.483249329027193059e-02
-7.413003428122334759e-02
-5.846235307748894050e-02
-1.776352774886840249e-02
-5.160024149562325232e-03
-2.721688481219202219e-02
-5.344195978591483043e-02
-6.731388788549513835e-02
-7.042987588024691992e-02
-5.407185552297809339e-02
-7.218121530093336499e-03
5.708501450537871447e-02
1.178404644145197994e-01
1.647348854575183541e-01
1.769115740418384930e-01
1.302490559400021064e-01
3.864436399170255443e-02
-4.639764525322834232e-02
-7.968532626805413521e-02
-6.851083662227733240e-02
-5.859847797676420722e-02
-6.075940595394928312e-02
-5.095365257863056219e-02
-3.817111160939760245e-02
-4.496217497274292846e-02
-4.978495510489949066e-02
-3.115735834628133652e-02
-1.401917322617812593e-02
-9.056269209925608618e-03
1.078556290728859869e-02
3.968702933400143629e-02
3.899318561623631163e-02
1.352311289070743695e-02
1.788006674313147998e-02
6.782340521616066209e-02
8.849878526086023267e-02
2.464779149090024976e-02
-5.832739018402748749e-02
-9.066214665455671340e-02
-9.192216465002708836e-02
-5.932096027269542077e-02
4.063127582595184306e-02
1.345305185026898775e-01
1.252016696141511620e-01
4.665708304308940207e-02
-3.080514659113829656e-02
-8.073519423011360496e-02
-8.071908418369554139e-02
-5.743730919955142289e-02
-6.233800179280804543e-02
-6.081155831703825843e-02
-1.397055504659451379e-02
2.399858728160316618e-02
2.583610526137658861e-02
3.655946757898955596e-02
6.360126999864840203e-02
8.028667924536926626e-02
7.539020274423116619e-02
3.407910899049346187e-02
-3.577241201865438702e-02
-8.154933626680296865e-02
-7.004012071853923938e-02
-2.559801568301420943e-02
1.063898267213766666e-02
6.656049736967555377e-03
-6.506151918023922454e-02
-1.692125616268732036e-01
-1.910901463832737623e-01
-1.003729875675391792e-01
3.066287518720870083e-03
9.578492185479034471e-02
2.281507265069097068e-01
3.241258604032789536e-01
2.903348763423614365e-01
1.943001964395893177e-01
1.137643366405536038e-01
3.712227941998992586e-02
-3.235522338376158741e-02
-8.917420693591257552e-02
-1.482541364482630741e-01
-1.835906798604582668e-01
-1.869248315625212098e-01
-1.883967163345166562e-01
-1.583921131999291299e-01
-6.412101309147413830e-02
3.462822288382961383e-02
7.542417834979517344e-02
9.416411179172937129e-02
1.434406040702372598e-01
1.339329135133683069e-01
-2.773283909737308747e-02
-1.759284275743026038e-01
-1.407564991623352912e-01
-4.037740794080705437e-02
8.874857156325161034e-03
4.240468835098383515e-02
4.532082050237216941e-02
-1.030690291679574669e-02
-5.765534353064107054e-02
-2.517723579198560130e-02
6.583948221926201605e-02
1.329022390129129816e-01
1.607393885139097867e-01
1.873296948912553384e-01
1.639011637449885594e-01
3.652729241083474410e-02
-1.107843732660554192e-01
-1.848525779632280985e-01
-2.030173311895059618e-01
-1.914417124079141053e-01
-1.441252042319395021e-01
-8.184703348609465023e-02
-1.947090017236473986e-02
5.341946984367381551e-02
1.158491603673867942e-01
1.370480618137644990e-01
1.270819413596265268e-01
1.053091380117788523e-01
6.931546669735755284e-02
1.160343538324469688e-02
-4.418288152041589117e-02
-4.514403142999190433e-02
4.621430899884149124e-03
2.160669743735151027e-02
-3.609188105568257587e-02
-1.070946016327671141e-01
-1.165395399184918357e-01
-6.878377811843700007e-02
-1.058864592281008946e-02
4.632441560675228803e-02
8.557543626676676618e-02
7.529466265655611334e-02
5.756611387648184058e-02
8.492898550369853972e-02
1.055150480134621899e-01
6.415995953974654165e-02
-3.754632951373780905e-03
-5.928109742697193485e-02
-1.022761469227529141e-01
-1.176040584896653474e-01
-8.793585858713420800e-02
-4.611602215043313774e-02
-3.692592715200721659e-02
-4.128477079383743170e-02
-2.531926458880031164e-02
-1.249291027990746469e-02
-1.083483059821944289e-02
1.159622971373214413e-02
4.871810556231833539e-02
5.540408606652423573e-02
1.342937749665514338e-03
-2.730707404275460257e-02
8.518696564378394620e-02
1.870440462635892254e-01
8.662553245686188674e-02
-5.405516823868068699e-02
-7.069688835413524830e-02
-6.362088490848702427e-02
-7.272465602683771124e-02
-3.002881754472210354e-02
3.833788363798167065e-02
7.698384101547850467e-02
9.994700207743349718e-02
1.186642369441474332e-01
8.270253024858580104e-02
-2.397883609139282376e-02
-1.099241036758047407e-01
-1.255984901775249185e-01
-1.347222769289617428e-01
-1.467576275363529636e-01
-1.159375451005468655e-01
-7.525664847543740710e-02
-4.896957355937295309e-02
1.247199066848270373e-02
9.595209772252796809e-02
1.326109937850886988e-01
1.341196446173759937e-01
1.333735453525131398e-01
9.784064871347115944e-02
2.996255948540054934e-02
-1.316859611193892284e-02
-3.217366354512148779e-02
-5.484287123724711915e-02
-5.784568283364998481e-02
-3.451171823923565585e-02
-2.141382511908123537e-02
-1.033988791251504516e-02
1.711800230523501803e-02
1.633032711340006576e-02
-9.353067545436015429e-03
1.807886204217085818e-02
8.594709533884954678e-02
1.051162718624038261e-01
7.412788668967351668e-02
6.691525988514186729e-02
8.726331249691056391e-02
5.468421827515403122e-02
-2.525626942100231420e-02
-4.743064400224637073e-02
-1.643691472876934734e-02
-1.634273735881480033e-02
-3.677126156388731137e-02
-5.487830029967968870e-02
-9.255465792442235662e-02
-1.240756514383378889e-01
-1.469153285165996081e-01
-2.308272137082645892e-01
-3.458726308163727059e-01
-3.734877896207191572e-01
-3.404031403866187300e-01
-3.352464157272585510e-01
-2.476512309197855255e-01
2.143192745427017348e-02
2.731279313225370986e-01
3.460279554650582678e-01
3.785144064368535788e-01
4.709873428432579390e-01
5.492464412776407734e-01
5.782799014510797697e-01
5.711250676361434575e-01
5.098316147737732562e-01
3.776791840696727132e-01
1.897132914752044930e-01
-2.195640146319238761e-02
-2.441420091492547961e-01
-4.697358204695275541e-01
-6.393105842056421295e-01
-6.762485888753758667e-01
-5.955322738735912003e-01
-4.861909326881821980e-01
-3.744721713521810824e-01
-1.845754817069439335e-01
8.925831395073532959e-02
2.589841385825973896e-01
2.228379094506154623e-01
1.700700720245184594e-01
2.169012454691327807e-01
2.338329528514343225e-01
1.864848470434412875e-01
1.755116185086563751e-01
1.754128858896759346e-01
9.120350249842058832e-02
-7.118932646953564369e-02
-2.317365873536667842e-01
-2.619372496044575227e-01
-1.078069317200771038e-01
3.796992985629579070e-02
1.908340259338980882e-02
-1.517612526981924718e-02
5.118961086886499728e-02
1.139583239237108303e-01
1.263251676967567239e-01
1.414924233333071379e-01
1.263060395049500628e-01
2.818097668384500834e-02
-7.173588953185425221e-02
-8.994500504241041694e-02
-8.289619323326516409e-02
-9.920366185608961440e-02
-9.963641806934304956e-02
-7.489642200326437904e-02
-4.417249240969393920e-02
-9.892688928951526989e-03
3.534519676554508452e-03
-2.980887204018286413e-03
1.545411698110445327e-02
4.341419004563779049e-02
3.851816987755736499e-02
1.904043773532291400e-02
1.075211340128793928e-02
2.313937019196262920e-02
3.073465983776944854e-02
-3.407435021637376243e-02
-1.038767538830155240e-01
-3.210563544557557686e-02
7.535163608673291213e-02
4.916666818306620473e-02
4.909641377060338860e-03
4.788997212433800110e-02
7.609543697250341354e-02
6.188313154607491540e-02
5.212795847496515256e-02
1.417381642758546584e-02
-5.154629666847115876e-02
-9.258753126515807674e-02
-1.059087994962116669e-01
-9.738878365096800827e-02
-6.746459883641872657e-02
-4.250557360458116080e-02
-1.968633932422203178e-02
2.792996468451231645e-02
8.199112657923499081e-02
1.049237582742696684e-01
9.339121947407502677e-02
5.832040928507095656e-02
5.706715016829683705e-03
-3.382082572707370560e-02
-2.675347121070539153e-02
2.517932500586453001e-03
1.648143767010155220e-02
1.657910728029791947e-02
-1.078614220909391956e-02
-8.391498858381225834e-02
-1.504513369665851086e-01
-1.400048637565367571e-01
-6.237614734169763531e-02
2.041663200722881877e-02
7.427803710397301584e-02
1.082454943049073193e-01
1.386251902419584625e-01
1.569992194882036951e-01
1.453173802462839614e-01
1.020406905679454024e-01
3.713680904588034792e-02
-2.472076761150949001e-02
-6.604810239235270330e-02
-1.015019356339549733e-01
-1.252483471224645206e-01
-1.160985323691642868e-01
-1.007718168084597715e-01
-9.123441477343591233e-02
-4.758910884544545472e-02
1.264316954991683874e-02
2.503681772522790838e-02
1.294589846707129566e-02
3.061173314548482072e-02
4.006012555323783253e-02
1.292932144252384626e-02
1.885193779380173532e-03
2.016609304154422938e-02
3.174930087332430984e-02
3.895051767589136071e-02
4.734376239207956777e-02
2.637412167145045117e-02
-1.812770498071782088e-02
-2.491576182512340865e-02
1.646095331351556806e-02
5.098396407256500229e-02
6.725001293666466040e-02
8.921281018454424450e-02
9.252875949085440088e-02
4.914416424513366050e-02
-2.147724728412038833e-02
-1.084850108370071509e-01
-2.040039540618044656e-01
-2.498827013819270859e-01
-1.989082413725100085e-01
-8.807783621798460916e-02
4.408054627663710728e-04
3.592646340750333539e-02
7.347149427346835737e-02
1.418619171289661751e-01
1.708910180029971360e-01
1.263002663309708562e-01
7.177968684885265016e-02
4.150255958874954354e-02
1.977487931726652076e-02
9.477127573499877916e-03
7.048135695126011083e-03
-7.995620330189101913e-03
-4.426842690114148743e-02
-1.066450417094200881e-01
-1.744274232597406715e-01
-1.815451736178833320e-01
-1.007179199011177806e-01
-2.498400005659747857e-03
5.221707782578400431e-02
9.659788676574952715e-02
1.500939433044252702e-01
1.544510688816132515e-01
9.026531511154375909e-02
1.746511705175875923e-02
-2.041115957194520464e-02
-1.478112933098723811e-02
3.769887700497294436e-02
8.850423335675162984e-02
6.232986341661718444e-02
5.824499365783831518e-03
3.009436865574135339e-02
5.934275816999375758e-02
-4.488571136024046421e-02
-1.576847952752106485e-01
-1.179670497999508183e-01
-4.768568752295792440e-02
-7.384198759928230216e-02
-1.161794591528195059e-01
-1.053667780750547484e-01
-6.827787254758158064e-02
-2.703729214691606708e-02
8.904106143732760242e-03
2.786619336692270840e-02
4.294066848734312547e-02
5.888848625935048237e-02
3.595181004169062389e-02
-1.628008059783403461e-02
-6.831303168693831848e-03
8.417124938958903124e-02
1.689104519866430343e-01
1.821126234211968842e-01
1.242862137554709145e-01
3.430840117562291430e-02
-3.203558165516098843e-02
-5.167238083332362231e-02
-6.145054626033095990e-02
-1.038991664270796228e-01
-1.430598376970685093e-01
-1.125519078156548142e-01
-4.370658568616358347e-02
1.617345921745855578e-02
9.688515786529605656e-02
1.307109410685219908e-01
1.267102675368618481e-02
-1.041579923652893036e-01
-5.220317970325490109e-02
2.764065084630514674e-02
5.369494472485789038e-03
-2.854870333943796551e-02
-1.056727406925804871e-02
2.174237495679638005e-02
3.829392310913902475e-02
2.257996733239567982e-02
-3.178459816085878881e-02
-7.919862500281804607e-02
-5.926663073075524868e-02
-8.132997489218566148e-03
-6.277833468796973487e-03
-1.685628593189725938e-02
2.666813218606213162e-02
6.667728088999613778e-02
4.909108724209276797e-02
2.309426231930055903e-02
1.808117003395503380e-02
6.215100949904940608e-03
-2.313150089777607152e-02
-5.680516238222042824e-02
-7.633589111068554700e-02
-6.111842855186250950e-02
-1.200422761639523619e-03
9.077294559587309464e-02
1.710982982021507504e-01
1.869487590803178279e-01
1.360842432022104920e-01
7.304771074206951875e-02
1.995807935595881114e-02
-4.596105965338373456e-02
-7.446480068032529376e-02
-2.245308844391293024e-02
-2.814958720438300033e-02
-1.653069618365209936e-01
-2.418524133576251400e-01
-1.559635490132849356e-01
-5.190969438708222666e-02
-1.892956518258869653e-02
-1.009987543409244376e-02
1.690527063748056488e-02
6.017004761165530013e-02
1.021191834314839064e-01
1.369353494235916735e-01
1.583184722059203242e-01
1.534059334037291555e-01
1.117190271416584613e-01
8.891805040656237946e-03
-1.309213951698274536e-01
-2.089970075504227753e-01
-1.979528992575890212e-01
-1.613599631058026673e-01
-1.085062283676369588e-01
-1.383379721372730853e-02
8.462045379274010792e-02
1.333382664240587712e-01
1.317026135802543130e-01
1.083737801435204900e-01
7.490653411180889232e-02
2.740130350685014357e-02
-1.560872356253300772e-02
-2.565684855564721520e-02
-1.166413292577610748e-02
-1.007923250762494949e-02
-3.035347914155933635e-02
-4.468448996890424241e-02
-5.158792099602242665e-02
-8.163364103751244438e-02
-1.080920189585157093e-01
-7.115111248552408174e-02
4.225021521123407259e-03
5.140563397948520047e-02
6.784974068347815468e-02
7.767367865003618754e-02
8.961339764315282008e-02
1.094273374288942252e-01
1.217859674478143500e-01
1.045988736645493550e-01
5.893402027023766226e-02
1.389731719462360127e-02
4.232554566491950054e-03
-2.331500560894889801e-03
-5.323581456277742124e-02
-9.666288181632626264e-02
-7.946654526046156852e-02
-3.479265910976474946e-02
1.497212843767507622e-03
2.997301200414702674e-02
8.126347914098527858e-02
1.646221269865195680e-01
1.862249461340375056e-01
9.637777223251113579e-02
5.052398358276023044e-03
-9.394760087136441729e-02
-3.189263612595619191e-01
-5.216994305638138485e-01
-5.211723586196513880e-01
-4.621216084162956261e-01
-4.411029267579845703e-01
-3.225168905731772284e-01
-8.815333469941091793e-02
1.391281369681688085e-01
3.171228696743267905e-01
4.701639762857048321e-01
5.935919895633693377e-01
6.431529320375110048e-01
5.859873319246974299e-01
4.592772610344169615e-01
3.279702627215779209e-01
1.962282636351113385e-01
3.419842564157699050e-02
-1.365668050772153586e-01
-2.623122017468053624e-01
-3.256597050394951509e-01
-3.409692686461763267e-01
-3.402680402256477166e-01
-3.381895122451281654e-01
-2.883042336303873188e-01
-1.927452985537936592e-01
-1.288638090749757159e-01
-6.685288086569753097e-02
6.531337518790693297e-02
1.876104180830912016e-01
2.109559874722937989e-01
1.699693691670051410e-01
9.093550445038831032e-02
-1.158931767503724314e-02
-5.195591084599426174e-02
2.140394468315110973e-03
6.360803058971171986e-02
7.039593496108499660e-02
4.779582176980069763e-02
4.092869553467345239e-02
5.860861018842571102e-02
5.480976024281852127e-02
-4.551228543325997085e-03
-6.574317117695363533e-02
-7.734057379857542380e-02
-8.231275998351189616e-02
-1.069767881635583923e-01
-1.044705144539527231e-01
-7.022931050205172276e-02
-4.159659548217863045e-02
-9.872176467629660557e-03
4.339709763325966252e-02
9.093387397192334576e-02
1.003906156617055262e-01
8.229241109276438926e-02
5.452220972282880579e-02
1.365574855972669782e-02
-1.836848535374096744e-02
-1.514298969017446699e-02
-2.058441656435695995e-03
1.247949555011973813e-04
9.120148522021101489e-03
1.345756337873070529e-02
-2.247772222062114494e-02
-7.155124997065902270e-02
-7.028194347031602174e-02
-1.811824229414676218e-02
5.322537734226778089e-02
1.321153962190738940e-01
1.666357241129082789e-01
1.038879639521390896e-01
9.401688862737830887e-03
-4.230641775884078082e-02
-9.861822609356545033e-02
-1.795809925178194766e-01
-2.069420866636781375e-01
-1.642983409593343214e-01
-1.050144178958360569e-01
-4.645590792926854173e-02
1.346183198816091817e-02
7.762782207364604670e-02
1.426560587571419347e-01
1.671536372756197986e-01
1.311657024796356041e-01
8.032300956464508146e-02
4.297913886620058355e-02
5.081252171922411714e-03
-1.525179991579763382e-02
2.996084886160866462e-03
1.354892852283947659e-02
-2.127056018766145667e-02
-6.892631281085792594e-02
-9.692671234352895349e-02
-1.093010174840967075e-01
-8.977640001992959196e-02
-1.892239152448483945e-03
7.602974232218269457e-02
2.708734594701977041e-02
-1.709933730803038163e-02
9.140723171606887631e-02
1.658831355677368447e-01
8.796002568148106326e-02
3.531086608043335767e-02
3.346069159009895655e-02
-3.949316680345018454e-02
-1.056578040180744388e-01
-8.222506332986574684e-02
-6.868648691036982612e-02
-8.403154302351974192e-02
-4.310232974772063713e-02
1.453638085047256716e-02
2.385285276816529257e-02
2.493994126246599705e-02
2.632472264156428959e-02
8.041170046930921217e-03
1.801565295212383469e-02
5.298176527590184315e-02
3.704085528448922138e-02
-3.100605007166297271e-03
1.589470721238249451e-02
5.219021363298026461e-02
1.674474949488214542e-02
-5.914455032357565645e-02
-9.888224335482308225e-02
-1.011842385943519107e-01
-7.431874975035829278e-02
-1.419546742998318428e-02
3.506385721221771251e-02
5.400763549212463099e-02
7.204735057353138517e-02
7.214410226650611047e-02
3.209450976603861472e-02
-1.659557366641521356e-02
-5.435568834793266801e-02
-7.629182207211565592e-02
-6.329107104405816420e-02
-3.017897138143503868e-02
-8.283369772863284283e-03
1.387104399604099925e-02
4.939473593073504670e-02
8.339089756918649510e-02
1.009228959670953746e-01
8.140238101270723392e-02
2.161732738480025978e-02
-2.998404870960390267e-02
-4.085145528126808701e-02
-4.494222347119193606e-02
-6.103157237761121234e-02
-4.669717795842099478e-02
1.546116359027083567e-02
6.434997288109733926e-02
2.840798532284149677e-02
-6.493272162673163761e-02
-1.109390422353255107e-01
-9.353920854325738221e-02
-6.082232976428300630e-02
1.088066818538340960e-02
1.072864162215507733e-01
1.429909436741391981e-01
1.266603576300154577e-01
1.143512045859315929e-01
9.744934821347965570e-02
5.890768269458762640e-02
6.778232482493642616e-03
-4.316476596657767284e-02
-7.916612996520272505e-02
-1.063863037967784503e-01
-1.187522847376970836e-01
-9.912179261557746424e-02
-6.485145173043189992e-02
-4.408064742747645065e-02
-2.650306391514552218e-02
6.858763740490082805e-03
3.126556337305543692e-02
1.190611173583569840e-02
-1.878586838397535569e-02
-3.473058158343248457e-03
2.835097663164345277e-02
1.824533991605148397e-02
6.513975523000769402e-04
1.893160528139266677e-02
3.902987802662546968e-02
4.045786798594329381e-02
2.854117041758330933e-02
-7.282075077294562944e-03
-2.703298112200794995e-02
1.793850611138567142e-02
7.570265866950502687e-02
8.835245001320633784e-02
8.168150843745985989e-02
7.039777878856441629e-02
2.778740516544547096e-02
-4.430406828662883378e-02
-1.196122874519563034e-01
-1.770072399932993701e-01
-1.929861723511784866e-01
-1.507767334378473656e-01
-6.602474545631258074e-02
1.566243819408136284e-02
6.312802266646079519e-02
9.016490951491377970e-02
1.167652308461988586e-01
1.233859695122097866e-01
9.033388808091616373e-02
5.118872922480713350e-02
2.742062625896762862e-02
-1.844616784971067625e-02
-7.103795607750806873e-02
-5.873598079797864857e-02
-7.447889900521071846e-03
5.726598228794625885e-03
-1.464691716318786488e-02
-4.930370888462379253e-02
-9.558474776449134291e-02
-9.582848816163203054e-02
-2.082669607909130860e-02
5.506176729129103053e-02
8.944738103422653075e-02
1.219202011194432944e-01
1.512272538838564384e-01
1.396058120573531180e-01
9.345936303366272901e-02
2.983453643478744741e-02
-4.033215507836862557e-02
-8.269999363480047549e-02
-8.664666310030563756e-02
-8.830882646647610079e-02
-9.791978430669054378e-02
-8.829029623665464455e-02
-5.602264384965559979e-02
-1.730767396757700374e-02
1.298188636160551267e-02
1.470988481197065163e-02
4.299232934681613411e-03
2.571732285266502965e-02
6.178998774643464087e-02
6.575992943433298099e-02
4.656771963908100387e-02
2.661303034966251008e-02
7.292245527084920131e-03
2.447881138664623462e-03
-5.733095362987194674e-03
-7.089494752872652072e-02
-1.463649318625183382e-01
-1.290313521018776055e-01
-5.950282346197683508e-02
-2.186204044652767173e-02
2.544560013084513211e-02
9.187459115796244025e-02
8.637097856499612036e-02
3.560498067543823447e-03
-7.129535491049977802e-02
-9.649239226445172068e-02
-6.630002008872787345e-02
-6.949918925962217733e-03
1.203233019200746282e-02
1.631865397323021410e-03
1.109355775978438340e-02
1.029565493008038771e-03
3.208752934454463246e-02
2.120532755525445789e-01
3.616221483225806055e-01
2.889120966827585790e-01
1.355349094444038005e-01
4.958436082336906137e-02
-1.600313625803650996e-02
-9.561340745074786707e-02
-1.586774889306400427e-01
-1.753631707338466073e-01
-1.543212343558484356e-01
-1.573931388356141214e-01
-1.951268780065704145e-01
-1.940015423326792166e-01
-1.285521480744856726e-01
-3.944074680147419826e-02
5.158336790272467776e-02
1.334934311226079195e-01
1.881815666664675979e-01
2.103376671468312753e-01
1.883212126736838465e-01
1.118451004782899383e-01
2.140195822352759791e-02
-2.852851893126618493e-02
-4.828762759980276265e-02
-7.711408463339222696e-02
-1.072635764826557481e-01
-1.088929502694042789e-01
-8.423171016218033991e-02
-6.059774067988869806e-02
-4.621755997717406916e-02
-1.931478283558601267e-02
1.119880084051693390e-02
6.147505380429497956e-03
-2.382503309721714646e-03
4.271795542512454857e-02
9.195524126599163850e-02
7.807108104974604113e-02
3.664976596468796227e-02
1.924123499922123642e-02
8.101527562121773468e-03
-8.666748924307136198e-03
9.896448908089019308e-03
1.575837533765004489e-02
-9.142490839747194342e-02
-1.774276106536420983e-01
-6.856446807083302342e-02
8.233783748201402297e-02
1.096624003592301111e-01
8.693638587759196235e-02
6.079121457827826175e-02
1.341772104485102618e-02
-2.380665708284883386e-02
-4.302936268724919661e-02
-6.220436910581176454e-02
-7.452793221561966608e-02
-6.833980306371433000e-02
-4.716703776491243394e-02
-2.536475629402446669e-02
-2.328031199914181067e-03
2.665933129133333385e-02
5.112243288822811149e-02
7.976975979397456229e-02
1.316974408553746589e-01
1.925507153601878074e-01
2.257594170752660334e-01
2.092481979198408393e-01
1.423552318666521099e-01
2.524297877077456842e-02
-1.202334341409845020e-01
-2.376359223758525152e-01
-2.998837294574125401e-01
-2.886667376302495258e-01
-1.591926460625430750e-01
-8.242875262670259010e-03
-3.705395706618486162e-02
-1.621660831645365120e-01
-1.198455012078466081e-01
1.913420685406607216e-03
-4.301983022604864704e-02
-1.204330982926144211e-01
-1.843624513032558754e-02
1.175821503501927462e-01
1.615862699783626177e-01
2.340243531970383206e-01
2.779513662961922149e-01
1.130924231555786169e-01
-8.061639437152400001e-02
-6.246289665303913358e-02
1.380498587640361513e-02
3.966773092351030296e-03
2.918302777238940271e-02
1.258172224866783151e-01
1.891640367489360597e-01
1.741576316405489266e-01
1.163682323970076371e-01
7.338795929107953808e-02
5.838945699345159807e-02
2.947033182763180229e-02
-3.925016780443846970e-02
-1.195673310940200407e-01
-1.640779980668262139e-01
-1.702202923535119095e-01
-1.671507112038971010e-01
-1.527738783973350556e-01
-1.214986442202562189e-01
-7.781740049686092231e-02
-1.057457648772096304e-02
4.991457146770068853e-02
5.032641315412028638e-02
5.636087820276261540e-03
-4.044736802570574052e-02
-7.325115961505102025e-02
-9.988207023129797024e-02
-1.204178632092986201e-01
-9.219486325704945306e-02
-9.505333500919352363e-03
6.015119297588213121e-02
1.262064810238344437e-01
2.400518337773548949e-01
3.397416163066490080e-01
3.561903598541349969e-01
3.045625910001181769e-01
1.772219417504831973e-01
-6.583569345209028256e-02
-3.663649652953347435e-01
-5.704179971242160363e-01
-6.486893393466088842e-01
-7.112008570288262943e-01
-6.918073725172492194e-01
-4.320685564839903403e-01
-9.345246107805868507e-02
1.052798430434564170e-01
3.066720944386140402e-01
6.177278377500785567e-01
8.391653579299488408e-01
8.761172059120635458e-01
8.400306192275613926e-01
7.603389596786168658e-01
5.793872430186037814e-01
3.044599753904465578e-01
1.252459482614487474e-03
-2.612521555442766097e-01
-4.326884250509517305e-01
-5.269267156186663303e-01
-6.054557990885731655e-01
-6.576437039655249617e-01
-5.862120644002026815e-01
-3.727336518848322067e-01
-1.582237505919711074e-01
-5.850243951171982260e-02
-1.416100760026696437e-02
4.641632720089490516e-02
8.817389502039088556e-02
1.064991231689252915e-01
1.474316147096412788e-01
2.045870378652961952e-01
2.461145108035397988e-01
2.484649157981453915e-01
1.890181858300809259e-01
8.495625919280910820e-02
-1.154901175828177383e-02
-6.600014970835260675e-02
-7.333063748290753747e-02
-4.942070392498811721e-02
-1.616239401028343736e-02
1.786985742210790359e-02
3.891552040969260828e-02
1.780499231589632164e-02
-2.469531163180195207e-02
-3.465279973097759592e-02
-8.093617931480666383e-02
-2.484296595806428642e-01
-3.624307922746111688e-01
-2.371066172112316628e-01
-3.067291769442484495e-02
5.994586300892348202e-02
9.185358152227288131e-02
1.458623858450213973e-01
1.891042310589189923e-01
1.885612539158505185e-01
1.446016329058599781e-01
8.029883586772217086e-02
3.623213204484532213e-02
8.795429464466118785e-03
-2.498519495812547703e-02
-2.441696950463310978e-02
-1.693687832926220327e-03
-7.596508971370159735e-02
-1.931292164326085803e-01
-1.432167035064477456e-01
1.458812300305402376e-02
6.576322217550203963e-02
5.240372625691434166e-02
8.690034021592972502e-02
1.251440462012055610e-01
1.468310592064264453e-01
1.713828179809158969e-01
1.574951021720607525e-01
1.021366296025969372e-01
3.163169877877244213e-02
-7.373465424965172654e-02
-1.319816735039619493e-01
-3.817858392415627439e-02
5.189433836560534280e-02
-2.382672126736347373e-02
-1.321854283861822188e-01
-1.397903348085142994e-01
-9.907261387035562472e-02
-7.787361287953861733e-02
-8.829308080715315976e-02
-1.035797644580523647e-01
-9.841870511895725593e-02
-8.703797705275863328e-02
-7.384202442661919052e-02
-5.848866020488345530e-02
-8.316687243438712629e-02
-1.480555125175846698e-01
-1.612357923317182251e-01
-9.319056498299888025e-02
-7.738300357666054452e-02
-1.955281422907426403e-01
-2.386904852959293444e-01
1.794611622131421155e-02
3.771474164991472366e-01
5.005203729664381429e-01
4.360990815743675530e-01
4.250779257108105447e-01
4.965379254388287422e-01
5.378050477983421507e-01
5.034555617930200899e-01
4.163811542311147695e-01
2.779927183074836772e-01
8.053049322718931757e-02
-1.395004493322304084e-01
-3.441706842029944591e-01
-5.094536997499649056e-01
-5.939063818203286216e-01
-6.144268643739436708e-01
-6.537808532284888896e-01
-6.770444403751788576e-01
-5.363451530397381761e-01
-2.418423077195324122e-01
3.354326397031234808e-02
2.177340268589245120e-01
3.122848483851904389e-01
2.531302002909286974e-01
7.315848827829718459e-02
-6.016179983047846569e-02
-1.092599103653790205e-01
-1.508141806132052842e-01
-1.068232314184411891e-01
1.313462938048058082e-01
3.996339270085492168e-01
4.950791961562928112e-01
4.789755030948781300e-01
4.278852551622641665e-01
3.096249192519761606e-01
1.896023479258178712e-01
1.336797384286416424e-01
5.151272784050774101e-02
-1.316603227614286387e-01
-3.512318406208548294e-01
-4.971163110826474218e-01
-5.096439886045418532e-01
-4.026370128306924201e-01
-2.150657345675494325e-01
2.547378513988433207e-02
2.441402001137588651e-01
3.516001377574135556e-01
3.816139614047961426e-01
4.018443486873923276e-01
3.439520916249892979e-01
1.628523717647573366e-01
-1.112646738084744139e-02
-9.281682441278127360e-02
-1.589420410317326227e-01
-2.403650738375192608e-01
-2.853399957078895377e-01
-3.097748641593297547e-01
-3.379864284509376815e-01
-3.214922581621262321e-01
-2.514664309367136141e-01
-1.769243750853725095e-01
-1.030997274090950377e-01
-8.905661538542601618e-03
9.233760341672737904e-02
1.759055801529492424e-01
2.265517058862966393e-01
2.269405805141733179e-01
1.950692607487526098e-01
1.896807404479279868e-01
1.996421314412727965e-01
1.438857870040647913e-01
4.252452361182908203e-02
4.947345495225331791e-03
3.320979072276158267e-02
3.769387720077901904e-02
8.430309381864536933e-04
-3.462067222062131799e-02
-6.265436727793971539e-02
-1.013555689118070258e-01
-1.371334747217115568e-01
-1.383942653584467608e-01
-1.006238481269986912e-01
-4.686660491521783822e-02
-4.557245537246696482e-04
4.469306998791452296e-02
1.099962004309666119e-01
1.791119742632519829e-01
2.026174961048031742e-01
1.047293392098296583e-01
-1.223636287337582090e-01
-2.465463110340246622e-01
-8.120909076752748368e-02
1.503447986831349115e-01
2.038943283764421410e-01
1.633999932856240456e-01
1.157951795842549481e-01
-2.367414056898968586e-03
-1.854059967530242992e-01
-3.350451498100812109e-01
-3.930580026784811221e-01
-3.638489829213419346e-01
-2.775762040719755852e-01
-1.715695877339414588e-01
-6.768948359058896136e-02
3.042326521681940066e-02
1.065707134515691268e-01
1.543731815529001683e-01
2.103790009255525062e-01
2.804335114839885401e-01
3.053537298293788060e-01
2.637903485437969042e-01
2.031226755242921955e-01
1.598630028195155706e-01
1.355533809295804415e-01
1.137261648885869725e-01
7.348106241764520985e-02
2.122491973754363909e-02
-6.540852440918697164e-03
2.372259901531580811e-02
9.052707378061579380e-02
1.075874837317088994e-01
3.941229994168440887e-02
-7.035015369666133833e-02
-2.218745890149185218e-01
-4.120820407548154707e-01
-5.685693172724388678e-01
-6.613473501532380894e-01
-6.396358560922177361e-01
-4.094682604295994954e-01
-1.081041816020331670e-01
4.215751554791739852e-02
1.401097102667299699e-01
3.456063129540098977e-01
5.344837897021109674e-01
5.657107589871963604e-01
5.147333361136474661e-01
4.936769402358436309e-01
4.232297840160034741e-01
1.792388809031670582e-01
-5.713190157744973269e-02
-7.089180560297012046e-02
-5.204314374458951509e-02
-1.743979854295225063e-01
-3.014468126434694528e-01
-3.727229295932293907e-01
-3.980943548855735425e-01
-3.136774975063152948e-01
-1.807010872213927477e-01
-9.326379306287992110e-02
-4.685402079253962737e-03
1.096146196677134643e-01
1.949129742856509639e-01
2.261476403270201163e-01
2.084448442484034270e-01
1.527947034054609743e-01
8.248489123084055963e-02
2.358617837642993514e-02
-3.546464681827642129e-03
-6.150450625435739671e-03
-1.800586544525206376e-02
-4.525508374409046436e-02
-6.028208124376584209e-02
-4.977313283288793688e-02
-2.425303193583601066e-02
5.950426869282055605e-04
2.000471803750785912e-02
2.428656317179206381e-02
-1.309108346951441161e-02
-7.168956456191244442e-02
-9.425673124641792411e-02
-8.066302221157796437e-02
-5.216182500220879759e-02
-6.071491858555284199e-03
2.520706366075733257e-02
2.774345832626291808e-03
-3.335409968445914725e-02
-2.630530200553272621e-02
7.980134625921272984e-03
5.199544612038004693e-02
1.031960184153453419e-01
1.074610518606554932e-01
1.036785741693378171e-01
1.947114995666566761e-01
2.272046828614328884e-01
3.237788692479848240e-02
-1.740255172338255885e-01
-1.909581304201601881e-01
-1.524522151356339228e-01
-1.637574590933276453e-01
-1.419671713269695934e-01
-3.046305312046533598e-02
1.076907100277976759e-01
1.265033165384409908e-01
-1.140997873383348474e-02
-9.436113506330270906e-02
-8.160024148900744262e-03
6.200723882970358980e-02
3.891485040499355341e-02
4.002629205011344615e-02
5.486253294473252690e-02
2.230574599788293089e-02
-9.621282239059515337e-04
-1.027081729876116838e-02
-8.116637139123122902e-02
-1.510319583594750825e-01
-1.058326432440550996e-01
-3.087977976094010910e-02
-3.086775846985688118e-03
1.093859196673541423e-01
2.783657241908800151e-01
2.347643570564102722e-01
5.803238450223964506e-04
-8.390043502393022823e-02
3.872563790107363957e-02
8.666605749537292791e-02
-1.864006824112103208e-02
-9.517957493649992218e-02
-9.397586749817024576e-02
-9.804479529525740589e-02
-9.776932440294938687e-02
-6.079713034247446329e-02
-3.430823558063032797e-02
-2.891296787516791852e-02
7.624770146691557671e-04
2.778082402168298437e-02
1.225942492961487260e-02
1.231574187964099530e-02
6.871305259686309730e-02
1.138706535955201077e-01
8.402806337000570669e-02
1.154159249872798755e-02
-2.626640109614875040e-02
-1.434448730430021995e-02
-1.362179845675657794e-02
-4.665165089176804419e-02
-7.093696421612399883e-02
-6.589820605073613835e-02
-3.285653574156225526e-02
1.789552117076086135e-02
5.287299059374772625e-02
6.763369190418609678e-02
7.160380170037418390e-02
3.874774992499448872e-02
-2.417988170418434654e-02
-6.697618781572992064e-02
-8.049064368195776864e-02
-8.349243030296790713e-02
-7.397040637237155269e-02
-4.942634026559294957e-02
