-3.959710710878765541e-03
1.963233924468622132e-02
1.425039735438217714e-01
2.577807200158963585e-01
1.151986201566450874e-01
-1.972165503737354497e-01
-2.801503711006468889e-01
-8.993431235423231251e-02
4.517209219830387729e-02
2.131633338125115545e-02
-7.137767767128275556e-03
3.534462748140448831e-03
-3.634687414912836020e-03
-3.093551189968377080e-02
-5.441684612474555899e-02
-4.158796586970648496e-02
-4.624932790817273646e-04
-1.644115526139953640e-02
-4.246377749040548821e-02
8.080448619076695260e-02
2.306096479504997077e-01
1.543952626476113865e-01
-4.087718194954347711e-02
-1.031858321017077307e-01
-4.477065952839184848e-02
6.708206445699462991e-03
3.392716913301738885e-02
5.504736975782848624e-02
3.975106164895141764e-02
-7.627534282545621498e-03
-2.473504754736592301e-02
-1.190443363310325284e-02
-7.134066812367307643e-03
6.461885236969046493e-03
-1.695558348776927959e-02
-1.311030406693323713e-01
-1.699283246190381180e-01
-2.203116775538118896e-02
9.598993041615058730e-02
4.620964605444514983e-02
-2.209370723111600196e-02
-2.427346974557781367e-02
-2.555302493904264630e-02
-5.439366574695904399e-02
-7.627772128200863144e-02
-8.000424220579470391e-03
1.455746178844431749e-01
1.752097737021883206e-01
5.088722745373008838e-02
2.164415051892928238e-02
6.487208724092002887e-02
2.439642810495825515e-02
1.921177800435780805e-02
2.171273507634297745e-02
-9.447564969588653772e-02
-9.726743148272645745e-02
6.251228406113948366e-02
5.565532192596816391e-02
-1.021736164818172338e-01
-1.479747682633860695e-01
-8.559544196375183656e-02
-1.114500160048230264e-02
4.817827192971179534e-02
4.290392071668717999e-02
-1.743575102990890802e-02
-1.978346844643602900e-02
6.436864566593028525e-02
8.718751297990548488e-02
-1.417823028069017943e-02
-6.130665821697785234e-02
2.196973198832661428e-02
5.148301439543168795e-02
-2.454213338559419616e-02
-4.397350658257843242e-02
8.290988092245790003e-03
1.687226807557154137e-02
-9.609024387375431075e-03
2.709726761959417411e-03
5.208509374713101575e-02
7.330096560368740133e-02
2.363610049523812151e-02
-4.505372441516185267e-02
-6.679475155058188507e-02
-5.365442075171104191e-02
-2.305045079691272689e-02
2.721894228592200426e-02
6.084303177988838185e-02
4.703444387449225855e-02
1.622580153538726033e-02
-6.985006435258483970e-03
-2.451109563239961542e-02
3.856999500279682542e-03
4.285837449274876310e-02
-2.835976218561213347e-02
-1.038994641064164004e-01
-2.182971979858477560e-02
7.176385070777388520e-02
8.327921514842610839e-02
8.785054119685409280e-02
-7.532905350238285752e-03
-1.411625755365296109e-01
-4.312279316317255140e-02
9.837201519182778298e-02
-5.041494614416407172e-02
-2.175454054097541445e-01
-8.828642290337240794e-02
7.416096643048497583e-02
4.434758717490282220e-02
7.644750299379030750e-03
5.427038526076073677e-02
6.214166563521770353e-02
1.751701152957837668e-02
-9.379751815189941999e-03
4.756817467243327352e-03
4.989444450212882076e-02
5.700204643644538743e-02
-3.966687627839982251e-03
-4.743110956346360645e-03
7.296305546193662672e-02
3.086985588059860605e-02
-9.783811695525966579e-02
-6.189524758395765353e-02
7.532670698399633602e-02
5.782268387472430660e-02
-8.622827142381013499e-02
-1.470628898838253762e-01
-8.892490789015386476e-02
-3.356882640780931709e-02
-3.103390951619256627e-02
-3.149279470949922777e-02
4.225544414441907357e-03
4.977560114313986372e-02
5.619960085010458628e-02
3.896415846942457434e-02
2.924112862473027957e-02
3.991749219922400768e-03
-4.258692797351240622e-02
-7.411508561535633255e-02
-5.762471977016432600e-02
-2.247144276494783197e-04
2.938474566066031149e-02
2.391689288235611388e-03
7.769470957176434142e-03
8.547343253656156103e-02
1.297455040393354075e-01
1.258963314045088711e-01
1.972421329585837546e-01
2.630958377052253216e-01
1.334733834191679513e-01
-4.088665624944495813e-02
-3.629968543944839948e-02
-3.151059899068988507e-02
-1.915515094171572064e-01
-2.704921559943269660e-01
-1.346015586173024969e-01
-2.845190274227964861e-02
-6.322624123522983808e-02
-9.511300367350916662e-02
-7.806196275306180599e-02
-7.046499732800459714e-02
-4.144146517274643893e-02
7.236877435116562118e-02
1.613811973170980185e-01
6.762331514575634084e-02
-6.838004604939315612e-02
-3.793703618102201025e-02
5.387001565871351455e-02
6.690422314206848076e-02
3.349061161620520838e-02
-1.028211734977352125e-02
-2.841394743947386892e-02
-2.260072500433805628e-03
1.733471717723926095e-02
1.355306411716478143e-02
1.490736107216349181e-03
-2.331299703600728593e-02
-3.416979242463327043e-02
-1.089863238771823784e-02
2.371414530158004377e-03
-2.258046673965640946e-02
-4.102430960356562295e-02
-1.682558923418449315e-02
4.789162998525233438e-03
-1.299763158851315395e-02
-9.549955406815991213e-03
3.251181096619577132e-02
2.032836474991203679e-02
-7.960199033114996256e-04
1.075290573054175358e-01
1.976748166852723698e-01
8.038980134113209164e-02
-5.576794713884737631e-02
-4.556404826942764275e-02
-2.720271753942305609e-02
-4.067504718712393330e-02
1.391079388581529207e-02
7.262860876034020474e-02
4.919000717815978641e-02
2.457912714829366477e-02
5.272498910882250298e-03
-1.059913563810622739e-01
-1.960266273546062699e-01
-1.128011842700595985e-01
1.095139980112469665e-02
4.905878424476045607e-02
7.189331483523465904e-02
7.464891284091830503e-02
2.365122048602757987e-04
-7.251800809065259146e-02
-7.193847945222832385e-02
-3.802406701207370482e-02
-1.561779812436051712e-03
4.052771900516013298e-02
5.958571422242183585e-02
4.315884885505399948e-02
5.100200967244607891e-02
8.813038822370328207e-02
5.042661377691436131e-02
-5.636502201342800250e-02
-1.059329529556314597e-01
-8.964927944639594637e-02
-6.491455588334794913e-02
-3.496964675693478575e-02
6.947589633509736531e-03
8.818149870151387182e-02
1.413446893109598368e-01
2.025573901661310502e-02
-1.447613019508665055e-01
-1.234289050095433160e-01
-3.224889143297341582e-02
-2.352891205309196737e-02
1.773726143415352979e-02
1.335978925757515812e-01
1.674648790751829541e-01
7.567047845132704453e-02
1.076955072509340645e-04
-2.592899406662155931e-02
-1.060664743738465865e-01
-1.677617090496702490e-01
-7.427530685692987356e-02
6.101769213831562122e-02
8.277541727226737922e-02
2.614627141671587926e-02
1.206475645001102263e-03
6.067303486659324230e-02
1.300243179061493781e-01
1.282831080865463325e-01
8.885666885995326114e-02
-1.919201399713811942e-02
-2.177178361937075479e-01
-2.795369922646149252e-01
-9.636176504351309791e-02
5.756694472556560943e-02
3.704844151004415415e-02
1.456036629717569197e-02
4.403714571983012582e-02
3.825995701630030554e-02
2.295723768872894727e-02
2.725631889658634149e-02
7.909786580697582281e-03
-3.464279028030270435e-02
-7.233905376492023864e-02
-6.036275546780245360e-02
3.961780958689157389e-02
1.395368652662588582e-01
1.295110388378188093e-01
3.851545871532496834e-02
-3.502983800522456448e-02
-3.340521461278851689e-02
-1.698016070758647661e-02
-6.854784059292599874e-02
-1.289446954172634718e-01
-1.150680684490902744e-01
-2.749591737391914037e-02
7.160018339466747705e-02
6.268004705164417767e-02
-4.880592728102164934e-03
7.974941380664139767e-02
2.035447683960120713e-01
8.919237784210781728e-02
-1.043870486586293556e-01
-1.072803294662575124e-01
-4.605471650622634805e-02
-7.088229207979002133e-02
-7.001253604329253644e-02
-2.804697778709473732e-03
1.760236340192903454e-02
3.803757557756214103e-04
3.208371844357991304e-02
7.127832041661866236e-02
5.425903438132909096e-02
-1.379768159218724109e-03
-6.472722655561903571e-02
-7.555135893965188310e-02
-1.456252667907927470e-02
3.706376006492224928e-02
9.330511015528476781e-02
1.664070204372222750e-01
8.062873213466420497e-02
-1.270837909636352292e-01
-1.537776992643106744e-01
-2.616394360044317635e-02
-3.289541315706862121e-03
-5.284827989845757024e-02
-3.180390218652043299e-02
1.689484747514765142e-02
3.494028237136127812e-02
3.765620359097388015e-02
1.929630972733260147e-02
-6.567715708389041014e-03
-1.059557300697131291e-02
-2.845961148345224276e-02
-5.068687830953710893e-02
6.621400286720397800e-03
1.008666426382929249e-01
1.302184579952581356e-01
1.394935536616161431e-01
1.744986846225181909e-01
1.785940717826377810e-01
1.324659163233402603e-01
5.755852444401556023e-04
-2.445110678235402901e-01
-4.009591959771839353e-01
-3.065838160298424153e-01
-1.464698583896377471e-01
-8.434122726670356673e-02
-5.304119957441244537e-02
-1.572396466138813870e-02
1.020247499858818047e-02
2.522036650966538729e-02
-5.283090361109427785e-03
-1.902995453504544021e-02
1.083461637476334921e-01
2.342209542279888035e-01
1.553821828299853935e-01
2.392990533141929610e-02
2.754671667553269462e-02
6.727753269238791189e-02
4.749831110545494478e-02
2.026131307413870514e-02
1.449678290699157879e-02
1.833083639526620484e-02
1.297421680546057866e-02
-3.693872445001378929e-02
-6.728817219847443853e-02
-1.817894781414640740e-02
-6.240507113199812717e-02
-2.031923039697902111e-01
-9.856117140836175017e-02
1.801025257682322689e-01
1.930071253357733552e-01
8.650421779749013773e-03
-3.559566298120919736e-02
1.732772369601289983e-02
3.759177337287298616e-03
-4.473516573535566559e-02
-6.281546502615488470e-02
-6.073622152768720639e-02
-4.051009651056257377e-02
9.705673011278325227e-03
3.173718120433145773e-02
-3.291167826272882804e-03
3.762067987573792724e-04
4.900889631578566469e-02
2.550896031393685287e-02
-3.961612157593293049e-02
-4.440692905946361929e-02
-2.925322612140937584e-02
-2.942105166105581787e-02
2.041034064500697916e-03
3.897751192582943336e-02
1.870918105639291992e-02
-2.414934355872239841e-02
-3.015953594695169535e-02
-1.213241497135826574e-02
9.702893685827055498e-03
4.145146353361079533e-02
5.773218694461881156e-02
4.275594075599719462e-02
3.474900736190764811e-02
4.215515226786367697e-02
4.045887205560461108e-02
3.966810852771875812e-02
3.521388871656961489e-02
1.455895845067811493e-02
2.575831524315980864e-02
5.641423451436775732e-02
9.710212607086153233e-03
-7.630301280804206721e-02
-8.973898497544183228e-02
-5.889271742230914319e-02
-6.878884347268378330e-02
-1.183278854398304158e-01
-9.097084639400490613e-02
2.996308691593341234e-02
8.955496296272350693e-03
-1.597712752492124744e-01
-1.501635614888322812e-01
3.569875899600324920e-02
1.243366435693986222e-01
1.015401909617022758e-01
8.026124435484806308e-02
5.198350526324992810e-02
5.105714578762477959e-03
-2.810346481916246517e-03
3.692766708213490734e-02
4.210748533426996593e-02
-1.492178210774918433e-02
-4.410749070436591895e-02
2.460875931167810435e-02
1.412894234421232242e-01
1.632204240713114318e-01
1.826447251793934801e-02
-1.362166096075316524e-01
-1.206603970175216256e-01
-5.948068703693399489e-03
3.110705284835192305e-02
-4.722616086094984927e-02
-1.134419053931561838e-01
-5.689303359058543730e-02
5.633504479877956411e-02
1.229158118440364517e-01
9.441969142012315852e-02
-4.739605843319445039e-02
-1.386770224114329264e-01
-3.075067725338995542e-02
7.165584029205662731e-02
2.394378982187418681e-02
1.376562612195753391e-02
3.949427525413806706e-02
-7.253256451746879774e-02
-1.568198262532249088e-01
-4.419718385302660868e-02
5.691799432405188208e-02
2.713536469120785694e-02
-4.881880462514344432e-03
-2.273674434353303159e-03
1.448588643480841834e-02
7.331932808452591710e-02
1.358034503896204115e-01
1.138960336944171980e-01
8.808430140332045369e-03
-3.813093796100008870e-02
4.396912269111172278e-02
5.023439834472830101e-02
-1.236554552761035680e-01
-1.915229006613484442e-01
-3.700623680418476530e-02
5.901287501664295027e-02
1.042435810948450989e-02
-1.437211646364753952e-02
-3.036805576175640679e-03
-1.891290275079828692e-02
-4.878716325176957885e-02
-8.007706616699940272e-02
-6.101697592708749118e-02
4.797735747296215381e-02
1.304418311495250393e-01
9.801719329420270632e-02
5.635693697231791699e-02
5.601796892102351572e-02
1.625940398553126897e-03
-8.271743273547765840e-02
-9.416945292267031586e-02
-7.949991526306515732e-02
-9.200513698148786446e-02
-7.053147653186826738e-02
-5.798134276585302331e-03
4.128779064289236217e-02
5.014502004615382924e-02
3.142603331690263513e-02
-5.775144675283731127e-03
-5.367852914618905652e-02
-7.395431074953009998e-02
5.668482168775153436e-03
1.662686674871785286e-01
2.789958795383120638e-01
2.917272904823933755e-01
2.372239283695110057e-01
1.096283782453010419e-01
-4.862390876927061983e-02
-1.381218220614902625e-01
-1.684236048626804594e-01
-1.875496057215196577e-01
-1.746243455898862373e-01
-1.473131344726429370e-01
-1.519878658958506157e-01
-1.419478421693937398e-01
-5.488270857906414613e-02
2.294865500036754463e-02
7.144879681772464686e-04
1.989054219563150816e-02
1.350182100579694899e-01
8.682749326445227123e-02
-1.058799436897399360e-01
-7.894585124178328528e-02
1.194044607821705545e-01
1.694866942031264534e-01
1.077313591882198551e-01
7.987988041719948362e-02
4.513569238484093499e-02
-1.710619072579024763e-02
-7.271129240885794431e-02
-1.085554394122063421e-01
-8.228714914975177042e-02
8.006913385561359800e-03
6.615755999779540653e-02
5.927102568845542263e-02
5.423362185380764533e-02
3.804300800396950843e-02
-3.401376056258023639e-02
-8.300456982040839427e-02
-4.830770638349418666e-02
1.010009382023202215e-03
1.351920877635382628e-02
1.398808626941210054e-02
2.110979681272532119e-02
2.576985814721448678e-02
9.862842117588276059e-03
-3.048422110147633313e-02
-3.724027259683205388e-02
3.914784390237470435e-02
7.789060031428247932e-02
-4.684892437944612048e-02
-1.638859688786751534e-01
-8.461798961913391537e-02
1.495123702045288681e-02
-4.718754581760713218e-02
-8.146149917166257970e-02
6.758134953051522786e-02
1.750796020796451247e-01
8.009113973009164555e-02
-3.292492726182667806e-02
-3.585016704025425355e-02
-7.840738100086164925e-03
3.077188892527840496e-03
2.285318057530443675e-02
5.179088829393468929e-02
3.495896064619472693e-02
-1.302881705654800309e-03
3.355013432607723001e-02
2.255939239399205876e-02
-9.298285282326734791e-02
-3.969575897507437306e-02
1.643461243437236985e-01
1.600549483188957178e-01
2.061144803310378804e-02
2.229316933118175026e-02
5.951250495098344556e-02
-1.704924302065894196e-02
-1.213768473993998287e-01
-1.730623808914430461e-01
-1.842375267709168984e-01
-1.750234359507118198e-01
-1.386835105902751442e-01
-5.472050463491386074e-02
4.484122630219845862e-02
9.059272587474659355e-02
7.651368761541006702e-02
4.349568904445764994e-02
-3.252317859388153751e-03
-6.152416608365803008e-02
-6.466246503459038841e-02
2.500409117241674320e-02
1.302743712168364376e-01
1.803303400155190084e-01
1.557867380446413264e-01
6.943836097949449004e-02
1.958531279539937539e-02
2.644927781766416228e-02
-2.683023050909368393e-02
-1.159956264508517493e-01
-1.141668741774002349e-01
-4.273843189112710994e-02
2.021128129835895668e-02
6.039713180467841391e-02
6.166318084533220500e-02
1.389003803940059602e-02
-5.785433527898605627e-02
-1.145981591492181151e-01
-9.457715787252689299e-02
-2.418655976072537489e-03
2.815007772360449828e-02
-4.792003548811408359e-02
-5.327516323238989937e-02
1.192515209049123254e-01
2.474234730403942206e-01
1.161656983676168653e-01
-4.868036032881316311e-02
2.106616973082912556e-02
8.074477364596725770e-02
-1.127251797052437055e-01
-2.428271517759243991e-01
-8.044668595393711374e-02
5.867572189450494247e-02
-7.991995608451069044e-03
-4.547435545008821078e-02
2.801692746395369540e-02
3.760778052151082795e-02
-3.085488424612595204e-02
-4.392727770409064758e-02
-6.441713492386117075e-03
8.708445009901456813e-03
2.848355594232416382e-02
6.420282393397730436e-02
5.303239151770482163e-02
8.227262346680239147e-03
-7.794491447989672014e-03
-2.331906881974127321e-02
-6.547525942939676213e-02
-6.365813900203209919e-02
3.154291718115738788e-03
3.486513264475485374e-02
-6.456908225623728820e-03
-2.525848830262988898e-02
1.494049998662834271e-02
2.579534796660741536e-02
-1.345979150121754189e-02
-8.498755219730046856e-03
5.368109703031588575e-02
8.247524336400731404e-02
6.472825979025911836e-02
4.057423437296930890e-02
-1.206033982782986000e-02
-7.971432290428803746e-02
-9.133048806904632555e-02
-6.723286194201801014e-02
-6.394510254076578304e-02
-4.775998108361120820e-02
-3.445180067393221589e-03
1.131588810309586308e-02
3.834154506009133240e-03
2.560383994969397947e-02
5.028948042812024510e-02
7.784819951319837950e-02
1.711349172046252587e-01
2.535008077655351300e-01
2.177996348498467682e-01
1.392004104537908349e-01
2.528334290004744314e-02
-1.816987051519879381e-01
-2.913077858680125365e-01
-1.902036698308048890e-01
-9.273557223268558136e-02
-9.054397014486870177e-02
-7.872736823961107300e-02
-6.259305381854789185e-02
-6.517397575346323135e-02
-4.000992782048853197e-02
-7.004225487085555257e-03
-1.710482699150025349e-03
1.265352187281882854e-02
4.966646836057069664e-02
6.038163823723015355e-02
4.156057042518139510e-02
4.939938346689871224e-02
7.755452202874547896e-02
6.774638817237041422e-02
2.517911433402499413e-02
7.033566245295188452e-04
1.275419296442259313e-02
3.198200972461049535e-02
2.769817883705638292e-02
1.849014964877028488e-02
2.642866534813116675e-02
2.643279808232316258e-02
-1.232787873479982560e-02
-7.973640599485443126e-02
-1.207734221777688743e-01
-1.154599518231712307e-01
-1.115487342861616604e-01
-6.445534027633215146e-02
9.318785613461683104e-02
1.875204798225427738e-01
8.139861858794154859e-02
-2.776447661232764319e-02
-1.015054125025373691e-02
4.443427531631404491e-03
-3.228426631514178663e-02
-3.609271865548141500e-02
1.192932360875071686e-02
5.343692315837528933e-02
6.099759182526810763e-02
5.705621718382559993e-02
1.531157362405057877e-02
-5.641665256721581367e-02
-3.802727823926424500e-02
1.225913599318283545e-02
-4.469109788289448576e-02
-3.612127546947940804e-02
9.141659633184795464e-02
5.521803658699162010e-02
-8.964928276679895447e-02
-7.044199593452267483e-02
-3.039611349652526773e-04
-3.324144363841295691e-02
-4.514914156400536699e-02
-1.259944246878596380e-03
-1.882719857448539313e-02
-6.107028461428147537e-02
-2.202996556974177317e-02
2.349460494308351285e-02
2.303100812202052081e-02
1.030738521288977610e-01
2.119838608806546287e-01
1.272846101441048039e-01
-5.915209063195661643e-02
-9.599148473483756772e-02
-4.016992343376987046e-02
-4.109206058516477050e-02
-3.176096084877146758e-02
3.543787621871884869e-02
5.289516926434219279e-02
1.558424875984872407e-03
-2.080893269612812957e-02
-7.724847232599604471e-03
-1.437392544135249195e-02
-1.569051619878735274e-02
1.832985325397296431e-02
2.738855670751968660e-02
-2.353123635738614550e-02
-6.983085962878303465e-02
-7.079442117084817909e-02
-6.475895269868731097e-02
-7.300588246832521999e-02
-5.501642605003816827e-02
1.990997147358644290e-02
1.027689596428241758e-01
1.222049526802071184e-01
8.069661118326243443e-02
1.838094076023714246e-02
-2.814444103242532552e-02
-1.336284811416597711e-02
4.360348537066877778e-02
9.234768950331269377e-02
1.270670711303228395e-01
4.361603537926400653e-02
-2.158991249473448948e-01
-3.536768926080247066e-01
-1.475467851603219915e-01
8.510584442883345480e-02
3.638384304498935157e-02
-6.213096046233648750e-02
4.795650751148247681e-02
1.728558677166674995e-01
1.307235378341333187e-01
4.401975691441714633e-02
-3.631052982366353432e-02
-9.032303758813362005e-02
2.546242463028794770e-02
1.770862312568778352e-01
9.280369021768836157e-02
-5.905697887891898229e-02
-3.531798441775733932e-02
-2.912710549294771772e-03
-6.865215500420275563e-02
-4.931112595409137267e-02
4.476261264446765309e-02
2.465892561556136398e-02
-5.796266665864125561e-02
-5.312981579988591829e-02
-2.651529357538496764e-03
9.189668376745421113e-03
-4.925646746202006973e-03
-3.839239669833638402e-02
-8.051890193964034159e-02
-4.665933608177034314e-02
6.721766710774738918e-02
1.093062974860639913e-01
2.744028794374088129e-02
-2.954534825354872968e-02
1.118336489580909129e-02
3.056201164133827766e-02
-3.217401078921990065e-02
-7.029469244810988837e-02
-3.456635091416807720e-02
-1.240739282438815122e-02
-1.574222721990502921e-02
3.756501706805175089e-02
1.082254242461658245e-01
9.196329432247860036e-02
4.027936166122943196e-02
3.043263751199918460e-02
8.359606611161838480e-03
-5.788600910066015251e-03
4.678955546035338392e-02
9.678509749881408775e-03
-1.617201399061389266e-01
-1.786055505469433258e-01
-2.649909723107968240e-03
5.286346223671722216e-02
-3.752172427828169565e-02
-6.213211358659990330e-02
-2.665018427134179663e-02
-3.056072197501168153e-03
2.962537443851230579e-02
3.047525807686004770e-02
-1.579956352223890054e-02
-1.739715136178730803e-02
2.177428081498058998e-02
2.850996357516741297e-02
4.450501513790534880e-02
8.926113772090510379e-02
6.881290112590594810e-02
-1.148865288304560389e-02
-5.165154001586674121e-02
-6.321483626641072329e-02
-8.477774725382099252e-02
-6.010639601318413378e-02
5.265474478006411385e-03
2.091848445571022064e-02
1.996528019032828283e-02
1.087223989374924288e-01
2.241509415049482423e-01
2.100228916805601809e-01
7.545098791578151720e-02
-3.186302421045940358e-02
-3.894110797422391246e-02
-1.738620155845215648e-02
-6.422549303749799932e-02
-1.493373108308985453e-01
-1.752762912930371231e-01
-1.533526839427193367e-01
-1.385884964794481811e-01
-1.164196585893256808e-01
-7.925746986963959351e-02
-3.298638881921090588e-02
3.246778164916190590e-02
9.425489716704379961e-02
1.482467839141529686e-01
1.954171630527403170e-01
1.563583668676440386e-01
5.427693931745862510e-02
3.819906460247798896e-02
2.894802441607249172e-02
-1.226438115918849214e-01
-2.167147957954639326e-01
-8.627503129800398463e-02
5.419882507368074809e-02
7.029250915994178506e-02
7.609611256791835865e-02
8.393713511588965503e-02
2.789481612670815375e-02
-4.110669694905409732e-02
-6.254687486485303871e-02
-5.744934567763224087e-02
-3.497044474158175764e-02
1.637640015164058827e-02
5.857505592606727235e-02
7.281806066649476605e-02
8.207805311157533035e-02
4.955439304877874707e-02
-2.962071338600125170e-02
-6.680131754222495832e-02
-6.012924324009679550e-02
-5.069147977130878530e-02
5.893728612567331049e-03
5.255371822747369887e-02
-3.104140699194220948e-02
-1.241926767513279045e-01
-7.067595966257930740e-02
6.393258517379332706e-03
-1.422351120315040393e-02
-3.594469953098768100e-02
5.145278589632896853e-03
4.032083262775516819e-02
4.150912994140983775e-02
4.753987236019349000e-02
5.362732439554857705e-02
3.128385377239017995e-02
-3.182755971112793264e-03
-2.745890990605048820e-02
-3.652930501857448026e-02
-2.014347866843853307e-02
1.919072444190264223e-02
4.829837209441366352e-02
2.022326283367339300e-02
-2.166865575105338115e-02
5.357983071739073899e-02
1.407197373177498101e-01
6.527172000472281424e-03
-1.340320171519976677e-01
-2.465866798199117804e-02
2.693029508784223688e-02
-1.232753225574476363e-01
-1.485197731388252507e-01
-2.235814598156127958e-03
1.242092288322028670e-01
1.853160039708250939e-01
1.388018745429520917e-01
1.665867439331626676e-02
-3.237020888008094316e-02
-2.610518816657998037e-02
-5.490974501984498268e-02
-3.244579662487198646e-02
5.129732309610049446e-02
9.281869819196368609e-03
-1.212629770254378264e-01
-1.082253153230003651e-01
-8.186681723840783659e-03
-1.755596089275025112e-02
-8.522039202525358292e-02
-8.660320213424446689e-02
-3.350380128759306714e-02
4.311733544846550054e-02
1.240549124101945067e-01
1.408769945300959447e-01
8.509237693472260222e-02
4.196808170623503309e-02
9.925384577182901069e-03
-7.657146423298688553e-02
-1.490728682341034839e-01
-1.141097808604784603e-01
-3.964324902824405139e-02
-1.274215157172552126e-02
1.659371199968472099e-04
4.407546083353971328e-02
8.684472815289515091e-02
7.780718030455108236e-02
2.357127092179139849e-02
-2.449746149680047738e-02
-3.622635061812877477e-02
-1.185486666961955635e-02
3.999592307981000849e-02
9.217585805399337862e-02
1.092760309040894245e-01
8.153078451262882331e-02
2.222079105947460248e-02
-5.438496717178233075e-02
-9.590236849544575559e-02
-5.659828244333330038e-03
1.323223984893998340e-01
2.653489512960654356e-02
-2.632196229818249966e-01
-2.725287819997107563e-01
3.145040160683461317e-03
9.487192712351753821e-02
1.380376844186047280e-02
9.694531665361956485e-02
1.876851158932448249e-01
4.773713136428637399e-02
-7.731811817625573735e-02
-3.928842417814192717e-02
-3.920919135757634094e-02
-8.573631159403477531e-02
-3.979902201930524130e-02
2.618772039738109098e-02
4.499047480608810157e-02
8.067296763552156413e-02
7.931448580782149427e-02
-2.412015986820864252e-02
-1.003845394192696971e-01
-6.792385124105636274e-02
-1.567957389432878684e-02
2.059597182365830934e-02
7.068244056454214830e-02
8.053810192485115482e-02
3.986109018930900083e-03
-7.124095002590331849e-02
-6.056271712276188601e-02
-8.105933015259934871e-03
1.691234667575787498e-02
-1.751284627092689929e-03
-4.099820239146906992e-02
-3.411346009970298715e-02
4.013188850986981748e-02
8.744604200355006463e-02
4.213137817404326302e-02
-2.985002093056002281e-02
-4.952834050676127586e-02
-3.462632061414085832e-02
-3.810338021390737712e-02
-4.690198450301694827e-02
-3.154048890214133233e-02
-3.200523883290889993e-02
-4.727878396293352936e-02
1.292185537224747882e-02
1.087914445805747143e-01
9.932389429794616365e-02
3.937991130255531769e-02
3.261435890265089454e-02
-1.062662477815776857e-02
-8.488488403412086658e-02
-3.036715606742411075e-02
8.041456299192367707e-02
5.696915519166336622e-02
-2.730013834873924392e-02
-9.164012479468432865e-03
6.981576267986444595e-02
1.057019618530526950e-01
1.024631031992860042e-01
8.732237932151240556e-02
5.967792043972975496e-02
2.314639294451423940e-02
-2.419707186713206809e-02
-7.498337280447137099e-02
-9.746165414598220722e-02
-9.618734229292805193e-02
-1.237911261271854163e-01
-1.770145181213919894e-01
-1.820965172775873830e-01
-1.174000840827010839e-01
-3.777150867927324407e-02
6.128198183901725077e-03
1.068897892992506579e-02
2.189354393832005155e-02
6.428372545051902476e-02
8.134323009884839029e-02
4.894108930663174095e-02
4.624659417899269764e-02
1.025964810655419918e-01
1.317684037398124397e-01
8.584767253905153939e-02
1.529272024224352482e-02
-2.771214280633762378e-02
-3.425982716862603639e-02
-1.702573360980773332e-02
7.409095694149634564e-03
1.695975231501021391e-02
6.711475657419869144e-03
1.240885582727241365e-02
1.058406160866057558e-02
-6.330470423892652077e-02
-1.111468064774083081e-01
-2.014024644011147905e-02
7.523306310307163736e-02
4.137112577303310446e-02
4.027620843282885346e-03
6.707655138978015075e-02
4.330245663604581630e-02
-1.564582170227849789e-01
-2.124420962711299210e-01
4.360789500330253254e-03
1.390621179619233316e-01
5.589164715165065300e-02
4.136753805188591107e-03
4.307518432032794720e-02
4.140748273980853628e-02
1.236238737864619672e-02
6.178014590655166172e-03
-2.314344920177564477e-02
-7.219935931519817773e-02
-6.729923163119924667e-02
-1.361969178966569716e-02
2.024278970429790880e-02
2.432076244969000323e-02
1.523183567101271327e-02
-2.152141805445465655e-02
-6.552147478773770461e-02
-6.803729130463005703e-02
-3.181778937036752741e-02
1.461559285224750884e-02
5.726946334309462178e-02
7.775880585277249180e-02
6.483259094880899909e-02
4.285420841848622958e-02
3.462412256240324920e-02
3.523577575705483939e-02
4.944046546456845603e-02
3.628011389718704266e-02
-6.397728863407746436e-02
-1.284796018626997716e-01
-3.837309679700748322e-02
3.685407379856182886e-02
-1.988536998282336085e-02
-5.133981714782534511e-02
1.028119997396046391e-02
3.293497855933281288e-02
-3.940466949871863911e-02
-9.982901045337742862e-02
-5.494283742460630976e-02
2.750897657834361701e-02
5.135408518075355172e-02
8.291245596341575985e-02
1.550374614109068239e-01
1.184518864486593798e-01
1.031780219952519242e-03
-3.454098360626220790e-03
-1.896498300764892439e-02
-1.595327296974740627e-01
-1.117270399459270730e-01
1.278712572243389523e-01
9.357229192626156933e-02
-1.483746007681692181e-01
-1.550336771330589891e-01
-1.535017290725110978e-02
7.556844371384537767e-03
1.322206620677883471e-03
2.921827403167289935e-02
-1.103714257569129650e-03
-4.993394261532388412e-02
-1.190727731189303480e-02
5.614160330385095654e-02
3.821314364903396349e-02
-3.820721798791339510e-03
3.313386136587979230e-02
4.465081631862769657e-02
-4.108327787598783920e-02
-6.543377916267037464e-02
1.089362205758026558e-02
1.523512331757210896e-02
-2.812574850854341127e-02
6.333207961070916325e-02
1.824071548934932674e-01
1.044941098162986276e-01
-5.119994186684601045e-02
-6.512882825087865091e-02
1.301249410967448422e-02
6.526922406897230078e-02
6.730070396179477221e-02
1.330384281218566569e-02
-2.828663712853139028e-02
-1.264998256943034721e-02
-6.619246100904677133e-02
-1.865330027057176543e-01
-1.660000856484098453e-01
-2.252239573410392062e-02
4.763124425991922817e-02
4.588702093865851261e-02
5.917839925014745789e-02
5.563119850788346421e-02
1.124899156471824598e-02
-1.500845584728570901e-03
3.512720069655482502e-02
2.367993164329798214e-02
-2.071032774325322692e-02
3.192042820838922323e-02
7.503406361426091797e-02
-5.779944108999601760e-02
-1.579133336824951328e-01
-5.473660443720469726e-02
2.155968029136893366e-02
-4.706952330671941576e-02
-1.068526450709230829e-01
-5.798926656340303021e-02
9.999313617922939157e-02
2.069396380349633469e-01
1.007270814911274126e-01
-3.160658853919576239e-02
-6.610859946511549873e-03
1.032592940207916789e-02
-6.392124948290006659e-02
-7.105192045705921444e-02
-2.010072889738971635e-03
1.716202402589919306e-03
-2.969545807830416967e-02
1.215545932459642132e-02
5.165458827826348992e-02
-4.488876649445959835e-03
-7.356407182178571758e-02
-7.865884456673058467e-02
-4.584887185357906098e-02
-1.101969842281998700e-02
-1.388987885893106997e-02
-2.027938687939636470e-02
7.272518835376706736e-02
1.908166153497944939e-01
1.897066554833243823e-01
1.410100094600003073e-01
1.360368578046422250e-01
1.206278451051083639e-01
6.836776328753130239e-02
8.538114947656372938e-03
-4.726298908111732644e-02
-1.013422089566782119e-01
-1.646032435435062780e-01
-2.192323939813244082e-01
-2.194148405625160614e-01
-1.602198224397043402e-01
-9.126839041530721008e-02
-5.097230445998014031e-02
-4.419848454127295323e-03
5.470926725575701866e-02
4.807993178345468244e-02
4.338707175916672182e-02
1.390937515494324039e-01
1.207199888858101477e-01
-9.608348856294632312e-02
-1.653227144403596194e-01
-9.354540548965242786e-03
7.703580804221758782e-02
7.217957278104394914e-02
1.140403688857413583e-01
1.407858380861357339e-01
9.221831677068251243e-02
1.830504067339850174e-02
-3.809469821153019242e-02
-5.140637279503254553e-02
-3.381841590602954056e-02
-3.039617933970851366e-02
-2.995988626426242252e-02
3.713745581565768700e-03
2.353557168552055517e-02
-2.897274885750773452e-02
-8.775429620393640495e-02
-7.048185033447175452e-02
-2.687620989219512840e-02
-2.280489490345043863e-02
-3.084170481128025582e-02
-9.262737097901875896e-03
4.197000798080792461e-02
5.720544031170217425e-02
-2.350056434058856933e-02
-5.684809113493295707e-02
9.504774199061180595e-02
2.012671205991982404e-01
7.159906209728694737e-02
-5.275480532843025011e-02
-1.413771754614083151e-02
1.347793068011962463e-02
-3.094507892487130540e-02
-3.523759245643540844e-02
-5.211292869952040274e-03
-1.207418324245321944e-02
-3.180201975433875894e-02
-3.663847704617057693e-02
-5.027536313686536973e-02
-5.573693372875150598e-02
-2.661856586737416236e-02
2.067564601795896656e-02
6.310409024948983314e-02
5.559583088087438618e-02
1.499058186475009206e-02
2.824577372445250326e-02
5.908922742632608666e-03
-1.129982536694415923e-01
-7.575664870765039249e-02
1.298753503473055737e-01
1.500755613291178403e-01
5.064179003086317910e-03
-1.588818645492343778e-02
4.681313808389103714e-02
3.872893324657114555e-02
-6.735688664121534767e-03
-3.844943263476231082e-02
-6.171073364448236703e-02
-6.215386440619694031e-02
-5.343456301221122251e-02
-9.238324058997908483e-02
-1.425897579094835832e-01
-8.270229195773926012e-02
6.189041762659771434e-02
1.295387617628470101e-01
1.005092138009048286e-01
6.930964634993556917e-02
3.204361830389932525e-02
-3.155124776179420165e-02
-7.091107992907301483e-02
-7.155099325819662404e-02
-4.609973264054787606e-02
1.332582570657196881e-02
7.416177393824413544e-02
8.403054833052464589e-02
4.081412386270136944e-02
-2.114420257526312963e-02
-5.365818815140195597e-02
-3.221551515656374126e-02
1.101786684452866344e-03
6.861215907716197715e-03
4.732938190795239752e-03
2.636692765807243950e-03
-5.757220517412196814e-03
1.121835533318224325e-02
3.791152416713331613e-02
-3.597169939440383879e-03
-7.066229944541382868e-02
-3.240209828009180115e-02
6.609555378085238408e-02
9.634652721509724682e-02
1.046247772084858141e-01
1.273916078594099777e-01
8.338029352983986064e-02
1.416452078915853008e-02
-4.644344103470052221e-02
-1.804429441803587775e-01
-2.550572552013000704e-01
-1.076888798854711282e-01
5.836741529762215497e-02
4.815677294330990288e-02
-1.360947232503538148e-02
-8.276744130486910281e-03
2.109986768867961465e-02
4.566872832452238684e-02
6.536971158535781479e-02
4.305063290372415641e-02
-1.660708540707115516e-02
-5.973302748640693660e-02
-7.000689682247986101e-02
-4.102279553251130667e-02
2.267331147541071582e-02
4.907422131906003654e-02
2.562039673071224086e-03
-3.116239293315863079e-02
1.439435450988026631e-03
2.992424127336858891e-02
2.083449078753372291e-02
2.595635651985810088e-02
2.906892459193614886e-02
-1.415663183804853099e-02
-3.756628843222710457e-02
-6.850118075150297969e-04
1.126839530885191329e-02
-6.923192783597396059e-03
2.977649982628235298e-02
6.897729407144691238e-02
2.005539514033081658e-02
-5.009251451178040049e-02
-6.153695559738921878e-02
-4.428500673757104766e-02
-2.934209117938214872e-02
6.017947083162230627e-04
4.097239033591684038e-02
4.537564294967534606e-02
6.045172239441901768e-03
-1.103658265034145741e-02
1.525038143987627812e-02
1.060040861751253283e-02
-2.540343262217601220e-02
1.368597082893289497e-03
4.436194217885693764e-02
7.742860196414107915e-03
1.167451929673182093e-03
4.675906841787796919e-02
-4.564093055503251617e-02
-1.770355772460129595e-01
-9.350577044338680144e-02
5.827525332487418219e-02
6.962993692383430411e-02
3.424244670459076351e-02
3.088919150576126520e-03
-5.447692086266150979e-02
-5.288749582641263242e-02
1.537657373249604921e-02
4.930327150559161986e-02
6.153707125671049882e-02
1.065539762343286345e-01
1.494579772463685008e-01
1.630352759773774085e-01
1.590096331800410212e-01
9.669132572095175127e-02
-3.850691937461406256e-02
-1.366660174916789483e-01
-1.429307786892906051e-01
-1.395131272026713942e-01
-1.513223830378174761e-01
-1.362651766524310137e-01
-1.201699228200358294e-01
-1.338561929541418338e-01
-1.285840521232492484e-01
-6.834390155861655436e-02
4.722587494785067397e-03
6.326770545601725915e-02
1.171378276892782455e-01
1.265914380313921672e-01
7.771965920624142321e-02
6.118257869062504462e-02
1.041553206844312851e-01
1.119195118859581672e-01
4.796538274858721390e-02
-2.326893824589183063e-02
-4.396308692092704140e-02
-2.317178104417101994e-02
-9.674370535342998942e-03
-1.689702133000505098e-03
2.812092940479799658e-02
4.438269105150026428e-02
3.050929817979973827e-02
1.014748275799555802e-02
-2.839646098096534899e-02
-2.847126852028135369e-02
4.318839523264713515e-02
4.235248609300029318e-03
-1.563204820198856593e-01
-1.408731907905027558e-01
3.104476830668886217e-02
5.206281743708516402e-02
-3.735024737643207610e-02
-1.905170421553038437e-02
5.740041069539986857e-02
6.570101062126468272e-02
1.686316457695637844e-02
-3.263550540098872355e-02
-3.536958222766044962e-02
-3.914472000616257483e-04
2.768495660947699506e-03
-2.872717066680324435e-02
-3.169357704164246781e-02
3.885324059029282226e-03
2.870599463257518524e-02
-1.136733427677343207e-02
-1.003779014283751048e-01
-8.941500940019178612e-02
8.410671901488459001e-02
1.847476859675271921e-01
7.774095121113364093e-02
-3.726798829234719002e-03
4.064824013178881118e-02
3.806159858157823206e-02
-8.640192412094870045e-03
1.569139893553749693e-02
4.291835096831441571e-02
9.908936344967976192e-05
-3.738491864164361633e-02
-1.412786268793490146e-02
2.104848610809549603e-02
1.278757248311259906e-02
-3.264597776869622436e-02
-7.693244494051455773e-02
-9.620701199949253934e-02
-9.978757233553406381e-02
-1.152342103900768494e-01
-1.221930734025973991e-01
-6.261099485464424741e-02
4.221011683957425625e-02
1.220306847954944207e-01
1.651652520118185308e-01
1.357951711025861541e-01
9.272835740300147678e-03
-6.369581888057890273e-02
-3.231533439214320791e-02
-6.022957016782901768e-02
-5.075280695629529049e-02
1.486411011464423004e-01
2.318523178051250799e-01
2.109315785959391815e-02
-1.367369181696807823e-01
-6.722690209765200264e-02
1.785747710093871232e-02
2.912273432049378510e-02
3.213604311019507137e-02
1.865445300927043347e-03
-5.818259965806928807e-02
-5.956604568689136819e-02
-2.182602257967056897e-02
-1.357910685059063663e-02
5.636476441909108771e-03
4.064199380995850430e-02
-2.389070935022078943e-03
-8.508204939505227549e-02
-5.274571588473458972e-02
6.124026844566608091e-02
7.815685553869350377e-02
-7.798179383462271186e-03
-5.337753410884429894e-02
-3.010615788062751333e-02
-2.373079036846165515e-02
-3.876983480118745273e-02
-1.790438664225412965e-02
1.794199785428193805e-02
4.343458261727336372e-02
8.423991907185578165e-02
9.870586106230980206e-02
4.046308960589979631e-02
-2.009436118416564263e-02
-3.568503033833900218e-02
-5.485469861821939269e-02
-6.586770302568506485e-02
1.191510727027873459e-03
8.641195943094777399e-02
4.564085106430869343e-02
-7.302530127224865497e-02
-8.676226039882478647e-02
-2.681602962019425870e-02
-2.343399372847744522e-02
-1.599322122615084996e-04
8.157394182291187457e-02
8.334854662120996793e-02
3.358386518512941621e-02
4.543061661520965411e-02
2.336837757067478788e-02
-5.761204216843231890e-02
-4.320687933073799614e-02
3.074010304773936927e-02
9.129545085692594708e-03
-5.657857893324548526e-02
-4.551148118012825206e-02
2.011929571221173635e-03
-5.702660649676137561e-03
-4.882503982360493489e-02
-5.918839494774801729e-02
-2.933095650552972750e-02
8.193307610182533340e-03
1.846381278428147615e-02
-4.553682573537448305e-03
-3.094035524115364144e-03
4.089858006527322815e-02
3.258243243900581926e-02
-3.772825566944970621e-02
-3.814772614945372009e-02
2.842950976476980862e-02
3.698506421981172243e-02
1.941394311014572882e-02
6.161680241275929726e-02
9.139693827486113087e-02
4.409402015023899946e-02
-2.930248979006415747e-03
7.517390252446914597e-03
4.091186818299198669e-02
6.116065122133693827e-02
4.868888845119750952e-02
1.173762808771717202e-02
-2.146642826677159707e-03
3.614260069536266717e-03
-3.018151713494287083e-02
-9.739940905241084579e-02
-1.317195503424911374e-01
-1.125258238647780101e-01
-7.431998355028177072e-02
-4.362411545429965148e-02
-1.822755954992059252e-02
-1.782459864143335140e-03
-1.742301792999997184e-02
-4.850195195258259762e-02
-2.975930660301517178e-02
2.629981439511921981e-02
5.111145024007131277e-02
8.598216363888773472e-02
1.282235686521458751e-01
3.394692442367432117e-02
-1.074508416992613763e-01
-4.897615021096256294e-02
9.487416523296521298e-02
8.750416917979993159e-02
1.391229704355744293e-02
-1.882506235479242812e-04
2.316748992752318270e-05
-6.295134180456950571e-03
-6.357096332475718412e-03
-1.840757333360400205e-02
-2.501478452565325528e-02
-1.378905946315260762e-02
-2.919239685819114555e-02
-5.556737241276206440e-02
-1.132558080273981041e-02
6.107573113750032479e-02
3.644119187748580402e-02
-4.400536525325836334e-02
-4.693327969185261128e-02
4.404015196338387228e-03
2.338180546579605654e-02
3.190197172071373294e-02
5.359841504680320362e-02
5.619540198465863834e-02
4.611132748770431500e-02
2.554383283681183753e-02
-3.012126404194831464e-02
-7.197996368966458336e-02
-4.900011434020783846e-02
-6.931891629824282058e-04
3.726866293327049662e-02
5.090644622120562429e-02
1.190944855786952791e-02
-5.033382398721802237e-02
-6.506628330459721110e-02
-2.983593059389006569e-02
4.084595719881157182e-03
1.137715202203899711e-02
4.843019283484670257e-04
-4.785494833583099628e-03
4.988933950525620102e-03
5.567943397665987490e-03
1.010932188707754434e-02
4.455580752070528727e-02
3.964460761235222980e-02
1.939595535758649805e-03
4.884543534727169706e-02
6.638141896800939246e-02
-8.293338875110629893e-02
-1.631451885158308746e-01
-4.115500008969848883e-02
4.032604016297613309e-02
-2.042104637283093799e-03
-2.530219366503604767e-02
-6.142976132117637655e-03
2.431265106735159415e-02
5.843078743643221468e-02
4.134602784849528145e-02
-2.112839731130015247e-02
-7.051127434175614994e-02
-1.332483127866318784e-01
-1.613477378207784918e-01
-1.262941221168329547e-02
1.996049213062689176e-01
2.256718948312828044e-01
1.018890168109952976e-01
7.222842134117145492e-03
-3.227475050292667041e-02
-5.591007361647187812e-02
-4.156950947877266489e-02
2.536818336268371887e-02
7.412053525235841323e-02
3.432196234991084088e-02
-4.859370501675961546e-02
-8.555308807417125183e-02
-7.637367487676552380e-02
-6.244612641790198843e-02
-3.471587439818686616e-02
3.397371769531387555e-03
1.276555851513305230e-02
9.983320911768026051e-03
3.397129541912104894e-02
6.432224105099981770e-02
6.519670062691958201e-02
3.098439962411459608e-02
-1.458714398949888247e-02
-4.977683924471534155e-02
-9.359681443512550547e-02
-1.219403230776028024e-01
-3.993807494320847362e-02
1.172074984597803599e-01
1.833543596939757880e-01
1.275358666611378644e-01
3.558401882425336893e-02
-3.708979244241897288e-02
-3.279266222269816566e-02
-1.746052021626393752e-02
-1.301564057735386248e-01
-1.935244364875157996e-01
-9.803868490637718258e-03
1.391839382676437198e-01
2.594907291797916155e-02
-8.301769871700956371e-02
1.721515757768608129e-02
1.400746501748720840e-01
9.915185871057474731e-02
-2.121160364767888523e-02
-6.360615397905239332e-02
-2.054973348723786522e-02
1.363564075451648670e-02
3.537160714906287511e-03
1.579115604704967035e-02
4.872233439933058158e-02
-1.581392098169052268e-02
-1.270186992412118410e-01
-1.055034144809182395e-01
-6.434853182612849248e-03
3.565837545835706668e-02
6.238505142628109762e-02
8.057124825039711780e-02
3.073907466684467835e-02
-3.627209772721279313e-02
-6.608929677749411646e-02
-6.372383406711847054e-02
-6.705032770803540446e-03
8.087478727076811980e-02
1.080381738057125951e-01
5.105571595796487561e-02
-3.085844537001185273e-02
-7.306827425315949587e-02
-4.885384948735116417e-02
3.542459693177565233e-03
9.415995763616714920e-03
-4.034535672521532418e-02
-7.130578682107560629e-02
-5.643685188841145173e-02
-5.076013699304834925e-02
-5.319732209745512558e-02
-1.171166193550659922e-02
3.963282779932929267e-02
6.436089410315883053e-02
7.926171406300838718e-02
9.723477490480872398e-03
-1.086659882027143781e-01
-2.975523645906306622e-02
1.674948630360838242e-01
1.496502291980006949e-01
-9.786430307528244665e-03
-6.059246281882740143e-02
-5.890892181548177536e-03
9.710071690000122990e-02
1.529486664235160942e-01
5.140209281498011457e-02
-7.037979333474683741e-02
-7.258239584854846160e-02
-6.560641468007695487e-02
-1.013089952095743845e-01
-8.007511399469931235e-02
-5.524915132686415709e-04
4.851944656808087480e-02
6.234940571858435532e-02
9.593470515178600944e-02
1.323567806839303640e-01
1.147210611861069346e-01
5.220881014045669621e-02
-1.775596946013941607e-02
-7.768458192754207348e-02
-9.969068058021157697e-02
-8.451945921140184559e-02
-8.913471116215952728e-02
-1.206991599214650573e-01
-1.210017784083021186e-01
-1.001492800709966324e-01
-1.097025970671012263e-01
-1.166990094536601297e-01
-6.963406490951351557e-02
-7.600634317257978778e-03
1.280211233030220663e-02
5.574473893115963058e-02
1.843763761001383783e-01
2.414100466211326346e-01
1.190602937189836757e-01
1.533864580779659148e-02
4.367899766075671042e-02
6.272875428747862192e-02
1.522053914297694446e-02
-3.446290931290785231e-02
-6.518780707681876008e-02
-5.452273015162452385e-02
2.940356419762417059e-02
1.079031291692370831e-01
7.376785693850210213e-02
2.283777753515118733e-02
6.018670603637057276e-02
6.269185861996514134e-03
-1.915508527801327021e-01
-2.258300786356322309e-01
-4.457174984385412625e-02
5.686888287709424700e-02
3.795421670978921941e-02
5.536415950593188973e-02
7.155776859631453324e-02
1.611859750586193754e-02
-3.919222161193156029e-02
-4.578160218803087322e-02
-2.428888702580282374e-02
3.993408669135693409e-03
2.482612800111871215e-03
-2.071043252125433914e-02
6.662746285077911571e-03
5.377830418812378638e-02
1.003651339880399715e-02
-7.724792852038006585e-02
-7.530788626521650597e-02
-9.005079555573603650e-03
1.624821478393657231e-02
-6.468977028337938653e-03
-1.397090357866202087e-02
1.729112931216136850e-02
4.119620541941338560e-02
1.921830449858866197e-02
-1.082382663160985810e-02
1.521057764350889317e-02
5.275216374883277826e-02
-1.969628081094207742e-02
-9.003839530772726751e-02
7.143171162739253566e-02
2.364756596803586630e-01
6.211514164709974750e-02
-1.679146330726215552e-01
-1.046146409376757097e-01
4.019830744047514504e-02
4.959615439113401747e-02
5.343529961118483919e-03
-2.680860919578334153e-02
-3.958738410370896132e-02
-4.421434914099169750e-02
-5.616284600620060491e-02
-1.628520203050132535e-03
1.036110060989009207e-01
9.474695535976944416e-02
-1.115424269287672299e-03
-6.644860208751959818e-02
-1.642065583345851676e-01
-2.099970990353754452e-01
-2.689969967744852697e-02
1.650569999554191147e-01
1.185743807403472211e-01
1.601427172883043357e-02
2.971961270675263500e-02
5.864268888099868904e-02
4.143051120666244730e-02
2.178267599918024336e-02
-3.095163012714454223e-04
-1.679566919988690135e-02
7.223003196681508295e-03
2.031362978214939705e-02
-3.082806000967035220e-02
-5.006890455490572989e-02
1.855898691425563601e-02
3.715732052215466735e-02
-2.875816117705358443e-02
-1.253919303947011871e-02
7.676943448521181268e-02
4.135387571503139348e-02
-1.021418182504167660e-01
-1.556905617037613043e-01
-9.116087738487350933e-02
-1.809159339518300047e-02
2.314204831957294289e-02
3.096112115624662098e-02
1.825869502681209955e-02
3.439835690783334121e-02
5.239702884937730287e-02
4.468597685908437186e-03
-4.411187381788563011e-02
-1.461091835538687496e-02
2.071282024405148373e-02
1.508543537909310187e-03
-8.144548073750354500e-03
3.514644444758027730e-02
7.729136333251983293e-02
5.740689592697705707e-02
-1.432717674860170022e-02
-7.847941491653429025e-02
-9.208512891746249707e-02
-4.702612154663861344e-02
4.976758631304491198e-02
1.364029489659983330e-01
1.226361789513698008e-01
6.418457203826991031e-02
4.646365691688193050e-02
-4.187113248635988133e-02
-1.767744734605817269e-01
-1.045238463886167535e-01
8.097930991877014262e-02
6.535696075009433947e-02
-5.387775469027278330e-02
-4.365398894987173456e-02
1.191584397367278017e-02
1.134581209235841284e-02
2.487061033855162556e-02
3.030860646571983258e-02
-5.163941755191586019e-02
-1.099246183925128711e-01
-3.878334585333977069e-02
3.472777259979944325e-02
3.660544474452340213e-02
5.409590409708930903e-02
5.544652349595539931e-02
-2.790799950340308241e-03
-1.490792901997002248e-02
1.511459873510329760e-02
-5.054655153349331409e-03
-2.779203843787710418e-02
-5.683469643933751828e-03
1.083662403722775690e-02
-1.463868168941521997e-02
-6.790371927815960773e-02
-7.939840161754740944e-02
-4.148977805841511796e-02
-6.162638192542830434e-02
-1.019460872017700082e-01
-2.801169198266680732e-02
6.967655882087711583e-02
4.135277513133434057e-02
-5.623057777189682110e-02
-5.610698954368113778e-02
1.031838264923545800e-01
2.480310254310705842e-01
2.098214220068563007e-01
9.988203862748468165e-02
6.277513088576090750e-02
5.002801947805006477e-02
-6.206324093195908498e-03
-5.945209493320194327e-02
-3.435174073544317030e-02
1.369908225339310642e-02
-2.834053154998316185e-02
-7.158259590938814698e-02
-2.309696838998575447e-02
-6.305991395552627832e-02
-2.070153994067356618e-01
-1.671786125702803272e-01
2.443154962005073330e-02
7.689017536861558755e-02
1.444195085396562245e-02
8.308880610100419228e-03
3.789952559929593567e-02
3.215576740055999666e-02
-4.054905605182014885e-03
-3.865356681902915037e-02
-3.731302431703294176e-02
1.674640840908083860e-03
2.856438018122739453e-02
3.245267918328624546e-02
6.306365715964788732e-02
8.802888172137914025e-02
2.560153599293610305e-02
-6.459506505307244240e-02
-7.060206396154600217e-02
-1.520531104142218079e-02
2.959988148100535510e-02
5.442805188810363043e-02
5.190898938067996238e-02
1.503163128906337062e-03
-5.889890403133636598e-02
-7.629217789214477741e-02
-6.508427459964941098e-02
-4.015093442210434377e-02
8.622189163657555111e-03
3.472534329672139625e-02
1.210528272157084494e-02
-2.799088461367155341e-03
-3.640589760907130337e-03
-2.620078977015634358e-02
-5.883311378926908697e-02
-8.170585231016415373e-02
-2.654354700150790905e-02
1.403796480721632434e-01
2.228451481004580792e-01
9.925892991696025347e-02
-3.389415202445968112e-02
-5.919693469937033908e-02
-3.864770561969702728e-02
1.620836183114045259e-02
5.411548946981682706e-02
4.332974446962878368e-02
4.891522014840316013e-02
-3.299833536904741432e-03
-1.432744494787287215e-01
-1.446500485667344127e-01
1.337974881615931755e-02
7.856669255976320154e-02
4.261192628471451027e-02
5.476256568436663891e-02
6.169078254631533975e-02
-6.229701767996385919e-03
-6.085179247760567900e-02
-5.983975236550374832e-02
-6.090659326858301192e-02
-6.265997153480096227e-02
-2.227111587906637630e-02
3.531718922959690282e-02
6.689912745285217510e-02
6.770459093700993691e-02
2.472590136118558296e-02
-5.359354557545745884e-02
-9.026692889907604600e-02
-2.459853519604811994e-02
1.116943064407945052e-01
1.742103847910468351e-01
4.736104978357490863e-02
-1.082416364154238086e-01
-1.041926495583637979e-01
-8.618409973348008235e-02
-1.690387632949132413e-01
-1.738289331143150762e-01
-3.671089512250992615e-02
8.149806570592932342e-02
1.258106370568428389e-01
1.538645956675617765e-01
1.160617886235853491e-01
-2.984795937404607566e-02
-1.264613845336591824e-01
-7.363607972698596460e-02
-3.415598815060235174e-03
2.255613884990831028e-02
5.368851881674929077e-02
4.880009058996077898e-02
1.612807490581678535e-02
3.569655003781395386e-02
5.594252097485077901e-02
3.976048521263549074e-02
5.317557786768322553e-02
4.245349695890284630e-02
-1.429231486612954696e-02
1.436229689648707217e-02
3.607720573716097917e-02
-9.896194360375804022e-02
-1.642946489209389793e-01
-1.520085929054262180e-02
1.086290331104193541e-01
8.074786229119899905e-02
3.616088342062451222e-04
-6.612452722886182077e-02
-7.606501258349915306e-02
-2.302923936103735969e-02
2.870139054726435560e-02
4.048033882519705418e-02
9.070697005090702994e-03
-4.332062842156750304e-02
-4.985797752200191169e-02
1.209931103894368309e-02
7.711117300618561266e-02
7.334187521994127434e-02
-7.560942143679888483e-03
-9.105711132238453187e-02
-9.893821457808192610e-02
-4.783393028320288842e-02
3.635339682473707774e-03
2.965532068489801915e-02
2.615782953135393357e-02
1.019752609458748037e-02
1.519360089469620062e-03
-1.016260398492085416e-02
-2.514897080709496691e-02
-1.936497225168203745e-02
-1.611067568595462261e-05
8.000099421333402294e-03
1.404754445961559767e-02
3.461744651308889392e-02
4.671150632613455672e-02
1.743144661159213432e-02
-2.734496542345772607e-02
-2.812836950268536584e-02
1.091318796619136257e-02
3.285848614411182589e-02
1.933408473922753126e-02
-8.310681433510951413e-03
-3.684551931121681639e-02
-4.627634410762820200e-02
4.837895877539922715e-03
1.066738683656449638e-01
1.422165204688316809e-01
6.553848953352114926e-02
2.508702360057969705e-02
2.799645484383897834e-02
-1.020352382787256401e-01
-2.244793938004152334e-01
-9.984275064346367912e-02
5.938631929905337226e-02
2.788347224267367225e-02
-2.602207725495599838e-02
9.977759895986239302e-03
2.558623690566119713e-02
-1.444592441175989936e-02
-6.009231778995868800e-02
-8.018506202157549279e-02
-4.294646872647001068e-02
3.769930864938511594e-02
9.972451908624013761e-02
1.199394364558306059e-01
8.554115074060034130e-02
-1.654635034265096449e-02
-1.022281880043295343e-01
-8.059399639088213330e-02
-3.297367805736639568e-03
5.455275207844213770e-02
7.582677842051677164e-02
3.766925365605099107e-02
-1.724281960526532001e-02
-6.809173979518053435e-03
3.226093411020611312e-02
3.510816698890596027e-02
3.074566827586797113e-02
4.156694216416303989e-02
3.329793193998626527e-02
-1.316049463454492009e-02
-6.650674357851929508e-02
-8.045323930590070338e-02
-6.049196742969240037e-02
-5.345087726744477546e-02
-7.365087178676414659e-02
-9.798786078709950664e-02
-9.761435424725865839e-02
-6.241768173057039848e-02
-7.872444346271061447e-03
5.789658343326468948e-02
1.063161737626078795e-01
9.840459134357508464e-02
9.339990350248048023e-02
1.224320547404745274e-01
1.006158108884590285e-01
7.956463215961051549e-02
8.892509204861354100e-02
-7.159730438763819982e-02
-2.734703564757814398e-01
-1.436735270521920238e-01
1.143428222832635899e-01
1.154590955083791143e-01
-1.146988771424425901e-03
-2.832622959540001886e-02
-3.067958119920853599e-02
-4.907468542249439347e-02
-4.729764066054863159e-02
-2.614486981844487551e-02
-7.941858036963327788e-03
-5.485691279395874496e-03
4.365645318061726725e-03
4.432883470660915065e-02
7.587508227710970665e-02
5.287257289200936183e-02
-6.895950269519332716e-03
-4.425796218422035910e-02
-2.924230099183237896e-02
4.966368304334049799e-03
9.500097174175166359e-03
-2.335811535510689055e-02
-6.059513440916816651e-02
-6.310120650959667732e-02
-3.192123007548743063e-02
-4.355857698357309786e-03
1.426895831440526570e-02
4.305380253716263594e-02
5.861592803874595553e-02
3.628524633861957005e-02
3.732076494707483282e-03
-9.068790158794018050e-03
-3.453823846799181085e-03
5.310272140354646737e-03
8.657619393736125379e-03
1.547834662415689677e-02
3.086218030046501692e-02
4.186398894856512010e-02
3.090823427724316216e-02
-9.281537833817769464e-03
-5.982514650695958808e-02
-7.035243387433150197e-02
2.569087799153746063e-03
9.725104934664363654e-02
7.556290958529254809e-02
-2.421241099808358471e-02
-2.088939263867965052e-02
1.758913222517226316e-02
-8.546010793691580232e-02
-1.670992880354467969e-01
-4.604872351186188595e-02
8.688851947219618232e-02
8.433327172351695600e-02
6.951974555774152742e-02
8.056945190403577706e-02
1.901844608874317735e-02
-1.219900196984578244e-01
-2.394614115588019621e-01
-1.895227020539346774e-01
3.794735003294572029e-02
2.099153284967365529e-01
1.934934234982200740e-01
1.050172561721431780e-01
7.549570074879384182e-03
-7.029601070690140452e-02
-6.807279997100501578e-02
-4.901306784998477051e-02
-3.649749752966123528e-02
5.983513702314090243e-02
1.454702590871549406e-01
3.637741891332087196e-02
-1.429528771619464067e-01
-1.367467173417058479e-01
-4.085037103902778438e-03
2.391301037028178630e-02
-6.589805803430370812e-02
-6.439067360985378796e-02
1.356571951883694116e-01
2.702638967305122653e-01
6.598852989689499293e-02
-1.937237176101093139e-01
-1.110226118447064370e-01
9.114032083082534985e-02
2.654366875382393326e-02
-1.448197213889945989e-01
-1.231026774438274407e-01
-1.189652187661086741e-02
8.654004252418466200e-03
4.161660173691931683e-03
5.284499958850463058e-02
8.926866885732970269e-02
6.841817428319710293e-02
5.442561436836917954e-02
5.418658626003541173e-02
1.336810321456754352e-02
1.596979152219771964e-02
7.116753256915674120e-02
-2.103990075206000135e-02
-1.750167245987040432e-01
-1.030356520966650702e-01
4.961754545257736349e-02
2.916326912043751968e-02
-2.672515126036422925e-02
-9.222366937568327733e-03
-1.944565265129687137e-02
-2.558623869966326209e-02
2.847371105800631033e-02
4.378201390898165540e-02
2.798432410687556882e-03
-7.464396937020020481e-03
-8.485610074743976834e-04
-1.098433594773104080e-02
8.057244246731149265e-03
3.849177870167640181e-02
2.747312182595552411e-03
-5.689611305952702036e-02
-4.567965948663027520e-02
1.510361361610191785e-02
5.222229141015601733e-02
4.243579526316208772e-02
6.907990821221389639e-03
-2.195151188553401064e-02
-3.599200200068163741e-02
-3.532588647676436489e-02
-7.622776295921859444e-03
2.750595108524795870e-02
2.086835116757120023e-02
-2.360585791707189851e-02
-3.805261532886951292e-02
-3.531454702910061597e-03
1.411993316894075146e-02
-1.918932697906423554e-03
-3.774385245350656351e-03
-6.527329936636074373e-03
-2.924916216544409808e-02
-3.721363300843781585e-02
-2.491390691322493620e-02
3.556895002355436874e-02
9.933629979869676441e-02
-1.908766082209630011e-02
-1.713529438202109068e-01
-3.025772299345148852e-03
2.312792762207023511e-01
1.464383649089539552e-01
4.763971534367405364e-02
1.151181435256185270e-01
-2.500221941385508476e-02
-2.756769305295587724e-01
-1.675453751331636432e-01
1.138558572046091538e-01
1.590773715348480777e-01
8.756897852433709328e-02
7.762582346594916471e-02
4.919976326748111417e-02
-6.451500109955266016e-03
-4.839629143439731773e-02
-1.140709503955922161e-01
-1.599167053415711803e-01
-1.099724184429170526e-01
-2.635664286441935511e-02
1.406547781026002558e-02
2.570619665846640700e-02
8.204805508117564428e-03
-4.624252422969643561e-02
-8.548006857861892294e-02
-7.713665937116548355e-02
-3.489181595436110367e-02
3.175300785790263758e-02
8.754032909489056768e-02
9.241273910179531592e-02
6.604449952282506753e-02
3.497683371644208505e-02
7.236527456094343259e-03
1.195709207281431263e-02
3.488964790292652107e-02
1.835573131135213518e-02
-1.439219735404823064e-02
-1.186577694894950900e-02
-1.191501712780417346e-03
-5.335828503436912743e-03
-1.263745995463083291e-02
-3.243126448442226750e-02
-4.725687131542509467e-02
-3.310718999551094666e-02
-2.694421729221311082e-02
-2.455671786607978996e-02
1.992909185952862830e-02
4.569961561288878038e-02
1.034479847890633873e-02
3.029608391924365485e-02
1.154834833409159461e-01
9.187728338806813722e-02
-5.831344359575328304e-03
9.113357712170918473e-03
3.416625115284321890e-02
-6.153202668235029094e-02
-1.003491486354467638e-01
-1.997452111756401610e-02
5.164373652073312761e-03
-2.119053787581333739e-02
1.580941062712938258e-02
5.806005377456906202e-02
1.982645073370079697e-02
-4.171309401347267354e-02
-6.484504325549828030e-02
-6.075910915726991796e-02
-1.007598679332569538e-02
7.147165769088252574e-02
7.484476811182443068e-02
9.386941326427967330e-03
-1.244339016182593842e-02
-2.639099465274979267e-02
-9.334030890092204213e-02
-1.128024467126902131e-01
-4.285492168979251892e-02
1.797585590756990617e-03
-1.495162246453515115e-03
3.609187555877665932e-02
9.432573876495321807e-02
8.228362165100266967e-02
1.331207589558532078e-02
-4.624166920403992992e-02
-7.564988242541235974e-02
-5.471219501444469363e-02
6.744498242288439124e-03
1.772993655705952520e-02
-2.140167818142899026e-03
8.535957227537191438e-02
1.955087549844407302e-01
1.371053479374141071e-01
-8.756059733519444901e-03
-9.197613966508787209e-02
-1.239102799923740561e-01
-1.128693438415940831e-01
-5.016207128008362548e-02
1.101336691275398710e-02
2.347914057068694813e-02
-7.059458924031239771e-04
1.318717999458543857e-02
8.488465677387931063e-02
1.230644919046109259e-01
1.319585072983234242e-01
1.287153153547154205e-01
-4.662762687552817614e-02
-3.081807767242020768e-01
-2.728962717143904593e-01
1.012523991245162930e-02
1.402969680187169110e-01
8.534328120489552416e-02
3.203401291485420688e-02
-3.020779027619412138e-02
-1.052146533168314690e-01
-8.624435039424194205e-02
9.649380062432610233e-03
7.368490336630650894e-02
8.433761497900948978e-02
5.128107598297871467e-02
-4.039591698795012842e-02
-1.113112313922432484e-01
-4.487296317798165901e-02
7.133142487906470042e-02
7.155439660607737506e-02
1.429027444600027008e-02
1.961246530900609061e-02
3.552137284561217995e-02
-2.862861981852015889e-03
-5.057471348550945933e-02
-5.707557381746997116e-02
-3.673235795378805568e-02
-2.450199644783836866e-02
-1.004735489582152946e-02
3.685097617167605241e-03
-4.024578369103527786e-02
-7.688392074821692734e-02
3.641308467892957063e-02
1.891018099717766687e-01
1.608799890749277317e-01
2.021359502036150502e-02
-3.103888308369860335e-02
1.049616693444514401e-02
1.606305684062400013e-02
-4.471813180270021310e-02
-7.768094410707596098e-02
-4.448030036628054795e-02
-1.406366591927525958e-02
-1.694219746348055514e-02
-1.453506287647169694e-02
2.237040872021497581e-02
7.076339093617367570e-02
5.887972816468914350e-02
1.139976447909158558e-02
4.374098953005180895e-02
5.756919356254684705e-02
-1.032332425682688931e-01
-2.199258499564750724e-01
-7.981468992571501275e-02
7.630894792308523522e-02
4.146716560938804724e-02
-3.199055230398094307e-02
-1.633046953848597826e-02
2.844464860298465125e-02
3.127991822021920776e-02
-2.685372446079872799e-03
-2.126093423275370736e-02
-1.530774845015589296e-02
-1.078919458988491370e-02
1.780174018864750726e-02
8.570921241955843650e-02
1.146991650479548125e-01
4.276562995073707185e-02
-5.622998003219092933e-02
-9.316042829191366337e-02
-8.906207600477661357e-02
-6.433541969705661168e-02
-7.644400893632866470e-03
2.992971640718469772e-02
1.600811653281967312e-02
-6.195674288414494517e-03
-2.254025313109909653e-02
-3.434520217444869683e-02
6.621164298878578700e-03
9.079086979842034000e-02
1.107060230600003248e-01
5.180487625945627561e-02
2.249546004822673348e-02
3.726095893128851533e-02
2.731980495303609757e-02
1.452526648711197077e-02
4.026422623824341129e-02
6.733851835868544244e-02
6.607878457576583930e-02
2.938863485286913671e-02
-5.168231482965866819e-02
-1.210538092476621808e-01
-1.317938520547371484e-01
-1.447468050640086934e-01
-1.659609199272923108e-01
-1.147520370313534072e-01
-2.067570421399254552e-02
5.436460330518523565e-02
9.654680764087554545e-02
3.801099180600651939e-02
-6.094441567938024829e-02
-3.812855828948268078e-02
1.976943083203565321e-02
2.972473049126712896e-03
3.857991214207413116e-02
1.419518622577237987e-01
1.491888104858179187e-01
5.432633515275103742e-02
-2.334538372417694491e-02
-6.608711725636069734e-02
-8.725958136277239818e-02
-6.225627934794190216e-02
-3.198342420909053296e-02
3.875909536470197991e-03
1.278290295090409590e-01
2.201974035340623082e-01
1.059662578918033338e-01
-6.827858986644752548e-02
-1.176365915475771212e-01
-1.035822483663448590e-01
-9.005703377297524792e-02
-5.146496648253429118e-02
5.677993702997140638e-03
5.291228179906417445e-02
6.645232192366821999e-02
3.851485451327929521e-02
-1.880428897115926645e-03
-2.808896348609482216e-02
-2.600153026226100297e-02
1.429868233697698110e-02
5.329019507206216033e-02
4.035428060596597810e-02
-3.739942849546751096e-03
-3.568594316792239596e-02
-5.433839655058124440e-02
-6.809069348714896774e-02
-6.697719739127190597e-02
-4.337444427123218066e-02
-7.638181592654705657e-03
2.426947517872924537e-02
3.825978471786112972e-02
2.462668547186187135e-02
1.994992265873939130e-02
7.113325048251478711e-02
1.059726168256776985e-01
5.203397032268724381e-02
1.498345970821261287e-02
1.968200408340215618e-02
-7.253292876269500089e-02
-1.652054593732921739e-01
-6.923730444192835454e-02
6.478773218272103340e-02
6.455089623822755918e-02
2.561243009838345269e-02
-3.813814952864182095e-03
-6.241607908138782634e-02
-8.269133722981421297e-02
-4.653823424050687607e-02
-4.627288629385273994e-02
-6.570798754895482152e-02
-3.267343523531222871e-02
-1.387854845222465106e-02
-2.475187649922602068e-02
8.532330739053027580e-02
2.299396326212425623e-01
1.191790579055585497e-01
-8.730892038472629069e-02
-5.858932495457255807e-03
1.844460677402539051e-01
1.298062847016764887e-01
-2.127280711011015485e-02
-5.553254258249668701e-02
-7.159222279124399790e-02
-1.203133641950201865e-01
-1.119966076420924189e-01
-5.328204887041788906e-02
-1.476723417540645733e-02
1.108090416735758345e-02
5.814122038752876642e-02
8.998457398064403645e-02
5.032483431979149074e-02
-3.388073538259613743e-02
-7.845043992204743522e-02
-6.734161161571843024e-02
-5.232013769631068539e-02
-2.463815810662329728e-02
4.646172623689460296e-02
8.982199434869556076e-02
5.019890076713738603e-02
-1.430502099369129754e-02
-5.860518012452996250e-02
-3.597599743750590218e-02
1.003138583656875416e-01
1.894068191211273344e-01
8.189868426061241991e-02
-2.810396189335964690e-02
-3.192166895737970356e-02
-1.124638035490795746e-01
-1.846291723433488297e-01
-4.333815326425379671e-02
8.466321602153420445e-02
7.720772837219141982e-03
-5.330066924877576579e-02
-4.332908782231498224e-03
-2.392089003255487914e-04
-3.306265870267102031e-02
-1.121554402874495350e-02
3.780421945484362632e-03
-2.093017598583835071e-02
-2.171646923422258964e-03
4.894299282693369973e-02
5.780597564346719869e-02
6.913838179574810505e-02
1.044405327063618050e-01
4.226490536684887611e-02
-1.049976391351777200e-01
-1.380350617271954294e-01
-4.206819600069792303e-02
2.156841269499020983e-02
3.663990289673225986e-02
6.135162463307911734e-02
6.418361588909832216e-02
2.891226996877403754e-02
-5.278500250909283140e-03
-5.911380253582714656e-03
3.873248213549988772e-02
5.185941149500273434e-02
-4.652817711391077360e-02
-1.216588657862515410e-01
-4.697910027809260036e-02
2.735684765488897302e-02
-1.198929589447554622e-03
-2.288336280520450114e-02
-1.304563317248232795e-02
-2.571226923017858740e-02
-2.781122946790773667e-02
-2.028960534996111092e-02
-3.702188236673734784e-02
-2.054536282383844989e-02
2.905396321573833901e-02
4.295102819178372999e-02
7.098482455740608155e-02
1.024627933870609353e-01
3.192651386137169978e-02
-1.927021495789389693e-02
3.827494181762597369e-02
-7.553296901757985266e-03
-1.454241906068749757e-01
-1.073926600499921363e-01
2.206339945043889195e-02
1.832745667902129991e-02
-1.514036102638077926e-02
2.811889478264685202e-02
4.406789022897753677e-02
5.971642126532273470e-03
-2.956645517192010506e-02
-6.050671339242358338e-02
-4.235354866205565810e-02
4.959707421888637224e-02
9.021197612163178725e-02
2.977168681807886019e-02
3.035586087087593487e-03
3.455956693955395537e-02
1.268485182202150341e-02
-3.238918234451793055e-02
-4.720692963920369162e-03
5.028023549431223649e-02
6.487841948262552949e-02
6.038306822066730195e-02
6.306344280631576149e-02
7.523591058589410019e-02
8.215382113077693282e-02
3.300848229284555208e-02
-7.025657956698934392e-02
-1.227856182727175283e-01
-9.069151208530681907e-02
-8.247369799952798675e-02
-1.439385758100071855e-01
-1.880802189826616955e-01
-1.591062220307761788e-01
-7.931070002655547790e-02
1.801213193479607108e-02
8.140218309878241576e-02
6.896955284808138631e-02
5.258066888616543672e-03
-6.221089757520212316e-02
-4.252519642883205442e-02
1.299963259080884059e-01
2.585811356286146778e-01
1.652068476195047986e-01
4.688386573350958320e-02
4.228412097698475841e-02
5.632129194443747516e-02
8.325089616527185654e-02
4.957970524832633341e-02
-1.296772335290231060e-01
-2.106388203377433932e-01
-7.370578156177834406e-02
7.226806862528771178e-03
-3.450987465663649806e-02
-1.367616062692868575e-02
3.528417243554365229e-02
1.109200946197600249e-02
-2.335029770646125657e-02
-3.379969577353471311e-02
-4.541659316730958101e-02
-3.150307751707985549e-02
7.141492022371505842e-03
2.565001784541153657e-02
4.822655146191850983e-02
8.697364216741840237e-02
5.187492593703842136e-02
-4.568657776252144781e-02
-6.386647505493273091e-02
-2.651531393098406630e-03
2.650541578037727414e-02
2.041232550715420951e-02
2.729055420374964028e-02
3.003620341877297206e-02
7.595863227007254581e-03
-1.150489572231444373e-02
-1.548031920341068346e-02
-3.448577407043457166e-02
-6.592465830853741493e-02
-6.220012290554854245e-02
-1.238125438466361646e-02
3.467018401761996077e-02
4.995263395919527505e-02
4.701745394483015927e-02
1.563259441751481404e-02
-4.611785782521739957e-02
-7.822891614791691040e-02
-4.692940558494285153e-02
4.403938203643402091e-03
2.714444654427745213e-02
2.352363169090007297e-02
2.198188457749142982e-02
2.954322001900338765e-02
5.656128654654311860e-02
9.134432586770957485e-02
6.343059052205841930e-02
9.163185962081214081e-03
1.345178286519072355e-02
-3.802186756700212666e-02
-1.655232126617018351e-01
-1.356883624422784984e-01
2.971621272941963807e-02
7.977067954842992359e-02
3.794696100022083851e-02
3.504228754298180371e-02
1.356706742737516513e-02
-4.120453571528460979e-02
-2.930153605489622254e-02
1.253504116614904268e-02
-2.670076269361540411e-02
-9.340655523782206981e-02
-9.288453589397133170e-02
-6.528870852306771499e-02
-2.208920226256940941e-02
9.968838466850067637e-02
2.098253864629066601e-01
1.643561399035408932e-01
3.422063962962341999e-02
-4.377253017692668557e-02
-5.781968939817214853e-02
-4.187692642007949384e-02
-5.801497030747148828e-03
5.937346290266940635e-02
8.341288672243674096e-02
-2.755516426585202100e-02
-1.354476959581238649e-01
-8.745229320741731982e-02
-1.224220909827562417e-02
-3.524921067325931592e-03
-9.294811760172844856e-03
-2.592441465314207147e-02
1.074405672981182044e-02
9.940651331894111153e-02
3.895517835029629894e-02
-1.236793392159170474e-01
-1.222560090187278792e-01
-2.356878363042853169e-02
-2.287796720215963531e-02
-2.962628281848497802e-02
5.746093645284559154e-02
1.257729538989781903e-01
1.132507229450542691e-01
1.168697696949631548e-01
1.236974547465914953e-01
1.224479823148473187e-02
-9.757641091461258243e-02
-2.997159791700059264e-02
1.060081596442858862e-02
-1.236713816137475913e-01
-1.357735908102964129e-01
4.769167442006386204e-02
8.210507353896080718e-02
-5.358244412081140939e-02
-7.098560905568895851e-02
2.392142322392876858e-02
5.482366804312625158e-02
2.475459491726698935e-02
-1.139904632641149454e-02
-4.642557212476980388e-02
-3.373378610226855645e-02
3.381081720053673995e-02
7.245729923121793647e-02
6.071600183464882089e-02
3.989890118646603756e-02
-5.799159498425725950e-03
-4.653748601153304132e-02
-4.818579721544409208e-03
3.491532859126826593e-02
-2.937350945928619839e-02
-9.458518415702123205e-02
-7.139165712465830871e-02
-1.705905254726499884e-02
2.513317376751175378e-02
4.478598626396090160e-02
2.379549050679641287e-02
-1.284041094366546523e-02
-2.957193985695587973e-02
-3.675217458076322080e-02
-3.314708352667108948e-02
4.171164624113325031e-03
3.668142765409633521e-02
2.445506579975758460e-02
1.361812928348343256e-02
2.518723108794334101e-02
2.514194975523362935e-02
2.283193566148283837e-02
1.832080217311693113e-02
-1.772285881288699835e-02
-5.246845102135715144e-02
-5.643498522962948905e-02
-5.322143771602804579e-02
-1.416710745287937112e-02
6.644383834002835776e-02
8.481638464533165778e-02
5.706082719429255573e-02
9.113830718045927426e-02
6.303056006108789799e-02
-1.133968777614567380e-01
-1.714533556658386637e-01
-1.470040487528424117e-02
6.339385165214254936e-02
-2.714481332220340312e-02
-8.135636407539098558e-02
-2.919120551360515972e-02
6.422008465800162214e-02
1.417714681292954748e-01
1.346244859846523201e-01
7.031857839913513430e-02
4.772064194328942688e-02
3.534724683954222624e-02
-1.879092580238839877e-02
-4.253092962390814941e-02
-1.750517274705806064e-02
-3.527068797974046432e-02
-9.910611397919463772e-02
-1.129063375081910403e-01
-7.592701816957717065e-02
-5.931630905995686348e-02
-4.557932323023596716e-02
-1.657511157198441470e-02
-2.599921358129526211e-02
-5.722189571678550080e-02
-4.383140292577483721e-02
1.139177124955071362e-03
3.534321972490327146e-02
5.455730498285734503e-02
6.451206059758485267e-02
5.689453810671823986e-02
2.585325614662973420e-02
3.445246234021792295e-03
2.805707749486681737e-02
6.492196519197769577e-02
4.625969537335719584e-02
-6.416578781854520401e-03
-9.424159486582773734e-03
2.910120377912916306e-02
3.020393837156763739e-02
-2.497178011671629880e-03
-2.838133289647375504e-02
-4.038489030603514829e-02
-2.217753219998343586e-03
5.880736257702368769e-02
5.849661007340259400e-02
5.339967756241961738e-02
5.124024217519584923e-02
-7.355610056526026841e-02
-1.870859330810394350e-01
-8.198825754513595909e-02
6.183080799296437891e-02
5.487325281676550676e-02
2.883642160344741801e-02
5.166290514053862443e-02
1.780360540931419377e-02
-6.330128740597404380e-02
-1.043795654028233655e-01
-9.354558369423754405e-02
-4.027791608874777690e-02
2.970075068077258906e-02
5.356831538311632862e-02
2.204106154393264960e-02
3.267181470637727653e-03
2.802107570473791331e-02
2.593382940761919039e-02
-4.055704288555990467e-02
-7.988881271803210948e-02
-5.911882072496601331e-02
-7.054604124699494216e-02
-5.918682148677064520e-02
9.701018793858418032e-02
2.174928379784263344e-01
1.146326448464486669e-01
-2.066260908179382016e-02
-1.715238600096044216e-02
2.872270736167464519e-02
3.725798940299224205e-02
1.112147362223320918e-02
-3.736291189611454927e-02
-6.108195160141306757e-02
-3.006273376374284101e-02
2.034214640734873653e-02
3.172764903819974558e-02
-3.566177088506284135e-03
-3.248410918067293901e-02
-3.789839634248716449e-02
-4.618008795303088498e-02
-3.682043705040374121e-02
-4.872572971020569868e-04
1.325618985213827816e-02
2.215326436443634806e-02
6.524035379279105595e-02
6.843413532250837428e-02
3.293096281470116182e-02
6.249356227838262501e-02
4.592939816324521224e-02
-1.171774664265360921e-01
-1.640939451453466147e-01
1.160063649754628640e-02
9.827627124285913396e-02
1.067507961321691873e-02
-2.136204554413153808e-02
1.861847256434897777e-02
1.192020427976298036e-02
-1.032569488352429350e-03
-4.543777304362226974e-03
-8.222700053455044011e-02
-1.686356491508502198e-01
-1.098735184766236328e-01
3.698375580499919241e-02
9.162684285100632098e-02
6.183212864303143375e-02
6.575846893627491918e-02
6.864710357877176761e-02
1.000032163363015134e-02
-1.698746508154912530e-02
1.802455907664637924e-02
6.407449489415572262e-04
-6.070728837719052695e-02
-4.894834247158307006e-02
8.771172351518485150e-03
2.496366815603739964e-02
2.676071647986054750e-02
3.855782991330910375e-02
1.245697131001023174e-02
-4.871432544543357473e-02
-7.195509324020497866e-02
-3.847711706485001937e-02
-2.368622967781006811e-02
-2.317932888907354300e-02
5.869515587459619294e-02
1.330126440101528640e-01
6.390198870133174947e-02
-3.028224234289913705e-02
-4.980279632458597949e-02
-6.345674656820793347e-02
-5.855254292594119087e-02
-8.443226096685548313e-03
1.283568667880867833e-02
2.855868891125210030e-02
9.896771323624282968e-02
8.836280187493382454e-02
-1.731878679580133723e-02
4.716361463297184808e-02
1.717301783937127679e-01
-9.775279553941706306e-03
-2.190129911304677102e-01
-5.114131659445321498e-02
1.335163638367977967e-01
-2.763722253773386733e-02
-2.095641137742426940e-01
-1.284506692032281183e-01
-8.571652789308922826e-04
3.218151150776400737e-02
1.099385395133330862e-01
1.746435387353247326e-01
7.908239726490497168e-02
-2.690026238339409889e-02
-1.602634366125847004e-02
1.552916621709764938e-02
4.740387386200608372e-03
-6.678894827002335166e-02
-1.611504017286598534e-01
-1.386312564635892586e-01
-7.492617360134228022e-03
5.892216552181298028e-02
1.693049078047291142e-02
-3.174576729340597425e-02
-1.761997052526382418e-02
3.473447366568812450e-02
4.981802124661460079e-02
1.756286374071167056e-02
-9.232564800663511581e-04
-7.221429682102138356e-03
-3.176818565738357553e-02
-3.269119756872275462e-02
1.498189768026246191e-02
6.007637567373878829e-02
6.454780306289942260e-02
4.391386828654084140e-02
1.933463010616862099e-02
-5.528204753421831971e-03
-1.423761056465545037e-02
1.093266101796786481e-02
3.811534171802347798e-02
2.797010436206340614e-02
-1.405823896051106199e-03
-2.104440534342996716e-02
-1.865857580972513086e-02
3.007393646728687836e-02
8.402184717055019569e-02
3.602201392879968850e-02
-7.084497218868486546e-02
-1.019429219369283740e-01
-1.118853138220361337e-01
-1.432409014973934080e-01
-5.269042149812275949e-02
1.017649380641092172e-01
1.062484746677571229e-01
3.569998252364981611e-02
3.304350130135476349e-02
9.760916931408597508e-03
-6.566806923048292000e-02
-7.607608206425495179e-02
-2.760209560681449459e-02
-8.324493121211277644e-03
1.034826538312948879e-03
3.155869132852413828e-02
4.880112713058250978e-02
3.707204272505341958e-02
1.184317782975763921e-02
1.449221200176943093e-02
7.020831232956661894e-02
1.082869395706849147e-01
8.084047107133268684e-02
5.040464509610900062e-02
4.054089880924789668e-02
7.442665577782172151e-04
-6.966805016915307569e-02
-1.097109380596736905e-01
-9.471369559904821434e-02
-6.944287180997246733e-02
-6.605044780324149933e-02
-7.261132772117848133e-02
-8.511086950926825823e-02
-7.949347673309495321e-02
-1.080338520324606102e-02
6.058071762825678608e-02
3.414776843398753536e-02
-2.288574928141004494e-02
-4.165198709469284701e-04
5.238490540451073291e-02
6.583809098003710891e-02
5.990985879463804620e-02
4.555676959016487226e-02
7.884967346481612169e-03
-2.545266876707658402e-02
1.233257795157491690e-03
6.148681510377138060e-02
6.559664623803319883e-02
3.682713762345936337e-02
2.855553987472260122e-02
-2.015204551418638829e-02
-7.940056415583664207e-02
-4.203268035661668345e-02
1.790950390076857107e-02
1.659149820064700562e-02
2.507492664743370819e-02
5.294331026928279088e-02
3.275257025946932271e-02
-1.013926292166823090e-02
-2.632275763549858649e-02
-3.868185009834831239e-02
-6.503617777415292289e-02
-7.737754329323419389e-02
-5.094417918515219829e-02
1.569790375946936720e-03
4.382682502758341453e-02
5.661406044064058035e-02
