1.009936147652460703e-01
8.107301412451632661e-02
8.881154857541197212e-02
7.699831987655529619e-02
3.174867097241212965e-02
-2.136728242459437488e-02
-4.903381761889041152e-02
-4.876786314427651592e-02
-5.317945396161697508e-02
-8.457406265107431098e-02
-1.222116605155264685e-01
-1.187406678705384133e-01
-6.950081496334893638e-02
-2.127649990797034901e-02
1.855446816770413287e-02
7.708354039078785247e-02
1.405288783994319279e-01
1.784880020096570596e-01
1.720131982626802725e-01
1.090286016892834386e-01
2.495265104941262954e-02
-1.389810608880750510e-02
-2.907957296506429729e-03
-6.267549672840325853e-04
-3.295738507490086899e-02
-6.850159223586070600e-02
-8.911473636145125776e-02
-1.123725647622538237e-01
-1.530076742115349109e-01
-2.056132300337696339e-01
-2.457782908650215647e-01
-2.542680391431278442e-01
-2.375341755690189571e-01
-1.982309795289132204e-01
-1.282623157153315041e-01
-3.483846065967645400e-02
7.486703327795782292e-02
1.896121750185830734e-01
2.627369071964177905e-01
2.793064556403756504e-01
3.038474630096983375e-01
3.578664407964186611e-01
3.733077303128932711e-01
3.303535911806767533e-01
2.787198293321268006e-01
2.190002556087831120e-01
1.170540275627524052e-01
-8.908109818437481842e-03
-1.276023939662273565e-01
-2.373767565832781146e-01
-3.229428563853095624e-01
-3.670580759610287958e-01
-3.812908642927219649e-01
-3.567069848841237789e-01
-2.677193362154512424e-01
-1.460696766704293048e-01
-4.856696771110960431e-02
2.071204315777506327e-02
8.338984460493883977e-02
1.342794787343403184e-01
1.479064659088302758e-01
1.317901826310717839e-01
1.452873792853784651e-01
1.918002945346247157e-01
1.825727461920130246e-01
9.536522175692892234e-02
-5.480273678445330213e-03
-1.004945011315723641e-01
-1.701728103769941380e-01
-1.504278843072532346e-01
-6.408208330545535347e-02
-1.564254483715375038e-02
-2.230496035602478125e-02
-1.144517919367429859e-02
4.099526577497844548e-02
9.171326403115358239e-02
1.089171421337418733e-01
9.781792842351715034e-02
7.402443053325948041e-02
3.830767545172316518e-02
-8.122836044008657427e-03
-4.298622830992501059e-02
-6.195863010544401528e-02
-8.009853066893013462e-02
-8.439566988482669063e-02
-6.661876658089040115e-02
-3.837322144155790038e-02
-2.645771669058230580e-03
1.387269488333265494e-02
3.308728285290817375e-03
9.979311914969774683e-03
1.865859085148813268e-02
-5.893648500075270719e-03
-1.300771833480324907e-02
1.296367803151080196e-02
2.224617277918509994e-02
2.523302214880155520e-02
2.875122756332827018e-02
-1.637880684769855641e-02
-7.885153127053264044e-02
-5.979506068039797118e-02
3.992456088474104214e-02
1.181078033103024477e-01
1.285175018934524849e-01
1.347159442505774518e-01
1.613132768383346849e-01
1.321616689138381262e-01
2.604660528998573032e-02
-9.283026271994988809e-02
-1.819101677310292209e-01
-2.145033029447235007e-01
-1.851537901618109661e-01
-1.455653970375941353e-01
-1.252924854558652712e-01
-8.631079570448879634e-02
-6.667094088678058098e-03
7.207851849724448978e-02
1.101005683581618988e-01
1.124092949336759767e-01
9.187593705239080477e-02
6.771815293988964202e-02
6.421589477543569735e-02
6.354086719824254825e-02
3.882261006036194506e-02
6.907062378766179282e-03
-1.657959456862733577e-02
-5.041389910888451759e-02
-1.023857432082513202e-01
-1.378450814611215103e-01
-1.158941020171323638e-01
-4.079665373169830134e-02
3.733039427363663704e-02
8.007959999013083974e-02
9.689073885384995310e-02
1.070686514208917389e-01
1.116519251531655627e-01
1.077702948620362783e-01
8.738456474940393959e-02
4.384887966602839249e-02
-4.967262700105563866e-03
-3.378772416497836939e-02
-4.793775171379120736e-02
-7.207310683436063403e-02
-9.962316105975271840e-02
-1.034470926890124209e-01
-8.983920538048073556e-02
-7.297981170107285809e-02
-4.464616258428658752e-02
-1.250131330311790058e-02
7.262015804194329321e-03
2.161221375304094722e-02
3.778737357533654140e-02
5.202741627287008064e-02
6.072844318461446955e-02
5.897575753547249638e-02
4.948375633409364538e-02
3.625384502524189173e-02
5.448262105981182754e-03
-4.177724071703875497e-02
-7.837451204966541796e-02
-9.312902538321513046e-02
-7.374134583918312558e-02
-9.891754328433744609e-03
6.088490778546479243e-02
1.062275106492748117e-01
1.264328425416826052e-01
1.006280339914364663e-01
2.351524153076500409e-02
-5.115578861688523105e-02
-7.849758424123029488e-02
-7.795644608299436007e-02
-8.474332465539566317e-02
-8.260883010175339158e-02
-5.046612842073777000e-02
-2.280394710017696544e-02
-1.252313792037682352e-02
1.997653786472648046e-02
7.016979310040191709e-02
9.239827129504515901e-02
7.976242727224569506e-02
5.180703334188824921e-02
2.229781244761521244e-02
5.060566921079479030e-03
7.416257208680871946e-03
2.278440452671320546e-02
2.702821545505709744e-02
3.943253774786078907e-03
-2.962408314752525140e-02
-9.411678851632102050e-02
-1.996639892746595313e-01
-2.064451476703272614e-01
-5.071766270068238380e-02
8.075859762608596226e-02
1.001199905738312246e-01
1.173364086832571762e-01
1.387515903956685615e-01
1.126143091826271869e-01
8.075304006416562930e-02
5.382226010148070255e-02
6.174748048816077785e-03
-3.003110414092766828e-02
-4.876204708560490791e-02
-7.956643169917683445e-02
-9.080543988922021303e-02
-6.226817901845606990e-02
-5.022724828220433840e-02
-7.024846106886419028e-02
-6.042953824233018856e-02
-1.107150983438411236e-02
9.267509479078112414e-03
-5.765190293745801886e-05
2.074026228409063533e-02
2.836361105321611592e-02
1.810660526276999804e-03
5.847081446675590766e-02
1.564935771937428222e-01
1.235881263237643413e-01
3.216382166018888489e-02
2.130178062447754886e-02
1.927354964096743284e-02
-4.482896752419742586e-02
-1.057712636989981692e-01
-8.795233636329770344e-02
-5.227808441554600630e-03
7.072707575653520984e-02
1.297030658281581594e-01
1.428169322755976911e-01
9.155009837742953543e-03
-1.636794146632819524e-01
-1.731255685913854481e-01
-1.230126506303797218e-01
-1.507753067930144575e-01
-1.458902871797671252e-01
-6.180674130406556277e-02
1.100331202364348421e-02
4.971976058900397233e-02
6.943267686836054886e-02
8.458476314146018415e-02
1.246472373169466019e-01
1.539128971573326121e-01
1.085097096460145710e-01
2.267449215366925883e-02
-2.858722204028524283e-02
-4.232597336965630841e-02
-5.781720427163716813e-02
-9.122888668586362493e-02
-1.182542286675046656e-01
-9.706369011680640591e-02
-2.549861252821917362e-02
5.494983953978696545e-02
1.129696045512999653e-01
1.356425468293672443e-01
1.191195646649389484e-01
8.719623363835786456e-02
7.148795516720134191e-02
6.767840743236822054e-02
4.215755159417786113e-02
-2.406187558433104182e-02
-9.286784950076248935e-02
-1.011836303047311952e-01
-6.691936932529408966e-02
-6.483358029743770123e-02
-8.217920456062974277e-02
-5.306235345892899163e-02
-6.224601339686839166e-03
-1.081386056551566013e-02
-4.309563901305856620e-02
-3.095013462680737751e-02
3.121726535452792883e-02
7.486962111705885992e-02
5.840870744241449114e-02
2.318215701688307318e-02
1.122825881768441635e-02
3.897337144833716051e-03
-2.215728138206416592e-02
-4.443006208880111163e-02
-3.380710845831193245e-02
-5.867490088732585894e-03
2.063240131544638936e-03
-2.522075817709320059e-02
-6.532559583416924776e-02
-7.471313944421499598e-02
-3.152450614983046129e-02
5.623866678122764473e-02
1.521022025186807847e-01
1.897227207015481920e-01
1.518766745032940346e-01
1.078440630648597326e-01
8.042973714458896695e-02
-1.579685606055692554e-03
-1.240032758595679963e-01
-1.711244775106994243e-01
-1.474471509744068043e-01
-1.444917603055129174e-01
-1.408099534714359613e-01
-7.938886545814966000e-02
1.090254453394500465e-02
8.169260853114397591e-02
1.037650964373517809e-01
7.961139690253646317e-02
5.560848363240715464e-02
4.024581414623834563e-02
1.111676926604944146e-02
2.268715748685476603e-03
3.030574635957258151e-02
3.841221213159119741e-02
1.185892149614402660e-02
-2.393580472368544640e-03
-1.185532776650896625e-02
-4.861916848976528815e-02
-6.658720466313333697e-02
-4.015529828498637377e-02
-3.438247779310998203e-02
-5.688172397036274364e-02
-4.996032938254572897e-02
-2.570269415291115411e-02
-2.198088300609974191e-02
-3.033797789612275794e-02
-2.712351043648547275e-02
1.983304713925324730e-02
1.087625478741253704e-01
1.606254672024026442e-01
1.298474405589357950e-01
8.557160125707334586e-02
8.410231472553396370e-02
7.916294257145828350e-02
3.508193893697632293e-02
-1.829845913601767932e-02
-6.262892879889220277e-02
-8.693130421200039037e-02
-8.779231374674634214e-02
-9.814730248910365218e-02
-9.901751921473805895e-02
-6.042647043982261879e-02
-6.238456944341649185e-02
-1.045756975881676487e-01
-4.624260570374655321e-02
4.819601245242713383e-02
8.466752701168551304e-03
-2.137179395531023027e-02
9.403854265612690555e-02
1.418065598502302460e-01
4.913095617736289167e-02
1.320481558218033688e-02
4.958723903513517772e-02
6.834746134349312108e-02
1.032402325079776195e-01
1.248347968903266436e-01
6.280629584321530123e-02
-5.594865129590848550e-03
-6.315296021856101061e-02
-2.040897690195089542e-01
-3.038449427001826408e-01
-2.093824227820218487e-01
-8.774167804952875960e-02
-7.030146856270508282e-02
-3.673674286466882544e-02
5.851289532516953940e-02
1.379880062743924496e-01
1.794804472584323740e-01
1.923332550740613767e-01
1.705543044530705432e-01
1.206059521552325514e-01
6.569654054736955018e-02
3.325424732552270668e-02
2.983588056016124243e-02
2.184613234391015804e-02
-2.076868517459020888e-02
-7.865413871130963464e-02
-1.115783941751873343e-01
-1.078123058255816280e-01
-9.381033139318810388e-02
-9.367949656784922696e-02
-9.204205045296613708e-02
-6.242933304053995686e-02
1.388201718980641014e-03
8.866122335685858169e-02
1.582117884878924408e-01
1.581652733431870572e-01
1.002037324754410097e-01
4.420053128948671362e-02
-9.204666341236504568e-03
-1.118469030232861899e-01
-2.497560294556365190e-01
-3.389393225348217853e-01
-3.403843932273580841e-01
-2.981457135242115974e-01
-2.487971374066393071e-01
-1.521525350850285174e-01
1.290295938771870293e-02
1.660104343300148333e-01
2.657521548716361703e-01
3.676580353983976979e-01
4.510149133370490171e-01
4.330571077173998029e-01
3.492865663943379717e-01
2.869455663148201552e-01
2.380060451538135446e-01
1.569995500090750062e-01
3.341711744333395601e-02
-1.146406442757249705e-01
-2.291036810764365828e-01
-2.605434578722103933e-01
-2.380942836500401505e-01
-2.135214969892533510e-01
-1.856072602342261624e-01
-1.315087314448296629e-01
-7.636670275881726755e-02
-7.352274040393057264e-02
-9.818080978004889436e-02
-7.438509375234511611e-02
-3.005717339970017180e-02
-3.598301467472597714e-02
-3.914535788328979415e-02
2.010283596196652325e-02
7.871110624231808517e-02
9.627803872279827591e-02
1.054904633654620838e-01
9.497435219594041467e-02
4.441903819946591003e-02
6.073613402473945939e-03
2.320878185556976905e-02
4.599878419395538043e-02
2.283853876307902903e-02
-5.838070255453376226e-03
-6.976163171759953985e-03
-2.715842154429989885e-02
-8.509324355464614742e-02
-1.286093537214352822e-01
-1.233668752170466315e-01
-8.189552164505572995e-02
-1.658927659740927138e-02
6.305617585373876621e-02
1.217392989297699929e-01
1.336836657676327977e-01
1.219470297983215878e-01
1.139486384955717274e-01
1.030418549934319916e-01
7.218126087178207417e-02
2.998720313946353147e-02
8.531809043390788799e-03
-5.465755363131090394e-04
-4.736309761069407848e-02
-1.186291942687889012e-01
-1.433263186050387494e-01
-1.178444030360551453e-01
-1.015964809929976731e-01
-9.648524568281567626e-02
-5.077483927610888098e-02
1.999374949550802860e-02
4.233955683238382894e-02
1.893884186598130542e-02
2.439718894768621790e-02
5.769938779593282441e-02
4.682394378934632423e-02
1.483160383443257561e-02
2.184347841358263639e-02
1.209416389220853427e-02
-5.515050102790243838e-03
6.636319082775474221e-02
1.091836686888375679e-01
-3.647959992320780331e-03
-8.909091726095806629e-02
-2.664639168113192708e-02
4.979773979094096609e-02
8.685233256952609726e-02
1.229415428400537635e-01
1.156811878518759357e-01
4.716901947914989290e-02
-4.883963850342996904e-02
-1.665920160545937279e-01
-2.432908165641670395e-01
-2.036355214999419350e-01
-1.206661721368677276e-01
-8.358053918454050324e-02
-6.053443824004914320e-02
-7.293141657523143084e-03
8.068962091679528215e-02
1.710969657184266690e-01
2.042397259420694056e-01
1.737131307467525976e-01
1.082845576227421530e-01
2.593285037090447415e-02
-2.019069179594898400e-02
1.309008445576371332e-03
1.836032409783366209e-02
-3.515270332696641270e-02
-1.137798747200610694e-01
-1.504862532706415235e-01
-1.547321524363076684e-01
-1.454384243317315972e-01
-8.401965287668292093e-02
2.476687408640912066e-02
9.369401844776499566e-02
1.092492274589284690e-01
1.345224639656029952e-01
1.498855871985225741e-01
1.102366279869697874e-01
5.838273729273039253e-02
3.267766759564346563e-02
4.498296054162548296e-03
-4.333678959445539519e-02
-7.990679606684217284e-02
-8.254635007195616769e-02
-7.672040000595813092e-02
-8.139563356890208712e-02
-6.949869993022142478e-02
-4.086251129034478707e-02
-3.196359050585410866e-02
-2.832567391203626161e-02
5.354985775729698833e-03
5.816588531966000036e-02
9.013144614789841969e-02
5.987276212852347956e-02
4.008839144987211278e-02
1.533350433770884480e-01
2.193379891597835862e-01
9.653854150564404601e-03
-2.085926924526292914e-01
-1.662501232187478806e-01
-8.935932704305768470e-02
-1.213985851283806428e-01
-9.791156373656262346e-02
-2.210696530160803121e-03
6.371853916528867623e-02
1.091510621557159194e-01
1.356277627795043350e-01
1.053281002774840713e-01
4.390555426833737951e-02
-1.407695382001271714e-02
-6.454366380688682236e-02
-8.220865310731834130e-02
-5.894716114014160457e-02
-3.496777193920040661e-02
-2.663186587301039077e-02
-5.750527283020525487e-03
3.719081617009002000e-02
6.885090299573613792e-02
6.189799882860326508e-02
3.489587682736045721e-02
2.801533743474111590e-02
4.010301185756790648e-02
2.151767214341154810e-02
-3.085125803638488068e-02
-5.186395673409027046e-02
-2.665829583830759894e-02
-1.692739445271606441e-02
-4.982952696865158848e-02
-8.462516505271398815e-02
-9.577215952761142237e-02
-9.247442681730420888e-02
-6.515290600173351265e-02
-1.430548458630698586e-02
2.790004039221095911e-02
6.026791324696814667e-02
9.443820189642553042e-02
1.140818537046369152e-01
1.104499520820441255e-01
7.990261615460586553e-02
3.244391085459361751e-02
1.261551471003828119e-02
1.898740706436111494e-02
-8.406078137317980759e-03
-6.865346411655894043e-02
-8.903595845535822173e-02
-6.922920865278994751e-02
-9.444372158598887679e-02
-1.031894896160636260e-01
4.487723066946180256e-02
1.843506550181964188e-01
9.805229952054059228e-02
-3.092926576329957378e-02
-1.310352582051795695e-02
2.800156314212465247e-02
6.387422729753519136e-03
-2.308729842764984178e-02
-3.437281779743937837e-02
-1.294803319647225281e-02
3.496696524832050568e-02
4.983685175050202310e-02
9.681916172326308218e-03
-4.745990241738275162e-02
-8.765700707950518922e-02
-8.522780212833037938e-02
-2.673864228824424788e-02
5.847445637507252270e-02
1.253729315852210868e-01
1.490237366690971010e-01
1.152765850080310767e-01
3.018395225283180411e-02
-6.065054822411633517e-02
-1.168111112810962804e-01
-1.579650230946880174e-01
-2.005203303389580249e-01
-1.778386707323658111e-01
-6.598453669076841110e-02
2.199829207083134341e-02
3.461172644780192986e-02
5.088288332582127649e-02
7.552198620802155760e-02
5.216940469575725992e-02
2.153572153452179214e-02
4.401159282259387712e-02
1.047875792445455423e-01
1.702623825844693795e-01
1.982323998259733489e-01
1.419960874446425103e-01
1.873084784455881363e-02
-1.120799527241209403e-01
-2.091119018612677960e-01
-2.269738694151913205e-01
-1.492202335032279670e-01
-5.920408920745866277e-02
-3.213585124698108142e-02
-3.776876632484828245e-02
-5.113973752200175193e-02
-3.091655065974427408e-02
1.146553088978760071e-01
2.400995260348940674e-01
1.133645056946868818e-01
-2.565163564570141150e-02
1.153350972981842942e-01
2.277814080728539081e-01
6.219114653162113177e-02
-6.927682107962893077e-02
-2.428347342222113986e-02
-3.269943074176896031e-02
-1.060604267850117910e-01
-9.743713405006687589e-02
-5.500742357906969471e-02
-6.894890060828590128e-02
-9.982666545684673598e-02
-7.861797484734862895e-02
-4.186912477898464824e-04
7.009741388005104323e-02
7.016907202238421848e-02
3.219198884094399971e-02
2.427205501539171639e-02
2.151688477762578322e-02
-2.604608078453516523e-02
-7.418698246238468463e-02
-7.814455394086028406e-02
-6.639549947181835887e-02
-2.752212712398591568e-02
7.589848044256675141e-02
1.725999286461837035e-01
1.770870800486956109e-01
1.291056398094002355e-01
8.358033080479766730e-02
1.806952890912087717e-02
-7.399137692013119105e-02
-1.417258602745719576e-01
-1.557160182976846108e-01
-1.386578414968635264e-01
-1.186210925006267736e-01
-1.077541366582302762e-01
-9.365352899161878686e-02
-3.461493456085450171e-02
5.598621879218587671e-02
8.999109390156098676e-02
6.404978261026361697e-02
6.019298791979735275e-02
8.047899980476944104e-02
1.053685650073744595e-01
1.515631790854382599e-01
1.421066041202612429e-01
1.956781123326392299e-02
-8.633887228506828548e-02
-9.133220373672179537e-02
-8.537288334131090672e-02
-8.999783474036504582e-02
-4.089742875741341627e-02
2.551173533279535444e-02
4.760601714735285261e-02
3.832564453920277170e-02
1.517077042299501757e-02
3.013980178998044122e-03
3.705677124619575352e-02
8.356536090653862714e-02
7.419117018584765744e-02
3.459095370420423032e-02
4.647708249136734554e-02
1.745507974836492046e-02
-1.946297809951388624e-01
-3.435703208142478204e-01
-1.445265417156933463e-01
9.088481486138282051e-02
3.179636657284447970e-02
-6.099537877505044337e-02
2.306955041719993549e-02
8.487973024657276266e-02
4.009271025556286616e-02
2.046290288243446387e-02
5.496851690179577199e-02
7.123606016544406505e-02
3.744915238442423494e-02
-1.149532686009734940e-02
-2.444896421409459286e-02
-5.568031764731848354e-03
2.170127480104208986e-03
-1.218110877416888130e-02
-2.839405797438319251e-02
-4.465946134745873985e-02
-6.425483430078296476e-02
-4.826925090628449849e-02
2.116380370115070186e-02
8.632090110094221835e-02
1.158559059972978922e-01
1.333665790524576900e-01
1.166300796633974318e-01
3.100864717550602667e-02
-7.078566211413753195e-02
-1.133980455993494063e-01
-9.919667627171102620e-02
-7.576922710047452603e-02
-6.793630457679834811e-02
-5.733165233603545324e-02
-1.380119039749349436e-02
4.239609655053029613e-02
6.638990292190033449e-02
8.485589855111144719e-02
1.434531691722437108e-01
1.534477240420492883e-01
2.622356390727054870e-02
-7.682126013695747546e-02
-2.769197163173205134e-03
8.558529451792536158e-02
3.256012626437801427e-02
-5.958896881703592413e-02
-9.506025743436993802e-02
-1.059200552623377201e-01
-9.564206007656095299e-02
-5.323629055783418718e-02
-4.337964626510231597e-02
-7.791274482542706603e-02
-6.073711866715036239e-02
8.317575710920996346e-03
2.149848760195953445e-02
-2.050806281933467354e-02
-4.610724268273122539e-02
-7.763088398677839286e-02
-1.464215358946964751e-01
-1.872345400909750934e-01
-1.528355634487841008e-01
-9.271738368942207542e-02
-4.197968452155594749e-02
2.824048983923741277e-02
1.191678752410564035e-01
1.993278416654057361e-01
2.617708604297867558e-01
2.968175824941524654e-01
2.910302644841405439e-01
2.693796257733304111e-01
2.523305079542167983e-01
2.116070465609718732e-01
1.282884031289178717e-01
3.479294233816805637e-02
-3.982686257620791231e-02
-1.068603340279881547e-01
-1.781695611338461327e-01
-2.360662355787440381e-01
-2.551762716688271149e-01
-2.361526021414135090e-01
-2.025467182643529707e-01
-1.611515781355427890e-01
-9.377568108918915568e-02
-4.061028629237354443e-03
6.363140464285002573e-02
8.147056953375254873e-02
7.175488986935368851e-02
5.242043499996675016e-02
2.248577257823030501e-02
2.438483703108139389e-03
-7.924575497575149161e-03
-3.883945985265156026e-02
-6.312783452169848375e-02
-4.020836503698610453e-02
-6.514658477373092872e-03
3.817095422483931036e-03
1.200795197723038624e-02
2.747127378353242735e-02
4.202670297865580828e-02
5.234193048699401635e-02
4.334986425962503859e-02
1.911062554842486716e-02
2.005111670174813260e-02
5.465553972136651811e-02
6.246155123917541963e-02
-9.129900022659245828e-03
-1.013060292644062665e-01
-1.137212068520801894e-01
-6.090155770135870922e-02
-2.117074204811922669e-03
5.916329212915096003e-02
9.438907325273512838e-02
8.103124511695011800e-02
7.506686189207925630e-02
8.913070035837580840e-02
6.915590093304749275e-02
3.023818468082916169e-02
1.353351219810893999e-02
-2.151248829471129678e-02
-8.093287340212024228e-02
-7.534720707062161904e-02
-5.821516511995889626e-02
-1.812461601522844246e-01
-2.615905367740094523e-01
-5.210994712973083393e-02
1.624902731263866973e-01
9.612819962090732306e-02
8.990304230511794725e-04
4.587866143770041871e-02
6.430402715934427360e-02
2.963465421475535919e-02
2.967072591810550330e-02
3.557662813927567336e-02
1.911052300046639507e-02
8.056462534185064583e-03
1.356704042117660991e-02
2.352354832977139945e-02
1.252206446381904682e-02
-3.609635772208012738e-02
-8.667492061063994391e-02
-7.370113551561249809e-02
-7.225789207868918082e-03
3.878134898426541938e-02
6.640635917490288198e-02
1.067761460184469963e-01
1.066167693119874221e-01
3.552625086992629994e-02
-5.846776743489225103e-02
-1.451692044276543248e-01
-2.020821537957009917e-01
-2.066161206797379191e-01
-1.860575021628962933e-01
-1.283912191812676129e-01
1.409266768494205936e-02
1.554855957530359434e-01
1.880552048085012973e-01
1.660899362666022339e-01
1.547005856899461018e-01
1.336861577841956805e-01
7.828638635711088201e-02
-1.789897364256131176e-02
-6.375047975678858891e-02
3.846315853654733857e-02
1.264635463330455456e-01
2.547298654338922552e-02
-1.142376072549110139e-01
-1.515483624565706067e-01
-1.650325553001840695e-01
-1.673303392162063530e-01
-9.557580404971177668e-02
7.004937493281452720e-04
4.947346922201353858e-02
7.841448210762769211e-02
1.282695175759440143e-01
1.602036349598327802e-01
1.342410524036355135e-01
8.669458287172425448e-02
4.793327252617270162e-02
4.920432116086446636e-03
-3.156031465550315079e-02
-5.632246065185396444e-02
-9.517087248027730761e-02
-1.258374421615821304e-01
-1.084850110074931928e-01
-7.827533129152042246e-02
-6.993869792569783195e-02
-4.518539095375482401e-02
2.207282419220166908e-03
2.074830700695508290e-02
2.571020528957817380e-02
6.588187427233702098e-02
9.839750128422600217e-02
7.121725443787252363e-02
2.923307735686777806e-02
1.625078632195699896e-02
1.009137799939574011e-02
1.255004905383048149e-03
-5.300024865280568952e-03
-3.568904590783930630e-02
-9.091024245337138432e-02
-1.136187707757669585e-01
-5.540921425994777688e-02
5.212314511815969303e-02
1.154079620119274896e-01
1.051426889154819799e-01
8.277552370526053416e-02
5.537127831307137732e-02
-1.457470304304033307e-02
-7.709090352330026652e-02
-7.861109671320301584e-02
-6.333724793760403537e-02
-6.750310599030702463e-02
-5.910102962961735068e-02
-2.162611241468007789e-02
5.004532408187441217e-03
9.146589020645190526e-03
4.924319870909263375e-02
1.218516325323740490e-01
1.290175938175038006e-01
5.171425619352611192e-02
-2.623283419249341358e-02
-5.227141751010217635e-02
-2.857313431103562784e-02
1.505870338309533811e-02
2.367879477397259388e-02
-2.614801009418630043e-02
-8.516789601772904728e-02
-1.090414489466384890e-01
-1.124552282080378135e-01
-9.506528296401138556e-02
-3.858288248404176390e-02
2.637900808295678273e-02
7.295209544696712456e-02
1.087953699489115078e-01
1.277998359115548599e-01
1.230577967764543562e-01
9.698343252291682925e-02
5.623458845802967870e-02
2.579561183336742322e-02
1.437449234407378769e-02
-5.790388264564828857e-03
-4.806411340637201796e-02
-7.405682657687363835e-02
-5.124364812982688117e-02
-3.623781348747338871e-02
-6.382191444220740306e-02
-3.863360632168616471e-02
2.204230797078448115e-02
-4.546628391422013332e-02
-1.550803812010062011e-01
-9.703132049058882380e-02
2.818832670268310928e-02
4.707289713550837085e-02
1.472170805851241368e-02
1.228674130936695946e-02
2.531843725137272044e-02
2.140561807265526501e-02
-2.123276629554554998e-02
-8.419018290773533364e-02
-1.045214967925238297e-01
-3.006554745623763597e-02
1.283391654559481176e-01
2.829162581815271027e-01
3.389423995491459007e-01
2.906889038486575871e-01
2.009519050439047272e-01
9.966174554937556884e-02
-2.986018895825984232e-02
-1.773391371067773170e-01
-2.959758045994844156e-01
-3.503047378805064227e-01
-3.357884837604879769e-01
-2.786379975882018467e-01
-2.011865659568148057e-01
-9.969582763412146442e-02
1.365771403790113497e-02
1.088687710905023864e-01
1.782707832719132024e-01
2.243235476664788841e-01
2.389342724810799012e-01
2.173223469385834883e-01
1.609717748098200285e-01
7.469362690038203190e-02
-8.255269674926526968e-03
-4.277256822250675994e-02
-5.136279004247681218e-02
-9.843725081625477602e-02
-1.715467571844968564e-01
-1.982844473109982020e-01
-1.500201350055330174e-01
-6.027468563441700650e-02
1.407013722532621768e-02
4.325512296331926465e-02
4.802175289357039217e-02
6.463429125435807276e-02
1.052479990964808876e-01
1.434760328026341847e-01
1.353547597620256837e-01
7.649284389627888925e-02
1.611557828170099779e-02
-1.094786449176303467e-02
-2.088910219187867234e-02
-3.135386034802099126e-02
-3.968022728694489687e-02
-4.422733511134101236e-02
-4.353106897493552729e-02
-4.139048097861187242e-02
-4.610411971515412932e-02
-4.387655665244750286e-02
-1.617652562954563153e-02
1.337730363679678902e-02
1.417710636575176576e-02
5.192487329009977219e-03
1.070781396134337822e-03
-1.891717664979497560e-02
-3.496189858704851217e-02
-9.047487213911520332e-03
2.131776870020401712e-02
6.783477269205116095e-03
-2.106077730109615076e-02
-1.395595230611390916e-02
2.472627910572964757e-02
6.658802426347422421e-02
9.096808533343725411e-02
1.008341223201294490e-01
1.038325102401103511e-01
7.215275692122948004e-02
-1.124369659952185324e-02
-9.087527980321866150e-02
-1.150539896486782038e-01
-1.129740554567689181e-01
-1.226922066793700028e-01
-1.360501152157451710e-01
-1.483881934880714182e-01
-1.469908734287874996e-01
-7.659598317703969483e-02
4.234260919503735066e-02
9.073354593558469183e-02
9.495385595023281278e-02
1.862708558854689056e-01
2.674051981828851621e-01
1.881429387710782664e-01
5.907947839511870636e-02
-5.452758270261055112e-03
-4.118833176538481966e-02
-4.975875568694737572e-02
-4.052558523883022235e-02
-6.373521370960311128e-02
-8.496873124969521462e-02
-5.405995032969150571e-02
-1.175072368334239420e-02
-2.022896346319991503e-02
-6.945539645079587543e-02
-7.890595426976618199e-02
-1.157622618192002788e-02
6.932177452208233837e-02
1.214137033263398002e-01
1.565700749951829118e-01
1.193646265299746628e-01
-1.699579500415206168e-02
-1.022995453885111317e-01
-5.562707598536550946e-02
-4.778431562908616939e-03
-5.453671475292671753e-03
1.333160096169737005e-03
7.832413629072410358e-03
-1.439662081318072474e-03
2.614275998285292644e-03
1.422191668973656238e-02
2.310563852772884799e-02
4.144654223322089687e-02
4.342855321691080350e-02
8.964282947860755663e-03
-3.002107285568443931e-02
-4.462415665134172177e-02
-1.719295300973920984e-02
3.271498594431563461e-02
4.389404044189849224e-02
2.117311427218671049e-02
-9.675611142782137436e-03
-7.896412002571409627e-02
-1.489050606894275763e-01
-1.493900831722537459e-01
-1.193117925786399691e-01
-1.023995337019108220e-01
-9.425732517218698980e-02
-1.174943112484698182e-01
-1.617956567275709023e-01
-1.777578532436997205e-01
-1.611131456733094214e-01
-1.134827845281928260e-01
-1.927335120192657028e-02
1.070406763405991335e-01
2.440278089559002328e-01
3.676487349786901060e-01
4.307148855446755187e-01
4.312567853408091900e-01
4.123691133148177923e-01
3.577197945134906187e-01
2.345416560862138566e-01
9.317940298102153629e-02
-1.587601220963608117e-02
-1.087982494228847546e-01
-1.857726432283286488e-01
-2.281756782183857468e-01
-2.751776698855993852e-01
-3.671620024116782899e-01
-4.336568827263947989e-01
-3.723382101107318709e-01
-2.160771485909174228e-01
-7.169289432537087614e-02
3.115049432870949792e-02
1.026915725577608324e-01
1.445433086692298752e-01
1.833331740217042372e-01
2.230768488783760883e-01
2.217746641589106726e-01
1.780420324024554191e-01
1.259925413723331500e-01
5.942143045456670103e-02
-2.334865069171045832e-02
-8.150061209492373560e-02
-1.093722231723048000e-01
-1.370458359036493545e-01
-1.582986516897919860e-01
-1.432705673166327909e-01
-8.518777134295361930e-02
-2.256273983664789859e-02
1.421026993400516941e-03
1.326952663667415461e-02
5.571611521504291759e-02
9.816218602491089129e-02
9.583896528003252313e-02
6.687601546141232201e-02
4.982764562655703916e-02
4.472710232732412389e-02
3.158291486913252649e-02
-9.319068175608754764e-04
-5.506050563086036659e-02
-1.060183463150143474e-01
-1.019649899737312543e-01
-2.616717048100118681e-02
6.383191823759638839e-02
1.014220402077560257e-01
8.749768790450609957e-02
6.227037329628627715e-02
3.826057199853157703e-02
4.374929896707987868e-03
-2.715928025560462866e-02
-4.323073940635192847e-02
-7.536514800568776262e-02
-1.247282869700852281e-01
-1.222206121444271432e-01
-5.755312924475016606e-02
-9.973937179678144319e-03
-3.852292834370101005e-03
2.340290900714951661e-02
8.349687379949827237e-02
1.011737262873941140e-01
5.801592939162261015e-02
2.672153944701591635e-02
3.776123608862654718e-02
5.174611542691892607e-02
3.906378149771814329e-02
2.771066643153873021e-03
-4.314837784364036061e-02
-9.261438445678855935e-02
-1.306935987687883882e-01
-1.219309727622823331e-01
-6.386533508215547217e-02
8.587639460811532371e-03
7.043847867847558009e-02
9.402263030188352799e-02
7.987610403356472377e-02
8.630716525969386876e-02
1.112970979601284743e-01
7.876350135977872036e-02
6.698133198933677902e-03
-1.291857165166444832e-02
4.286766090919491567e-03
-2.787681388299533686e-02
-8.724462675091959607e-02
-8.414743595474977189e-02
-3.457439699053974080e-02
-1.876601272524949446e-02
-3.222029359022250683e-02
-1.933893111878319179e-02
1.937672487400680238e-02
3.683768714518699527e-02
1.641956209883927223e-02
2.908236855150526587e-03
2.562482915853932577e-02
3.207637910618726940e-02
5.645108243331864450e-03
2.076134131589922951e-02
3.672804353059618693e-02
-6.267552587444524814e-02
-1.616747573797082949e-01
-1.048566249071874457e-01
-2.982144490720347457e-02
-5.854127221084106519e-02
-5.836458480997502862e-02
3.479976553388516858e-02
1.098122484377038466e-01
1.332305805326908510e-01
1.567564462798420877e-01
1.479117028678356427e-01
4.620898647945350518e-02
-1.043250484248800930e-01
-2.247404485765475135e-01
-2.939957615229997212e-01
-2.520212439844117802e-01
-2.827626752327724174e-02
2.174409534978800351e-01
2.637426028537345757e-01
2.073582159839863492e-01
2.281085498967517222e-01
2.446701687487028154e-01
1.453302654356046497e-01
1.042396566788058448e-04
-1.031132080342954116e-01
-1.525023973833418145e-01
-1.530629247992893460e-01
-1.316658806035436446e-01
-1.224995876731267697e-01
-1.250702688976286781e-01
-1.438060150212265575e-01
-1.670471468186774389e-01
-1.300076088781018102e-01
-3.534517366552945850e-02
3.097140587825836927e-02
6.070322356553825571e-02
1.041302255305870117e-01
1.267258345876145220e-01
8.489664140865427200e-02
8.773413666297308344e-02
2.120389261276959814e-01
2.641680256306157548e-01
1.188868863351928984e-01
-1.745954535495319176e-02
-3.183965089831746614e-02
-6.601393778842194748e-02
-1.497653939699880588e-01
-1.721848896363893378e-01
-1.194021269882318825e-01
-5.801112064421730385e-02
-1.495318007852172379e-02
4.797776534260800654e-03
-1.295665809636471766e-02
-3.520797716276063277e-02
-4.685492443190743955e-03
4.899794012100561896e-02
4.802002214097469968e-02
-2.853568867435606754e-03
-3.292112038428633009e-02
-7.058969593727131703e-03
4.642139763417992004e-02
7.235658128757538332e-02
4.759948814856561350e-02
5.769329588799883973e-03
-2.143273708885588824e-02
-3.637796595665061805e-02
-2.124326005476845358e-02
4.312007397132914394e-02
9.851684715181273366e-02
7.876593682687349496e-02
2.469031191530532410e-02
1.981817082823301469e-03
-2.262444915120583391e-02
-8.902037033422155465e-02
-1.281209719890215593e-01
-8.148471106219230820e-02
-1.788811330661842919e-02
-1.159850841407395090e-02
-4.070382635430161433e-02
-6.301756430673438603e-02
-6.085877740183662232e-02
-2.488190128390897413e-02
2.762976000040348601e-02
7.149182285045194152e-02
1.025639404989471953e-01
1.095771528765193126e-01
8.297458044729119631e-02
4.141218524400966383e-02
2.743485789948485465e-03
-2.172245779544165756e-02
-2.231604665694848083e-02
-1.964652662531835708e-02
-3.575266515696312597e-02
-5.668111159677600291e-02
-7.322132747593416979e-02
-8.551669673530178095e-02
-8.172144602956350756e-02
-6.627187998037396832e-02
-3.416197218804286478e-02
4.524175162071541328e-02
1.436207977889047138e-01
1.847243617774327329e-01
1.633473241160078582e-01
1.336374952350284084e-01
1.000528286449581805e-01
3.441364589525275353e-02
-3.745221977575993039e-02
-7.597202668511002233e-02
-9.549482152061540552e-02
-1.152668616794907813e-01
-1.151695117968383059e-01
-7.781725748732093439e-02
-2.186658046033134253e-02
2.290220706325900996e-02
4.926985189107475904e-02
8.409161333483995693e-02
1.316474961195372440e-01
9.743380033720670796e-02
-4.913901559163954408e-02
-1.192206721240855749e-01
-2.654907010583396759e-02
4.096908346460042399e-02
4.217818906407457685e-03
-2.322797453437320386e-02
-8.904973145664834416e-03
1.224329148626086480e-02
3.701508496107547980e-02
5.739897105098151764e-02
6.731496778255072200e-02
7.361677862661628047e-02
5.677290172119526385e-02
-3.332386144854121435e-02
-2.026560314432572785e-01
-3.642725182775846116e-01
-4.636540879468440957e-01
-5.295719980179912634e-01
-4.733006804755500174e-01
-2.022066184399064215e-01
6.098110329525097822e-02
1.354327728390273267e-01
2.245838784584556214e-01
4.248054916595166430e-01
5.402821643158999265e-01
5.273226233613291791e-01
5.017686047085286871e-01
4.631390810676635494e-01
3.670178638902573121e-01
2.363786329319121915e-01
8.757878502920390940e-02
-7.814469109441275763e-02
-2.413331050556204449e-01
-3.846344944733197657e-01
-4.620460067176925811e-01
-4.223068789997453942e-01
-3.173505023094400634e-01
-2.651119635011082720e-01
-2.689162077894001746e-01
-1.570483392333839878e-01
1.382343855243237107e-01
3.544295126313014577e-01
2.962901662460790675e-01
1.592348853675267240e-01
1.127590112529135991e-01
7.074609093210063038e-02
9.994107135750938606e-03
1.229579005809286821e-03
-1.242477510036244653e-03
-5.804481600756632165e-02
-1.067650067654186546e-01
-9.980387230956076772e-02
-7.890135955764938924e-02
-6.640630233959758655e-02
-5.163448639310775495e-02
-3.014060704106798563e-02
1.342557344035115799e-03
3.113769317448131235e-02
4.846943131688152134e-02
5.186762511333666004e-02
3.875027740746841975e-02
3.506137519189507501e-02
5.394662890050624937e-02
4.749740030574727684e-02
-3.650836266163606965e-03
-5.092572674470405292e-02
-5.686629020582929794e-02
-1.858491168310378444e-02
4.242982386098949343e-02
1.021999380285738418e-01
1.580255954724054668e-01
1.372828009541406102e-01
-3.077758411361368462e-02
-1.721043683543951874e-01
-1.162967706800310808e-01
-2.999704441180524317e-02
-6.538426846667808046e-02
-1.123426097169292065e-01
-9.720187474444240416e-02
-6.899043266187172840e-02
-3.281087560445137413e-02
3.385428910411909798e-02
8.835865822408259240e-02
7.641686510648637576e-02
4.051822427407452548e-02
4.943736609289157979e-02
7.126199555987781931e-02
5.895804466574214309e-02
4.153816948127026648e-02
3.761138499684051062e-02
1.656722461724955547e-02
-3.769024185743000133e-02
-9.971623874797436171e-02
-1.302834459096629816e-01
-1.158967369858785457e-01
-6.611374384648312230e-02
6.269591815143003150e-03
6.413979908496074411e-02
7.252091882639982723e-02
7.061461892040538091e-02
1.075263046796234856e-01
1.372928771125677405e-01
9.775038230762575497e-02
2.025062971275663759e-02
-1.917971394173755006e-02
-7.323273379076103776e-03
-6.450793284996210464e-03
-5.021456728463150748e-02
-8.710016563582496929e-02
-7.829410219276269900e-02
-6.785856967360534564e-02
-8.465211970894535864e-02
-7.751131246954404141e-02
-2.760316654746632764e-02
1.341556967777345413e-02
3.447467141008180025e-02
5.478743421697803567e-02
5.974117908711439745e-02
4.813158350224278070e-02
3.433531910316514613e-02
1.786253050955367502e-02
1.113841435880622704e-02
2.107486828018957647e-02
2.213939336978466149e-02
-6.291039060587574026e-03
-5.106004446108922817e-02
-6.848131726725147084e-02
-2.807553652465688901e-02
3.244048611612360827e-02
5.889771512169564294e-02
7.185446134587120115e-02
1.074594748308375092e-01
1.133031626741204528e-01
3.149802606733530241e-02
-8.175001422323363576e-02
-1.527439089930870408e-01
-1.905481242676707598e-01
-1.960329030982690957e-01
-1.404313603699496593e-01
-5.763151833800469331e-02
2.661691157734520641e-03
5.308129090927837801e-02
1.017521909196923424e-01
1.207577140434130947e-01
1.106679819329983439e-01
9.018621907250433389e-02
5.320338897898944236e-02
6.511503821098699532e-03
-1.198327185208292005e-02
1.000210137349740597e-03
-2.859978072841879229e-03
-3.877530341747880555e-02
-8.961298583019330910e-02
-1.573493027717784154e-01
-1.575705912025592847e-01
-6.805948525974749030e-04
1.446988649911156999e-01
1.143660385211895392e-01
5.470879474076033311e-02
8.190942485536094331e-02
1.186869444880179619e-01
1.239307539110439393e-01
9.327583342694981128e-02
3.215998118317771326e-02
-1.266882340618795399e-02
-3.715214612032761987e-02
-6.231109982245600781e-02
-7.807733896015432717e-02
-8.036828280913296818e-02
-7.601844095332334350e-02
-7.581689480316210206e-02
-8.099764947421773942e-02
-6.169892322990599282e-02
-1.358743370231558362e-02
1.711933060255089664e-02
1.998255753887210814e-02
3.611567969522324478e-02
6.892722012432618561e-02
7.791272485818107052e-02
5.356289956892704845e-02
3.132335156423148720e-02
3.564945345423251033e-02
3.847114761806303546e-02
1.713032409965891930e-03
-6.005648459000278300e-02
-1.137099530650824697e-01
-1.458792995488972510e-01
-1.194271306792615561e-01
-9.314776936542692662e-03
1.078353374199933212e-01
1.381863422386779006e-01
9.439494289704029872e-02
4.256857376764437706e-02
7.114941863670437745e-03
-3.218796252051017714e-02
-8.336601243326595412e-02
-1.133880302882291080e-01
-1.005440660255292051e-01
-6.652997792627649010e-02
-3.538538353573179862e-02
-8.156805798452900630e-03
2.582342406165681961e-02
6.889282954349625065e-02
1.045588336125290591e-01
1.068659658421388797e-01
6.539150982081273766e-02
1.474103959999337014e-02
-1.011459402147646056e-03
-5.897276150537335976e-04
-2.368588869380236495e-02
-5.570735509928905621e-02
-8.005808296945482461e-02
-1.114700703658755288e-01
-1.173709961596255680e-01
-3.271486826198805736e-02
1.125783333674428566e-01
2.030213970035239235e-01
1.984774488179805729e-01
1.650664260620308132e-01
1.350352637337460804e-01
7.237819455891995879e-02
-2.965648029103788025e-02
-1.143199326062208504e-01
-1.314523542578604209e-01
-1.145108311921476107e-01
-1.127662563155443221e-01
-9.447663318759198792e-02
-4.734364767622315645e-02
-2.934190847090548809e-02
-3.701917343016043055e-02
-2.808995162155708547e-02
-2.249289612065000221e-02
-1.443164395245437499e-02
3.094396722015873430e-02
7.655176897673326986e-02
1.025514548739125675e-01
1.007683588714541056e-01
1.574412691082821558e-02
-6.066512049009523122e-02
-7.473513609081560566e-03
4.519113409983302465e-02
2.130589116270783373e-03
-2.982121020372230716e-02
-3.439004187234367266e-02
-7.594192466110191719e-02
-1.145453266467559433e-01
-1.014164582801200670e-01
-6.308878803986188444e-02
-1.601675647742838854e-02
5.516594276265602420e-02
1.516641703272478547e-01
2.460339380650454211e-01
2.731984360323145289e-01
1.961237982756985354e-01
7.584227464626720761e-02
-2.996250593155657185e-02
-1.379925554261480225e-01
-2.366104587250525415e-01
-2.648132558935800129e-01
-2.205264899060694339e-01
-1.523445135377662907e-01
-6.830426001813187653e-02
2.932534561414772492e-02
9.637064315974161466e-02
1.113858133319543808e-01
9.845845412690859555e-02
7.800860476428522761e-02
4.902119364067828583e-02
8.688646381507949754e-03
-1.682781364251916684e-02
1.320328791335574278e-03
2.281573615129947608e-02
-4.711074636824655500e-03
-3.338547491606505546e-02
-2.418494449639187194e-02
-5.394835706652061080e-02
-1.113024227931362214e-01
-6.469022394236757789e-02
3.241377670129307054e-02
4.030635714309727113e-02
4.824386426588840593e-02
1.546853106278833490e-01
2.440093508611853590e-01
2.275947680825647357e-01
1.609219674088979701e-01
9.078607074978709002e-02
9.429096692902545762e-03
-8.450285236852407567e-02
-1.573977220973222235e-01
-1.796271003983161141e-01
-1.837825961058269786e-01
-2.014550400037101452e-01
-1.891940084627010132e-01
-1.290425902183597318e-01
-7.925554724017702668e-02
-5.062611931365620932e-02
3.823695438583546435e-03
6.862614262639274432e-02
8.818781922870930212e-02
6.833978545920310621e-02
5.817623022080180284e-02
8.740581709735167903e-02
1.438123150597255262e-01
1.650638413709237251e-01
1.003275646757664924e-01
9.279707313134669990e-04
-5.430027808214517304e-02
-8.452468715833642843e-02
-1.149950512356526788e-01
-8.562423370483211726e-02
1.425109127724279168e-02
9.256190665188956945e-02
1.029115710196672195e-01
8.386387644924730989e-02
5.210646776511174832e-02
-6.262694000226903639e-03
-7.271461942849866134e-02
-1.135729892512869904e-01
-1.200250429891703829e-01
-1.126639436228261126e-01
-1.063423640225966554e-01
-7.493805123197398721e-02
-8.782937394146901958e-03
5.371182704294785726e-02
9.534767452428201395e-02
1.219284972735623918e-01
1.218388603990257918e-01
1.020703377248219912e-01
1.000673273306246502e-01
1.139875011150947304e-01
8.873801964001305775e-02
1.356616751501129974e-02
-4.884845459712960219e-02
-7.214947000750274175e-02
-8.739679108642291194e-02
-9.076077317903852304e-02
-7.029257656193681203e-02
-6.583875685440447600e-02
-8.818961148177281717e-02
-7.130307714791409013e-02
2.217191031797103098e-02
1.171579078640315880e-01
1.224940798685343335e-01
6.006368453745222769e-02
-1.085930471347344023e-02
-1.021493101724018221e-01
-2.096281356857536138e-01
-2.655974568701972016e-01
-2.580233361308320039e-01
-2.430810649730933692e-01
-2.252992136131744261e-01
-1.518419060700611223e-01
-1.831820864755893258e-03
1.704954698241327171e-01
2.730908781168660537e-01
2.993915639416859231e-01
3.369220203918086298e-01
3.913543572108745816e-01
3.787355185187719631e-01
2.891308451946674740e-01
1.953473734360550162e-01
1.403067111241412257e-01
7.836365607436736325e-02
-4.400476155179326027e-02
-1.696452867015694199e-01
-2.237175195785349180e-01
-2.491586253315125621e-01
-2.780864585861824168e-01
-2.416780792314249804e-01
-1.439834660154548085e-01
-7.316365046508828407e-02
-2.014615086474452060e-02
5.092643996661729705e-02
8.141445822050290271e-02
3.848682179503985779e-02
-3.438693480181828632e-02
-1.028567649080537327e-01
-1.396052267943442005e-01
-1.160334620834304609e-01
-4.915252138389084036e-02
9.312437742904342008e-03
3.702119245090609162e-02
5.342093626055621769e-02
6.632719013726622037e-02
6.724233309816550486e-02
6.435495234467104864e-02
6.018222304554985552e-02
5.541355030559383388e-02
6.294116821154353836e-02
6.268716661008805202e-02
3.537189449849086065e-02
-7.897776255648088217e-03
-9.314140471889882644e-02
-1.747206217234682502e-01
-1.069412295124189810e-01
4.156691020812999793e-02
6.732647983615636100e-02
2.242184584106106729e-02
4.303631247728741116e-02
8.536311551268872810e-02
8.730393262248303810e-02
7.057567346601638369e-02
6.856378516327285566e-02
7.418101478886142408e-02
4.252175435937344261e-02
-1.888582806170330253e-02
-4.744080277615569247e-02
-5.206708124110415170e-02
-8.225346621817183901e-02
-1.067380700120206527e-01
-8.441926832911846035e-02
-5.424611297687913225e-02
-4.714708987120971861e-02
-3.757796291406485800e-02
-1.179924648779828028e-02
1.802487558514222210e-02
3.951409793521540315e-02
4.406534590364886983e-02
3.534139131283021984e-02
2.301958621102695446e-02
1.575975940402059641e-02
2.806488670419078277e-02
2.787249554541611912e-02
-5.393371416227105142e-02
-1.232782678263624615e-01
-9.739504675570005710e-03
1.416086496139939421e-01
9.867021140603274287e-02
7.705820686505077122e-06
2.171390101686072882e-02
6.867628626219036969e-02
6.941157874438051711e-02
5.066203492371553624e-02
-5.452053856743690856e-03
-7.394887332747410169e-02
-8.753656565347955887e-02
-7.805253472393669512e-02
-1.013726622738502642e-01
-1.184240034494288274e-01
-9.337622248713960127e-02
-5.473314989822385818e-02
-7.586949452927838414e-03
6.031030787160328310e-02
1.082282859558550692e-01
9.468688585429518856e-02
4.620900489216631102e-02
1.065835777447202148e-02
2.360367196509828742e-03
1.566450855799451231e-02
3.134352822201651179e-02
1.885272946419197515e-02
-2.695218692352004813e-02
-8.102170799983006433e-02
-1.131538178092751645e-01
-1.055527029753224738e-01
-6.906956732387990738e-02
-1.843640627358718309e-02
4.167344875806653498e-02
8.759649468297082964e-02
1.073358149641025217e-01
1.253125278378502128e-01
1.410196904135466445e-01
1.206705220102192722e-01
6.915017079118151999e-02
3.017607071544134087e-02
8.326835125568629592e-03
-2.805071987917446066e-02
-7.066310602042792655e-02
-8.393343616190204748e-02
-6.887350027125062335e-02
-5.268005016158046339e-02
-4.658394640596868336e-02
-4.339865923626022581e-02
-2.028980077799142842e-02
3.609385349238350416e-02
4.266628489825063930e-02
-7.255080753182101272e-02
-1.463295855107861476e-01
-3.612794891782172835e-02
7.240155404003004169e-02
3.264997663573418474e-02
-9.410399266935171730e-03
3.361449971353167032e-02
6.701832777997346335e-02
4.181177200666833654e-02
-1.902731658272380569e-02
-8.736491349172395560e-02
-1.032693048240733436e-01
-3.683860929080710889e-02
5.152931481773849465e-02
1.151253260502079906e-01
1.568135827938383908e-01
1.474170209237753715e-01
7.159931855996368166e-02
-2.250386097594634510e-02
-1.070018672278465338e-01
-1.727885497603165177e-01
-1.781849170575242058e-01
-1.222704339744932756e-01
-7.017774076259490623e-02
-3.987536535605411964e-02
1.198901271570679793e-02
7.300151169629247316e-02
9.773299799767293239e-02
1.113561848991502928e-01
1.294417018098102112e-01
1.066453879102121777e-01
5.378401055758726818e-02
1.555102875103674641e-02
-1.196372336797480937e-02
-2.096910758174628381e-02
-7.454303802976274679e-03
-2.225376862231720487e-02
-7.758802702026783293e-02
-1.152558583407863602e-01
-1.016785925193974677e-01
-5.648826138599535168e-02
-9.890457698258858787e-03
2.553237934811906223e-02
6.117528892573179805e-02
1.050917889673536332e-01
1.317351465448554082e-01
1.145536701575830540e-01
6.736176637255901489e-02
1.909407676394689335e-02
-1.881828121168730578e-02
-5.003530697411374961e-02
-8.297420342144801175e-02
-1.070821264684737317e-01
-9.427751398610484390e-02
-5.244695557907232131e-02
-3.465870111718292318e-02
-5.654438147764129924e-02
-5.648380934350953619e-02
-1.024003123533844678e-02
2.185465584608259001e-02
3.676725535294095987e-02
7.087681062591863479e-02
7.552135287527991792e-02
3.175028019726435641e-02
6.054935676486740762e-03
6.984919280941263332e-03
-9.030384337660964968e-04
-1.660656369216035114e-02
-4.089488453494372761e-02
-6.472728951075361337e-02
-4.704692847178113674e-02
8.254952425222332468e-03
5.567808607919531166e-02
9.577689289786760207e-02
1.368741135113522300e-01
1.374281380271446251e-01
8.899761703905537114e-02
4.367224226906451373e-02
9.447798053966869475e-03
-5.156478529744401573e-02
-1.249773411708226395e-01
-1.603260981337201185e-01
-1.603237614848972981e-01
-1.581935589809817799e-01
-1.278594522163787051e-01
-5.452672485971835070e-02
-1.327657112716132404e-02
2.636774890522410736e-02
1.769537048014526714e-01
2.826461315937698338e-01
1.442616537535992838e-01
-4.024215083693985506e-02
-3.599639353389828822e-02
3.649168981946944446e-02
2.403047189954720178e-02
-6.238609726886447729e-03
1.546162213475855626e-02
1.377371437282523189e-02
-7.289250359822661840e-02
-1.584235289855051576e-01
-1.420893075243235271e-01
-7.279487818339386296e-02
-4.302304848948101251e-02
-3.279200280333371964e-02
5.859206819852195297e-03
6.321565007255901258e-02
1.184240311206480739e-01
1.400298667972513789e-01
1.216348664470091878e-01
1.172625335301921978e-01
1.196921440953292864e-01
6.456330177241224877e-02
-1.790027952156815136e-02
-6.987257321101028595e-02
-1.122646430759669800e-01
-1.464997296773218327e-01
-1.287934851634533195e-01
-7.387756929711004894e-02
-3.665425616425452282e-02
-2.741547546657438841e-02
-1.929256433316895239e-02
1.150301423238706856e-02
5.016390736605314676e-02
4.566316909541154323e-02
6.247229352390665236e-03
5.230555151303648009e-03
4.031204673253327431e-02
3.805748417191344435e-02
-1.073491848070941106e-02
-4.374570538009298071e-02
-1.928023595617406674e-02
1.440857372416573176e-02
-8.044313368590075980e-03
-2.804707119011914940e-02
3.166411838516645233e-02
1.112004152992028400e-01
1.348658384359355256e-01
1.139886666923490416e-01
7.013488022541422562e-02
-4.170861929080980218e-04
-8.197762972546682181e-02
-1.234574402203287985e-01
-1.021001021633506922e-01
-5.985656963512259177e-02
-3.709854124452134638e-02
-4.096609234981183484e-02
-6.483440296397696700e-02
-6.810102390700159547e-02
-1.324785247887566575e-02
4.670632726634268983e-02
3.664458826563563032e-02
-7.477654456531108301e-03
-8.156501249480977572e-03
3.181914208955793216e-02
8.029613182787795345e-02
1.256920313282559876e-01
1.413642258980681299e-01
9.069929743032106861e-02
-2.304127287327759413e-02
-1.161832339471494113e-01
-1.092928861143660779e-01
-6.561323853561755459e-02
-8.313901401181249262e-02
-1.206752880055755039e-01
-9.968686328404738339e-02
-3.093794154813486741e-02
4.561551693067144447e-02
1.078409469244452495e-01
1.348653831101142841e-01
1.204854614588400930e-01
8.247135222119345022e-02
3.190683257835138370e-02
-2.396181952757998543e-02
-4.399021136765536577e-02
-1.235473224723677120e-02
4.774381865769354930e-03
-2.650767959060344736e-02
-5.311980174915589131e-02
-5.451995832469346687e-02
-6.133891838878918062e-02
-5.852541763291910226e-02
-8.828710470531162674e-03
5.630867054728545124e-02
7.834092070049844536e-02
5.953893725219579214e-02
3.775698072860068227e-02
3.667439848546680259e-02
5.389487396009982889e-02
5.803314709798548798e-02
3.316489590112264851e-02
-9.055263254960539687e-04
-3.626282172681870308e-02
-5.364863406515806704e-02
-1.010135878185045716e-02
5.317373603349187516e-02
5.857231781322128766e-02
4.252737851197960911e-02
4.418661164609944542e-02
1.413063966446618039e-02
-3.163408099315220129e-02
-2.066458533572684830e-02
1.192133170735875519e-02
-2.800698819776203247e-02
-1.435460027103258596e-01
-2.490719619125579820e-01
-2.806379015066857163e-01
-2.617368597307412892e-01
-2.422632630225036721e-01
-2.173036324835113942e-01
-1.670967773366484610e-01
-9.252191423211819643e-02
9.121853629655160556e-03
1.158627654011896435e-01
2.031586425476230584e-01
2.963099421207803785e-01
3.855594792181697983e-01
3.899823054939521860e-01
3.055946306901639598e-01
2.394512746632912747e-01
2.208051325280033506e-01
1.758365547794799311e-01
1.020849224808632882e-01
3.987051775100503709e-02
-2.809565725638422939e-02
-1.073706049447903377e-01
-1.707632182143083710e-01
-2.012574318060729728e-01
-1.966206475546397048e-01
-1.847867831351770740e-01
-1.889136432644904218e-01
-1.863476588515517451e-01
-1.530910362468581587e-01
-9.517410646351949499e-02
-4.132685856593874135e-02
-1.513260426494032751e-02
8.917790313903321830e-03
6.250503715397420779e-02
1.169520147946002953e-01
1.353519173216394256e-01
1.252043081865995833e-01
1.010455007913292069e-01
6.635723626149699073e-02
3.309600699734088075e-02
4.764063847306850355e-03
-3.872229580840443053e-02
-8.623906623316343611e-02
-8.456130463532006425e-02
-4.414832843784331773e-02
-4.536761838985226003e-02
-9.847277533287976392e-02
-1.243939431641999521e-01
-7.636616249989050531e-02
1.531610834537362395e-02
1.011715476200852476e-01
1.587746168402886793e-01
1.915606703155534052e-01
1.909237665202701550e-01
1.241109269130052928e-01
4.468585430122237918e-03
-9.899315034792374735e-02
-1.539451164184627019e-01
-1.611694613288055244e-01
-1.253139374949525653e-01
-9.721079891623848890e-02
-9.607814419761052938e-02
-5.247651856478903476e-02
4.303499226124784388e-02
1.112191757828932259e-01
1.248124620738312318e-01
1.124101801974898840e-01
8.590234883544256572e-02
5.855021749815671889e-02
5.940161591550945780e-02
6.696285235524621071e-02
3.175518898123944056e-02
-9.459913310421539517e-03
-3.539780649464722984e-02
-1.255701595702766460e-01
-2.140372717390491564e-01
-1.297482132835748037e-01
2.847547074172839671e-02
4.845177654559465474e-02
-1.211683429394050729e-02
5.059841455293246498e-03
7.499336423641247973e-02
9.812819327971789019e-02
7.266753569409958868e-02
5.008478626486314450e-02
3.544584318113247479e-02
1.596426642843068022e-03
-4.554771519979092936e-02
-8.040107219512770964e-02
-9.876274455195128976e-02
-1.012364209237344020e-01
-8.315911409752843597e-02
-5.303958590751063629e-02
-4.206025123329317633e-02
-5.923201283469520934e-02
-3.049564304830568173e-02
7.092598591627813365e-02
1.348140521325009444e-01
1.372259846508690484e-01
1.432271602004085986e-01
1.117803283217656540e-01
3.409643581914822974e-02
-7.796876403397634200e-03
-6.750561170392100144e-03
-4.527199623579567303e-03
-2.003028433664694880e-02
-5.266082339285974717e-02
-7.454440488990290992e-02
-6.686636287844242854e-02
-3.844467970514017785e-02
2.671237357123230557e-02
1.357665368164738262e-01
1.636031872518210473e-01
1.116749970319673088e-02
-1.308780177078488205e-01
-8.547895602495600431e-02
-1.071285164957049008e-02
-4.450921924216941911e-02
-9.029710978826960277e-02
-8.744787620859433008e-02
-7.045969923506162358e-02
-3.823214834437062282e-02
1.243986752720088393e-02
5.291128016866974981e-02
7.979145371039889079e-02
1.028388237051079818e-01
1.170711194041437059e-01
1.151290820949148058e-01
5.722071020990283918e-02
-5.708177470649405255e-02
-1.261841450721690461e-01
-1.216762033665537840e-01
-9.797399056886206548e-02
-5.482359282393613198e-02
-3.207725275782107033e-02
-7.278487073598477464e-02
-8.744172401704126962e-02
-1.980929308900063537e-02
5.210803162008844497e-02
7.157481354373294857e-02
7.309930172010248306e-02
9.717834765350086279e-02
1.252409667916155878e-01
1.203139421141333765e-01
8.322884930210493193e-02
3.744469705362939160e-02
4.910458848620831082e-03
-4.784716315990065333e-03
-1.011747059498437420e-02
-3.845300375091031952e-02
-8.313591559885692706e-02
-9.617975128011502228e-02
-5.440649858443102199e-02
-6.829140308312906492e-03
1.320740810572319790e-02
3.092731929499143578e-02
3.839307451804722937e-02
2.661446727612370305e-02
3.887141544874026661e-02
3.209040864943065591e-02
-6.988059721378456213e-02
-1.525963433391975543e-01
-9.231420694797294602e-02
1.029002093632181911e-02
4.391767302298330011e-02
3.237354897164487766e-02
5.087690378743700212e-03
-3.092155834562255318e-02
-4.578212821450721587e-02
-1.730551604047999084e-02
3.082769259162268169e-02
6.747319151342130727e-02
1.142344141931899704e-01
1.705163711473330346e-01
1.513639197906843370e-01
3.334479542324789159e-02
-9.475581690271470126e-02
-1.743863006339513855e-01
-1.902653527057336091e-01
-1.417292977150299005e-01
-8.704353426600049126e-02
-6.693254424843793349e-02
-4.028310030005613496e-02
2.610619797820667998e-02
9.801828296054224121e-02
1.204012804051802776e-01
9.918842423025094057e-02
8.856910120670886954e-02
7.941500584646679628e-02
3.095462889124674793e-02
-9.013435734232957616e-03
6.976327437014869653e-03
1.174704814859734749e-02
-5.037402469113783088e-02
-1.261833860144396802e-01
-1.601931839080065756e-01
-1.535296398643202498e-01
-1.163193625675839893e-01
-6.384240944205846202e-02
-5.711702965729793802e-03
8.173125023991034688e-02
1.885266190425416155e-01
2.439129665236492994e-01
2.267793023388374185e-01
1.827710026062954185e-01
1.273547612566676146e-01
5.710968094575966103e-02
-2.645100006232921352e-03
-3.821725353888242444e-02
-6.853255144428666013e-02
-1.040309216038403511e-01
-1.253688797778036157e-01
-1.261609884295220030e-01
-1.334570740309134196e-01
-1.353297220369811538e-01
-9.256959547374736530e-02
-4.425871734440240540e-02
-1.713721084217724455e-02
5.675765001133781934e-02
1.225334338890627511e-01
4.056756706491657788e-02
-6.393164764439698833e-02
-9.120562784604033246e-03
7.939943000468169254e-02
7.614045229429859674e-02
5.748567882197639506e-02
3.288839286984771709e-02
-5.076449753367298645e-02
-1.399131463636496819e-01
-1.487910444222697859e-01
-6.734809179698157677e-02
3.637300689740183279e-02
9.412241486952176162e-02
1.158566666242628745e-01
1.245966821929941210e-01
9.243782481230601589e-02
2.594669350996293283e-02
-2.077473368877483934e-02
-4.626092393241153927e-02
-7.473140125977881243e-02
-8.050650300714637386e-02
-5.154246184234496236e-02
-2.264388936969000121e-02
2.690446323425404063e-03
3.680747162084904711e-02
5.280651945165864419e-02
3.885623283721674481e-02
2.021690031741938537e-02
1.495472706743613406e-02
2.633873048638123160e-02
3.739147154860198580e-02
2.172106481004066128e-02
-1.638404962396104725e-02
-4.289283768841617439e-02
-3.826067851338951775e-02
-4.205887654020384891e-02
-8.750978687686769564e-02
-1.029366260998040156e-01
-4.478262993260888336e-02
-1.370767032501961011e-02
-4.818898337187890041e-02
-2.004864485350994069e-02
1.227160988469972180e-01
2.328286073877924300e-01
1.811563414850448361e-01
3.457879463227946787e-02
-5.437527019770986569e-02
-4.190504307922112565e-02
-1.591631812012900965e-02
-4.436502349355810754e-02
-8.184766097315920863e-02
-6.201696963258938877e-02
4.923414743448793068e-03
5.493454496928865116e-02
4.824977990974033820e-02
1.150276199716287161e-02
-1.393379113498720637e-02
-2.077186428802122592e-02
-1.263140773403589358e-02
-1.528206838782859411e-04
-1.705066125766120915e-03
-1.423842415992730530e-02
-2.255680389638759636e-02
-2.287244129535927900e-02
-8.500229539334686057e-03
2.514685903929109179e-02
3.828909403803254508e-02
-1.524203391175541628e-02
-8.821694262088532190e-02
-9.334295188519359243e-02
-3.657393230001509260e-02
2.261468941393026538e-02
7.210722299395047608e-02
1.289925741094765099e-01
1.761226384990827731e-01
1.609093223561276487e-01
7.686622457886160831e-02
-1.936155998472618642e-02
-1.068514487937878982e-01
-1.891898740347178476e-01
-2.294755545750598036e-01
-2.166922514068207462e-01
-1.649752485993069284e-01
-6.256707459036225938e-02
4.179268249250764344e-02
7.227964775413975307e-02
7.301079270228111318e-02
1.085039021658268099e-01
1.347530022591228727e-01
1.180592481011544792e-01
1.040580228094328541e-01
1.052738603146279178e-01
7.690574463023835960e-02
2.426944318765872355e-02
-5.974608033520675127e-03
-3.093984901312902755e-02
-7.368574894127483121e-02
-9.224047328638498855e-02
-8.545232627932719538e-02
-8.336338367281147244e-02
-5.375946088735218675e-02
8.701146607853463624e-03
6.483108479316165851e-02
1.174829468587205022e-01
1.525632717078433120e-01
1.411015194060183109e-01
1.196351331799195838e-01
1.054346514683411618e-01
5.893212932302644563e-02
-8.820638284100526527e-03
-4.644156327401813278e-02
-5.231907593634067821e-02
-7.001758997598936385e-02
-1.252246461142211276e-01
-1.917628957416342983e-01
-2.377696733166567156e-01
-2.711449173895734699e-01
-2.944046264212137887e-01
-2.909264342912653012e-01
-2.586430261898858829e-01
-1.865305808926001063e-01
-8.739465618932176771e-02
-1.721584469999097589e-02
7.810767376028808495e-02
2.847607789133612677e-01
4.455485830867842445e-01
3.929434711346184161e-01
2.695926741289785267e-01
2.515434817694030545e-01
3.070129915391950348e-01
3.372207135998907535e-01
2.910187652956426896e-01
1.924358547389606877e-01
9.694642485718836522e-02
8.550649765099199717e-03
-9.420252283587762787e-02
-2.065969490008628950e-01
-3.061860487798431230e-01
-3.721663937125454513e-01
-3.973463098722055387e-01
-3.751530861777359060e-01
-2.959943318034006232e-01
-1.866427081082177308e-01
-9.364120990877397577e-02
-8.129973178028548908e-03
1.019787620898475466e-01
1.979125512661652764e-01
2.149631947542063326e-01
1.723142842025595645e-01
1.510348145841830525e-01
1.772048466569327574e-01
1.823102610456156514e-01
1.011202470447865737e-01
-3.076143027160966464e-02
-1.297103373476443944e-01
-1.749314090162417124e-01
-1.859605083050340502e-01
-1.421268611092666723e-01
-4.451573831209931775e-02
2.314822924302629981e-02
2.341620626500604679e-02
2.872261445816904138e-02
7.584125629498707222e-02
1.094449934287141241e-01
1.004286306416179719e-01
8.497696940828237955e-02
7.520587192915621777e-02
4.539827146308290234e-02
3.792570131333591887e-03
-2.645836996938614669e-02
-5.518305043432732149e-02
-8.563701622949732029e-02
-9.917636013051440991e-02
-8.728383461792549314e-02
-5.568147898315134459e-02
-2.465576715289712409e-02
-7.254842600750491081e-03
1.444774789928463844e-02
3.727202367691478252e-02
2.402222538043325556e-02
-1.527453134299388594e-02
-2.253295704285733503e-02
9.345757166711640695e-03
2.105255080339652266e-02
2.256378279820466133e-03
7.453084189672927115e-03
1.344813318426213780e-02
-3.461668483252329509e-02
-5.043816528523843018e-02
4.879823132647607281e-02
1.547114860730629815e-01
1.693116094821361384e-01
1.513432934032749033e-01
1.295173051558849708e-01
5.326040749489427406e-02
-6.464066604854148967e-02
-1.599011144676832363e-01
-2.104272777508439107e-01
-2.201191208507276564e-01
-1.767481474046647960e-01
-9.834970642828635978e-02
-4.154306979866267263e-02
-8.134734416234690180e-03
3.718102510875867517e-02
7.678133725567767853e-02
9.527104762053451026e-02
1.198136766846191748e-01
1.292787456177965366e-01
8.453296796371448374e-02
4.114688261056708568e-02
4.512726967380281673e-02
3.857190002041910315e-02
5.221693052851288791e-03
-2.252365488413219513e-02
-6.942501748823315388e-02
-1.182308480764226039e-01
-1.351814597597761347e-01
-1.577898421501743864e-01
-1.278767386118110916e-01
1.017624207203500671e-02
1.118578550961834006e-01
1.148361652839781089e-01
1.256902442807283360e-01
1.419837856309174307e-01
1.079082045222571618e-01
6.479752912391223418e-02
4.034551989488089491e-02
4.650868290864928339e-03
-4.219956042220886216e-02
-7.568608620485167693e-02
-9.293252283107517053e-02
-9.475866681747752152e-02
-7.663503594435928934e-02
-5.396132015301065288e-02
-4.730749869886154840e-02
-3.794907150484214814e-02
-1.781985447208381257e-03
3.494108632570916417e-02
5.068769409221030031e-02
5.718084063038661458e-02
4.392273625089171407e-02
1.412998625668986617e-02
9.339838248387858505e-03
1.969068606258037035e-02
4.823310257893504219e-03
-1.769302245569250726e-02
-3.515922691365090669e-02
-7.484070614149168632e-02
-1.059887639699461231e-01
-6.450090735716244861e-02
2.714596756083061807e-02
9.951500815831834656e-02
1.271140603622129828e-01
1.114207492834286550e-01
6.436700159884713168e-02
7.224631258089631719e-03
-4.400969251522008491e-02
-6.496647847706059353e-02
-5.578240238768657905e-02
-6.414577297009481371e-02
-8.864668251129509402e-02
-6.899975615823376873e-02
-9.564790212270621317e-03
3.671997831169472593e-02
6.745670407273203495e-02
9.241246989409562795e-02
8.960116415572687287e-02
6.005283184093529458e-02
3.379550871096407422e-02
1.769706600430911297e-02
6.740979957452902793e-05
-1.057141971501256682e-02
-5.558022052349519820e-03
-1.692518665203794626e-02
-6.306432864204812583e-02
-9.925709225753782949e-02
-1.028941628501343075e-01
-9.823238045468413171e-02
-6.941613542979749307e-02
-2.022713111557144366e-03
5.528861226879474428e-02
7.933338171966369812e-02
9.705674645144050927e-02
1.046223005887240709e-01
7.146594983357540398e-02
1.558363403832976196e-02
-3.805617162427810639e-03
8.580709187588218129e-03
-1.051488550277833098e-02
-5.178412034896801713e-02
-5.389995069692285479e-02
-2.726556858882318163e-02
-2.279600181008182430e-02
-3.821766940788812184e-02
-2.815513749746872962e-02
1.898555017475717088e-02
4.085553326712285105e-02
7.392313209500325256e-03
-2.854371130262755955e-03
2.709723792980481966e-02
4.581489247851218069e-03
-5.250449316415151113e-02
-3.613175816532124968e-02
2.992520460744307192e-02
4.120252121401766360e-02
-4.964709520181666280e-03
-3.584255002826571002e-02
-3.562400157828140429e-02
-4.337713634976841925e-02
-4.907748660977179211e-02
-1.845191073537484194e-03
8.325378289743468052e-02
1.409431962639315916e-01
1.533347461451048666e-01
1.325991087226150444e-01
7.189815820943956659e-02
-2.353267525450723069e-02
-1.233116488889890588e-01
-1.884809993532841343e-01
-1.864810905588828172e-01
-1.388742764720306555e-01
-9.795390451086530281e-02
-5.308130224553739979e-02
2.812469326323647004e-02
9.665992836944581335e-02
8.754130020984821070e-02
4.911888379346640576e-02
7.195256030942780157e-02
1.239914136831179736e-01
1.385754625415134278e-01
1.536845570204312672e-01
1.442486382569512227e-01
1.441713592995193596e-02
-1.235908020741247337e-01
-1.298442667768102965e-01
-1.224883106930095000e-01
-1.713183190571947734e-01
-1.677536564980610378e-01
-1.196017587883342753e-01
-1.001722131534126120e-01
-6.142772902181378031e-02
3.909248885644196758e-02
1.353226415963414697e-01
1.609022174523160320e-01
1.373604093383412050e-01
1.120375215036665678e-01
8.275606264783268162e-02
4.134998514246628759e-02
1.238578949402822406e-02
4.228140011641299059e-03
-1.056077669304997246e-02
-4.398638333706934855e-02
-6.159564980479560747e-02
-3.878400139018950421e-02
-1.827374236447713504e-02
-4.796024684456249437e-02
-9.194127581291564044e-02
-7.734473844517258945e-02
-5.356002305133909791e-03
5.265461988350893935e-02
4.951812370122680301e-02
7.561335970453643418e-03
-1.862078642030014566e-02
-1.941628248110478057e-03
4.018050239676004831e-02
6.393663586182354863e-02
4.361734528733825222e-02
1.053615510866270921e-02
-5.623695334991758027e-03
-3.203582412593319710e-03
4.167537522685599294e-02
8.529346918133517974e-02
3.532559265235547113e-02
-3.610366693660753412e-02
-3.375451999008735604e-02
-3.696895252593646042e-02
-7.723445491369027027e-02
-9.232511819150904242e-02
-9.971184122766255098e-02
-1.120209709338070847e-01
-1.011608727506509847e-01
-8.285923502769901305e-02
-4.292988030713335013e-02
5.336111540855037472e-02
1.472914787767049538e-01
1.736147825578343573e-01
1.587631246834686205e-01
1.282777724781611894e-01
6.751479189127458647e-02
2.247406885414746265e-03
-1.512212117790101389e-02
-3.620689147756681742e-03
-2.688789224923986143e-02
-7.895828071801881676e-02
-9.700223054229574482e-02
-6.080720866209365916e-02
-1.122497980548283099e-02
1.551433246119210754e-02
2.142678502347771310e-02
1.173362937450364747e-02
-1.022826276793250069e-02
-3.399190152358199518e-02
-4.781148758235718305e-02
-1.988478887252561125e-02
4.432980764797501277e-02
7.064586477723173996e-02
4.540875511820759158e-02
3.129876740321108769e-02
3.544309651470941430e-02
8.569990357431686231e-03
-5.320539212616502700e-02
-9.159632313176614693e-02
-8.971460224633266700e-02
-1.050997975041149668e-01
-1.305812509196056515e-01
-7.815480419136555668e-02
4.335194502422654028e-02
1.194099912531233904e-01
1.089727648960484158e-01
9.146709675135628048e-02
1.152672024383139399e-01
1.090907451538333101e-01
4.210671705237853391e-02
1.117976397251750804e-02
3.542079961158577095e-02
1.609951528230679774e-02
-4.694900257149622891e-02
-7.946622742597853062e-02
-9.235458366050280921e-02
-1.088691628987265986e-01
-9.134509456624811952e-02
-6.193197667446752493e-03
1.371491811169753272e-01
2.193846780122941653e-01
1.148055067215809077e-01
-3.235240975569843302e-02
-3.421784929108800943e-02
-1.437487742754836942e-02
-9.830617393827627282e-02
-1.903037912004881260e-01
-2.243835506181503237e-01
-1.907118462068589093e-01
-9.290719519740740784e-02
-3.286658764701079483e-02
-2.203948414495861957e-03
1.422686242703662396e-01
2.797909555960917394e-01
2.129224014447116953e-01
1.026010863812089058e-01
1.069611905372144650e-01
1.145140101982486391e-01
8.347831619165653472e-02
6.296462794377470640e-02
1.960073595417550357e-02
-5.082213095838967326e-02
-1.052704779473888630e-01
-1.382387485365580704e-01
-1.358485113911194198e-01
-9.626210192783192510e-02
-6.876307468104490839e-02
-5.158531613553400674e-02
2.183635575540758024e-03
5.943927988372856019e-02
6.265145945390293569e-02
3.995041607643440296e-02
2.274135365471665476e-02
-3.452556320874657775e-02
-1.436379385591332603e-01
-2.225090845864007016e-01
-2.292167911430640359e-01
-2.054510514371558072e-01
-1.782472327174314253e-01
-1.365380873457977817e-01
-5.080570715473965021e-02
8.090531538212009099e-02
1.945824665810456378e-01
2.634782667537684531e-01
3.318133731279818144e-01
3.864917741702860177e-01
3.829379313807947383e-01
3.394130076776454286e-01
2.610480754276168214e-01
1.378228532548699259e-01
2.548129912219169318e-02
-5.323308055614642265e-02
-1.507261310473705096e-01
-2.518220181622157217e-01
-3.007540354462233112e-01
-3.197820213030519443e-01
-3.147121392084349933e-01
-2.326327140266774285e-01
-1.060772485743815968e-01
-1.858536965652112655e-02
3.623642497975154003e-02
8.051888532241405216e-02
8.645230655890095983e-02
5.993284340151112249e-02
3.314130022295637412e-02
1.855612449141447531e-02
2.090938782358319967e-02
1.734788610644869694e-02
-5.202513053058181736e-04
1.422713765843806530e-02
5.234942384804122661e-02
4.620486648177787870e-02
1.345683416347232160e-02
5.445734469593316307e-03
-9.043171077490960719e-06
-1.310746897074423212e-02
5.190963210953969398e-04
3.833830996764243937e-02
6.289671055181667025e-02
4.522389282633348939e-02
3.244594421308246053e-03
-2.738675209004036437e-02
-9.880372807227148779e-02
-2.213584611819788550e-01
-2.132567113639179945e-01
-2.480562985773048651e-02
1.090013724485660584e-01
9.475298314594343685e-02
7.548583123983020060e-02
1.065724532967186888e-01
1.378360865356362541e-01
1.453361277797513562e-01
1.164202223343229203e-01
4.845326019656145955e-02
-2.989605099268949698e-02
-8.162155644785891451e-02
-9.430450904188146521e-02
-8.965561859058022998e-02
-8.488417424674475631e-02
-7.866942837251145182e-02
-8.047071398707937584e-02
-7.189569263329467774e-02
-1.550751425379183132e-02
4.132510057404036735e-02
4.380031403038068399e-02
4.550814684619522432e-02
7.087382498434037503e-02
6.235675675732134382e-02
2.710582928417937243e-02
9.137819074356401394e-03
-2.219436457064705506e-04
7.803628264099670905e-04
1.329546497492883374e-02
-1.906038149657034164e-02
-9.356454596740106100e-02
-1.057809416954280102e-01
-3.931495375103841866e-02
1.818676747875250937e-02
6.653881652933157920e-02
1.363551850465679338e-01
1.584333758007854809e-01
1.033802946613693874e-01
2.926715974804084547e-02
-6.066805470996447514e-02
-1.662173945338511483e-01
-2.063398012295303841e-01
-1.518922082381139460e-01
-8.117450613950331906e-02
-5.617297208449446855e-02
-5.960994386804891604e-02
-2.332532077577666174e-02
9.490966704348119398e-02
2.165212644499565353e-01
2.288215693740587864e-01
1.583437215096692718e-01
8.767871089994826173e-02
1.920446957169971020e-02
-3.541033971831601679e-02
-3.490543769125592499e-02
-1.884394764598118846e-02
-5.256988624131405524e-02
-1.225070595631208570e-01
-1.752592031863992317e-01
-1.753525339033604191e-01
-1.165542826286950079e-01
-3.070633414700089936e-02
4.135802041056310663e-02
1.058089311577155855e-01
1.703119835899405965e-01
1.795765279783578250e-01
1.205440179461567118e-01
7.698038169819826360e-02
7.638156926025518878e-02
5.380739754011612530e-02
-4.716888354381821441e-03
-5.491211678289130427e-02
-9.621528012409238939e-02
-1.397153429925203916e-01
-1.425792377331231153e-01
-8.975224732847622566e-02
-5.199966410738719041e-02
-6.234717320449880557e-02
-5.255411514806127005e-02
-5.474872767743869766e-03
8.376593748461957228e-03
1.207476254856463746e-02
6.836256972742449367e-02
9.589072193353850859e-02
7.308756801524893265e-02
1.243513926467426367e-01
1.793728705048354688e-01
8.831471431567711194e-02
-3.185609198213257276e-02
-6.687250614526443759e-02
-9.798946090323380764e-02
-1.389589962523151145e-01
-1.173703582931167333e-01
-4.301283284132594031e-02
3.066225789333405782e-02
8.355178541273580728e-02
1.058320967544413432e-01
8.281943619864920447e-02
2.627577724567439071e-02
-2.933408132163437335e-02
-6.915650336600585868e-02
-9.242056387994300459e-02
-9.728166149031000631e-02
-8.786294594381598155e-02
-5.693952350788821642e-02
-8.183379421259448505e-03
2.542557389072169771e-02
4.489865764894854228e-02
7.130041452934129942e-02
7.507502491202919237e-02
3.226932065947669959e-02
-1.300110626184590272e-02
-2.140362329255811324e-02
-3.213002850594058601e-02
-7.984825498730138693e-02
-6.885679470610714392e-02
6.815876668352684187e-02
1.520980206048245797e-01
2.990478366618147879e-02
-1.406955914465323199e-01
-1.400773356214952414e-01
2.672047639794400062e-02
1.550281860424507774e-01
1.096414957305365534e-01
-1.054036139549550249e-04
-4.261636941377207333e-02
-1.334307553891572046e-02
6.560929411165884739e-02
1.493424286804777290e-01
1.796392441008727581e-01
1.457456936795742952e-01
7.773382713673741840e-02
1.563342370176648566e-02
-3.611417585780139772e-02
-9.204038440796258325e-02
-1.284180483009168261e-01
-1.336771175242450482e-01
-1.412599889245169382e-01
-1.486010956548876327e-01
-1.261798808091504631e-01
-1.071867975941941387e-01
-1.200631529399030645e-01
-1.004581725763027122e-01
-2.003592088495875084e-02
3.486510726142305616e-02
2.747975612645241900e-02
3.170521425825946482e-02
7.847882034631423198e-02
1.211270747197163988e-01
1.411494915872008038e-01
1.426653870505111832e-01
9.845329420166118450e-02
1.209352257850192063e-02
-3.602003167945089235e-02
2.851832369375910392e-03
5.504750080717994015e-02
5.502028086987006267e-02
7.169155167337394607e-02
1.094676875626701129e-01
1.655383994909299245e-02
-1.305155740221741190e-01
-7.432790511100728637e-02
7.061241035775663033e-03
-1.919328425605575650e-01
-3.789256072566722366e-01
-2.257106401452922961e-01
2.239531833117064732e-02
1.165806993487223941e-01
1.367886154104942520e-01
1.607875797457040123e-01
1.635034553486829634e-01
1.156903405502200666e-01
3.627203310918225565e-02
-1.291765065157297714e-02
-1.649243856531169491e-02
-6.438308537139434719e-03
-7.142430324769272199e-04
-1.657053382321345414e-02
-5.209753383343401073e-02
-7.834660956173034041e-02
-8.706257838135815497e-02
-6.929054616138866085e-02
-1.438839083612098932e-02
4.266044998133921434e-02
5.718346941186683990e-02
2.394772403576365255e-02
-1.229875015249796283e-02
1.280074729129713172e-02
7.602849570790251588e-02
7.959844814016855952e-02
2.762614709134734309e-02
4.877821073306827689e-03
8.455760450209667822e-04
-2.789362136675680587e-02
-4.589303358962423807e-02
-4.113324964768441672e-02
-4.462327857383258795e-02
-3.388549643291054181e-02
9.361367263370267214e-04
2.586803868764109629e-04
-4.280453909796206463e-02
-5.808390497950451092e-02
-3.061045500840126055e-02
1.056179439795031962e-04
3.217470616932582850e-02
5.595624232527180580e-02
3.540814648819184951e-02
8.646420080357047552e-03
2.858247679629234705e-02
3.949390192458657883e-02
-1.044778084186823164e-02
-6.501953668785227791e-02
-6.506416887490187873e-02
-1.733798386283777471e-02
4.427202145166236891e-02
9.198061249100566994e-02
1.187040137996681621e-01
1.233561538235600497e-01
9.461432347152719247e-02
3.620196493967318963e-02
-2.640253770440882664e-02
-8.566625993059417965e-02
-1.434845073253634973e-01
-1.666731974104828928e-01
-1.348201980120124488e-01
-7.908333743172682451e-02
-2.079268852995456648e-02
2.593941930324393172e-02
6.383508061446510617e-02
1.437493658917710082e-01
1.904653741875421136e-01
6.886924004980862768e-02
-5.600628766373736550e-02
1.122646194238190523e-02
8.744870645444674517e-02
2.034633365832749091e-02
-4.590713098314691543e-02
-3.693255705874933653e-02
-2.766292024609669914e-02
-5.047821442884036641e-02
-8.902131831077987612e-02
-9.321024831681616607e-02
-4.629075049296445254e-02
-4.241115356592848468e-02
-6.515488894260557107e-02
5.452869905859583644e-02
2.277696374308119664e-01
2.138982039718008432e-01
1.119644165047418150e-01
8.412688044080758598e-02
6.713664079995523490e-03
-1.561931942277612340e-01
-2.588632708502675017e-01
-3.058429216458898869e-01
-3.560522909978114936e-01
-3.420543947961464659e-01
-2.415746918595109149e-01
-1.272620226116005782e-01
-2.207151061627946054e-02
9.555024899028820295e-02
2.117197351947654460e-01
3.007940579197065922e-01
3.638561138833219522e-01
3.937427478861190155e-01
3.751168036534155426e-01
3.283548756364364496e-01
2.726152080165309410e-01
1.921793332907097140e-01
8.447407864250054688e-02
-3.756426062466947102e-02
-1.744646091084070538e-01
-2.862937922175236016e-01
-2.928630794624328404e-01
-2.084551403714731133e-01
-1.430136204700626357e-01
-1.254910549923337615e-01
-8.541013787916799938e-02
-6.183982822145252245e-03
5.305328064336137933e-02
5.445584936267371112e-02
2.604465397460221238e-03
-7.524256362565005796e-02
-1.304275389472790980e-01
-1.321689810403013920e-01
-9.577051859513044385e-02
-4.065187888735752320e-02
1.853309899940238509e-02
