-1.233270791445827130e-04
1.441555946008847566e-02
4.799284421642054793e-02
5.674576121486828856e-02
-7.382264260139531631e-02
-1.919489831380445655e-01
-1.078482937098783206e-01
9.809442429125082505e-03
-1.213028924022438448e-02
-6.466433728534745629e-02
-5.817912196393607710e-02
-3.596290528052104030e-02
-1.488413128216623145e-02
2.321854165221052049e-02
5.292105633843653678e-02
3.407181257598321245e-02
-6.894909631591644716e-04
4.105975243321122355e-03
2.968559620860174511e-02
4.672028985409845681e-02
6.627641532983856443e-02
7.660587767876406162e-02
5.288914460426484554e-02
1.370099546784185607e-02
-1.330404912872121259e-02
-3.387187730671777086e-02
-4.614899418469743664e-02
-2.570161772176641352e-02
1.368151113794302369e-02
2.486536485604636665e-02
-1.216161187871632205e-04
-2.267173835501522586e-02
-7.522656902920253283e-03
4.196911691726266935e-02
8.882364561431155270e-02
9.582489908757846342e-02
5.779879810374548288e-02
2.656368612002957090e-03
-4.804029231772674602e-02
-8.748968224825562356e-02
-9.790425856518575332e-02
-7.856548601224580541e-02
-6.035978853813681044e-02
-5.818806418328531516e-02
-5.717691524478613063e-02
-3.332390220766925232e-02
1.208886379917581931e-02
3.460956834784613412e-02
3.024901687460367430e-02
5.873414761977550219e-02
9.649034224254800229e-02
6.335508788349006326e-02
1.576241070750997175e-02
3.151096797210808931e-02
2.801500196291478034e-02
-4.077239820934886599e-02
-7.221071706189804984e-02
-3.236806492117953737e-02
1.067000477305152413e-02
3.029788780998817627e-02
2.332338454998991728e-02
-4.509133895358924393e-03
-7.644829691475363634e-03
1.198578643964651885e-02
-4.310775235304703870e-03
-4.807017822764948767e-02
-6.870402374280847047e-02
-7.813556202349357382e-02
-9.072300875757274841e-02
-6.288256510777646968e-02
2.156246349896299638e-02
1.003294107201086055e-01
1.023455644670110687e-01
5.036142444882196756e-02
3.792845241529685385e-02
7.287893337075627975e-02
7.802182099102417112e-02
4.248859734934459786e-02
1.107215972604383078e-02
-9.602215647856956332e-03
-3.197963631412371888e-02
-5.665224059130287426e-02
-8.091519558164217418e-02
-9.233964477361125689e-02
-7.588329369346728803e-02
-3.232330982527281682e-02
1.608600811788388207e-02
4.216169336272945073e-02
5.411889234491423784e-02
7.041662003841005213e-02
6.919049287814872662e-02
4.340857916147479456e-02
2.325699165613553249e-02
3.536811908656864976e-03
-4.504456805013532655e-02
-1.204070297132303763e-01
-1.855348545578705544e-01
-1.840973753022235593e-01
-1.046887666763120783e-01
-1.112066334520852434e-02
4.446304545652698947e-02
7.853858306346299389e-02
1.213677531006250032e-01
1.366468258065112740e-01
7.654834974272067827e-02
2.572163520099945283e-02
7.882579694946351134e-02
1.532530087396645757e-01
1.646650255117266537e-01
1.334766937367892481e-01
5.928913666025313611e-02
-3.131496620231042499e-02
-7.046963650486494368e-02
-8.372146580694489471e-02
-1.174361231838220998e-01
-1.100588155401890644e-01
-6.588242478120527601e-02
-1.121399007023756861e-01
-1.700174458117316989e-01
-5.179644727537519727e-02
1.114050983417102653e-01
1.171164422222415041e-01
5.102538352446045478e-02
3.399908656147461461e-02
3.031938154854770667e-02
-4.060918849314169507e-03
-4.986284427653567275e-02
-8.468531244773755406e-02
-1.078753151253862008e-01
-1.119369731878799429e-01
-9.790619072553100044e-02
-9.927050779838474115e-02
-1.142486080994522396e-01
-9.150618818689948419e-02
-3.392975633993580015e-02
1.186249845663204724e-02
5.674944949863361399e-02
1.164526496981857090e-01
1.492917844642200620e-01
1.518019037964298545e-01
1.681828988013925330e-01
1.911900777868107693e-01
1.873085747910157306e-01
1.569086951233274740e-01
1.227587188023738646e-01
1.073561378963517332e-01
9.356384180551466367e-02
4.716551133449203848e-02
-8.821337817320057395e-03
-5.524083115807387756e-02
-1.374828161727201792e-01
-2.481585167972260864e-01
-3.036607837119872921e-01
-2.860202334984136008e-01
-2.365337576172539258e-01
-1.686623619814093533e-01
-9.392769609268045161e-02
-2.343131246183863953e-02
3.821430011005518684e-02
6.885327959267656395e-02
8.172545970712723207e-02
1.086712321116897473e-01
1.300015708309829043e-01
1.332470115024765867e-01
1.229668754646606188e-01
7.478629001922887376e-02
1.001165513869695621e-02
-7.907007587456396647e-03
8.157807096678407893e-03
5.308076939652349099e-03
-3.397500092445259259e-03
1.582744890885307010e-02
3.613490195758955331e-02
2.054785641300922727e-02
-9.232898417240341035e-04
6.570371679014790772e-03
1.036107209187194823e-02
-1.240072579585550436e-02
-3.108974783539703718e-02
-4.287299227705508586e-02
-6.633762895663479486e-02
-7.297270718324055938e-02
-4.486665638566660758e-02
-2.347769440228845289e-02
-2.430109074971415623e-02
-1.273749233864536305e-02
-5.748791670566737178e-03
-4.861394423941819976e-02
-5.298775806100942953e-02
7.947636390649244487e-02
1.870477979160112825e-01
1.075918768019727412e-01
3.230383810538944855e-04
6.934923893009724283e-03
1.846418820868288291e-02
-2.067332319249714709e-02
-3.733787044226252738e-02
-2.621612436046641056e-02
-1.294678047790993880e-02
1.664177988243187301e-02
3.041441918338918041e-02
4.561584609779792236e-03
9.223575752183976045e-03
5.608276837288748984e-02
6.407419556482818468e-02
2.495828726303364609e-02
-2.725567438855438715e-02
-9.378851901852333639e-02
-1.435186317574935755e-01
-1.385203438012110322e-01
-1.005480240162949096e-01
-5.456599226320914958e-02
-1.623543937860936343e-03
4.154320972515609944e-02
5.718486267353083130e-02
5.284372721942438844e-02
4.966618051828005503e-02
5.587460318203008036e-02
4.208582576605420650e-02
-4.376850843657785831e-03
-2.922558014903085463e-02
-1.646405191659889439e-02
-2.740766688494529132e-02
-6.333301047665448880e-02
-6.114226913392692420e-02
-8.619951991992719567e-03
6.709970487063973699e-02
1.170542649660229334e-01
8.672530714440816746e-02
5.172531581972027170e-02
1.069462726390313645e-01
1.099252517072549229e-01
-4.109713281450874667e-02
-1.392950709656740338e-01
-7.565376416550709249e-02
-1.648822153208501923e-02
-2.641656076137355313e-02
-7.920471895723407013e-03
3.943934534902607258e-02
3.030263198098197275e-02
-2.188537646303297807e-02
-3.203110257743004702e-02
1.425401441578462783e-04
1.674640285252095712e-02
1.715111916799559252e-02
1.656068792493231231e-02
-3.891195179065528968e-03
-3.237897412326695007e-02
-3.093773579639566562e-02
-7.179717194808874284e-03
-1.801002365587264786e-03
-2.231364575904561803e-02
-2.309244906208782547e-02
1.317176364827856577e-02
1.989981579666255315e-02
-2.836785870096183645e-02
-4.556509523172315446e-02
5.861540386235934881e-03
5.717252272883223407e-02
7.889420779495157077e-02
9.540887533210584692e-02
9.045510091185587909e-02
3.895827435555034024e-02
-3.830334016448002504e-02
-1.130005046722890316e-01
-1.702513994598140179e-01
-1.870153018064184824e-01
-1.494165444472896898e-01
-7.078619334284219633e-02
1.268324423494436755e-02
4.955559394914438309e-02
3.678209977212430759e-02
3.359977984260100609e-02
6.575029256407008416e-02
1.034147884361885372e-01
1.076946992590449570e-01
7.068288160365733541e-02
4.090456998680373074e-02
3.999443083048057068e-02
2.904761216618032688e-02
-2.544492009170010866e-03
-4.936627667946238973e-02
-6.434517260067872113e-02
3.746650592804814939e-02
1.439462162178302695e-01
7.547847801740593943e-02
-4.775924746994652387e-02
-5.604622034898239236e-02
-2.362029297407918643e-02
-2.208022913489031749e-02
-1.999425429553774655e-02
-2.520784347386254010e-02
-4.297649646402535578e-02
-4.409404021988541644e-02
-3.419307240044112961e-02
-2.149625883800892687e-02
5.927727462645505062e-03
3.802993529218893359e-02
6.077971725473514664e-02
6.624900816165776862e-02
4.732319391528357067e-02
1.672348830315534968e-02
-2.004799507964130298e-02
-5.904783275294489542e-02
-7.278692709767581315e-02
-7.650756039263113817e-02
-1.097061260199292954e-01
-1.316014410743353846e-01
-9.118411695661471361e-02
-3.100760041459443145e-02
5.712477450596914474e-03
5.641967726473873235e-02
1.434661966660497334e-01
2.078690928599705445e-01
2.054183530146559689e-01
1.673884681362127480e-01
1.251197477258352841e-01
7.621787106106042708e-02
9.608838348436548465e-03
-8.790931192016551710e-02
-1.941183349445969597e-01
-2.700911795040280561e-01
-3.388643946126981277e-01
-4.044498247385454048e-01
-3.358542979511413007e-01
-7.118366685044125175e-02
1.654576661060621900e-01
1.874726042409170512e-01
1.488533559226351832e-01
2.058634573327697004e-01
2.728959441980582934e-01
2.719227623755913203e-01
2.396238661157321648e-01
2.023177217712954501e-01
1.560045155228875768e-01
9.195826911939837534e-02
8.615788860643965041e-03
-6.226648633492021939e-02
-9.869926692578089023e-02
-1.123307995964162309e-01
-1.066262451975911185e-01
-1.127760995931983701e-01
-1.484547846020915496e-01
-1.319251514541092407e-01
-8.121444344861612763e-02
-1.301900877127525613e-01
-1.842063222599374661e-01
-8.572357073304527619e-02
3.321202605872536351e-02
3.818037090212383911e-02
7.583175236342692971e-03
2.481743407917725436e-03
7.376831806611128944e-03
1.901044035680987329e-02
2.429535315577743132e-02
1.405625691281751216e-02
2.515888957721070310e-02
6.234157533451961664e-02
6.707617558540406033e-02
4.304719392084730561e-02
5.121275704310512822e-02
7.447472243135208614e-02
6.323115079283425644e-02
4.026283583192346444e-02
3.439923826925499889e-02
1.538089189959555327e-02
-2.785613400951101118e-02
-4.612880935281529760e-02
-2.562596831192662239e-02
-7.935488984571432286e-03
7.216367600433725750e-03
3.735965589243674806e-02
4.567445190530339955e-02
1.975250746634803559e-02
5.481956874072503247e-03
-3.374043795877883743e-03
-5.725818747714221668e-02
-1.298125352672575838e-01
-1.490567030246542912e-01
-1.095080869044366828e-01
-5.871404436616975420e-02
-1.781826642973650607e-02
2.890870824845854017e-02
8.036243461608366667e-02
1.018414918455108342e-01
7.444042870453609906e-02
3.197875679891624967e-02
1.965537549738309575e-02
2.605650381626980344e-02
1.735994772874419403e-02
-3.142576565522322337e-03
-3.991650349760379746e-02
-8.858091815163024463e-02
-7.574040183343226651e-02
1.784192444891102153e-02
9.144633119152024980e-02
9.391984698956540312e-02
7.285533135382815662e-02
4.765787160998814082e-02
4.095504065913063013e-03
-3.060485852917584765e-02
-2.313965998729662632e-02
5.508812429952988227e-04
6.644021356536234518e-04
-1.517911979356374383e-02
-2.605473399286359348e-02
-3.205463798850818891e-02
-4.008817876498634025e-02
-5.391597317340512951e-02
-5.422096122256341716e-02
-1.906032984332373462e-02
1.138088203025645201e-02
-6.643184987205985256e-03
-2.863385144908233218e-02
-1.815585252869421698e-02
-1.515015501640442665e-02
-1.801119635574725125e-02
-2.342701770266214078e-03
-1.755057418331160829e-02
-3.186416920459780866e-02
5.514084119222712604e-02
1.328486108396926824e-01
6.944060905811576256e-02
1.184600667552366746e-03
2.108853957724475189e-02
3.078863902799174046e-02
1.977695712289912963e-02
3.534214638336724557e-02
4.474114920009436558e-02
4.665606746626745766e-02
6.629692761754514552e-02
6.267644527525324805e-02
7.948614789979015910e-03
-5.379345856175728191e-02
-8.705892181079412373e-02
-1.365565457316320064e-01
-2.269823050553494426e-01
-2.283914675766328672e-01
-6.938782929940215394e-02
7.513486027655283395e-02
8.749275916054249924e-02
5.785807384286790339e-02
4.554689667814049159e-02
3.664736882554674169e-02
4.287623441538156166e-02
5.777948447918862529e-02
3.990413578939031036e-02
-3.116531256345106242e-03
-1.976690688749212221e-02
-1.366344202816291778e-02
-1.214305354098278202e-02
1.455977462325933058e-02
6.997477543788062360e-02
9.231613602675400876e-02
6.102740446238245908e-02
4.769367112504111980e-03
-4.139910752221587220e-02
-3.159877909007503816e-02
1.858367808879188982e-02
1.980917368045133006e-02
-4.192121407000236333e-02
-8.274527670228283560e-02
-6.871270386646788353e-02
-4.256617153833523737e-02
-2.442851280051525076e-02
8.668293662048305592e-03
6.005838160727901970e-02
8.855431437094679614e-02
6.306025205306858838e-02
1.149771696905643910e-02
-1.234234342649427607e-02
-3.453984015870389425e-03
-2.416659361302810755e-02
-9.419240085958989483e-02
-1.324194612791564085e-01
-1.224667708526752941e-01
-1.459038587655821784e-01
-1.457472711500390483e-01
-4.029381929202007937e-04
1.609839878336593588e-01
1.713207388744048543e-01
1.525115458182353112e-01
2.198892395564794877e-01
2.668191205743185579e-01
2.289104905246585886e-01
1.552603923365006022e-01
7.599386953743356155e-02
2.112370240678465572e-03
-8.458175700882991643e-02
-2.099566955166417004e-01
-3.241593749469223740e-01
-3.784375521267484554e-01
-3.871395042970868783e-01
-3.418100957797767236e-01
-2.310559131993512039e-01
-9.352848527553421498e-02
4.057900021921875128e-02
1.548594884913063741e-01
2.195443527701520514e-01
2.375155738959950913e-01
2.474420970635899386e-01
2.618015115826467509e-01
2.511103566369256024e-01
1.880055525691964047e-01
1.006704018116308108e-01
4.873910615133428270e-02
3.761191154988930557e-02
2.250931640481902696e-02
-2.308209508387214920e-02
-8.038444340512182484e-02
-1.022780629539783992e-01
-8.612093745154603130e-02
-9.015514967601689911e-02
-1.213143261550365809e-01
-1.268614987482567513e-01
-1.114471755257971097e-01
-1.100816691421641902e-01
-1.011471323406243211e-01
-5.681493695103310287e-02
-8.802299590551877773e-03
-1.361298042448901013e-02
-3.184482890641109065e-02
4.478923263097540908e-02
1.444240832686785048e-01
1.054463451205298191e-01
7.462688960412761779e-03
2.335680830755528306e-03
4.447613374388652285e-02
5.306152119247586896e-02
4.357770746041358945e-02
4.024368419503843858e-02
3.681223618043428375e-02
2.609680898122145390e-02
1.287727077238695964e-02
-1.825087044995373289e-03
-1.836326181141759856e-02
-1.799551108576955341e-02
8.045812644348900033e-03
3.559889796183436650e-02
4.454488355243930997e-02
4.610538408233585267e-02
5.788227546284498842e-02
5.672143085010533659e-02
8.343374880223087750e-03
-6.831612589331126362e-02
-1.374005070972340037e-01
-1.795012079906209146e-01
-1.784969531664052922e-01
-1.387423794606862382e-01
-7.126781436342531639e-02
7.280370319803396856e-03
5.398093994472631663e-02
6.014030638683231372e-02
5.906877078687357285e-02
4.650783767335493757e-02
1.538988887626309768e-02
1.219602274022785725e-02
4.715682322495741430e-02
6.186226037139970491e-02
4.265906431502076990e-02
3.154627999941671257e-02
2.968122115361586030e-02
1.100071246656123339e-02
-1.374460093120440617e-02
-1.748130155364781627e-02
2.108186742755959603e-02
9.326625400090915452e-02
1.133268191712861889e-01
4.349926436775163052e-02
6.579860411733668736e-03
2.539886514637414161e-02
-5.079043971788708978e-02
-1.627675402631013346e-01
-1.435658295287154940e-01
-9.585018066014991400e-02
-1.054407380555532070e-01
-6.189582140645736447e-02
1.528734815468253856e-02
3.561875316867865737e-02
4.619738662109250382e-02
7.691553172704329588e-02
8.287911214964339968e-02
5.894542807863229622e-02
2.892696838264037854e-02
2.270776926905439946e-03
-1.262949398889224792e-03
3.644962478952957358e-02
3.096307933028103615e-02
-1.031292676712581291e-01
-1.982503493841798470e-01
-9.153803785015812711e-02
4.154504136622939880e-02
5.297694498110240569e-02
5.063773043445734395e-02
8.775019697436448052e-02
1.139147571839138062e-01
1.325782426077925791e-01
1.444914410823522344e-01
1.025892223687882437e-01
7.524406425984182800e-03
-7.591905084534074366e-02
-1.180605690925007611e-01
-1.480749253447890268e-01
-1.887893625303500300e-01
-2.094577956417100206e-01
-1.588533875067807688e-01
-7.179239301190193379e-02
-2.977077683625379417e-02
3.252857419602340344e-03
9.443047261722835317e-02
1.760484303008260087e-01
1.793189255919859504e-01
1.484103895181296817e-01
1.217775298207256357e-01
8.629411552365552629e-02
3.924297185483826417e-02
-2.138386536217663086e-03
-3.005270469870178693e-02
-5.215625673396646900e-02
-7.667751117211954459e-02
-1.010626311931352855e-01
-9.105731176158275708e-02
-3.110266216769726200e-02
1.437880881744278520e-02
1.503072894773783627e-02
1.651882117031094888e-02
1.428272412696599339e-02
-9.397327423812940062e-03
-2.852320812688177026e-02
-5.173961353699137872e-02
-7.272443478042436849e-02
-4.213147497627073995e-02
7.632196895315267182e-03
1.861673451454320255e-02
3.015072924698086396e-02
6.584761532808880435e-02
6.705526973687681025e-02
3.210595662816977114e-02
2.892631178959127747e-02
4.910794738735005383e-02
3.360617293619120455e-02
-4.255740504168844737e-03
-3.603062723710516446e-02
-7.383505198944569081e-02
-9.892331432716663930e-02
-8.199253937874864673e-02
-3.816708134859193857e-02
1.746612419298354535e-02
7.432596547180375657e-02
9.053237453049348127e-02
5.717303704949606297e-02
4.512301258293937439e-02
7.863180515921468217e-02
7.711671137863518322e-02
4.230879952982821712e-02
8.105504546238616326e-02
1.243285222847764215e-01
2.811897608933808593e-03
-1.599247044745705226e-01
-1.574599709225718014e-01
-1.047278324736103383e-01
-1.310602323330565810e-01
-1.231720837508225169e-01
-2.826916687670947073e-02
5.430693957440217018e-02
7.541398344219515937e-02
5.447213048376165628e-02
1.343435807893829381e-02
-1.324634295982898662e-02
-2.115922865044444004e-02
-4.684698031189413192e-02
-6.267294754261283629e-02
-3.987661608294311433e-02
-5.893800936407309760e-02
-9.245444534771272982e-02
1.771286520138172504e-02
1.728792051794566242e-01
1.500800840140710246e-01
5.298636318219340086e-02
6.481428530695339252e-02
1.008556257490776514e-01
6.103145793086404980e-02
8.005727088424178378e-03
-1.285955456028677057e-02
-3.018131267284519456e-02
-5.657280708953781739e-02
-8.894546323191665493e-02
-1.256558745960320023e-01
-1.474952360424632292e-01
-1.392948619450834480e-01
-1.177897250720364025e-01
-9.950301916140140424e-02
-5.718810697710574598e-02
3.352684533205614603e-02
1.292654537841794737e-01
1.791210016775672820e-01
1.891942450717735702e-01
1.871327991649916755e-01
1.884738295257630536e-01
1.761727053457743664e-01
1.203702071918382743e-01
4.055976377547791667e-02
-2.773776391795108875e-02
-7.915729668488695470e-02
-1.056477832513210147e-01
-1.068992005749654223e-01
-1.008457147910786639e-01
-9.095711959921903844e-02
-7.968551496324392802e-02
-7.080247461008024046e-02
-4.212651182076887491e-02
1.748655293150990289e-02
5.985301629591756323e-02
3.282272414660203363e-02
-3.192107063348727930e-02
-7.557043318034867285e-02
-1.155269804232495340e-01
-1.619506074421786512e-01
-1.415514254520827686e-01
-4.408303457288700877e-02
3.376257273984686891e-02
6.204571980714916613e-02
8.767476716991651209e-02
1.052641718776993751e-01
8.985243405783316373e-02
6.825346367881242327e-02
7.072916209888301109e-02
8.382558492249894688e-02
7.580840578516670480e-02
4.526894860579531304e-02
2.229186440846232103e-02
1.517260048733505041e-02
2.996387658773301196e-03
-1.294012211557737241e-02
2.760928132362241993e-03
6.075827656101570606e-02
6.954677393462328772e-02
-5.258999247181836423e-02
-1.606755757881360991e-01
-9.841935484206637552e-02
-3.066348719165678388e-03
-1.695769856904818379e-02
-5.400007174314310626e-02
-5.226629066619032510e-02
-5.979643514846948865e-02
-7.952603688910865609e-02
-6.770291239530974725e-02
-2.287330226008180145e-02
1.582049249799459892e-02
2.953291517368317881e-02
3.118128687309244459e-02
3.773178574000568553e-02
6.433714323741314411e-02
9.776178115129183221e-02
8.999231322971315561e-02
4.069448162864493929e-02
8.021952924088821685e-03
4.306922938272377682e-03
-6.669665203549080337e-03
-2.260747336831005552e-02
-1.853870246614962303e-02
-6.438988783667845550e-03
-3.026296033058591822e-03
8.310406908682135829e-03
3.841424026597375918e-02
6.792976012057494462e-02
8.089296703277182310e-02
7.534762733114214184e-02
4.861079314047970362e-02
9.895518952743565314e-03
-3.601754513666696744e-02
-1.156043066483988108e-01
-2.081717670778952256e-01
-2.208762776435992947e-01
-1.424598263221459327e-01
-6.646382434590773769e-02
-2.919206791694300973e-02
1.820093081368007876e-03
3.352334510579204480e-02
5.307624623375915840e-02
5.604424165679805503e-02
4.652277284967849119e-02
4.092709042511756545e-02
5.841259717695423959e-02
9.353391523993231926e-02
1.025643220005987150e-01
6.138808645037951289e-02
2.216432948957866925e-02
3.280768140320962367e-02
5.738262838372477914e-02
5.414132472547158320e-02
3.374458784650142401e-02
8.240816295869155331e-03
-1.524907576386121469e-02
-2.589296094712422933e-02
-3.737264325885200633e-02
-6.224015764522672356e-02
-9.517957620679393105e-02
-1.343883220394769540e-01
-1.554352583842511515e-01
-1.215118461185661358e-01
-4.950859748134861515e-02
1.942829571087041629e-02
7.663624142401664896e-02
1.110461077981238082e-01
1.159788425829493680e-01
1.249075146193893704e-01
1.231148223889372006e-01
3.669716734090280180e-02
-4.555507971082729812e-02
4.984608872346189129e-02
1.370104783507565538e-01
-5.226840159075027414e-02
-2.494008458136388051e-01
-1.640885435646051715e-01
-3.299878126643165238e-02
-3.726724700146681613e-02
-4.113018088648461024e-02
4.315357843889815366e-04
3.353987172646458875e-02
5.486459425879340601e-02
5.529986863909888695e-02
4.590518164855933447e-02
5.818249965595297807e-02
6.490741748985937032e-02
3.602007019162083157e-02
-5.740126543408550705e-03
-4.937996920306112619e-02
-1.061428490170454320e-01
-1.540751449224498915e-01
-1.453549539275235114e-01
-7.315441032414113365e-02
1.545922316705798660e-03
3.510162054324431069e-02
6.658660950758758801e-02
1.122726936992149704e-01
1.122765350249175786e-01
8.003286083419497432e-02
9.529777358102145546e-02
1.072252997236750327e-01
5.129136463350839753e-02
3.517859908292887000e-02
6.034091273637523511e-02
-3.012780654470471192e-02
-1.419716700475011917e-01
-9.688461112969071198e-02
-2.073700114239775127e-03
3.723324729196412358e-02
5.943295635610440497e-02
4.160435947922109384e-02
-1.829863092920480661e-02
-4.931888145829606274e-02
-3.215797826437170881e-02
4.629733157016534782e-03
1.448044246835468798e-02
-2.459534419163079272e-02
-6.081136320455432509e-02
-6.050596001859264578e-02
-5.803921263084303728e-02
-7.819023190406142187e-02
-9.016749885478808624e-02
-4.650116695870586125e-02
-1.502945007909169996e-02
-9.476393803782480474e-02
-1.464217203738854556e-01
-2.241815630977659138e-02
1.223327557325391002e-01
1.526541665156730121e-01
1.491866725623672563e-01
1.561095946225826425e-01
1.392448215818471724e-01
1.003212488609312031e-01
5.248124039979779054e-02
-3.221802288114184593e-03
-5.453338761078002639e-02
-9.044862758208085940e-02
-1.223761892101466325e-01
-1.511373781802093363e-01
-1.384897194380108332e-01
-7.180868596740039300e-02
-6.533326493456304354e-03
2.907212431275378942e-02
7.000156150995640036e-02
9.777288050448160184e-02
6.159538435153838476e-02
1.286602784494466321e-02
1.785444168942153242e-02
4.151885925154525508e-02
5.604530096131877387e-02
7.940378550304921790e-02
8.525778794179829367e-02
7.639410257389613046e-02
1.109516684600988373e-01
9.867394007689919699e-02
-6.850497651389698961e-02
-1.912304537188407039e-01
-9.927097139323093344e-02
3.794769751582025702e-03
-3.616104026335786176e-02
-9.813671447106102341e-02
-9.695353301943125668e-02
-7.115828398721700532e-02
-5.977975876134299787e-02
-4.949752566576029467e-02
1.020854529259913532e-03
5.065852572029455603e-02
2.225920128068634152e-02
-2.218149844789253297e-02
7.807651848433362282e-03
5.341471327151085802e-02
4.619338941432829526e-02
1.995618761610352607e-02
9.370625852841635902e-04
-1.609653971784779855e-02
-1.627797425178038188e-02
4.428941045982189885e-03
2.384668659948194214e-02
2.221992643197438083e-02
-4.215545806549094452e-04
-1.716562023653095750e-02
-1.150302924535535898e-02
-4.661472597758301896e-03
3.832893241912251059e-03
3.532788502130546071e-02
5.511382569707087148e-02
3.491315300634760532e-02
2.752039478789423260e-02
5.048598577133658200e-02
4.106908889386405581e-02
-2.288208542800973782e-03
-1.321464812388872291e-02
7.429919567475991651e-03
5.068074430863448755e-03
-2.121378016195816021e-02
-2.056082692593205058e-02
2.292141385023462041e-02
5.553216783848388682e-02
2.653799582767414622e-02
-4.705787277555560644e-02
-1.071371642796035140e-01
-1.336435093346423075e-01
-1.646595064111010809e-01
-1.538746837234194753e-01
-1.089368941721318741e-02
1.231146306286280412e-01
7.984125720331480824e-02
-2.143669971189431783e-03
1.060792492064104205e-02
3.260255575422066343e-02
2.982171004248632129e-02
5.757509704069357914e-02
9.271970610391568057e-02
7.955080824209928569e-02
3.277886966710098077e-02
-9.624203238071730310e-03
-4.748394118852124896e-02
-7.525544572340639449e-02
-6.605874454074542323e-02
-2.710183492119973281e-02
1.317276005746111957e-02
5.493466267412966397e-02
8.697878127032371287e-02
7.119279854901756910e-02
3.229702482974036726e-02
2.555323439668576169e-02
1.310510720749490793e-02
-2.824444998513543290e-02
-2.950028764509543544e-02
-4.225507916474812581e-02
-1.552762392182442108e-01
-2.126940108752762848e-01
-1.025876928849627223e-01
1.278780364887536700e-02
5.573211690604205210e-02
9.691653975312865266e-02
1.179190459581698353e-01
9.165506571460793617e-02
6.098195558512124748e-02
4.158381316146123746e-02
1.876878785903984825e-02
-1.091438261479100828e-02
-4.068678074261857652e-02
-5.265166977087738787e-02
-4.963947632015013739e-02
-6.214452194176060817e-02
-6.825902262932768971e-02
-2.187537596022812864e-02
3.574523167617398023e-02
5.118917129339550787e-02
5.369124277587665472e-02
6.598387276256688361e-02
6.703541133116616701e-02
6.192573000992673132e-02
6.385061164791899779e-02
4.793701029102969552e-02
-6.390507681344884290e-03
-8.286767954666549030e-02
-1.538009561576086370e-01
-1.855405143188913475e-01
-1.553545705372037511e-01
-8.298198218514862834e-02
4.394306077570441990e-03
7.841466097351930398e-02
9.685160896605603253e-02
7.911121185074951323e-02
8.531739311026985406e-02
1.059919943852419416e-01
9.671285442971180868e-02
7.270133027061023712e-02
7.864163081274609668e-02
5.299977414560234218e-02
-9.512367527396606293e-02
-2.230845120664527448e-01
-1.574601191494831576e-01
-3.967494115261133159e-02
-3.049569305863443144e-02
-4.263461118396314614e-02
-6.428288268771801574e-03
2.488210015828870580e-02
4.100479358226961912e-02
6.554768429993908241e-02
7.305846039475694109e-02
4.164383193429704866e-02
-1.489128418959971469e-03
-2.560218273490552296e-02
-2.976342513861202077e-02
-2.773800996485340647e-02
-1.728231482295635238e-02
1.050008164959401538e-02
2.466502239433708207e-02
4.459956012826738099e-03
1.008867737908059926e-02
6.447976843977236416e-02
8.376771812450967136e-02
4.488436453379972269e-02
1.729853036661602173e-02
1.049698505696518291e-02
-1.276868909761661938e-02
-4.409526056139308203e-02
-5.272624657387778996e-02
-3.609981631096861876e-02
-2.431642459880311788e-02
-3.287705297783592023e-02
-3.193422122884202047e-02
-3.938084208764013570e-03
1.886908977468958887e-02
1.606499594307308348e-02
2.038281421514104644e-02
5.204728882599220230e-02
7.371777513888846944e-02
7.246230897828621897e-02
7.743897268165288172e-02
6.248758693024646788e-02
-2.170823546309067105e-03
-6.583162397891341444e-02
-1.017959817937492129e-01
-1.382996477413160064e-01
-1.632414734414337487e-01
-1.443447896107705741e-01
-9.419641070272269379e-02
-5.906580663422116018e-02
-5.152552874256229737e-02
-2.781393952719714638e-02
6.289358024043303907e-03
-8.431175202121405504e-03
-3.952172310551774204e-02
-1.127662758291135894e-02
5.250082835468029840e-02
9.528334075102010137e-02
1.199563823508270066e-01
1.453738921460986377e-01
1.751895673006528820e-01
2.029944789474113775e-01
2.031310757201670869e-01
1.580636818089677376e-01
9.220628657428321662e-02
3.922200714433560220e-02
1.752290844081225152e-03
-3.233325136807149031e-02
-6.800564638564635112e-02
-1.026415172924963898e-01
-1.311503336749091086e-01
-1.616383299209247504e-01
-1.910766944459771632e-01
-1.830145680277142917e-01
-1.406617021548498270e-01
-1.121320027428781008e-01
-9.489813930804488762e-02
-5.628278499931468892e-02
-5.440867168330122683e-04
4.080978958481446678e-02
4.938247504104072844e-02
6.313471359100622515e-02
1.144894326682050767e-01
1.508726288618899292e-01
1.297722908766192340e-01
7.930262314575875493e-02
2.788525470798566483e-02
-8.359446489781086759e-03
-2.227140901230646383e-02
-2.439005967224796775e-02
-1.036738495913391497e-02
2.296309783427964019e-02
4.930873211822021929e-02
5.684225674296286557e-02
6.261511352132631547e-02
6.408846333840237386e-02
3.898302261427796789e-02
-1.329640735521742806e-02
-7.945206014539153705e-02
-1.426967878839020265e-01
-1.693744813332839494e-01
-1.362990639434685791e-01
-5.719000654457052912e-02
1.682678117413543770e-02
3.585875163008675481e-02
3.419308066204762575e-02
6.342948719061868024e-02
7.465440360134520392e-02
4.276371782407164396e-02
2.982154510348607873e-02
3.550176366744359907e-02
2.266275008868846169e-02
9.580559624339367308e-03
-6.600860560799270797e-03
-4.287760432878147399e-02
-6.052477682604099490e-02
-4.588848361508620494e-02
-4.031135858095716284e-02
-3.640089197696297352e-02
3.935438071282437939e-04
4.072763880157271449e-02
4.457821147050407967e-02
2.278876670381445660e-02
4.982430295287878716e-03
8.428080239084919517e-03
1.273661848186918855e-02
-1.380832050165158725e-02
-3.908929995671043406e-02
-1.581340556156578259e-02
2.181814636552732722e-02
2.152789215650587062e-02
7.358133219047882471e-03
1.615164082097765574e-02
1.428392786824582775e-02
-2.353536877845111008e-02
-4.624167220221191144e-02
-3.290943407114023389e-02
-2.486727709164688813e-02
-1.448327221291437206e-02
2.558827456577862647e-02
5.615240003805473806e-02
5.450247674228738543e-02
5.782427603278487982e-02
4.806649476774289137e-02
-2.538876755140038674e-02
-7.525286437096417869e-02
1.070778879399289854e-02
1.116226533710508173e-01
5.135079468293346494e-02
-9.603906455452027036e-02
-1.251085782141903857e-01
6.022731415153467077e-03
1.064567916489058547e-01
4.147663045530564779e-02
-5.743566828489304193e-02
-7.171238995417192341e-02
-6.363995355737145365e-02
-6.740110451399666802e-02
-5.099923708544361334e-02
-1.762880179440107220e-02
2.346661653340311599e-02
6.770469579378118885e-02
8.493580702778005809e-02
5.813579237934835692e-02
1.641981683579730664e-02
-2.631421162991754315e-03
2.488755094487473014e-03
6.414961139867513679e-03
-1.190400322029363123e-03
-1.403615372066221306e-02
-3.261800731732612812e-02
-3.301448635237345941e-02
9.737904231852619052e-03
3.624197287684321339e-02
1.478685071051591415e-02
2.116459639327829961e-02
3.744806040682938791e-02
-1.982457585849407844e-02
-7.990541682926739775e-02
-6.081186418933677562e-02
-1.423587987577994325e-02
2.374357999093661825e-02
5.184938898780029615e-02
3.272105911293403391e-02
-1.801353634795443623e-02
-2.906791167522770544e-02
-6.596829342970291291e-03
-4.024850222227852395e-03
-3.461557898368362862e-03
1.942823629773775609e-02
1.784576727794299350e-02
-1.578316773476930862e-02
-2.452408887072514768e-02
-1.088006287191796082e-02
-1.403180573935455464e-02
-2.207906257601882638e-02
-8.244193333185457009e-03
1.712782786833562734e-02
1.847442751719774456e-02
-1.580466652917009163e-02
-4.903801864955757706e-02
-4.340917157382176428e-02
-1.315693669593904179e-02
1.054568797852652173e-02
3.385763731274762933e-02
5.877640753950442304e-02
6.786435817986141705e-02
8.000887738533682403e-02
1.119682538018030721e-01
1.232392164192454148e-01
7.854499382034277333e-02
2.316889509226835106e-03
-6.764416637268692856e-02
-1.312626375497856768e-01
-1.765495930934287694e-01
-1.444915220019043489e-01
-3.897128585138008583e-02
4.485543184858033217e-02
7.540674060815996671e-02
9.483150240708128342e-02
8.375773919523292477e-02
1.742295658405531439e-02
-3.524133329437701551e-02
-2.807869495619207817e-02
-1.383667743631078820e-02
-3.787282416633795668e-02
-7.354920174987600312e-02
-8.820798570925576787e-02
-9.889806175122496656e-02
-8.045695511754241691e-02
2.909412258702911633e-02
1.316534999421141994e-01
1.030592100418167706e-01
4.253919316090415403e-02
4.813889513740270132e-02
6.454995270844411659e-02
6.609682077054436500e-02
5.855282449138003720e-02
2.325761855371541106e-02
-2.176185701299219663e-02
-6.795944078755582207e-02
-1.338910064368144248e-01
-1.841008431952470825e-01
-1.776889697221502029e-01
-1.346613487977439683e-01
-8.324581571998303231e-02
-3.302730288246437385e-02
1.499513456021847949e-02
6.406228230779544008e-02
1.069412391915584848e-01
1.350215342900747406e-01
1.497223050943490563e-01
1.581073724787812607e-01
1.654273710805120867e-01
1.587635608707809454e-01
1.225835967844965541e-01
6.979508564817434035e-02
1.680556658164176695e-02
-4.105775807908775693e-02
-9.247506021161139289e-02
-1.130757803045505938e-01
-1.155524966832430223e-01
-1.109012951318148477e-01
-8.878454789676709646e-02
-7.230988871572657795e-02
-3.110761463448772496e-02
9.465133070191041054e-02
1.606249891467876056e-01
2.577213863554841250e-02
-1.383064040857752142e-01
-1.747110211425354775e-01
-1.558081573264537556e-01
-1.178115981116355376e-01
-3.737904970015239886e-02
3.816603354100017720e-02
7.227915795817554945e-02
8.220254499793154535e-02
8.294027624608663052e-02
8.391333878449452888e-02
8.447599661330987275e-02
6.527393591646682425e-02
2.499738024015929483e-02
-9.846206671500875446e-03
-1.950649599271743473e-02
-1.348040423259569756e-02
-1.553449097507907280e-02
-2.643689538326353394e-02
-2.871618227462725825e-02
-1.838213489730263633e-02
5.613555842967617691e-03
3.600618121788656117e-02
2.852439781607201547e-02
-2.723449438262150885e-02
-6.110140693904029391e-02
-5.762850939759163460e-02
-6.928237336183384887e-02
-5.167364103239138751e-02
3.148586659984932423e-02
7.783777358149696068e-02
6.695473513917470088e-02
6.829469344134436737e-02
4.118462670544251192e-02
-2.006364261673759808e-02
-2.500234021517032390e-02
7.783760083713351166e-03
3.975875518235116521e-03
-1.240778237796529362e-02
-8.048088258836398612e-04
1.499426509004797049e-02
1.399501444614179198e-02
9.414187902085693546e-03
4.585534983184832644e-03
-9.876678848502427888e-04
-1.553273192394111907e-05
-7.824063073877679172e-03
-2.027610105320009834e-02
1.200418240929176754e-02
6.656726794679786174e-02
5.556749676991638853e-02
8.160205558958508187e-03
2.141772795326567919e-02
6.247091244734588600e-02
4.690903052012995039e-02
-1.561789290833257883e-02
-9.351589091397073672e-02
-1.692586076762119807e-01
-1.892635848050979452e-01
-1.367451955843187184e-01
-8.113260339273796473e-02
-5.864197278080779396e-02
-2.266369993352911755e-02
3.508732548076712310e-02
6.549971720865704894e-02
7.023677178821542688e-02
7.175657345010379162e-02
5.023414152325053617e-02
2.464671978458688600e-02
4.705984314413257097e-02
8.206247721449476396e-02
6.421520719714471359e-02
2.385161186121351196e-02
1.925784937584960888e-02
4.527572205207440470e-02
7.005099770770649437e-02
7.697453252900611498e-02
6.792709710985700422e-02
4.657989074724101786e-02
1.803406166102765676e-03
-6.241851159022179796e-02
-1.130758332641048358e-01
-1.265336442716861187e-01
-1.080364819966482814e-01
-8.993110802567383377e-02
-9.795812906623665994e-02
-1.034764470469688863e-01
-6.862681818988018712e-02
-2.617059447670395250e-03
6.821522349905621840e-02
1.143554415048684270e-01
1.094732791744898182e-01
7.215040628070175377e-02
5.323835131966746237e-02
6.118254776220299895e-02
4.473164202035287418e-02
-7.219482331507810075e-03
-3.501610875591550792e-02
-3.202792966092433274e-02
-3.410484875970651308e-02
-1.927453315443328208e-02
5.365886613368684235e-03
-9.001144956120738991e-03
-2.587152978494330902e-02
-1.340513527008518023e-02
-2.483145787793168344e-02
-4.434785821200668693e-02
-7.569072614330788103e-03
4.388881380993549242e-02
5.671680065289155803e-02
5.639102291279895346e-02
5.576855102728969782e-02
4.287015916052859532e-02
5.379820846686047230e-03
-7.218777775635881744e-02
-1.411721476674166476e-01
-1.275984619950164545e-01
-6.241985223156022722e-02
-1.424074678032310158e-02
2.375074369162059884e-02
5.936773876472258016e-02
7.920553457534404429e-02
1.109725318014107287e-01
1.007121539454017833e-01
-4.867659469809444001e-02
-1.755091925017940591e-01
-8.373228433015367234e-02
5.890400962647093785e-02
5.395516693432410305e-02
-9.915988454845819575e-03
-1.483034847652471566e-02
2.039164036622232584e-02
4.093688322088222947e-02
4.043567267175340874e-02
4.698480277658947935e-02
4.822482971275243724e-02
2.300755844466511810e-02
1.724222787085229885e-02
4.647525547152350778e-02
5.851549626336413623e-02
6.261849731705107502e-02
5.097710766543533945e-02
-5.509596064806890348e-02
-1.697309663178179773e-01
-1.426966585070829074e-01
-5.417116767136951477e-02
-1.751473170867902385e-02
1.027929909918923884e-02
5.133847340402180465e-02
5.587022027896028364e-02
1.482021624021323883e-02
-2.871094620654878263e-02
-4.638126309729173613e-02
-6.361790739426337327e-02
-9.889217940406261342e-02
-9.325855488347409294e-02
-1.438404634579668571e-02
5.261264494876223552e-02
5.901482155470199470e-02
6.461107524448131412e-02
9.153819162459046754e-02
1.074293628080117691e-01
1.040900997240865461e-01
7.647075332142647119e-02
2.469139597015617901e-02
-1.458093232803847443e-02
-2.784867079141647647e-02
-5.723524039786494905e-02
-1.004729801171041076e-01
-1.059184828107045118e-01
-1.254276085124595430e-01
-2.301689422496546733e-01
-2.606001081756770255e-01
-6.823042508644461268e-02
1.144493041813211542e-01
8.962952092804396531e-02
6.458332432837550485e-02
1.434355801590777302e-01
1.641791302628684279e-01
1.444322322741542763e-01
1.748509131376537185e-01
1.631177195142651803e-01
8.431366366521089728e-02
4.496308997306586175e-02
3.731971220160829050e-02
-2.218049439740065604e-02
-1.055819935699595091e-01
-1.270775893337088847e-01
-1.072439036366799325e-01
-1.315307567905420194e-01
-1.345470829909977961e-01
7.563058691330275252e-03
1.436430683380504891e-01
6.320896543251194877e-02
-8.689061032131238649e-02
-8.994375672561544244e-02
-1.227828540251708900e-02
1.779125756377223158e-02
-1.669930549213778648e-03
-3.169479496566772470e-02
-4.223919776985728125e-02
-3.484388895351230031e-02
-5.192592942826231017e-02
-5.647840671782203975e-02
4.008964805400225956e-02
1.339552066506053962e-01
7.843325962705967325e-02
-9.647715700612392170e-03
6.547756923612514657e-04
3.442526326790472380e-02
3.794094719696949891e-02
4.110333248115322774e-02
3.053738791702624231e-02
-8.839054568001636011e-03
-3.638183064586966720e-02
-2.071597787536731683e-02
9.888175410678677613e-03
1.133251605480900884e-02
-5.919707940172141275e-03
-8.770688257232813617e-04
1.551101087325957098e-02
1.762598787858565830e-02
3.463576661153788122e-02
7.096572831132291759e-02
6.483986834949245770e-02
-2.808654446194919392e-03
-8.593085457694586704e-02
-1.513148210613247668e-01
-1.759164475088869362e-01
-1.403825348816652163e-01
-7.357534070607027465e-02
-1.710843914753533770e-02
2.328445543674009452e-02
4.961397323073225840e-02
6.870900899260330708e-02
8.687506758901153425e-02
9.317607291670751413e-02
9.233124218463982513e-02
8.209438214214061225e-02
4.060120207816692028e-02
-2.077991730916689539e-03
-1.000123075748672943e-02
-2.022624565500449889e-02
-5.219555532798088315e-02
-5.702153215082735732e-02
-2.112620478455053824e-02
1.179447599547114520e-02
4.031507206684602218e-02
8.699457651934888736e-02
9.457292142282927583e-02
1.325381964782480944e-02
-6.838615088942925913e-02
-6.154987869882317525e-02
-2.485769018148765303e-02
-3.585811218852300725e-02
-7.162232610705074332e-02
-8.484908377046018746e-02
-6.692854703083610246e-02
-2.693353953924494323e-02
1.871488457245011963e-02
4.056146481188138003e-02
1.604505434010020104e-02
-2.687334028073683212e-02
-2.463115339359901387e-02
2.865356981711049411e-02
6.012319707880154490e-02
3.401764682916374322e-02
9.404171806367057559e-03
2.815224849820161662e-02
4.793594765087426379e-02
3.878431969054697143e-02
3.658015920303657464e-02
3.489335792744958920e-02
-2.833354998727139265e-02
-7.136806388033374582e-02
3.380035423252939625e-02
1.290857488694433508e-01
3.706736039729265769e-02
-7.022340093932064042e-02
-3.664374848137680329e-02
2.701080751670884017e-02
3.931917983901273006e-02
2.520845580647174816e-02
-2.845339158254684558e-02
-1.242011119955763743e-01
-1.878674576986404110e-01
-1.627030771157492450e-01
-8.743196363435351559e-02
-1.940154461087868765e-02
4.145910699174495256e-02
9.403936602568546688e-02
1.111691967051514490e-01
1.013556369352549003e-01
8.956434540327795624e-02
7.700392478444310906e-02
6.033627373306602731e-02
2.845996118230106897e-02
-2.230975878153414887e-02
-6.269488931746561300e-02
-6.898339451545601464e-02
-5.425317469488821764e-02
-4.784935605796572511e-02
-4.559293584176280639e-02
-1.116589081961841430e-02
3.586944621902554697e-02
3.729234149313857827e-02
1.768657739532615569e-03
-3.051366649345069529e-02
-4.204116619632970731e-02
-2.127942828454959176e-02
2.267161213006849314e-03
-1.130817347724712499e-02
-2.878404246226589497e-02
-1.059796273105804293e-02
2.110484189823750786e-02
4.469130489007277357e-02
6.110826520233168802e-02
6.237207435433797520e-02
4.429235274657949972e-02
1.995312858029946179e-02
5.117464943757742482e-03
-2.974118652180581662e-03
-1.579926127873038100e-02
-1.856584533619687338e-02
-3.068814866287355655e-03
1.900815716683040835e-02
6.101497639682076229e-02
6.508474094281134492e-02
-6.290398759378508509e-02
-1.759983637509842103e-01
-8.135260045184231070e-02
7.028042319546499994e-02
8.309161350384111633e-02
3.902976095895957509e-02
4.398022058850256655e-02
6.385382578080305016e-02
5.994895032859424294e-02
4.893189694643367699e-02
3.993035467278004125e-02
1.795165237048943450e-04
-8.219955690406699489e-02
-1.533271194409061011e-01
-1.675374602863345941e-01
-1.440154201099694276e-01
-1.116423663856026954e-01
-6.757360133963496995e-02
-1.335984700279715075e-02
3.532747478796497559e-02
7.558749552373059122e-02
1.042477521911795990e-01
1.164104308554996248e-01
1.259733841915121888e-01
1.309760711542347078e-01
9.863872735222747878e-02
3.130689503612905933e-02
-2.260930649221848041e-02
-5.402910805294485613e-02
-9.858184953699331010e-02
-1.456194503613712776e-01
-1.533594986910563618e-01
-1.311368415765910567e-01
-1.029722437297227455e-01
-6.045612221144979620e-02
-1.338536815749279650e-02
1.401767062847717252e-02
3.926990841957309075e-02
8.276174235588026895e-02
1.240014613804747562e-01
1.425779200577245165e-01
1.367111161696785981e-01
1.117010582849950334e-01
9.016957541782147367e-02
8.891393770908090355e-02
8.072547420673481522e-02
3.526912255167006377e-02
-1.631380364137772349e-02
-3.466569428229490657e-02
-4.889608989926447213e-02
-7.297292011106937260e-02
-5.954151900002366271e-02
-2.769991555484890844e-02
-5.283009565543472091e-02
-1.157272668743198479e-01
-1.302175802753141043e-01
-8.225802495065630271e-02
-3.869723744088870293e-02
-3.872030912465632135e-02
-5.056068731990886328e-02
-3.039469206771374526e-02
2.758232517606461556e-02
7.543293958804066224e-02
7.479010524377349700e-02
7.537804555822084918e-02
1.096212382525652840e-01
1.095137766975032012e-01
5.637242443649607970e-02
1.122438708199286622e-02
-3.973166546709978181e-02
-1.269755086852456805e-01
-1.719805258135775061e-01
-1.214384506921577789e-01
-4.321373930434830452e-02
5.351932984513375555e-03
4.498702163797475839e-02
9.166552314358174247e-02
1.086468275339046441e-01
8.751770563223354449e-02
7.930801541134936683e-02
6.668969863804109777e-02
1.749716592050650291e-02
2.311071511017102204e-02
5.747294733384254034e-02
-4.634130446099592876e-02
-1.642597286829299008e-01
-8.659302077547506582e-02
2.374907820698814870e-02
9.835962173020443636e-03
-6.508987110273567120e-03
2.258807382896614938e-02
3.152082785462416437e-02
2.529061929736545894e-02
1.440850025167581157e-02
-1.018808238498850050e-02
-3.545904582451517295e-02
-6.197436747974692517e-02
-8.284452345509565885e-02
-7.301680173490489312e-02
-5.385418056074922633e-02
-5.217640928673294293e-02
-2.938185451363118511e-02
3.068757958894718571e-02
6.015186007482446751e-02
3.217968308985506842e-02
1.628494994445731786e-02
3.270325227858714157e-02
2.339316768980105599e-02
-4.111705274417376196e-04
1.591674702984969755e-02
4.367351033328650128e-02
4.011057773825463246e-02
2.722822563027335607e-02
2.131797785574885556e-02
1.119190951120744432e-02
1.161313801979406250e-03
-1.960680376061674224e-03
7.704195976439304899e-04
8.559296685154059448e-03
1.652068689273024360e-02
3.464400737552714854e-02
6.484583916245054147e-02
8.009337186060641600e-02
8.153314465013808410e-02
6.784364334210522818e-02
3.330084852498276047e-03
-9.456987296351013206e-02
-1.766687607741063704e-01
-2.174708230130100728e-01
-1.860859285134576491e-01
-1.036191964958722012e-01
-4.203974436305646378e-02
-1.221662978999584620e-03
5.248046741913038604e-02
9.339321506741976586e-02
1.011860847880686198e-01
8.828272041732873610e-02
5.372282699530779582e-02
2.087405721814052789e-02
2.214524934313608084e-02
2.185568658937329239e-02
-4.157897152882436553e-03
-7.730657281867054156e-03
1.375864523936426963e-02
8.062557926375672063e-03
-1.372129488790594862e-02
-1.522039969779531189e-02
-1.638911968725344226e-02
-2.387963291440415442e-02
-8.520319061747612388e-03
1.222219082604774146e-02
5.909870591091469401e-03
-7.195199634335396922e-03
-8.837383814039076468e-03
-1.330639629445693264e-02
-1.788464051504495833e-02
-8.526775420303472908e-03
3.546852820210113881e-03
1.071882008185756109e-02
2.704816562387211271e-02
4.589218326641816142e-02
4.366743148989123136e-02
2.174666867038958784e-02
-4.720167928895569777e-03
-3.272598298146699169e-02
-5.822162193649764450e-02
-6.053100395648972065e-02
-3.407883351348852535e-02
-1.585715049671065913e-02
-3.811994208531591793e-02
-7.227496918695953954e-02
-6.418346629159459027e-02
-8.193920916897886111e-03
6.821624795868343194e-02
1.314662874691634453e-01
1.281728334465180585e-01
7.089150060681750909e-02
5.007709067929579788e-02
6.566217851727787491e-02
4.569945204497528196e-02
-3.298409794917364982e-04
-3.562069352412139400e-02
-6.457245035313793902e-02
-9.268910315274650480e-02
-1.309441224860493913e-01
-1.320306524265437709e-01
-1.926681838414959561e-02
9.038540020629938498e-02
5.849189439191496143e-02
1.001522537734322524e-02
4.446805226767931024e-02
6.740249205660062137e-02
4.541207813631712581e-02
1.946383477059758157e-02
-7.346853358234017514e-03
-2.839511858433854674e-02
-3.168837740045502699e-02
-2.835861858929179455e-02
-3.799334955027404426e-02
-5.768644454627404328e-02
-5.485249206682724088e-02
-2.225471987737432517e-02
1.049082034403482806e-02
3.400337034691768706e-02
5.893892751738073060e-02
7.214899291965867767e-02
4.966167661488839896e-02
3.463509772840333428e-02
9.558184548748832610e-02
1.309213798764760073e-01
-1.033904588432566982e-02
-1.810700595060267537e-01
-1.696318577109372505e-01
-9.168409308808120328e-02
-9.397927500793137878e-02
-1.090595452325561626e-01
-1.086185256722145831e-01
-1.313735767536809984e-01
-1.297548312115719138e-01
-6.225199715126425448e-02
3.497072351185816913e-02
1.299235986420172462e-01
1.981320040514745751e-01
2.081068466565982877e-01
1.907987614202222848e-01
1.867253479988753018e-01
1.573592501169376878e-01
1.204935734715864848e-01
1.472938669860018313e-01
1.440142099711673451e-01
1.557467503181893947e-02
-1.142899557254498100e-01
-1.320757375657317656e-01
-6.898554456475718133e-02
-3.442963956765150713e-02
-1.192942205799482347e-01
-1.943697032761444732e-01
-1.185436932454578818e-01
-5.791606473998836546e-02
-1.298801741255760089e-01
-1.817988138571680345e-01
-1.438659230312951398e-01
-8.031730440488393796e-02
-8.695198633124415211e-05
6.908642223611918820e-02
6.728694394469429685e-02
4.197501740973975243e-02
7.442689269500998850e-02
1.219463027446232029e-01
1.057815031044687243e-01
5.869588135239477145e-02
5.129084595125105173e-02
6.768578895867967404e-02
5.436736594754226076e-02
-3.607224378103997785e-03
-7.745771442324080047e-02
-6.747321173136580641e-02
6.734363439574500565e-02
1.467124955710018552e-01
6.022767195906633675e-02
-2.104576670517443321e-02
-1.225858908794331611e-02
-2.265013268937553920e-02
-4.606036613377815364e-02
-1.517796623991161942e-02
-4.227237260441664771e-03
-6.166772741773431793e-02
-8.610042290073542659e-02
-4.514152936567810553e-02
-3.143702532864736665e-02
-4.981962422538834673e-02
-3.971326040189940287e-02
-1.855179780323781141e-02
-1.110958627542869316e-02
4.050168805303198949e-04
2.485184264073913435e-02
6.363480682874997352e-02
9.112979028925360936e-02
6.269315110407623626e-02
8.828724582960977701e-03
-4.986254939635454374e-03
4.649909002999682781e-03
-6.107867754468951187e-03
-2.560759196767807902e-02
-2.466309423316481730e-02
-1.148867363163295907e-03
2.684872929136564862e-02
4.074806737594501016e-02
3.400812788912734030e-02
3.100351578510008449e-02
5.671780665581768743e-02
7.977038363951986788e-02
6.407501720069823381e-02
1.291294843178109400e-02
-7.053084077316128242e-02
-1.555100715512158505e-01
-1.849983035792061581e-01
-1.565476903603637282e-01
-9.929400511450654776e-02
-2.592069818837673678e-02
3.521160741017287377e-02
4.921248235657325887e-02
2.744035002621175376e-02
1.653118340794293081e-02
2.805101116398456967e-02
3.385407069571939875e-02
3.691239024112726030e-02
5.174162945293030863e-02
5.039414033442386753e-02
2.324288596911145907e-02
9.964063141796070111e-03
2.617092893067266002e-02
3.946659302327979596e-02
3.321695658994061606e-02
3.802687117475398587e-02
5.836003578409313525e-02
4.350358086706456601e-02
-8.427537388098635396e-03
-3.918846561157128539e-02
-3.453202509778882656e-02
-1.747930917314864316e-02
-2.367762138255901337e-03
-1.281508402967879157e-02
-5.521027568053188395e-02
-9.157956831547769960e-02
-9.524720642916517654e-02
-7.780163356893121662e-02
-3.922683154825683249e-02
3.149213208815646731e-02
9.191857840952769032e-02
8.402995722630796083e-02
4.009655258233547209e-02
2.768995325858419204e-02
2.487504131879502908e-02
-9.949478279414000065e-03
-3.347083555793960163e-02
-1.243663943493357460e-02
2.266129982114741502e-04
-3.220079161820911529e-02
-6.204354765870673249e-02
-4.005432805905563554e-02
3.846890523291270937e-03
1.273232774439118052e-02
-8.759576928377336633e-03
-1.106128416394468530e-02
2.563920275283821867e-02
6.779005873515571434e-02
7.832590344473526478e-02
7.579630682675819742e-02
9.028462378615123574e-02
8.364644126897750886e-02
1.201875230578558496e-02
-9.444387321598785023e-02
-1.754217111396014495e-01
-1.800284819764762234e-01
-1.098095773826255617e-01
-4.215520728534430384e-02
-9.191964304924082896e-03
3.102537215625827960e-02
6.783687607128413566e-02
7.209459503773335554e-02
7.468089116890905266e-02
8.469477725036114735e-02
7.165639549574820411e-02
4.030483903800925055e-02
7.573339670914464722e-03
-2.951340090109298708e-02
-5.402179368207758736e-02
-5.103924515566106435e-02
-5.052876192474749228e-02
-6.109054194792166298e-02
-3.876119643260825254e-02
2.049906329400457208e-02
5.873890733848331075e-02
5.211863106088771014e-02
3.951399109697344147e-02
4.149504912866636142e-02
3.214621823808408441e-02
3.460895570578502271e-03
-2.277494565909132448e-02
-4.189915515891615150e-02
-5.932318375269359650e-02
-6.285762335707226200e-02
-3.592256088654521839e-02
2.596099437545355479e-02
9.814403763427917426e-02
1.232142027066257112e-01
7.965454156798815188e-02
2.547037154007973994e-02
6.190420466646491711e-03
-1.138971248834332733e-02
-5.101996533565946595e-02
-8.270447412964046507e-02
-1.022756629648623738e-01
-1.174291983494635122e-01
-1.017188987220736252e-01
-7.192206230807685063e-02
-5.842324553774751184e-02
-1.516637067422820818e-02
6.787367705454727673e-02
1.257513398022347129e-01
1.510652162755712069e-01
1.752424792530725695e-01
1.931314301246038478e-01
1.877817915208191413e-01
1.352502818145761010e-01
2.781713041402304395e-02
-8.251246620208890770e-02
-1.598444439662775607e-01
-2.531673037192042064e-01
-3.706171684538501210e-01
-3.941392659705346690e-01
-2.720210512722019969e-01
-1.377901749224810235e-01
-7.890733116192544250e-02
-8.148468187321726564e-03
1.145142311471128160e-01
2.060351040124036581e-01
2.413928742113214954e-01
2.521745194491092912e-01
2.352509655299379887e-01
2.185605085438236950e-01
2.127087710807148146e-01
1.398276201309277267e-01
4.960517325800319760e-02
7.536797607561236678e-02
9.237028301772959304e-02
-3.331378976078381432e-02
-1.332511295220795422e-01
-1.184203356164054421e-01
-1.189638954692257694e-01
-1.539685131448666477e-01
-1.430291851335407927e-01
-9.589526385965753408e-02
-6.523538388857158532e-02
-5.273971477515384393e-02
-3.159035934979654431e-02
-4.423427365535574640e-03
-2.623856354948564396e-03
-2.795313203316710307e-02
-3.192988447913050476e-02
-3.996258201265930066e-03
-1.013616755192020026e-02
-4.824637877832987226e-02
-2.010567818580270838e-02
5.537672371348755646e-02
6.460077312455367315e-02
4.135221522824003570e-02
5.986387467999766676e-02
5.620669900985590661e-02
2.029985300522746394e-02
3.647276200546190755e-02
6.251421569580939419e-02
2.491072839198192959e-02
-1.049136961582109763e-02
2.005992095572724926e-03
1.240107765263043053e-02
9.118868263994158591e-03
1.140836074443278558e-02
1.722880339448873074e-02
4.934946881179666511e-02
1.011098335989881053e-01
6.457944247029290263e-02
-8.943071921930795254e-02
-2.076441729149942628e-01
-2.230337520147848418e-01
-1.816916742293999409e-01
-4.339407878141198632e-02
1.052131083428978070e-01
8.532288063023690805e-02
1.374245073832831843e-02
5.129171929244596972e-02
9.501712573691972752e-02
6.212588567461890809e-02
1.624404620946712577e-02
2.864876076364926243e-03
8.984836848789083674e-03
1.175723226825709823e-02
9.955556913906506850e-03
4.999098982688615807e-03
-1.352693480258549893e-02
-2.560711577458177693e-02
-8.036496500514824642e-03
6.508508267924829546e-03
1.789697719304141413e-02
7.896701626504595839e-02
9.982141241437123003e-02
-4.724554738387974628e-02
-1.911742341599112216e-01
-1.230602711716266978e-01
1.167244151364415714e-02
1.690734254555043697e-02
-5.866564269501464007e-02
-9.160947428168471351e-02
-4.052138980748245384e-02
3.229911807433007154e-02
5.265725226878377463e-02
4.670692811055066063e-02
5.089585258006484869e-02
3.554770462669869235e-02
-7.558906193627796741e-03
-4.686238967031269853e-02
-5.005122672754903912e-02
-2.502920049531415919e-03
5.749785032727339207e-02
8.711067330118525687e-02
1.016699629143369560e-01
1.135545663629254493e-01
9.796322847155579383e-02
5.062213102905688267e-02
7.088054964462261673e-03
-4.823034706861396154e-03
-9.777731038231606692e-03
-2.358741917690757375e-02
-3.297293422565922977e-03
2.093399561442842866e-03
-1.057498842094690972e-01
-1.891031804038840192e-01
-8.681133720839001588e-02
4.579323971339861049e-02
4.247761001019671745e-02
-2.866443558357736898e-02
-8.885757037586757001e-02
-1.302431753009452020e-01
-1.383121268963013184e-01
-1.050619243611091713e-01
-2.798086342977458216e-02
7.604952532079978234e-02
1.372097696618292395e-01
1.235192152141922073e-01
1.050295806822704736e-01
1.208133690006623767e-01
1.048259717128269680e-01
3.524035217057458480e-02
-4.464424809058353122e-03
-1.040399704779374976e-02
-7.350662828519510805e-02
-1.138874594328327938e-01
8.137521288602754532e-03
1.187635557514597900e-01
2.604144390904629056e-02
-8.189271567527137141e-02
-5.212974973664952216e-02
-2.909698672432909500e-02
-6.205592493961775702e-02
-4.157220853889394968e-02
1.256723299455139720e-02
7.789175010615512554e-03
-2.231146808575665968e-02
-3.616712513540122111e-03
3.014460148071449602e-02
1.939356874425036611e-02
-2.435726754724484334e-03
1.651780130184699047e-02
4.571635201656098352e-02
4.377168676830427152e-02
3.471077534811255888e-02
3.354070141909534786e-02
1.960906410299381730e-02
6.558820120014100148e-03
4.712060354322183259e-03
-2.532882489628651007e-02
-7.440101983261626639e-02
-7.304928787194658879e-02
-3.680915486246912061e-02
-4.018411849020043364e-02
-5.069743605239331735e-02
2.326430315306027372e-03
7.097650667486431197e-02
9.015693928968158966e-02
9.083379603640462374e-02
9.910544368469223486e-02
9.983498245860447651e-02
9.718227171828486277e-02
8.208594024154881874e-02
3.248867235050280355e-02
-3.163514986220355985e-02
-7.996372371877379093e-02
-1.177505953540943368e-01
-1.617668895787223449e-01
-1.897324800829093550e-01
-1.555698470367541109e-01
-7.323116774698310016e-02
-1.466066001073062022e-02
-4.157728635023835023e-03
5.794834361415434482e-03
3.720137541361773215e-02
5.032313089982046184e-02
3.080139132204173097e-02
1.871382443047760191e-02
3.301606967295461770e-02
5.828154284458304107e-02
7.419892500747909958e-02
4.733651896056285252e-02
-6.382032411154653015e-03
-2.036224911315739558e-02
-2.628905052340338444e-02
-4.834207518413877191e-02
2.268022847250995150e-02
1.162644540032027468e-01
2.370644735924999288e-02
-1.383792842301733161e-01
-1.407044875425858543e-01
-5.077069539890413652e-02
-8.368886616811122003e-03
-3.777083258077449691e-03
9.666376186387883387e-03
4.093013458224051271e-02
7.857973923415965956e-02
1.097650154115225596e-01
1.314366559862352180e-01
1.353787728953384228e-01
1.071594010405610836e-01
6.583774655567134482e-02
4.152099074989949734e-02
1.342769161111771054e-02
-3.789515394961359696e-02
-7.189509751084513511e-02
-6.059124916024656582e-02
-4.755806717467476324e-02
-7.932681744880185071e-02
-1.254648321150781121e-01
-1.283748701248403346e-01
-9.056994048017111276e-02
-5.165119332943460956e-02
-2.692031794357913413e-02
-1.402903175065611796e-03
3.326259351383771545e-02
5.750720536553726586e-02
6.843100990890634006e-02
9.309019869610166142e-02
1.150472292717716061e-01
8.945705928904507109e-02
2.774589870156388832e-02
-4.300999319862772868e-02
-1.159181660958900906e-01
-1.542567026058366542e-01
-1.354922223215791754e-01
-9.465007698428487548e-02
-4.514123149432282267e-02
2.069481230567266072e-02
6.403294380022334087e-02
6.614974230689420198e-02
6.251536132601934193e-02
5.848976443206441861e-02
4.875440103236522438e-02
4.902134707503524175e-02
5.107028222803919326e-02
4.991135770955527212e-02
4.027650935824571288e-02
-4.007625111027097141e-03
-4.411955391958442829e-02
-2.173038050435260535e-02
1.309498843657353785e-02
7.022696955709140446e-03
1.128634966312589295e-03
7.461637939269510390e-03
-1.141650335134115034e-02
-3.761330119816767847e-02
-4.576457242204905185e-02
-4.793541445702578785e-02
-4.488744959632805925e-02
-5.527036961458237085e-02
-5.810964248892943468e-02
3.083459930947458905e-02
1.231088511492197946e-01
5.326507320966929887e-02
-6.817705513392666172e-02
-6.482397012274393466e-02
-8.690149678057413479e-03
-6.070527772539784789e-04
1.988336951234289524e-02
8.184394080202801736e-02
9.060808103657108648e-02
2.842924918685021604e-02
-1.207107663423282601e-02
-8.338793465741112937e-03
7.172492999333790129e-04
6.085502287328342988e-03
9.395444640927340038e-03
9.053467978613281494e-03
4.987736261660305828e-04
-1.869955700159562154e-02
-3.961029536875454449e-02
-4.652459874923069172e-02
-1.525993558606638170e-02
3.621972675181592966e-02
4.314765023202817018e-02
5.452200778534078279e-03
-2.462792733172891602e-02
-6.185627291357061186e-02
-1.391634108927639890e-01
-1.623229795700949218e-01
-3.167535835703438885e-02
1.020789189321812396e-01
6.023378727098516183e-02
-2.424337988480763581e-02
1.374547422728267243e-02
8.649913126157431076e-02
9.370093175844396161e-02
8.890539126788278568e-02
1.150741312790731219e-01
1.072450408268160321e-01
3.813053981748916466e-02
-1.151830087148149155e-02
-2.222797774215188454e-02
-5.837578221004628698e-02
-1.068412718370658210e-01
-1.185480268361824019e-01
-1.013471623477572303e-01
-5.785379083927676830e-02
7.715345668123184571e-03
4.678364880974542062e-02
3.362460807128377083e-02
8.703646474246568010e-03
1.818167847665270662e-02
4.019911327523217892e-02
2.718627627151869522e-02
-1.182905459517793328e-02
-4.682984221174660289e-02
-5.627069002438642165e-02
-2.198248483719325574e-02
1.459721813670545286e-02
8.261432710301719329e-04
-1.375060592328956888e-02
2.776425145476163828e-02
6.960937104322618973e-02
5.287510975118070444e-02
5.811771963106663295e-03
-1.675362622833926132e-02
9.542444641436671759e-03
3.320132253463254496e-02
8.974186144983041513e-03
1.356124751469298291e-02
3.248224009417428892e-02
-8.062651336410107950e-02
-2.076959179490373286e-01
-1.223030087489877515e-01
3.992643963714592042e-02
7.682654691741083730e-02
5.318559922254096489e-02
4.862476789951057643e-02
5.857912943630309149e-02
8.240782944994773374e-02
7.827803327513779830e-02
2.112505184218085863e-02
-3.855596455719258880e-02
-7.483784129027619414e-02
-1.031813378540197834e-01
-1.225768413515263416e-01
-1.202459858555050415e-01
-8.342463615720713266e-02
-2.103493539754720462e-02
3.312593887628817457e-02
6.681947945768049180e-02
9.379597645313572651e-02
1.227916145648070279e-01
1.391638903791610482e-01
1.222576703877853443e-01
9.516763511896557393e-02
8.996451908990923951e-02
7.853401548398428189e-02
2.175639626460979664e-02
-5.664235264848932472e-02
-9.412322316375479336e-02
-7.357199561584980285e-02
-4.763032832043929965e-02
-5.782440753288744378e-02
-8.481846687729424628e-02
-9.284342038567310051e-02
-7.917703357783209550e-02
-7.454017356753149526e-02
-8.324806641320901812e-02
-6.157573547170701322e-02
-4.814929150359735857e-03
4.004060901529023220e-02
6.989665805182082581e-02
1.103968549226729962e-01
1.438777824883091527e-01
1.357807839715111931e-01
8.058091236711445449e-02
1.860384731228293537e-02
-1.239546312965068842e-02
-5.838575425204559771e-02
-1.537842124846282577e-01
-2.183449153194312597e-01
-2.004871258214716290e-01
-1.542066746450645176e-01
-1.169411390916121618e-01
-7.259563791341400174e-02
-4.364954474114418614e-03
8.105757114222537918e-02
1.450980777688347934e-01
1.671414982679757522e-01
1.874745726380701860e-01
2.183535013547504566e-01
2.188683336932384926e-01
2.013858640882309758e-01
1.850817411782750277e-01
1.354408707226324171e-01
7.448051202356228973e-02
3.174211378637230990e-02
-5.284274350576200624e-02
-1.740313731500960359e-01
-2.435675462929239588e-01
-2.629800913564065423e-01
-2.673874622189512662e-01
-2.340986003029703888e-01
-1.669404479393759577e-01
-9.799429189888347880e-02
-2.367323224005871488e-02
5.075300275082235413e-02
8.843502293379121304e-02
9.391673046648435497e-02
1.026752384385532096e-01
9.952036103703855441e-02
6.381534337343847119e-02
3.146701950470527642e-02
2.000794708227030677e-02
1.238214132368669045e-03
-1.473804386520345157e-02
9.328992675998419928e-03
5.163760849021712535e-02
6.388919271561559199e-02
5.100084036643590807e-02
4.004075269110372870e-02
2.005635910925638449e-02
-1.774880432785680071e-02
-3.156718856665984008e-02
-8.290461422228452559e-03
-3.121951944607209706e-03
-2.557859191802363402e-02
-3.627122575284435352e-02
-4.260006970949500871e-02
-4.603282392447827914e-02
-2.207706143826405204e-02
-3.684189783151559268e-03
-1.784816975512327347e-02
-1.915501383958409520e-02
4.445952231679396564e-03
7.818018613457884680e-03
1.124478961240999060e-03
3.076900081307588214e-02
6.964915731122763021e-02
6.875905271522911311e-02
4.404523965465724500e-02
1.942875643095581459e-02
-1.441021502255993014e-02
-6.350256830206064962e-02
-9.879929353846352014e-02
-7.546930746852911764e-02
-1.142507667192990510e-02
3.033573570179272719e-02
4.430332470848793308e-02
6.173756182522233127e-02
8.479686385990480024e-02
9.182589469966376261e-02
5.573122800518721942e-02
-1.533375218196322484e-02
-7.686382517850885721e-02
-1.261162711747825516e-01
-1.719070635397977886e-01
-1.624927259773315813e-01
-8.368231997487091123e-02
-2.703423992078853901e-03
4.340989726182711839e-02
6.029706621680502865e-02
5.417949223913345880e-02
3.987748963112514727e-02
2.847605779499895809e-02
3.132608672185539789e-02
5.066940954463750729e-02
5.870494582976509140e-02
5.242032708416633630e-02
5.244383859908051393e-02
4.319407200034279526e-02
1.483933246932142569e-02
-4.497250261747243183e-03
3.662164274956036109e-03
3.176587321685005183e-02
5.625897457352603548e-02
5.300047666256535450e-02
2.462122361024866174e-02
-4.710206131033593466e-03
-2.166631032741823254e-02
-3.055593213150262916e-02
-4.518352362452268678e-02
-6.668280106295412790e-02
-6.192691636071442907e-02
-5.754086879369083724e-02
-1.323445082265145845e-01
-1.888708897909844864e-01
-9.099431373958538627e-02
3.083359212045641909e-02
4.755400576890959213e-02
4.820895822659439223e-02
7.363401244308098725e-02
7.539805267074387030e-02
6.405566082023125829e-02
4.337186875443146961e-02
-3.191519189371672290e-03
-3.690231223988461873e-02
-2.739421534884540349e-02
-3.293738270310087729e-03
6.802144607223330197e-03
6.578948329689697679e-03
1.675642968856588810e-02
4.011402510000946359e-02
5.397235343401261820e-02
5.144851717291894916e-02
4.596654409776930461e-02
4.720040235776302301e-02
5.514844200188957074e-02
5.738830804927718549e-02
3.699613971716021049e-02
-1.554274948435249541e-02
-8.933874670699527842e-02
-1.577887019428417248e-01
-1.967461963723521334e-01
-1.772581703996471414e-01
-1.001717112179825453e-01
-2.442767115066183520e-02
2.002548796675238454e-02
5.885315270214566685e-02
9.392191130816265887e-02
1.167212236054344654e-01
1.305755245415781141e-01
1.076749355701725475e-01
5.271902822292581781e-02
2.904734400806212313e-02
2.196762384517910588e-02
-2.696682516552806330e-02
-7.335577267614701302e-02
-6.639545025603452166e-02
-4.478213472353005653e-02
-3.891239362374422639e-02
-3.613969538186632968e-02
-2.196100738101341293e-02
2.957696285878800343e-03
1.206779113822914126e-02
-1.330351472779542528e-03
9.609887603661881883e-03
5.698659827216367990e-02
6.183216995726401738e-02
-1.118959016457836929e-02
-6.955648170441759703e-02
-5.864909767104298233e-02
-2.782104309273999987e-02
7.866064056931429058e-03
4.555184360358754958e-02
4.906454378029888319e-02
5.051315972918709457e-02
8.183366244640088993e-02
8.547577146347594412e-02
4.658085998450460508e-02
9.434921123778736152e-03
-2.297790196311011446e-02
-5.058253625693574784e-02
-5.892060076586036477e-02
-7.181102129336300322e-02
-1.005328983501880269e-01
-9.789535081211381273e-02
-5.017175960278547758e-02
-2.836181917092188767e-03
4.015682628804458087e-02
9.814526471197607127e-02
1.393820054826142574e-01
1.453427164098282931e-01
1.458700732522673349e-01
1.405245686440251829e-01
9.331207428956185546e-02
6.273200007119135620e-03
-9.025105966928372025e-02
-2.005718725212438935e-01
-3.166703445560014596e-01
-3.637412492054696855e-01
-3.115038559453289224e-01
-2.275611501254383162e-01
-1.471268295330347420e-01
-4.695886811088546831e-02
6.462431325934187010e-02
1.648568421155369446e-01
2.418121112447084442e-01
2.689434497805485713e-01
2.556410789474066192e-01
2.449287851066896948e-01
2.111483201085170569e-01
1.214405662230328420e-01
5.379970379911098999e-02
6.060088695235676948e-02
6.013912449444507730e-02
1.013165298076543208e-02
-2.948106468237349231e-02
-4.372448274526539308e-02
-7.225779148468658430e-02
-1.202168281731121335e-01
-1.552053167940193601e-01
-1.504154592177799898e-01
-1.166157258001826180e-01
-8.268130042709657956e-02
-5.592384453555217932e-02
-3.733404154907973144e-02
-3.914377558590285966e-02
-4.787645971447609256e-02
-2.243666815155903951e-02
2.732729065095167165e-02
3.599170709835056159e-02
-6.393396859380305608e-03
-3.801340832974603456e-02
-1.978100475707591371e-02
3.255351326741177942e-02
7.201558915143396744e-02
6.638636719109294870e-02
2.958111596324974890e-02
-1.013498396035605702e-02
4.414464784016553824e-03
1.013302682521472070e-01
1.424359181910241079e-01
3.910378720756428617e-02
-4.698021344233005436e-02
-2.061677065762958921e-02
2.151548208167147411e-02
4.255475236894516733e-02
5.860291992956753737e-02
5.061409473016191540e-02
2.860961208361845198e-02
6.922973978867954375e-03
-2.499462027928038566e-02
-6.918744831112526306e-02
-1.223321203016466963e-01
-1.507262202589171318e-01
-1.129828238183930578e-01
-4.945391945901617820e-02
-1.867129979663836870e-02
1.240613504802666120e-02
7.406272743087448374e-02
9.554331936812751613e-02
4.989829278858110007e-02
3.565048017119203105e-02
6.566080103930634071e-02
5.278654573273206668e-02
3.509861188869217719e-02
2.989279721858999900e-02
-7.213262968020797694e-02
-1.748342056072990924e-01
-9.821267545368235485e-02
2.018182144143733370e-02
1.768280647765681224e-02
6.877509294832119188e-03
6.658565247140828258e-02
8.872826271002665077e-02
4.436732144454079430e-02
4.667349903520825322e-02
5.679176812747562669e-02
-7.116888527569756318e-02
-2.015972536558158223e-01
-1.374370247121818878e-01
-3.013458839929418834e-02
-3.364580502901855230e-02
-3.048923623026916774e-02
3.154899143221546326e-02
4.826709029330199241e-02
1.420937560494205110e-02
1.122200584545049798e-02
2.842223405418236454e-02
1.956696632779846359e-02
2.253734237462481221e-02
6.206382834022050599e-02
8.119618772306279320e-02
4.983716311822875694e-02
1.268208156033153594e-02
1.634898897729455958e-03
-2.303792321287003592e-02
-5.514718521765922532e-02
-4.743105665458191220e-03
7.092809571070594898e-02
4.228800214226383081e-02
1.276197176812493214e-03
4.323371047071895151e-02
6.784876620436484929e-02
4.490028224945919605e-02
4.651599759354314162e-02
5.016850715815733552e-02
1.439129570063927069e-02
-4.323593422462006231e-02
-1.275987104190514920e-01
-2.078429979665137317e-01
-2.032064963082662601e-01
-1.453738754901471308e-01
-1.063556841407748560e-01
-4.188283866798583888e-02
6.671528440391523429e-02
1.378750484849282920e-01
1.422570072819548392e-01
1.224795313167720973e-01
1.090169485481412986e-01
1.003514955587390400e-01
8.010952511555011202e-02
5.431379361921977872e-02
3.274737005539414200e-03
-1.165480682914439847e-01
-2.020277131519180036e-01
-1.310892439667067366e-01
-3.239133662101865985e-02
-4.113337544619254799e-02
-5.215850567170672580e-02
1.504361592629285989e-02
6.702316253532371315e-02
5.430779588933599966e-02
4.200272880134308523e-02
4.780432844278755672e-02
1.678202798928719527e-02
-4.537944984366386325e-02
-7.126394439751784771e-02
-5.476214669791049094e-02
-3.414929933616820540e-02
-3.781331582072342771e-03
4.341023444333579756e-02
8.206071584762303361e-02
9.598960289724625672e-02
8.359917740586003676e-02
6.538830440336890204e-02
6.338608548150401201e-02
3.408452370574280993e-02
-4.134673962403315195e-02
-6.365245940620217757e-02
-3.741534405357316295e-02
-9.786569521285387596e-02
-1.592665071212920891e-01
-6.965381392322707310e-02
3.736440620914054794e-02
4.792845785270640618e-02
4.973572656185959451e-02
8.357277750311058184e-02
1.347652583627423351e-01
1.335816890130020473e-01
-2.362414071996178297e-03
-1.044938057618063215e-01
-1.835708283004201802e-03
1.178237145959771109e-01
8.982541903750150547e-02
1.324634212088986532e-02
-6.790361381310643096e-02
-1.743398017109481501e-01
-2.100012481719329971e-01
-1.401697569535820254e-01
-5.899264411278212772e-02
2.389356564584293671e-02
7.919950862586744300e-02
-1.338367764622647171e-02
-1.315451779099356955e-01
-6.992108661056926910e-02
3.737059326934438069e-02
3.984393567191978069e-02
4.779238139639008232e-02
1.033918049269365036e-01
1.094853379784569147e-01
6.029616777408092210e-02
3.105396523818135246e-02
5.076402650112643578e-02
8.737414672808295479e-02
9.122801115471938782e-02
3.839130239039720977e-02
-3.355498835232996468e-02
-6.734422463570419182e-02
-6.828729353969049953e-02
-7.561875553395423777e-02
-9.773085820991479766e-02
-9.987917840217881704e-02
-4.520272289020343254e-02
-2.133331060938110577e-02
-1.221788360956065217e-01
-1.726495054685008301e-01
-2.197474034010402436e-02
1.405087563634770109e-01
1.693920206915922044e-01
1.437335433315630739e-01
1.284556897768142358e-01
1.559034300212887025e-01
1.432746515744058036e-01
-5.112825748855653885e-02
-1.979902479245863045e-01
-1.629403700264182159e-02
1.747558208480287645e-01
3.852950893960364193e-02
-1.585236418410629344e-01
-1.746831807936310987e-01
-1.521455469300024843e-01
-1.324794224681291599e-01
-2.156565684561103161e-02
9.927709965866120256e-02
1.378816523284371598e-01
1.271649311295645901e-01
8.960697598413368270e-02
7.158251799164259965e-02
9.824316803340604753e-02
7.755346518184351445e-02
-1.633045799116414690e-02
-9.603503604788499182e-02
-1.401972499350718770e-01
-1.767945776151230997e-01
-1.739034376766765977e-01
-1.058021891255936375e-01
-2.932368896084522336e-02
7.565225443945163691e-03
3.249953316555156957e-02
6.420240983083452813e-02
7.370348907564990004e-02
6.211212911517109692e-02
6.765439498350359071e-02
8.022145871715760657e-02
6.291712594903650646e-02
3.677398274832169300e-02
2.948355601915505012e-02
1.352491620670692729e-02
-2.607965672794504766e-02
-4.647684586666153000e-02
-1.498902235241292638e-02
1.695653935687291627e-02
-1.197453023618987554e-02
-5.261764381723221112e-02
-6.013897204714548084e-02
-8.790572502909788088e-02
-8.666450093790950548e-02
3.844028606786704938e-02
1.313002250351941180e-01
2.290747781484753914e-02
-1.323361995259390023e-01
-1.143968773726782295e-01
3.832129357867007646e-02
1.075877812010004042e-01
2.633938554680943095e-02
-3.243399815661407448e-02
5.865758365769595598e-03
3.997154376985685709e-02
5.355370176439686047e-02
8.138030903897802704e-02
7.787113031735652668e-02
2.146935876231920171e-02
-2.419929152283901985e-02
-2.169239729989385843e-02
-1.401903288583293897e-02
-2.123152986316518415e-02
-8.393002763494965268e-03
1.337226325853167058e-02
1.499161845836063413e-02
2.527507901093917903e-02
4.296619078391888946e-02
2.539111235718563564e-02
8.662022256157534544e-04
9.851844528493655315e-03
1.471983815238285705e-02
-1.913524888918136102e-02
-8.535412429609134932e-02
-1.616983751359576948e-01
-1.881670212589588165e-01
-1.320319720972912281e-01
-6.161266293514607723e-02
-4.532101947644715662e-02
-4.973800243499435642e-02
-9.550517354517220822e-03
5.871177554600157111e-02
8.779329219991405253e-02
8.858831641073718066e-02
1.250641429356698087e-01
1.662921902842086630e-01
1.395059223296344630e-01
8.216180956590547757e-02
5.352591273968547447e-02
2.234867736487072473e-02
-1.887802255631298651e-02
-1.479140526120727855e-02
8.212419364964567564e-03
-3.089959126233235431e-02
-8.756214661409843225e-02
-6.984575230979556126e-02
-2.605003292835790865e-02
-3.510528694509586212e-02
-6.020342355722971273e-02
-4.899321667490284804e-02
-2.011865930284457635e-02
-1.128515070584641330e-02
-3.273424373364502288e-02
-5.215873104451997089e-02
-2.017518929525333182e-02
5.210290004650607043e-02
1.021316919390977684e-01
1.116563786469774167e-01
1.033036621075551220e-01
8.962899631764088826e-02
7.066809900891043994e-02
2.187044202407879140e-02
-4.049664166657985370e-02
-2.989569249429722964e-02
-1.414840887573095424e-03
-1.057766302365082817e-01
-2.240100794899845260e-01
-1.675112549658384353e-01
-6.242374577218724740e-02
-3.391058184946954546e-02
5.757905309706833757e-03
5.942643084054823055e-02
5.822359507437906145e-02
4.422707944107553968e-02
5.330568614856786430e-02
5.675704298336559095e-02
6.045050409217186949e-02
7.504187042361604165e-02
6.190265958002502678e-02
1.294955787013555779e-02
-2.688236200310772928e-02
-5.614657311502346121e-02
-1.069083957657543660e-01
-1.497705582705671223e-01
-1.301491905120541748e-01
-5.899731822123750052e-02
1.588419431374990531e-02
7.495884693225859929e-02
1.138071381263477955e-01
1.225119953647129389e-01
1.070925484659860927e-01
7.871035693143979550e-02
3.711806888333373661e-02
9.881189292311257089e-03
1.796404120817243766e-02
3.014636562782399901e-03
-5.764839586357697193e-02
-7.181001841218495607e-02
-2.038336380538117304e-02
-5.810378800911160900e-03
-3.657928336514820744e-02
-1.823003338142426336e-02
4.808267766750323052e-02
7.173027441318280406e-02
5.950115744687520247e-02
9.901710117752100804e-02
1.157667519530942990e-01
-2.819126937495326085e-02
-1.730967103802081575e-01
-1.236114498994264621e-01
-4.787120926601574206e-02
-7.092099801919272972e-02
-3.820790259816435330e-02
2.371947167415335359e-02
-4.772189795331591849e-02
-1.216519706126341915e-01
-5.076007445578485655e-02
1.961741394973165811e-02
2.530456229739914964e-03
-1.239441807361175638e-02
-9.966359379853722417e-03
-8.210554673958413499e-03
2.542224393655168058e-02
7.993229341626437168e-02
1.085216981633440186e-01
1.043049287759642285e-01
9.199682597380157145e-02
8.182970159392273513e-02
6.913554360760924833e-02
5.496176416705995937e-02
3.372832103554538469e-02
-5.780595870992479013e-03
-5.101517416622079054e-02
-7.089669118976855977e-02
-7.001879555393550336e-02
-9.399670182445586664e-02
-1.415706642423320283e-01
-1.625004878680623710e-01
-1.545194553396281589e-01
-1.334147185817075865e-01
-6.738592976125606926e-02
5.072789773566060284e-02
1.539924902024865649e-01
1.825676017566787157e-01
1.592659492207664784e-01
1.317979517535237954e-01
1.013460231660565369e-01
7.906160200344886091e-02
7.965355304345242415e-02
6.000293710376801426e-02
1.247543924605027700e-02
-2.272731776210283952e-02
-5.731287433512621821e-02
-9.336592990542495751e-02
-9.846134780667009645e-02
-9.204821522514150534e-02
-9.854129773018054095e-02
-8.517284406745159742e-02
-3.650489082547591496e-02
-6.814438315857368825e-03
-2.774942399025766282e-02
-3.594538760377602449e-02
-6.968378917721875822e-03
