4.164211312980820728e-02
8.718686896096771236e-03
-4.823169230184589512e-02
-7.673486874763014998e-02
-7.728596285932733123e-02
-1.041425013821852541e-01
-1.475323919292392816e-01
-1.650690525467034819e-01
-1.629241003678170707e-01
-1.480364918600544921e-01
-9.692387187774351154e-02
-1.731761044190422219e-02
2.968080361949692811e-02
5.201983358868442209e-03
-4.544635672432202622e-02
-6.325863988700392015e-02
-6.738553061690188972e-02
-9.137482946015286489e-02
-1.107139740755192225e-01
-1.120922833419806530e-01
-1.158737036344608395e-01
-1.117498066494921061e-01
-8.005487110340558932e-02
-6.046705574537933336e-02
-9.278972895212764249e-02
-7.441607833357793966e-02
8.943383198932103317e-02
2.169555598937282226e-01
1.666614714461504554e-01
1.551076902947378378e-01
2.796240804585507500e-01
3.108813878474868120e-01
2.214425017671890206e-01
2.144900172468792443e-01
2.990265608957393129e-01
3.741527628478040213e-01
4.349473314283973102e-01
4.774505509907577272e-01
5.074428363652703222e-01
5.539563277309651479e-01
5.030024479080620337e-01
2.370883952797198935e-01
-5.516376260950371646e-02
-1.628070685004233686e-01
-2.217044945172775006e-01
-3.852374744041428545e-01
-5.618844243342363542e-01
-6.582535746689153200e-01
-6.945936416806214320e-01
-7.306941595839692161e-01
-7.985353616961445855e-01
-8.399738677640289364e-01
-7.909258712162799965e-01
-6.784864749303021192e-01
-5.349199931653717544e-01
-3.565114686604071714e-01
-1.806910550105787494e-01
-4.193588782855919850e-02
9.824102400170689475e-02
2.541325098681900818e-01
3.766993341072140677e-01
4.613873828187317061e-01
5.441384893648176790e-01
6.191614527693461989e-01
6.639024429828389584e-01
6.893068085200539930e-01
7.160740242097716202e-01
6.811628623503572788e-01
4.976555895315234457e-01
3.017829163422470762e-01
2.727184662582279318e-01
2.612021736823362805e-01
1.105649134229631791e-01
-3.976723030253681568e-02
-1.173713631313564598e-01
-1.999833282451428107e-01
-2.445578674238379491e-01
-2.182737288095004669e-01
-1.961364518490787967e-01
-1.528618907272659144e-01
-9.487325994859685530e-02
-1.749936129261275009e-01
-3.394978528983890742e-01
-3.728549406988818649e-01
-2.875443190619700884e-01
-2.167812417944240400e-01
-2.013602496474415637e-01
-1.825921092305388682e-01
-7.648270340904472775e-02
-1.601792906426420526e-02
-1.835567620076141715e-01
-3.421270695097344272e-01
-2.128066712347357892e-01
-3.667383648217206055e-02
-7.706894713702350241e-02
-1.512170577348329326e-01
-8.448325705174158928e-02
3.865227031816130532e-02
1.318443021447938124e-01
1.609885395610355929e-01
1.729988066432802396e-01
2.903481380589822414e-01
4.386912301006564152e-01
4.418394162757625643e-01
3.581370173153171077e-01
3.011077594958131987e-01
2.317836737673701353e-01
1.326677375349699928e-01
5.939175901839104099e-02
2.937269751343486723e-02
1.501955449079517280e-02
-1.515176972947805678e-02
-5.031168109787721721e-02
-4.287923478555005080e-02
-1.624249848757863129e-02
-4.555564830894832939e-02
-1.130285193138645394e-01
-1.524132140982026318e-01
-1.654939453565834051e-01
-1.806702178019397032e-01
-1.969239099045921593e-01
-1.912657286611929019e-01
-1.420640611916803853e-01
-6.316799835447842182e-02
-7.999469858010838097e-03
-1.895522438974356350e-02
-6.324163232735946494e-02
-5.691726538674111990e-02
2.310628556968934849e-02
1.053439735445042824e-01
1.290331249935648683e-01
1.377273941229094911e-01
1.772223800150612427e-01
1.655521619474228656e-01
5.045695901878163164e-02
-5.750128278455642061e-02
-9.290055894654063173e-02
-1.340450338800213415e-01
-2.100607860529575266e-01
-2.576405699659793935e-01
-2.674493856611263043e-01
-2.806492821251530545e-01
-2.820409293342535095e-01
-2.407741656580179024e-01
-1.886030385893965877e-01
-1.398682277243319116e-01
-4.664660494444057559e-02
7.440273255573387479e-02
1.441250320118421524e-01
1.767719820161836042e-01
2.282977429836181849e-01
2.687093767002736722e-01
2.769394769293521685e-01
3.001838088750102829e-01
3.547846682915918315e-01
4.367688810141384104e-01
5.595222239942159170e-01
6.859684394646846650e-01
7.512128797584087803e-01
7.321614884890519370e-01
6.315971273322513735e-01
4.609510313818557803e-01
2.237123976631282263e-01
-6.366285969832494174e-02
-3.303950053591075964e-01
-5.351780094346566541e-01
-7.114823036050653693e-01
-8.669365116672727023e-01
-9.660247296295507713e-01
-9.947067698585487783e-01
-9.675976235315615348e-01
-9.132782838898598765e-01
-8.351919384114824263e-01
-6.884453311488121230e-01
-4.751546587047801307e-01
-2.850053712274461803e-01
-1.460079154549910052e-01
1.600306775132798176e-02
2.182501760136051072e-01
4.119177835906525642e-01
5.895622005305590774e-01
7.449907277072522760e-01
8.510275505489526271e-01
8.999703947161838968e-01
8.455377193745275965e-01
6.567499569531268788e-01
4.741774793028366575e-01
4.309975063885772562e-01
3.721749083663020152e-01
1.541352852187170552e-01
-1.253848417269026738e-02
-3.418989573732092446e-02
-1.610302391978311320e-01
-3.570340234214596231e-01
-3.516279814725942199e-01
-2.545378778329799863e-01
-2.728457148791949560e-01
-3.038300237513523183e-01
-2.544521999123986467e-01
-2.209877117318717887e-01
-2.444394161677356792e-01
-2.370928763485141699e-01
-1.648385448845303136e-01
-1.079207485892563767e-01
-1.035595117958739153e-01
-8.587447655790186873e-02
-1.703795415175481803e-02
6.666557911985662721e-02
1.237404517522526504e-01
1.400897804879146502e-01
1.362545498794743293e-01
1.212311372592480285e-01
6.841290323560673958e-02
4.647533635282886932e-02
1.590588138722252298e-01
2.630815284148237398e-01
1.679461467951305909e-01
1.184852662641825913e-02
-3.375906692972235196e-02
-6.205803702909566677e-02
-1.341394722449673615e-01
-1.751120040701655278e-01
-1.905135113894886878e-01
-2.037072072714234405e-01
-1.590878690428585429e-01
-6.624103632959871257e-02
-3.983308750949956373e-03
1.554857168378526167e-02
9.357192497480112947e-03
-2.695136423353707358e-02
-3.767744471044651156e-02
5.121465752339644795e-02
1.909608869615785909e-01
2.859778693781482306e-01
3.280699311851941191e-01
3.127305571326811084e-01
2.045321554950071119e-01
6.057250669807536653e-02
-1.197843523115919850e-02
-1.215122553392587040e-02
-1.779024151815405269e-02
-5.842038516964321443e-02
-1.073051303560393077e-01
-1.453122399047107605e-01
-1.596359320098815204e-01
-1.425952157184461888e-01
-1.209537320745968370e-01
-9.640955645207423264e-02
-3.161086716504281358e-02
3.804522496942124021e-02
5.526662867633627685e-02
6.658256289929871674e-02
1.061743156630977347e-01
9.730262946020137860e-02
2.750105803878369337e-03
-9.619514070566512198e-02
-1.335282708552119335e-01
-1.226524764112088967e-01
-9.169094809620356723e-02
-7.516252407830464888e-02
-9.769670894778742509e-02
-1.165826665842716048e-01
-9.682238293183988154e-02
-9.880935623238221166e-02
-1.767690129602041416e-01
-2.654364241238004185e-01
-2.634416750266084239e-01
-1.790027183040675263e-01
-9.765650586105016628e-02
-4.279671234032549065e-02
2.390919890761039959e-02
9.593926198692651064e-02
1.254053174135822124e-01
1.117286760330044870e-01
1.010343755289794254e-01
1.211176426439997816e-01
1.664415722121533048e-01
2.250161545444753497e-01
2.811525325208111825e-01
3.025398616584780154e-01
3.012594240374181220e-01
3.712838201769437796e-01
5.378672772748720465e-01
6.829304254267569707e-01
7.467452340101266017e-01
8.016888603177454442e-01
8.407394353653898644e-01
7.284283754297717906e-01
4.273417984240440726e-01
5.586583691444173272e-02
-3.128864041032113352e-01
-6.622816105494007122e-01
-9.132628719561050046e-01
-1.054255904327259463e+00
-1.183470814211414979e+00
-1.294845726048860168e+00
-1.295219423482900201e+00
-1.187255877608676347e+00
-1.012574581890865577e+00
-7.636190954476971271e-01
-4.727761231802877218e-01
-2.180457541767413243e-01
-3.330913208958935501e-02
1.066276190255863732e-01
2.893984199456355877e-01
5.398218841799429235e-01
6.922199023144930408e-01
6.657697272892375562e-01
6.281110735197253936e-01
6.644258263306972445e-01
6.863953625837854178e-01
6.619247128494376575e-01
6.201070806290258641e-01
5.666086946494305332e-01
4.991676533969241492e-01
4.093047965202142313e-01
2.889057663228434825e-01
1.652077826169706942e-01
7.130156898974637780e-02
-1.370728486822075931e-02
-1.126621467986779757e-01
-1.871094251688922572e-01
-2.254786241245636813e-01
-2.789058570978012463e-01
-3.355382385642643461e-01
-3.409272568716851248e-01
-3.231564970871366738e-01
-3.141444668318544853e-01
-2.849572687934228132e-01
-2.458072492184587010e-01
-2.292012252929782057e-01
-2.055795805205376525e-01
-1.376575193978394063e-01
-3.718573248469560222e-02
6.264923276212697179e-02
1.381603131851864008e-01
2.038340793446317689e-01
2.733298646652269071e-01
2.669596912035175351e-01
1.119110023731067632e-01
-6.300569556960591844e-02
-8.322995563751157955e-02
-5.976452075867259156e-02
-1.980885511740577420e-01
-3.810477694459475928e-01
-4.089123561917494820e-01
-3.455835191904404469e-01
-2.711875774852418042e-01
-1.315792255632291519e-01
6.635659351800689276e-02
1.995951669778212589e-01
2.004666236050918204e-01
1.794645608497486555e-01
2.350931852808013367e-01
3.049148226243972304e-01
3.297968513478637398e-01
3.211994461283057545e-01
2.892111146492845064e-01
2.486581436980480064e-01
2.226024144748611489e-01
2.001636190808662730e-01
1.317493663522652514e-01
1.703609700885611034e-02
-7.506808599479383726e-02
-1.383061499974769237e-01
-2.186291928491402026e-01
-2.765911289992033506e-01
-2.669186745767752056e-01
-2.369062113560443383e-01
-1.978948921218347534e-01
-1.146218201535907227e-01
-3.800529102485442762e-02
-1.808047736118349041e-02
4.250085494532651609e-04
4.584870190934117046e-02
7.393095151323345049e-02
8.972686631297799309e-02
1.135581944193297249e-01
8.724233680019649606e-02
-1.844806505289692949e-02
-1.162044858479049925e-01
-1.343523817659752762e-01
-1.119983894018926895e-01
-8.821662379027266077e-02
-3.336377545202224432e-02
4.316990893175515209e-02
8.330146522269951670e-02
1.096629422262260511e-01
1.454670313867041931e-01
8.694145827673477323e-02
-8.549370388390654940e-02
-1.990805868091424236e-01
-1.871828968697003270e-01
-2.046974629422946002e-01
-3.332135620328170456e-01
-4.086900309453756486e-01
-3.128819494337123364e-01
-1.931055864625160212e-01
-1.558368393502830296e-01
-1.067856553005500919e-01
4.787412794579268271e-04
1.378323660969497100e-01
3.001860516194401196e-01
4.392765067531707035e-01
5.271738581024970616e-01
6.354933959785109554e-01
7.734808756315727507e-01
8.488989533148890709e-01
8.512190576259670571e-01
8.387333403433544499e-01
7.882507737044264218e-01
6.448497814507071491e-01
4.330534644229508956e-01
1.855935616511125708e-01
-1.308164343499649274e-01
-5.064423876556294335e-01
-8.506917832355389564e-01
-1.119139947279482294e+00
-1.312200156729914191e+00
-1.393128113117693356e+00
-1.339840531269810509e+00
-1.197236564091564537e+00
-1.015109449773702099e+00
-7.911357094264359624e-01
-5.232640711655378585e-01
-2.674174376304304657e-01
-5.561246279870774023e-02
1.560867804195492647e-01
3.758183365170166823e-01
5.537190843376922356e-01
6.747636191571789732e-01
7.478441030233342612e-01
7.750537881522653327e-01
7.576622653435506338e-01
7.013252929864010055e-01
6.618990167666519708e-01
6.844349056703045164e-01
6.985148933054928788e-01
6.538521683081974789e-01
6.036231830558099754e-01
4.996114599680069324e-01
2.303249326294238286e-01
-9.879147923560210875e-02
-3.054365827198517458e-01
-3.864606995117013666e-01
-4.023393155941710209e-01
-4.359506815300961957e-01
-5.715693956801708442e-01
-6.723813057324967701e-01
-5.843354712343434842e-01
-4.527497939413351880e-01
-3.961931788622262696e-01
-3.038366181524648213e-01
-1.558485288931110713e-01
-6.048314011004471413e-02
-1.531184315742269153e-02
4.503200834640117001e-02
9.278908289134848997e-02
8.041248077428735097e-02
4.859460843284214848e-02
6.012091230614449028e-02
1.215142540043479269e-01
1.939542300869511460e-01
2.286291790296872406e-01
2.298846016265229664e-01
2.349286866478439706e-01
1.760350445713157186e-01
-9.647583324604396687e-03
-1.473898735949027705e-01
-9.418729961693395047e-02
-4.101537845233724916e-02
-1.331037596129922840e-01
-1.625585641570603257e-01
1.019333000014467638e-02
1.468642157072930221e-01
9.964359843740912270e-02
8.243328144359368670e-02
1.194326447490550031e-01
-1.711403016187676082e-02
-1.900577222823415791e-01
-1.271493165016034099e-01
2.388369779153995398e-02
5.479630593647728809e-02
3.299821381204539467e-02
3.303053692934306701e-02
2.647476636608276507e-02
8.646188937078559678e-03
2.242597736630732794e-02
7.526438145532174384e-02
1.170254607567053490e-01
1.635769319761320451e-01
2.427254920381464176e-01
2.215944256182729999e-01
3.579470776261908793e-02
-1.162082305462286830e-01
-1.126968530005681424e-01
-6.672669037295958505e-02
-5.633564574039089112e-02
-7.003290300755317388e-02
-1.082484636467389572e-01
-1.359817515097492824e-01
-1.198812326181612348e-01
-1.031914022276331500e-01
-1.088081935580686999e-01
-8.152461019770020079e-02
9.458802808821348967e-03
6.949209176329225468e-02
2.740146519797481695e-03
-7.157916913656131586e-02
-2.865626329414601436e-02
-6.943066194467557850e-03
-9.406672412933150818e-02
-1.367777709567688238e-01
-8.577800083786095431e-02
-6.791474544883771558e-02
-1.148487727614544568e-01
-1.524532419961431851e-01
-1.464062144861237591e-01
-1.178340327879634636e-01
-1.128149488719472487e-01
-1.517247532211765115e-01
-1.827104401018083135e-01
-1.461555208360328928e-01
-5.849175972718547584e-02
2.977029949741821085e-02
1.143257515657689904e-01
2.148208671401355407e-01
3.253540231283266748e-01
4.242601279284630156e-01
4.944073855220957325e-01
5.645018842435317596e-01
6.744425021550374266e-01
7.172916361789144490e-01
5.728000111637682190e-01
4.164529007843805197e-01
4.332200454263268052e-01
4.337624672203190257e-01
2.533509048363802307e-01
6.040363647879723463e-02
-4.701317196834856049e-02
-1.802608894274987383e-01
-3.328664841877500002e-01
-4.216342250002131919e-01
-5.361565845333080560e-01
-7.739079380463523838e-01
-1.029630251270816865e+00
-1.117185685164145736e+00
-9.715751815266385760e-01
-7.482838226919339419e-01
-6.359243148102199372e-01
-5.821374787046256216e-01
-4.430097242365584331e-01
-2.375116998050459671e-01
-5.207857415127009615e-02
1.112172249494328413e-01
2.846838427591770748e-01
4.466907566656820316e-01
5.521865209928293883e-01
6.107104131929000923e-01
6.709467227408291157e-01
7.144767913735786680e-01
6.602234495821655003e-01
5.244796004542008339e-01
4.133679481556714053e-01
3.473356146359519170e-01
2.779286834058638522e-01
1.956303305845678575e-01
1.128857385623266152e-01
4.529153770423230418e-02
-2.397399529528165818e-03
-6.421832032930638312e-02
-1.513652422284324783e-01
-2.195040877636960652e-01
-2.529292677139528545e-01
-2.710458208054030704e-01
-2.583042812688448042e-01
-2.046589740655814782e-01
-1.464831516892136920e-01
-9.859682019832145816e-02
-4.802092915795609651e-02
-7.989353473318604182e-03
9.069346645650587513e-03
1.467695756854720673e-02
6.288149540901913359e-03
-1.484144367369757272e-02
-1.354224653776191223e-02
-6.481796443738523095e-03
-6.663884567460845454e-02
-1.248427503537252042e-01
-3.110530137211972579e-02
9.256141082589167124e-02
2.938904143749484360e-02
-6.052481785731481101e-02
3.462148074633947942e-02
1.191208290052986063e-01
9.183146248449597371e-03
-1.404154196583816683e-01
-1.896293670149344357e-01
-1.725590673939463859e-01
-1.274184761815045641e-01
-7.692470772643242305e-02
-6.191794440607850669e-02
-9.331517573990297243e-02
-1.304817474002596400e-01
-1.172237620618380716e-01
-5.239695163450470983e-02
3.445750597303706697e-02
1.583424338236899265e-01
2.873668079885119964e-01
3.227887311987877594e-01
2.791322031913988089e-01
2.561666308830184979e-01
2.447322912483538004e-01
1.793751339411509826e-01
1.006647239382414682e-01
7.987336083179052970e-02
8.047986761849346138e-02
4.750366929128351651e-02
7.694297545745874822e-03
-2.345465527971672681e-02
-7.852375819784492006e-02
-1.362964606800552425e-01
-1.423396797965583993e-01
-1.365858596958210158e-01
-1.941885123911941124e-01
-2.480245296796457222e-01
-1.792739587197473283e-01
-5.369014346201660126e-02
9.621459671124876767e-03
6.444049250060093770e-02
1.133754896856895705e-01
2.071497848182164703e-02
-1.210445689027002808e-01
-9.939782206662928221e-02
-7.998323237791597068e-03
-1.654972799310154910e-02
-5.800970880671020569e-02
-6.272197215142867599e-02
-8.474384491380099194e-02
-1.191305199392256597e-01
-8.956013151115606308e-02
-3.070621034058842493e-03
4.918020665800135194e-02
4.888605867246026415e-02
6.602703385466497654e-02
9.199290859397146747e-02
3.577381926396720757e-02
-1.007452898689272930e-01
-2.138838015773289192e-01
-2.337058877340694729e-01
-1.769565398624115271e-01
-1.199506554447416357e-01
-1.104979183022594402e-01
-9.088995386902594398e-02
-1.421231356771782313e-02
5.844301025840296926e-02
1.717205817757604669e-01
4.577922469885095658e-01
7.351438240332928142e-01
7.742078981812895444e-01
7.945072009615841147e-01
9.028258398308994792e-01
8.034301290140924978e-01
5.577939717072248893e-01
4.648205186548839962e-01
3.723764419182822860e-01
8.544594600110254345e-02
-2.597033805046309318e-01
-5.637212744002101372e-01
-8.119817122562911216e-01
-9.546616208205448428e-01
-1.026562745275243715e+00
-1.086240785256876062e+00
-1.097851865446761277e+00
-1.034935929920617781e+00
-9.309075330870694165e-01
-7.905750550671268861e-01
-5.949510168690428369e-01
-3.641326532942682492e-01
-1.174459065007999181e-01
1.460528284896837892e-01
3.767279255381183467e-01
5.237032105526819858e-01
6.308710007144616716e-01
7.328397808267738123e-01
7.758224606042781746e-01
7.494397260561617147e-01
7.187426370592290281e-01
6.776546253136811471e-01
5.672819229489606263e-01
4.318365255428134875e-01
3.615793373187315418e-01
3.441492787892311278e-01
3.114764773783717522e-01
2.494457263138666336e-01
1.887398626062240792e-01
1.138020654151009892e-01
-4.115335941828163202e-02
-2.642761817965081361e-01
-4.421394018713340479e-01
-4.999954689323536927e-01
-4.818033481847351363e-01
-4.653576259603911525e-01
-4.584411372516263294e-01
-4.404103064689165459e-01
-4.172855435111345601e-01
-3.817538040839683622e-01
-3.165235935587989435e-01
-2.167505362326287988e-01
-8.790402513539419260e-02
2.956999357435755038e-02
1.013253558842882179e-01
1.460143812669592034e-01
1.697640724048387895e-01
1.587732734834082504e-01
1.401730781887601807e-01
1.305828815886339034e-01
1.156363822243060557e-01
1.334135440834958442e-01
1.946436515608263862e-01
1.937123994591103959e-01
1.050299576761375975e-01
4.267536221264837254e-02
2.194219155508893987e-02
-2.722809491738340665e-02
-7.217410265297975747e-02
-6.263634139718970983e-02
-4.075317025012895750e-02
-4.058089899533873224e-02
-3.275723514626104754e-02
1.113135573752335045e-03
3.081302173306094475e-02
2.854350696155205300e-02
2.428844724589829598e-02
5.852130134176435072e-02
9.142554754500942238e-02
6.865291857605006209e-02
3.734150893782292591e-02
5.314436721421905707e-02
6.382757537758952660e-02
1.330390181747895077e-02
-5.224983143011659170e-02
-6.743075230538683740e-02
-3.329977328733272485e-02
1.688773717618021614e-02
5.730751494559167825e-02
9.556800862534786667e-02
1.587139568181697991e-01
1.916475822032758791e-01
1.117093394111600274e-01
-2.338631675493816134e-02
-1.106076870232014647e-01
-1.420099034405452876e-01
-1.385103012008510603e-01
-1.281090986936690990e-01
-1.497591058695431909e-01
-1.819494362332502724e-01
-1.792138534171047182e-01
-1.562257107773319942e-01
-1.402416780937679464e-01
-1.207446891764510366e-01
-8.521842242203743478e-02
-3.837385272997955593e-02
-7.379833141195779600e-03
-1.009898212099955006e-02
-5.735797057586790315e-03
1.117365207683250483e-02
-3.196743430348687742e-02
-1.221896410308080105e-01
-1.562778585462500369e-01
-1.191576934466644783e-01
-8.333830984719332868e-02
-8.174675831122860115e-02
-8.798652789683825137e-02
-8.405105671938051248e-02
-6.811708857494945535e-02
-2.267639404104815348e-02
3.703623334398883915e-02
7.842898337499777661e-02
1.509212626710602634e-01
2.970370990985066184e-01
4.525079519846008091e-01
5.830433785319758533e-01
7.275597257756954983e-01
8.605283292225300862e-01
9.141455683540736787e-01
8.950138593473774273e-01
8.328138280631940393e-01
6.923709046119115307e-01
4.511764812494348798e-01
1.649973373528392240e-01
-1.400984224884085361e-01
-4.990354259746055954e-01
-8.726455089498238449e-01
-1.105893551734006053e+00
-1.123012224972619322e+00
-1.101614804789948776e+00
-1.172968901810245601e+00
-1.152884596196829925e+00
-9.548012114541010176e-01
-7.822365407745668353e-01
-7.028016507413604730e-01
-5.775655768332645934e-01
-3.657222911228041329e-01
-1.346412691215184698e-01
1.356035192890637786e-01
4.726114336323288256e-01
7.042115535817596861e-01
7.107249591992552684e-01
6.740617136380187002e-01
7.191906272215587981e-01
7.390163439618849806e-01
6.991251901952024728e-01
6.668548355691421570e-01
6.263337396944321789e-01
5.398779651362810572e-01
4.387246219193292607e-01
3.341928615551579829e-01
1.921610623770921289e-01
3.579229120536320252e-02
-7.390690151317319545e-02
-1.469639537073699764e-01
-2.221544996002438321e-01
-2.801489304539851455e-01
-3.081547754565413522e-01
-3.435107612492098172e-01
-3.780384837810786269e-01
-3.608594350275831086e-01
-3.187278815580505964e-01
-3.149590496686501817e-01
-3.105691948692718141e-01
-2.253500346680334110e-01
-1.118869600558752564e-01
-7.057869506639979917e-02
-1.223468425870753717e-02
1.667820962076353164e-01
2.837723740549065177e-01
1.945532218639625943e-01
8.739698724233786742e-02
8.700126211930088449e-02
9.627782644926735633e-02
1.067470956461712278e-01
1.516180177476503244e-01
1.347649711086217061e-01
2.706765681724333100e-02
-3.989141230183075593e-02
-1.399424818793855441e-02
1.011174683084248294e-02
-2.401711458226163561e-03
3.385664976971899248e-03
5.519158728063132922e-03
-7.876700508354562980e-02
-2.147783765583035354e-01
-2.805021500525453626e-01
-2.598498871207627348e-01
-2.100666193301795326e-01
-1.319721594680000332e-01
-5.181613976828956802e-02
-5.074538893844976473e-02
-1.008953861580638017e-01
-7.748592884211785714e-02
3.654117147937651494e-02
1.505932584711847100e-01
2.328441226507408923e-01
3.001725801236785895e-01
3.297916550992693319e-01
3.138899290308901358e-01
2.834165705569088867e-01
2.318283508416648653e-01
1.484362097802134073e-01
8.003596916548087747e-02
5.061406901337487524e-02
2.856997849274042767e-02
-3.080705238018011105e-04
-4.062656405755439570e-02
-9.229571390330243430e-02
-1.118739510376649260e-01
-1.013749622303770359e-01
-1.380786306673788821e-01
-2.192042795683725454e-01
-2.779556126041716202e-01
-3.077388740548387958e-01
-2.770897188022438673e-01
-1.525685369878494180e-01
-4.288837959224123253e-02
3.798041385031494799e-03
9.759000929676121816e-02
1.821200883933163372e-01
1.089952266224250288e-01
-2.285514632479448971e-02
-7.253619753379064727e-02
-8.315984053614748628e-02
-9.293921889238038192e-02
-7.153180546497682479e-02
-5.618055534155475678e-02
-1.040923114908775815e-01
-1.163436752342744407e-01
2.459351840846731724e-02
1.572822245775238326e-01
9.608442470351405418e-02
4.935730821206907315e-03
5.073855600202087368e-02
8.088901395799953653e-02
-2.116508398466854929e-02
-1.179189827243788125e-01
-9.315651966822188768e-02
7.825462394772671193e-03
7.952758066370431422e-02
4.673985677603207517e-02
1.642610795718160016e-02
1.663062427809328114e-01
3.690515845319559118e-01
4.296570710420677952e-01
4.889932809468998665e-01
6.499018263331026724e-01
7.491522173547355834e-01
7.260679404485863575e-01
6.397121931277547358e-01
4.585873501574053712e-01
1.833055001768238990e-01
-9.473340876301393487e-02
-3.504605023421391019e-01
-5.995891449452072086e-01
-7.955103003118896288e-01
-9.170512822686208709e-01
-1.000648700660957235e+00
-1.039780867118814234e+00
-1.008540250909248259e+00
-9.159430734155077358e-01
-7.692510707199036180e-01
-5.922115647870347388e-01
-4.268340290742641541e-01
-2.523185109246781632e-01
-2.499131968055223751e-02
2.166317478937020147e-01
4.065529579590548837e-01
5.392024448829756400e-01
6.322881707928518225e-01
6.860963154703112465e-01
6.997369168034173192e-01
6.743146838946789678e-01
6.159056140498400111e-01
5.490066307362898579e-01
4.927583088231585196e-01
4.333617862097983719e-01
3.413835931580425642e-01
2.026097165921452725e-01
6.324379342708991159e-02
1.501498514538027185e-02
5.003849655935119212e-02
5.909311743093280389e-02
3.395535535824908968e-02
2.987578758407311019e-02
-2.931895978040101325e-02
-2.097301481725844796e-01
-3.838540169943298053e-01
-4.326056143322897785e-01
-4.037272434615660766e-01
-3.599357750012814883e-01
-3.125762348206914121e-01
-2.900994086020674545e-01
-2.955618582064068467e-01
-2.867029115604125544e-01
-2.488811767916703777e-01
-1.798604114738995008e-01
-8.859902134304104004e-02
-3.518052701625629108e-02
5.752769708281979533e-03
1.279308034395734150e-01
2.222646313349809777e-01
1.564894197607977766e-01
7.061974579267080165e-02
6.048217058302453319e-02
2.380225899661226815e-02
-2.650699185359859864e-02
7.803612046848938492e-03
8.717015527026153454e-02
1.303829498575514723e-01
1.489299110606140397e-01
1.761633867698436107e-01
1.841303699457880194e-01
1.345674549477548221e-01
5.567520190181073775e-02
1.070797855779837687e-02
1.968565067993473944e-02
5.057788722530393022e-02
7.190518048917118876e-02
7.120212439426626405e-02
4.159209795437060486e-02
1.287961469164771236e-02
2.423967996322997850e-02
3.683138990213194464e-02
-6.846744858596438832e-04
-4.835182478741936740e-02
-4.792922991669923416e-02
-1.950519403993519751e-02
-3.329854209116597796e-02
-1.146083404555287288e-01
-1.832154878963414557e-01
-1.464706558420236504e-01
