4.657942401885896422e-02
-1.556294068798409758e-01
-3.562906021106611032e-01
-4.419892245257387442e-01
-3.588413657297631065e-01
-2.762281318866904312e-01
-2.913454507721361941e-01
-3.154028172100978855e-01
-3.174169204803753419e-01
-3.377302211142702015e-01
-3.380833187228226566e-01
-2.707474703615140865e-01
-1.755749653269017274e-01
-9.740000440103496748e-02
-3.035577428815086631e-02
3.786951404985039460e-02
1.098611785302391342e-01
1.712980130981805460e-01
1.971245497389910728e-01
1.989494079361375789e-01
2.178178661091704493e-01
2.513101205535842042e-01
2.359609740328964256e-01
1.444868869599015282e-01
4.821585445603536468e-02
1.101594019846437178e-02
1.068789352044333119e-02
2.046661529235704186e-02
4.162802564299219327e-02
4.919318901394667543e-02
3.365073963723183570e-02
3.539210132869719666e-02
4.745885494583980402e-02
1.909830492461634874e-02
-2.626924325404706925e-02
-3.636232252291198008e-02
-2.467537409572014007e-02
-1.619084363189475170e-02
-7.178060837043228129e-03
5.777788175125387130e-03
1.940908072751838104e-02
1.256382126714869658e-02
-3.396477842020254739e-02
-8.728530210419346846e-02
-1.039922410750620807e-01
-9.981602189177110618e-02
-1.166847574173186103e-01
-1.449153310631928482e-01
-1.081013486136785384e-01
4.640826694275180381e-02
2.446750079435793812e-01
3.404871657961580089e-01
2.663788435617547301e-01
7.524843806553854764e-02
-1.301432140798290116e-01
-2.784532085450871497e-01
-3.630107336694260445e-01
-3.899249954037346533e-01
-3.441049944109410008e-01
-2.341455025592741879e-01
-9.265075378548896790e-02
5.187176988333730421e-02
1.614855414108595233e-01
2.119546034164949411e-01
2.265416412515691147e-01
2.307821283983746696e-01
2.142268947651831124e-01
1.731585563171223474e-01
1.300963750733067359e-01
8.829704259813286882e-02
3.350164622192052660e-02
-5.223016105573866086e-03
1.903966877543940978e-02
6.708025241620954593e-02
5.478626541181379206e-02
-7.677836420885191665e-03
-5.946903662990055822e-02
-9.546552592225462930e-02
-1.121540208357760943e-01
-8.052095282422995492e-02
-2.136274230157239953e-02
1.450057707847370037e-02
6.676648361949623356e-04
-6.079434841938045203e-02
-8.204018441346072610e-02
6.820724232754065385e-03
5.135459588895521094e-02
-6.628357423466137155e-02
-1.600389126832678366e-01
-1.026825267257239355e-01
-1.972562710601866512e-02
1.746884077942829211e-02
6.534503918537480638e-02
1.161507751081851669e-01
9.249547823391657264e-02
2.551131310404905830e-02
3.982537280771392130e-02
1.050094760073667227e-01
7.635103434368192832e-02
-1.682353428587896049e-02
-3.330326616174841825e-02
4.963002945051667864e-02
1.827814500587802149e-01
3.045000841005348624e-01
3.006247152034201564e-01
1.495001046690901114e-01
-1.466433418947224628e-02
-1.632900070250807301e-01
-3.761981886144983855e-01
-5.440211924529690934e-01
-5.218025285528289370e-01
-4.030100990579890685e-01
-2.992260945334160871e-01
-1.959554767468701386e-01
-8.010392801101158533e-02
5.265332918196001522e-02
1.847440459074994323e-01
2.654763782862539223e-01
3.000640656233969361e-01
3.096458314375404863e-01
2.636450639175385025e-01
1.647404449626647116e-01
6.516748962582445681e-02
-3.286677948711874686e-03
-1.786689351639419998e-02
1.354943218091892582e-02
3.917671772265413077e-02
5.944913788439735308e-02
7.418212365843848688e-02
3.688383341832704443e-02
2.387143532431814513e-02
8.232009521874512903e-02
4.343377084255796439e-02
-8.317946264241063425e-02
-8.220858872812840390e-02
-2.070389229222670963e-02
-6.399481014365246412e-02
-1.040298336841629645e-01
-4.287980033116725598e-02
1.063360845894657791e-02
-2.460012478235962252e-03
-1.072313302524773547e-02
1.489915216196480065e-03
-1.075250675681669980e-02
-3.724391176242337897e-02
-5.210879423820128503e-02
-5.775965167977004794e-02
-5.096909893234639194e-02
-4.343466361202386744e-02
-7.214647405202878616e-02
-1.276737478602506526e-01
-1.373934009334179251e-01
-9.287210519812191811e-02
-8.975754687057246883e-02
-1.144465058129584129e-01
-1.390044804429288461e-02
1.942790535760672843e-01
3.277906534924704962e-01
3.534880427098798794e-01
3.500014081244560704e-01
3.339181908194686077e-01
2.909127994899319281e-01
1.496340558444830549e-01
-1.286317743251304269e-01
-3.388630955163948189e-01
-3.096238167817623177e-01
-1.970566919630263314e-01
-1.468549299299968802e-01
-1.073514565784372959e-01
-7.055608024864094829e-02
-8.656746189479266884e-02
-1.275724574440349479e-01
-1.241852630902090110e-01
-6.951412373153194324e-02
-2.506358628372478206e-02
-1.068585164938781751e-02
1.115655261844367488e-02
3.334006468463958373e-02
3.554516915943820715e-02
5.597809154620592142e-02
1.074215978497014695e-01
1.279609462172341117e-01
8.515936513536194463e-02
2.307878860810028132e-02
-1.775838975116787732e-02
-3.163923379508595118e-02
-3.615953448799261866e-02
-5.983305188467510916e-02
-4.199848365289830798e-02
9.965139957338021992e-02
2.437648751652697621e-01
2.500141726732016401e-01
2.152729716181637221e-01
2.221993309010898143e-01
1.858367536442298573e-01
7.321323181480919595e-02
-4.118266057622847753e-02
-1.092950638389506568e-01
-1.508257229473762839e-01
-1.975335238880657762e-01
-2.540611508991681422e-01
-3.032860601123271715e-01
-3.185208819236426403e-01
-2.975788077979925061e-01
-2.696625512552612847e-01
-2.269663505356804001e-01
-1.130116618706063364e-01
9.426220275823390948e-02
3.198190697624374579e-01
4.195127583885603917e-01
3.367589568930430266e-01
1.588512379023904741e-01
-4.724111492105032700e-02
-2.120434739905291410e-01
-2.368521103343002587e-01
-2.381973902594068104e-01
-3.401330601050840952e-01
-3.291562316838531066e-01
-7.528070308456634441e-02
2.158285532507171756e-01
4.285744878075945508e-01
6.010082654364232724e-01
6.961847026851035736e-01
7.044121825645934809e-01
6.377105635890737423e-01
4.256857510209959283e-01
1.461037379644483380e-01
-1.015090917530935000e-02
-9.487039333128161056e-02
-2.416932455574610228e-01
-3.807448581966856316e-01
-4.302082923454746410e-01
-4.378613135411656976e-01
-4.420840733137108569e-01
-4.280496629400567521e-01
-4.064345784433776587e-01
-3.972087921475134786e-01
-3.782423055181688976e-01
-3.288032846269984266e-01
-2.524020067027734626e-01
-1.475697129041164679e-01
-2.828108916062058165e-02
7.451440144150490996e-02
1.416340810432489272e-01
1.631368443194393669e-01
1.610000510381512651e-01
1.750578852636013594e-01
2.070709046404463627e-01
2.497301387461474120e-01
2.893989379707436749e-01
2.889858377229728714e-01
2.902609287213703260e-01
3.725045625333293087e-01
4.510260840844098063e-01
3.802628803264827551e-01
1.891577332189100513e-01
-1.703071353803869981e-02
-1.981656822565159293e-01
-3.220924353836872589e-01
-3.561488486838398915e-01
-2.764724180000959763e-01
-6.529019526339827073e-02
1.825175746419526179e-01
2.866247262252583639e-01
1.918781755804257472e-01
1.208478518992211516e-02
-1.326464901874069291e-01
-2.349592755469691596e-01
-3.305085122648996343e-01
-3.903940471351422525e-01
-3.778012415252220979e-01
-3.102822796356117796e-01
-2.063081709938326125e-01
-8.298351990555766222e-02
1.823786661230832051e-02
8.448325014318970594e-02
1.315853953425924761e-01
1.473302563443003310e-01
1.324827933721674511e-01
1.275909637749991221e-01
1.317760428484460178e-01
1.083852163606842944e-01
6.735554460755488471e-02
4.805315709576966909e-02
7.483731607545392184e-02
1.337670153838968756e-01
1.582679691676883160e-01
1.144390959559977855e-01
4.934861130249395406e-02
-9.060346355001532015e-03
-6.295635410046136748e-02
-7.040535139093152817e-02
-9.707045984395118454e-03
3.660395628220858982e-02
-8.001880581117113908e-03
-4.628825874273265195e-02
3.672227944436100289e-02
1.000730535095211010e-01
1.805159898442574434e-03
-1.060615184542937489e-01
-1.034660846347016105e-01
-8.062888984484972710e-02
-6.414484961044014666e-02
-7.068490049209934060e-03
5.181378314657417855e-02
6.001195565816264121e-02
4.134660918185677214e-02
3.767331252130837194e-02
3.843168260661661631e-03
-1.156902762116887029e-01
-2.041498267933762045e-01
-1.547356286806033654e-01
-7.873147836501839802e-02
-1.781258952338809348e-03
2.033699201583248628e-01
3.881942290275862684e-01
2.880487341670410761e-01
6.298360175071592015e-02
-2.268485002523843927e-02
-8.938286556104851899e-02
-2.523656646595648922e-01
-3.611740953704523083e-01
-3.566202832759342578e-01
-3.211822320325692370e-01
-2.553420658407420385e-01
-1.220356188113165818e-01
3.669954159992070558e-02
1.552958266135002208e-01
2.292009371953164509e-01
2.665138521268260452e-01
2.426351778023204953e-01
1.773292921694950841e-01
1.342913894946368980e-01
1.141319239944048741e-01
6.791208450612984393e-02
8.584664580050589688e-03
-7.151332201077095774e-04
3.770031183464692126e-02
6.797935982025252177e-02
6.391147390567376851e-02
1.486538844689081276e-02
-5.152407686038917162e-02
-6.529630694994109641e-02
-4.131626253276835664e-02
-3.613348413816797056e-02
-1.983788021840790505e-02
6.566830865716473398e-03
-2.169303860319160907e-02
-7.271360299826895579e-02
-7.400528403305864367e-02
-5.137421608356296937e-02
-5.437039617881712222e-02
-6.308264217417913766e-02
-3.514832944628756839e-02
2.620766536788567830e-02
7.998813657972828062e-02
1.023441793533154953e-01
1.149725301628576890e-01
1.350105881614323544e-01
1.262961849405885018e-01
5.248713552575361152e-02
-6.234421129140686746e-02
-1.465636573922171060e-01
-1.650949645339056526e-01
-1.893392549870809849e-01
-2.393950535818321623e-01
-1.598455079999163142e-01
9.214644646458891586e-02
2.874094662628976504e-01
2.720166512420686966e-01
1.599192344411469180e-01
7.996021217501474154e-02
3.563223486718014327e-03
-1.160439356465569199e-01
-2.240428461074019384e-01
-2.721660456063477729e-01
-2.919474731049100935e-01
-2.839598394654541669e-01
-2.060353454202587531e-01
-7.731719963152131059e-02
4.055389279892360893e-02
1.126054967921621547e-01
1.570726983681550448e-01
2.140808612225302554e-01
2.553614515119928541e-01
2.348718058315391599e-01
1.964733268349969086e-01
1.819484669181906100e-01
1.572295739890815225e-01
9.220981156156354830e-02
1.254843612331547203e-02
-2.466832400072809656e-02
-2.165669186456608414e-02
-5.089502265061723180e-02
-1.059963681704226696e-01
-1.033752599096789682e-01
-6.131342954733110667e-02
-6.434072117706784999e-02
-9.410147070228069843e-02
-9.518152351214211049e-02
-8.556339086994038667e-02
-7.188376359709262864e-02
-2.654506259135567398e-02
2.307151761184421390e-02
4.137517920768438162e-02
5.515542443457678579e-02
4.897191799857177757e-02
-4.413759834414412997e-02
-1.619990871997712412e-01
-1.777980942515154372e-01
-1.035913389554179859e-01
-4.854198718283979710e-03
9.525795101708438295e-02
1.650032969086289991e-01
1.944247273106340934e-01
1.642392135177449253e-01
3.107721390725463190e-02
-1.045181435073169601e-01
-7.466614778012721498e-02
1.033407214166311705e-01
2.913295521749704187e-01
3.844474754862241550e-01
3.434438289876605710e-01
2.150140611092894727e-01
5.383827623491285741e-02
-1.269950361496916258e-01
-2.651432809228507215e-01
-3.078520409856509432e-01
-3.231468657043803372e-01
-3.567214873817874388e-01
-3.466345015524314177e-01
-2.611218443460106564e-01
-1.375906388361562704e-01
-2.508157161239153027e-02
3.753664267284591988e-02
5.379193227487180651e-02
6.405655579659895460e-02
8.472399207403649712e-02
9.546429370434189599e-02
8.653461566916589853e-02
6.752530431768252739e-02
4.164041738960830297e-02
2.023334483530777814e-02
2.436173561014549904e-02
5.408451872047411596e-02
9.233590396966147307e-02
1.146047241777315845e-01
9.304534178386218712e-02
3.272711940536569830e-02
-2.252904580789111960e-02
-4.510506290871513918e-02
-4.615894961250799344e-02
-4.424425610832485867e-02
-3.959322497798903329e-02
-1.500502728858346332e-02
2.884168197066338743e-02
6.128582981058029733e-02
8.328006541656009232e-02
1.258253086552729993e-01
1.534461060563054313e-01
1.009105351677552359e-01
6.153832573196750186e-03
-5.185046951563394846e-02
-8.376806325603235182e-02
-1.184655673094721084e-01
-1.395492291241478833e-01
-1.634392819122289509e-01
-2.196985355513378368e-01
-2.857750486330466466e-01
-3.493012719405786393e-01
-4.197549836589768435e-01
-4.332073018564548406e-01
-2.804719623564916886e-01
4.395480948012324418e-02
4.068505498302766865e-01
6.794821649526484597e-01
8.425909794492694171e-01
8.711401095899697911e-01
7.198157275795145082e-01
5.232444278637821133e-01
4.203743264581897288e-01
2.821926741095079905e-01
3.416460717468779162e-02
-1.604121105953520976e-01
-2.546449238917586344e-01
-3.535333976104383380e-01
-4.440691456341102072e-01
-4.586098230700849099e-01
-4.324252195242850871e-01
-4.116562173555248783e-01
-3.834566247983932641e-01
-3.504872028910107074e-01
-3.381805538284460289e-01
-3.279472943119304817e-01
-2.779725548603488305e-01
-2.077275463159609092e-01
-1.416796695097815861e-01
-3.529544378222466972e-02
5.239405141706887648e-02
-4.645292885298774044e-03
-7.277311933767822982e-02
1.297409181523528215e-02
1.031653522581198745e-01
1.033233351299402136e-01
1.498890887109223524e-01
2.490942699501195734e-01
2.930241854418950131e-01
3.091043503633180700e-01
3.569222922894641492e-01
3.756182467638143341e-01
3.103943043304412397e-01
2.349655163234250221e-01
2.167182167381219438e-01
2.135598301857562775e-01
1.817885562645918940e-01
1.256356776277810505e-01
8.525841091545399708e-02
1.273955230894572577e-01
2.134446990693183999e-01
2.070660185663684427e-01
7.545765404147666833e-02
-1.200780105609516590e-01
-3.446799752541962469e-01
-5.622306180364159411e-01
-6.871779700183104911e-01
-6.173226057783035570e-01
-3.449545729598030297e-01
-2.868669340199685169e-02
1.401430668928846379e-01
1.254862230960612224e-01
2.875663587460221271e-02
-6.725550159917462190e-02
-1.539667394239004894e-01
-2.263900702236559814e-01
-2.618684986246219704e-01
-2.596565303717896511e-01
-2.143911105932732597e-01
-1.041866892709605308e-01
4.194240578342167680e-02
1.557364186141304008e-01
2.197787698301680304e-01
2.619050884715915517e-01
2.866112500486154291e-01
2.845959820877934088e-01
2.602646814821067967e-01
2.111169106552160668e-01
1.489898683054347861e-01
1.091292960077623331e-01
8.828017042690776417e-02
6.481191858276888484e-02
5.782835119806514768e-02
7.689870773520779412e-02
8.418858934657744153e-02
4.324709285444575807e-02
-3.591864379908076693e-02
-9.602809938784553911e-02
-9.475351748817378850e-02
-5.156830637071107420e-02
-8.417804785219383523e-03
-3.436778822012992105e-03
-4.895354855192761423e-02
-9.788425600821816508e-02
-1.151212255027517090e-01
-1.256719487127197221e-01
-1.344458076583574802e-01
-1.236033378747348060e-01
-1.047836278377801550e-01
-7.924521195319654543e-02
-4.048021746727525211e-02
-9.456401089013737049e-03
1.356104689971267263e-02
3.086375139680049701e-02
4.506338827002111247e-03
-4.497130201098666069e-02
-4.311166038170488601e-02
-1.716263779487788368e-02
-3.500159447246878330e-02
-4.822232426685878204e-02
2.170454518702199381e-02
1.657116799774970561e-01
3.159254709758891333e-01
3.852317631456659286e-01
3.260309620332907943e-01
1.632008931514833394e-01
-5.727002554486659847e-02
-2.530277576985177079e-01
-3.310585444099314323e-01
-3.274980310813205842e-01
-3.209529028508635307e-01
-2.676865279404659348e-01
-1.478007188347026934e-01
-3.916775978610517045e-02
5.735165633040503752e-02
1.737104156352042572e-01
2.506253293165647267e-01
2.599993656276172738e-01
2.451143179137246220e-01
2.099396388018523463e-01
1.475770899458974939e-01
8.880399879679945485e-02
5.391090286547924049e-02
4.195576899771176482e-02
3.514899798975405776e-02
-3.935782121118492488e-03
-8.332057768836156897e-02
-1.615866899986784788e-01
-2.061754116122760383e-01
-2.154455930810933173e-01
-1.808908102765567349e-01
-1.110570065680520913e-01
-5.831862737352147552e-02
-4.431642292190844656e-02
-4.290737885649503758e-02
-4.578540930372718143e-02
-4.867142660837653345e-02
-3.315914976099566813e-02
-1.547711088169273150e-02
-1.710466399873076734e-02
3.082554698396701084e-02
1.893841984114518207e-01
3.235421555695002782e-01
2.764264896657718795e-01
1.335643572007365332e-01
6.619015194721140916e-02
8.301200370778254178e-02
2.791446901556120935e-02
-1.751294841702645266e-01
-3.066243192949714147e-01
-1.931844491472430869e-01
-3.310341486050808607e-02
2.203783363695110617e-02
1.049165093861732095e-01
2.267012568332644473e-01
2.418700019536239310e-01
1.985691448560095995e-01
1.860971408673084693e-01
9.514083808214332527e-02
-9.960385277715713692e-02
-2.512412867325383159e-01
-3.328614202001655142e-01
-3.972000414429721071e-01
-3.925162716981546174e-01
-2.919400380546787743e-01
-2.025288012693347850e-01
-1.952988236523578447e-01
-1.765908938989624866e-01
-4.520052587616518736e-02
1.471762423754219840e-01
2.981563984028671732e-01
3.876162808685700290e-01
4.319918668179905108e-01
4.136813160531317424e-01
3.116613841432291920e-01
1.583735696052941122e-01
2.212086286430819254e-02
-6.073556091962094283e-02
-9.304946003710037883e-02
-9.562017529727996623e-02
-1.089368992950169035e-01
-1.357444231441712890e-01
-1.185378528352575012e-01
-5.200329277746783274e-02
-1.923198738464214699e-02
-5.506933703512632144e-02
-7.462615812892721412e-02
-3.731680649825203089e-02
-2.677425198371799833e-02
-4.219478605770038762e-03
1.458370965710889255e-01
2.654667009633257524e-01
1.965846832175071057e-01
1.203941445389501708e-01
1.404094054500699962e-01
1.056261087749430228e-01
1.691616998267893648e-02
8.256567535288073661e-03
-1.995857323222052088e-02
-2.079863750809126111e-01
-3.585554454168590754e-01
-2.932109243063990012e-01
-1.984117822929004071e-01
-2.092702031390875905e-01
-2.146038615940454308e-01
-1.677268022476016140e-01
-9.050833857414980477e-02
9.815485732000470143e-02
4.015318063151442907e-01
5.632664199476795641e-01
4.073801236652996316e-01
1.315172983137345430e-01
-4.715140326883952848e-02
-1.685476667654405292e-01
-2.910250441817266442e-01
-3.661274500038569912e-01
-3.818270043835522154e-01
-3.702416078516695963e-01
-3.131205250017219388e-01
-1.937846714608625898e-01
-7.393600736614018565e-02
-3.479448076929172323e-02
-9.087128332553659482e-02
-1.683447468450009477e-01
-1.716184063369513846e-01
-8.435006738628292311e-02
6.187273746294577603e-02
2.737831855520914681e-01
5.466405395348470364e-01
8.125378099532190035e-01
9.964979724784115422e-01
1.061807149742183931e+00
1.008246147673607540e+00
8.453390222132429743e-01
5.693975537567034229e-01
1.989482263603749024e-01
-1.778752215449612706e-01
-4.493503389966601591e-01
-5.873396966913432271e-01
-6.539078351201934591e-01
-6.950805472075027858e-01
-6.858254442964424324e-01
-5.961738429710493614e-01
-4.813034631287687048e-01
-4.307644794452580306e-01
-4.222076799676250936e-01
-3.599611183939369075e-01
-2.500665284011189815e-01
-1.807370415316446599e-01
-1.607103667258507618e-01
-1.200276877692553756e-01
-5.022582178671722297e-02
-8.840876080295947959e-03
1.335143019009650545e-02
9.277136361233692674e-02
2.257342121206544761e-01
3.035359840516914098e-01
2.632100977060194413e-01
1.603225022793055843e-01
1.005770722104889214e-01
1.680367021622325152e-01
3.315624772755076943e-01
4.372041007960419945e-01
3.936939390303411113e-01
2.582458670187877670e-01
1.192163927601203599e-01
1.364515123487235193e-02
-6.201089782810170759e-02
-1.154999481149256990e-01
-1.423468006561216526e-01
-1.376979113560183599e-01
-9.493848825570636030e-02
-1.751043591736100441e-02
4.882660068280587906e-02
5.933094642726061824e-02
3.651145401937516688e-02
1.428474707403771041e-02
-1.532852958143177124e-02
-3.695958716081008261e-02
-2.490823504319754703e-02
-4.128313407886800152e-02
-1.371800597521984910e-01
-1.780922455166187857e-01
-4.294458444476081244e-02
9.262076724423368157e-02
5.100694349883726220e-02
-3.314697255425252953e-02
-4.297303928915226223e-02
-7.258246542225282871e-02
-1.317168732008184573e-01
-1.102302464144578192e-01
-2.473127595802311271e-02
1.194442505153671917e-02
2.531962147585026246e-03
2.187159745049559179e-02
4.527697971015543638e-02
2.606789528509956960e-02
7.839214073924759274e-03
1.181082662111308974e-02
4.593929347783477432e-03
-1.804275992658610842e-03
7.920997853563203558e-03
2.358008134635912120e-02
6.718631645927435059e-02
1.212058940900025972e-01
1.168391139714805432e-01
6.740324558518195897e-02
2.805694209867164168e-02
-2.218694285445589262e-03
-2.079358120614067246e-02
-3.154814954715287612e-02
-7.526893865624330326e-02
-1.032518385324344284e-01
5.148095722443075950e-03
2.262974015137618200e-01
3.653588761240064708e-01
2.998988374753806530e-01
1.222432357429581867e-01
-8.618006579079894036e-02
-3.525077937365348468e-01
-5.380961458011819243e-01
-4.811422714678254553e-01
-3.488754376641164390e-01
-3.062399650808091400e-01
-2.326035227976872843e-01
-7.126105976110598539e-02
6.485262056748115900e-02
1.506007364027844853e-01
2.243089289651678531e-01
2.630091327837741910e-01
2.526312802128691248e-01
2.122311465232546435e-01
1.561557633905404363e-01
1.086857040650525547e-01
7.287793647308489497e-02
2.916188135996378161e-02
8.060918592934417093e-03
4.670192665880912308e-02
1.093753727724158936e-01
1.351502200866540604e-01
8.550786462726196746e-02
-2.298497558025141760e-02
-8.992234563714907036e-02
-5.133240014570158993e-02
2.645493231092447411e-02
6.875127822972572356e-02
7.411878908107830122e-02
5.911989740169504293e-02
3.670901783619208436e-02
6.448105041750846686e-03
-4.904614642911743483e-02
-1.219424316958435811e-01
-1.842265165348652423e-01
-2.158074766907125963e-01
-2.096477641274761550e-01
-1.860501770426215840e-01
-1.573314087561446251e-01
-1.082450047646088959e-01
-6.633883471963554490e-02
-7.431318994335384120e-02
-8.572518609202878226e-02
-3.709136189339026779e-02
3.591263461540618318e-02
7.413065385484080005e-02
9.135076148080537028e-02
1.313678703771520850e-01
2.159987164688203509e-01
3.298839660868618240e-01
3.939844007660284753e-01
3.385634539595628878e-01
2.065017902398494920e-01
6.513962963745822954e-02
-6.929277228032476588e-02
-1.641586457850520153e-01
-2.107163058304276915e-01
-2.555340885367095027e-01
-2.892745415044817858e-01
-2.623527773365790239e-01
-1.856960500324041918e-01
-1.041608473405648272e-01
-3.999652545850246321e-02
1.986221778178231048e-02
8.627349436285926265e-02
1.105867204734156811e-01
6.296774034753052640e-02
2.185827206102702522e-02
4.776401055909425958e-02
8.289045252753053650e-02
7.549063682839494971e-02
5.610673995467070629e-02
4.398461376421894387e-02
1.750149419635050468e-02
-1.842677778994730731e-02
-5.737743069061192192e-02
-1.405408940923474348e-01
-2.645412117571249722e-01
-3.310595780364952168e-01
-2.738471999427102843e-01
-1.252256490222021512e-01
5.559345896169035073e-02
2.319354626830379407e-01
3.751256902323422127e-01
4.405382970022716504e-01
4.102961254338152175e-01
3.331935857991909500e-01
2.439067018936832698e-01
1.259497860746099651e-01
1.785028875790677094e-03
-6.926156088585673498e-02
-8.834414224361442081e-02
-1.026327108240773223e-01
-1.262690469144144290e-01
-1.490051252767538581e-01
-1.749105027383991429e-01
-2.052603015191994396e-01
-2.177903530728222681e-01
-2.038962329835305176e-01
-1.889517325842572371e-01
-1.405324597446336865e-01
2.971769452578650744e-02
2.721851728170400775e-01
4.183627804243562620e-01
4.017168966546644793e-01
2.600093248494873555e-01
7.193744018183255429e-02
-6.267557530752516926e-02
-1.522941429964780602e-01
-2.550724001769078542e-01
-3.082084116414415265e-01
-3.009365957190969776e-01
-3.288011402088830692e-01
-3.155073909472299598e-01
-1.465999559150714671e-01
5.207310663804485401e-02
1.384670422977719029e-01
1.406461796165726641e-01
1.284484766278489176e-01
1.276625367149829549e-01
1.105672521220036203e-01
5.772822899761250598e-02
2.053873639374616256e-02
2.975172162706517937e-02
4.191827851510599584e-02
2.862626020642619618e-02
6.295500112677980542e-03
2.290757670535027712e-04
1.928859744673367543e-02
1.894019249626230014e-02
-4.713955858710629221e-02
-1.283091364529513889e-01
-1.587648015502844123e-01
-1.658582722138600696e-01
-1.681747174236861153e-01
-1.213066768406956958e-01
-3.814607183048054212e-02
1.075822681172328155e-02
1.160584197943756793e-02
-2.985346423098243773e-03
-1.696722933773739742e-02
-1.593262012119947210e-02
2.733532682375382217e-02
1.310786013244340520e-01
2.896287631317489564e-01
4.788411746412222225e-01
6.704058316131671358e-01
8.072985011303750458e-01
8.118454595403975516e-01
6.791575029098332328e-01
4.805573892601450736e-01
2.628574772966922324e-01
1.794059400941666604e-02
-2.441509872724182684e-01
-4.181436014938608725e-01
-4.159565665469623363e-01
-3.637224476908118564e-01
-4.490361404811742396e-01
-6.274098851341477490e-01
-7.555447279257052617e-01
-8.280203950381505029e-01
-8.636152582749115902e-01
-8.307250509284145323e-01
-7.455198453085962740e-01
-5.958091425434332011e-01
-3.307506819743947224e-01
-3.370021017142696418e-02
1.661360499877815866e-01
2.601113668228335341e-01
3.024202008512381079e-01
3.455826339384708845e-01
3.935022746679903705e-01
4.126648138723029158e-01
4.098855709632589495e-01
4.033060023970509445e-01
4.008679777086065488e-01
4.032361561151467377e-01
3.837899275954609890e-01
3.818036045214546759e-01
4.798726127649711182e-01
5.824910987533327145e-01
4.974551460526231983e-01
2.407809938913567094e-01
-1.194090493283686549e-02
-1.643649507912448016e-01
-2.400418030559246796e-01
-2.953694063254955204e-01
-3.259451771956668464e-01
-2.913845562352428420e-01
-2.229407829966313370e-01
-1.716561677196553060e-01
-1.286088239234140507e-01
-9.441390629220929032e-02
-9.159958581932256538e-02
-1.039643096517929577e-01
-1.006078566145286457e-01
-8.071299419728780733e-02
-6.650426684896297569e-02
-6.309419823785238080e-02
-5.533824913696996223e-02
-6.244669604957955172e-02
-1.030020168723028984e-01
-1.269534734590823388e-01
-1.104002197766592863e-01
-1.030832110327235124e-01
-1.053045365827351976e-01
-6.692982947095016399e-02
3.111979518565820974e-02
1.907124107166166260e-01
3.579797559504478421e-01
4.132874680704988202e-01
3.078180764945912529e-01
1.115243157464228668e-01
-7.542609468131797335e-02
-2.057055258931355657e-01
-2.922281797917156698e-01
-3.234925994033297503e-01
-2.635575669734515625e-01
-1.506216907885093714e-01
-4.959988033915727068e-02
4.417677678015700937e-02
1.438373911072842737e-01
2.065469618243598593e-01
2.076615065205388022e-01
1.961752443719295136e-01
1.993566578506404952e-01
1.690142859579585877e-01
8.905704213115780976e-02
9.266282270234151713e-03
-3.672417573558477838e-02
-4.338633505164563031e-02
-2.128256370829396948e-02
-1.433465197533123625e-04
1.284512141970912957e-02
1.714254943318957100e-02
-1.990790028792134569e-02
-7.931795043949116386e-02
-8.268743816881728159e-02
-3.219438223412975086e-02
8.887352112261827711e-03
2.940009816282283112e-02
2.403366421123756536e-02
-1.191902454572133820e-02
-2.300360230139583684e-02
-3.933635314190032928e-02
-1.632499251974639798e-01
-2.617348068617844081e-01
-1.509029420253210629e-01
6.647165930608840007e-03
2.063913873793976617e-02
1.238937076549040395e-03
4.649412887078428758e-02
8.150392051138341531e-02
6.959479479516367251e-02
4.620826447805106985e-02
1.052076387266486293e-02
-4.622031087629023538e-02
-5.360678750785160401e-02
3.757727724341961700e-02
1.050801897673607488e-01
8.505678958964761616e-02
1.425405415199300085e-01
3.019769686932035069e-01
3.496215625453603093e-01
2.168894039406605023e-01
1.698277754852914323e-02
-1.688236602731687241e-01
-3.030509668155962344e-01
-3.690013075966530609e-01
-3.822776823651843348e-01
-3.462195121136232845e-01
-2.498043272452321883e-01
-1.258510178319851847e-01
-6.720293088751903843e-03
1.281949510416781346e-01
2.062118095253620553e-01
1.162180339207868340e-01
1.809220442453823158e-02
9.468967087630693336e-02
1.702537820949310554e-01
9.979726468377066173e-02
2.990615308219054386e-02
3.676738971782573390e-02
6.515862006066171219e-02
1.178494627485685148e-01
1.669919714677935985e-01
1.443791236353226259e-01
9.183876243868474565e-02
6.774779889077243988e-02
2.951780037357825889e-02
-2.418617521599443834e-02
-2.527744021046778727e-02
5.524121084333442899e-03
-1.048531137780099945e-03
-3.888124957908051932e-02
-8.226176074599553245e-02
-1.318639601437333331e-01
-1.805424668248747366e-01
-2.254390504421212582e-01
-2.442109674159891886e-01
-1.908016535866107477e-01
-9.450478174917109619e-02
-2.573723019341875307e-02
2.034162850380404064e-02
5.808869131914272399e-02
6.031014104417593835e-02
4.682233923036042272e-02
5.137953159158516192e-02
3.984889014988803047e-02
-6.148440196735924235e-04
-2.029842088949158213e-02
-8.554661283571875913e-03
2.461667929411380865e-02
1.264789143365629698e-01
2.980108357326300417e-01
4.168943470224651393e-01
3.891235841133746653e-01
2.439013729231744587e-01
5.203929465205940630e-02
-1.220622460141256305e-01
-2.399016745997928912e-01
-3.093733428389537909e-01
-3.421280393986498858e-01
-3.303197483799251710e-01
-2.657443870890595083e-01
-1.574956703240660838e-01
-4.785674028780304012e-02
2.750530013022635389e-02
7.423702883318925028e-02
9.488639618523672659e-02
9.199768989731714475e-02
9.331609044587531321e-02
8.967238112387360127e-02
5.344543525334694012e-02
2.040053019767210096e-02
-9.210375854503984744e-03
-1.146843792871366507e-01
-2.600142744868236822e-01
-2.994329466626506897e-01
-1.953299108327465061e-01
-1.686149891652937230e-02
1.638378853501750720e-01
2.991949124565082552e-01
3.776468679845916276e-01
3.731639296578552756e-01
2.636403976728401433e-01
1.302998613175127829e-01
6.225419369550031640e-02
3.560654818406988609e-02
1.164113975688076813e-02
-1.297413626333419889e-02
-5.082853436593608859e-02
-7.148457674193112177e-02
-3.747773417729667600e-02
-1.135447397520713761e-02
-3.183644123479114491e-02
-2.505977402447211871e-02
-2.773234143353394549e-03
-7.103961253343686610e-02
-1.481284234062739957e-01
-7.799398456345447983e-02
-1.103594156009124125e-02
-1.460079380617044509e-01
-3.064706517968389110e-01
-2.754240314205841922e-01
-1.401707625022118320e-01
-1.663186723929500899e-02
1.385630468645740743e-01
3.276770685004839478e-01
4.223287066714039861e-01
3.531536599286789202e-01
2.012367605080619959e-01
5.951152992079239423e-02
-5.344635748664827019e-02
-1.630979734209383469e-01
-2.747585085594836940e-01
-3.236230887509486398e-01
-2.681194804404015142e-01
-1.766496042901676555e-01
-1.153179421870489801e-01
-7.160590598131041928e-02
-2.977041897747027127e-02
-8.788079608390786390e-03
-1.751448672936100834e-02
-2.444972542345357283e-02
-5.737623506033004417e-03
6.180493823268979475e-03
-1.110642270242125605e-02
-2.166997789199747587e-02
-1.235866451280260257e-02
-7.207339458427256332e-03
7.840197624990699957e-03
5.085805348520446023e-02
8.589406146603281722e-02
6.792590234881377975e-02
-6.467984868005326876e-04
-6.591134977492452141e-02
-1.059741257799726999e-01
-1.566568695906739861e-01
-1.468979295373481486e-01
3.739692334926967426e-02
2.814921763652500908e-01
4.438764557955889867e-01
5.966805654816029758e-01
7.365922851204548261e-01
7.551994229167819928e-01
7.084878256006630348e-01
6.517782664741836873e-01
4.936235673854149630e-01
2.215137886329936467e-01
-5.435204623579380223e-02
-2.662181442794518960e-01
-4.256232416271888419e-01
-5.775162782955610696e-01
-7.250013861698325623e-01
-7.962905596776207462e-01
-7.746003856505585539e-01
-7.552274599430370827e-01
-7.637609464949958182e-01
-6.430440401684232032e-01
-2.848337302806166482e-01
8.686739583850716651e-02
1.835460779793615105e-01
9.466775547163054638e-02
3.155635142823218220e-02
-3.439431200368966990e-02
-1.338561232083916308e-01
-1.769743688736790110e-01
-1.598705768612351252e-01
-1.151757231509304424e-01
-8.533008420417521889e-03
1.377890724946279621e-01
2.613825363563085924e-01
3.737653527241500684e-01
4.676143081859484574e-01
5.052178209533589870e-01
5.467591350892491153e-01
6.197379601729772203e-01
6.067088966135711914e-01
4.715242338040796510e-01
3.061894304446474702e-01
1.264666424610824680e-01
-7.624700324920288819e-02
-2.183028028680879251e-01
-2.464825378838340075e-01
-2.069557250063110421e-01
-1.582505519272491834e-01
-1.375716597245663919e-01
-1.588891325067344207e-01
-1.779513186478178799e-01
-1.433058875439174318e-01
-8.626198533938593538e-02
-6.105094251939591210e-02
-5.596057410718008329e-02
-4.948421809954710315e-02
-6.025946671985271674e-02
-9.646400169214956744e-02
-1.320726029659585743e-01
-1.432497484532751220e-01
-1.499198302203832156e-01
-1.807384583745527962e-01
-1.496280908131495113e-01
1.934326720893542878e-02
1.398420894134477233e-01
6.871147486507431235e-02
1.768347167602497827e-03
4.882914925182346710e-02
6.544101659559345419e-02
2.396581076655992029e-02
1.148867442596652848e-02
4.762361967413449373e-03
-4.329115654442369787e-02
-5.015316194293402419e-02
8.783554238468220532e-02
2.966664695351475811e-01
4.041140200068040755e-01
3.538932683191035045e-01
1.991023608091442576e-01
4.330370834577115802e-03
-1.761943411678578708e-01
-3.098268228436448779e-01
-3.772828202235635198e-01
-3.668701523170269096e-01
-2.989362436587330030e-01
-2.028578177886884715e-01
-8.670862324304801083e-02
3.263482862319525696e-02
1.285041048987693724e-01
1.915977931107044341e-01
2.099432684667426607e-01
1.778763384701679273e-01
1.281870416974266735e-01
9.348569189937949719e-02
6.903073266273740405e-02
3.154260037183014009e-02
-1.904573277371681209e-02
-3.483006426140979050e-02
9.676385131494803782e-03
5.801612962460354905e-02
6.393897605332636569e-02
3.712077118092732553e-02
-2.206037165029292244e-02
-8.820744288950503609e-02
-9.219824340842781851e-02
-3.562447510141726614e-02
7.517183088338598787e-03
1.124294631528193270e-02
3.648703754922190835e-03
-9.552007299761302098e-03
-4.321159740544992106e-02
-8.242564562856771748e-02
-1.003705401354057919e-01
-9.232222202449662241e-02
-5.420526496622214002e-02
6.474458797189157344e-04
3.339475852454709681e-02
4.756762882314997248e-02
6.791026343633999041e-02
7.842438190467877768e-02
6.492798925922159403e-02
3.208454807659775337e-02
-1.333997926006458799e-02
-3.633187709378467301e-02
-2.396425362361813416e-02
-3.286261851366176212e-02
-6.267233330088378684e-02
4.074833406387133074e-03
2.134807779372166758e-01
4.023516669990133132e-01
3.769665464853708681e-01
1.760319282631087057e-01
-1.654684411037514111e-02
-1.471858994098972084e-01
-2.618874399651127671e-01
-3.370810328422764179e-01
-3.314518944971738823e-01
-2.760571880257455257e-01
-2.080744582883136684e-01
-1.241554333523349346e-01
-4.178291988734942480e-02
1.223637568989104779e-02
4.297785781558919466e-02
3.888516942646612351e-02
7.059738927847222095e-03
1.278114730839787286e-02
5.827844554573125002e-02
7.753545515498509733e-02
7.136504463423125333e-02
8.049226404861897777e-02
1.032686113621548718e-01
1.294375649625939262e-01
1.483512932309874466e-01
1.257996427890212543e-01
5.947933282389484405e-02
1.014930713848058441e-02
1.493594968529195210e-02
3.132018745406949661e-02
1.501510309382344741e-02
-2.668411288345609589e-02
-6.577193001551460971e-02
-7.437079916525939083e-02
-5.912365547189718518e-02
-4.439465123596030016e-02
-2.402495606557233411e-03
7.134612080653184030e-02
9.834519983261055809e-02
5.478642500512308916e-02
7.592366711414509466e-03
-1.029346254957245153e-02
-2.290147091456993383e-02
-4.683823480725427674e-02
-6.644391255093345938e-02
-9.614749558097020199e-02
-1.897631334612472076e-01
-2.632291080516260817e-01
-1.756046821998144825e-01
-6.184352745543322816e-02
-8.959304777402081477e-02
-8.327382440229599836e-02
1.127926608249185947e-01
3.592622759264829657e-01
4.938768876828707466e-01
4.260360375890776541e-01
1.489672792973944226e-01
-1.353520213377994996e-01
-2.275533841669585833e-01
-1.905470352172930759e-01
-1.637339456412078842e-01
-1.532044270897782723e-01
-1.182351807755608469e-01
-5.928003989000996815e-02
1.272339834540829259e-02
9.243933682706614863e-02
1.617525392959626440e-01
1.800709633581512314e-01
1.173280298082246681e-01
2.621258975370299726e-02
-2.850732732848236875e-03
3.652808977245246974e-03
-4.373162187559418573e-02
-1.143344516979498404e-01
-1.227582597566412304e-01
-8.598589138218175332e-02
-6.454252632244039667e-02
-4.718299776948965685e-02
3.782657166659976651e-03
5.858060622863365402e-02
4.819035814770900039e-02
-2.687737797101669504e-02
-8.147723864018445450e-02
-7.658767613030943722e-02
-6.544408957587059816e-02
-6.082831030791413518e-02
-1.649595033682824466e-02
5.523240502089812876e-02
1.198090823781957220e-01
1.857378048081291810e-01
2.225321690025378052e-01
1.990079453052190084e-01
1.762717736993227313e-01
1.641821481533697336e-01
9.334565570345929042e-02
1.382841865949583846e-02
1.133986176813116947e-02
1.203775886075784951e-02
-6.658643880894128675e-02
-1.635391378326764011e-01
-2.162723269523466607e-01
-2.578263086104235491e-01
-3.031835727039184358e-01
-2.994859272845515896e-01
-2.271990151809811787e-01
-1.014159082797193856e-01
8.734707013969629508e-02
2.723854416068308137e-01
3.015529037697863290e-01
1.628101139190377133e-01
5.469479127544970426e-03
-1.010048670597788467e-01
-2.011571493102849162e-01
-3.061392595570151531e-01
-3.876271878304007323e-01
-4.180420972328540707e-01
-3.780829540737007388e-01
-2.986635019143319969e-01
-2.038990089280813267e-01
-4.408890527902867285e-02
1.850397930315792749e-01
4.091835303728484918e-01
6.158903661895296366e-01
8.224667065728182846e-01
9.713382608580929389e-01
1.001583768759906956e+00
9.036559520747151630e-01
6.993162132491216321e-01
4.420918408952555501e-01
1.768429942752746120e-01
-8.511099400302260531e-02
-3.209325278643571644e-01
-4.918763333292038853e-01
-6.174768536720212087e-01
-7.558288777119962498e-01
-8.312747000122570062e-01
-7.158198141121316915e-01
-5.356479432319674050e-01
-5.050036991815014531e-01
-5.358069166646388659e-01
-3.983761173057684957e-01
-1.269353911146710590e-01
1.403504578738254405e-02
-4.195080795974515109e-02
-7.542789363327279117e-02
-6.150961135043819805e-04
6.860494357143789856e-02
1.088326923216500347e-01
1.605863665354755887e-01
2.215841106569957641e-01
2.797571824298743515e-01
3.179222881641086129e-01
3.353788103064720971e-01
3.347553087781537373e-01
2.924709966660776206e-01
2.158310220479924824e-01
1.583891107298957546e-01
1.851570062339960021e-01
3.178878177396139426e-01
4.538817180785321703e-01
4.596930399575569481e-01
3.243277110218000248e-01
9.728441717446865977e-02
-1.664299405796920428e-01
-3.774164815768923376e-01
-4.942355369456649106e-01
-5.551200924611755516e-01
-5.791827107298607169e-01
-5.346787850223885252e-01
-3.901653856007434307e-01
-1.803198052798080930e-01
-5.093509293361629664e-03
8.274456534250264339e-02
1.209212304118049003e-01
1.453919978947125213e-01
1.512607638219932715e-01
1.375033705661971584e-01
1.094430643021172544e-01
6.748065908844939897e-02
3.014749478808867456e-02
8.712934405653200570e-03
-1.381825741740863936e-02
-1.720304367120738601e-02
3.785613347414255869e-02
1.056506017875701448e-01
1.142917723454368317e-01
7.835615956845454200e-02
3.768633562078745058e-02
3.351346468035663884e-03
8.498827158128184622e-03
6.489894278314370379e-02
9.963908332853198269e-02
6.031118195473506027e-02
2.013195311249522251e-02
6.097725943273541588e-02
7.331815320222379029e-02
-8.064855023443827375e-02
-2.239226171287914124e-01
-1.463323835533699713e-01
-1.508712308420927586e-02
-1.149762021414978824e-02
-3.513738768954288716e-02
-2.050909043665716594e-02
-2.249795926329343707e-02
-2.353959609639623765e-02
-4.881712393714468870e-03
-2.048315088056449490e-02
-5.529261701875947538e-02
-4.596352328444034546e-02
-5.270611218212702120e-02
-1.358705953759901108e-01
-1.226024070323973592e-01
1.362100683966974701e-01
4.072991288683037170e-01
4.173758417426810530e-01
2.581864401556588362e-01
8.853171428238550134e-02
-9.724205438667878065e-02
-2.638947217212649354e-01
-3.347792292491664767e-01
-3.388537110171089828e-01
-3.293337143994487515e-01
-2.873663175544536319e-01
-1.803005275961285236e-01
-2.901617804283753224e-02
9.809408497096969159e-02
1.599969690842726888e-01
1.936215601948776954e-01
2.253627198493662331e-01
2.072388589667345793e-01
1.323523279737254810e-01
8.455599856650082569e-02
8.536857876631119557e-02
5.216393187894584338e-02
-2.229966717568648490e-02
-3.584939108700832544e-02
3.524711331140061021e-02
9.730417249505085575e-02
9.282346998121678017e-02
4.409594584048402710e-02
-2.362839501908930648e-02
-7.694043319329567365e-02
-6.126009430768849379e-02
4.911170036087056379e-03
3.081258620740362150e-02
-3.812640859411428260e-03
-3.876753898240126173e-02
-5.653250616830349240e-02
-8.313938355951516757e-02
-1.031912695715565542e-01
-9.855079729335446126e-02
-1.012013388496253719e-01
-1.031211452676085299e-01
-4.609200832010504345e-02
5.758994133113867764e-02
1.400202371414846214e-01
1.723394580746655524e-01
1.711902695012219033e-01
1.454038742689738872e-01
7.251569898573033413e-02
-1.279824762503258863e-02
-3.643232917316113761e-02
-5.412712403948464340e-02
-1.428399691468020816e-01
-1.956430380872949681e-01
-9.593146531450595649e-02
7.672495650730605521e-02
1.683532403386351906e-01
1.307521803365315483e-01
2.412199510984779430e-02
-7.656964699840308752e-02
-1.400307284107720485e-01
-1.797025267634495271e-01
-2.022413551809977283e-01
-1.798381715067108311e-01
-1.179767690300758121e-01
-6.441367961080124438e-02
-3.297998782373416649e-02
-1.291647550743051792e-03
5.238017079215377680e-02
1.101217530486048868e-01
1.188478725476376230e-01
1.034880852308206062e-01
1.389791778829580493e-01
1.789745924987869163e-01
1.462437366577692133e-01
9.812322380879336114e-02
8.890265115860934708e-02
7.005476195691255625e-02
2.860716641242440697e-02
1.471935500336827435e-02
3.691825366159220967e-02
5.557058974925876277e-02
3.730823203933029963e-02
-1.364738620489104604e-02
-6.672486897759373481e-02
-1.184972467191469925e-01
-1.857707604413858793e-01
-2.471242386567112648e-01
-2.613828335278323700e-01
-2.194574931183537192e-01
-1.580705578279690826e-01
-1.310401415296524874e-01
-1.258265548486113272e-01
-6.772802476081773992e-02
5.487621184712083294e-02
1.851225876626478584e-01
3.012941517454393314e-01
4.051641682625634067e-01
4.423107938106540793e-01
3.568545928000119716e-01
2.021428683410493310e-01
6.263879299925555200e-02
-5.435910014404200796e-02
-1.480914732610563167e-01
-1.976178864160581250e-01
-2.085497719873177780e-01
-1.671005072532937841e-01
-2.736256473242999754e-02
1.839473036946893958e-01
3.098460868158322001e-01
2.211551239490239240e-01
1.065304900118673598e-02
-1.389690811022355754e-01
-1.965140011304379597e-01
-2.266613401641960346e-01
-2.512731276491764199e-01
-2.684585792741703281e-01
-2.809184596101421127e-01
-2.599554983162261079e-01
-1.601078949203507407e-01
-3.495913445779651879e-02
-2.119514383229444132e-03
1.147367819957730017e-02
1.510154716813875697e-01
2.574385637428796558e-01
1.587997647143958302e-01
4.972846704159583631e-02
7.603212487636433481e-02
1.048283908140664189e-01
7.453747818447434281e-02
3.838153482420956358e-02
1.969987424019315966e-02
3.904564087281707507e-02
6.634437743411977784e-02
4.257193899094452449e-02
5.893476027328835298e-03
-5.067807995420108014e-04
-2.311349952281959580e-02
-7.575850509275544598e-02
-1.081167109970356255e-01
-1.045553250638912163e-01
-7.597216128086457798e-02
-2.454806115050688770e-02
2.576123635149012506e-02
4.816582385326648869e-02
4.895823301366801494e-02
3.624030578880847731e-02
9.487547314774680968e-03
-1.426841374483662703e-02
-2.971730171345874499e-02
-6.138928543067988242e-02
-9.946526743859680775e-02
-1.119735266497201009e-01
-1.332534215920037068e-01
-1.962028915788666394e-01
-2.393111496761665680e-01
-2.132732925454086381e-01
-1.440332567378267703e-01
-2.426816110551695965e-02
2.123944302855486632e-01
5.746295979462535675e-01
9.352990464698791584e-01
1.122296758974842712e+00
1.078621106600359925e+00
8.530821091709812620e-01
5.041558362027901419e-01
1.147768711626321325e-01
-2.312935510102090975e-01
-5.289911674499905292e-01
-7.723057749311489362e-01
-8.826503170630368711e-01
-8.423458063953805919e-01
-7.460733419978964331e-01
-6.505411018000264445e-01
-5.373174137126354166e-01
-4.195141065704750538e-01
-3.357546241710180346e-01
-2.673313814244352438e-01
-1.689159504384605270e-01
-5.871310097222806612e-02
3.847678231676587846e-03
7.570325739713307245e-03
-1.861802481497823458e-03
3.364483809164196815e-02
1.239535933505926668e-01
2.142281702069810945e-01
3.073134552943270204e-01
4.315841727209436263e-01
4.744391429353297940e-01
4.105115263404994774e-01
4.223073480125483781e-01
4.888903826473191550e-01
4.133835441094254048e-01
2.402728617357277607e-01
1.098396263480261731e-01
7.569842334905249603e-03
-8.113755986757645311e-02
-1.171495823716960510e-01
-1.189112414058512840e-01
-1.170380267163424054e-01
-9.725563945706550140e-02
-5.441390905270139522e-02
2.834392830764129179e-04
5.917932810397928678e-02
8.617293015819893487e-02
5.235642837334421318e-02
-5.128524590933039237e-03
-5.434355039587163150e-02
-1.075932302617388509e-01
-1.623939340360091022e-01
-2.195501972606894725e-01
-2.778951527578339409e-01
-2.709461922729688443e-01
-1.481181401947843368e-01
3.779147974218216577e-02
1.900598633788294634e-01
2.175764564015873481e-01
8.968973913303449064e-02
-9.150118580526475642e-02
-2.034750234708600503e-01
-2.612210522060445239e-01
-3.233815843140435131e-01
-3.501013046115170058e-01
-2.857579895024606187e-01
-1.607627530956891870e-01
-2.379512607407197750e-02
1.067817739354304102e-01
2.026719046050756146e-01
2.520383293209436104e-01
2.806183110802525915e-01
2.885664356130975827e-01
2.620586587188732941e-01
2.275659036508985711e-01
1.994368020560277621e-01
1.437677789341073598e-01
5.846396064908317841e-02
4.933220505221845575e-03
1.543579051323887980e-02
4.791763488973554280e-02
6.442041734235273709e-02
5.476599843124557720e-02
-1.035634975233432759e-02
-1.016437156586805501e-01
-1.083823306037235146e-01
-3.911616782955224664e-02
-2.420224142784282995e-02
-7.096950175383322235e-02
-8.960025604311817882e-02
-8.358030042910193080e-02
-1.003118999168263470e-01
-1.281344061962385872e-01
-1.380605662522957633e-01
-1.215507475136681642e-01
-8.414031108557253058e-02
-4.496408963439769979e-02
-9.855199447738750840e-03
3.966823921186395790e-02
9.112189213868682192e-02
9.473705322600645129e-02
5.316509597680647847e-02
2.913013828138552933e-02
3.385160361496163811e-02
1.930418612494518710e-02
-1.568848141155879117e-02
-3.893367089560566957e-02
-4.872602810632568893e-02
1.597088230642192824e-02
2.302897683179881416e-01
4.043138449747252783e-01
2.868843140216775778e-01
5.036920852695841999e-02
-5.042668804343140854e-02
-1.349132939046867874e-01
-2.885976950549903330e-01
-3.709212218557518259e-01
-3.649570119875713003e-01
-3.292313444012212598e-01
-2.282899155181488116e-01
-7.669271093479487766e-02
6.167931026348693474e-02
2.058055427957078409e-01
3.452594492119447356e-01
3.776076117012740485e-01
3.161844932802510000e-01
2.789251584790286009e-01
2.534027060975461154e-01
1.614578036106577852e-01
2.050760348826301607e-02
-1.224722832430603647e-01
-2.301719273863898907e-01
-2.561314079184937031e-01
-2.196409051067605422e-01
-2.005341922499796481e-01
-2.000451316988927641e-01
-1.427664466136079613e-01
-4.841249107372603416e-02
-1.065332675149108926e-02
-6.244342416270032281e-03
3.237647998936896143e-02
5.511814435883201357e-02
6.548964564933552196e-03
-7.635807620305193333e-02
-1.267326223549820052e-01
-8.773317689979447109e-02
2.464180587824963201e-02
1.130550585296423438e-01
1.393845808018618071e-01
1.591385986055695312e-01
1.974680525904373984e-01
2.243641344154353179e-01
2.241030013842086333e-01
1.935286507948370538e-01
1.207123653467611496e-01
1.592337966902189483e-02
-8.280869602914381344e-02
-1.437298888336228098e-01
-1.635744409490740570e-01
-1.672080214517030483e-01
-1.428990205955961712e-01
-1.681026453430790532e-02
1.919527065403265620e-01
3.239478490062480676e-01
2.946097436664314451e-01
1.590535020307216607e-01
-2.349751960628984962e-02
-2.073043779287715160e-01
-3.494023366247066553e-01
-4.389271831616830544e-01
-4.543243778195961702e-01
-3.920319089718047323e-01
-3.274472978446035243e-01
-2.867551499187899755e-01
-1.824475408783082231e-01
1.243930633328712426e-02
2.080364930035353555e-01
3.387423461858495299e-01
4.133271146575263066e-01
4.388701827893766172e-01
3.847743952785493415e-01
2.417317202458548475e-01
6.735976254866259116e-02
-5.450051353440223123e-02
-8.552295458361652836e-02
-6.177422145742403337e-02
-2.839231675128807419e-02
1.410529238018395914e-02
4.697662524179525845e-02
2.542456462978801360e-02
-2.909300185385862644e-02
-4.643374196494969020e-02
-2.727540107963804042e-02
-3.997321738025864241e-02
-8.022172191726950619e-02
-6.954430332016585392e-02
-8.048445769913736489e-03
4.265177614027409331e-02
8.265367999646500152e-02
1.260387486686707081e-01
1.364661729294681936e-01
1.075777773271442556e-01
8.129861189029150004e-02
5.381698880948666136e-02
1.698057699195932267e-03
-3.750091969405863757e-02
-3.896681397387947998e-02
-4.676391489629780351e-02
-9.573847436235501107e-02
-1.747107534896692183e-01
-2.509249410811139058e-01
-2.847215265060745182e-01
-2.576819393057326879e-01
-1.824665106151532046e-01
-5.252142099509707340e-02
1.569676592533095216e-01
3.608651373491580383e-01
3.833246045773369692e-01
2.263142220769145119e-01
6.762895154304869594e-02
-4.360872713180623250e-02
-1.628809581617520763e-01
-2.603070117064081312e-01
-3.145517841132276504e-01
-3.555851076025817736e-01
-3.485213019411264046e-01
-2.572370560228557923e-01
-1.489459779384897931e-01
-1.003688475112318734e-01
-9.653448390821138536e-02
-9.795161146585359968e-02
-1.187996476491768316e-01
-1.442077565338639178e-01
-7.064820386781164863e-02
1.468725250437242780e-01
4.087102956541727172e-01
6.240965855553181063e-01
8.016035243513643938e-01
9.434608499338021925e-01
9.991230795573105006e-01
9.380051861327927121e-01
7.762806619625505222e-01
5.293513576372739227e-01
1.978525613469750422e-01
-1.461475239966392725e-01
-3.737729207761321115e-01
-4.879401741722716457e-01
-5.779593630583068631e-01
-6.218193944179732924e-01
-6.019761560432048686e-01
-5.964004061783175770e-01
-6.150190045991208443e-01
-6.147233979173611917e-01
-5.921686212142525108e-01
-5.323664035840147690e-01
-4.335417478281000658e-01
-3.188865215827244581e-01
-1.812169467428661196e-01
-5.084581081910088951e-02
1.776062809170012025e-02
6.947988439290028739e-02
1.483895230364193907e-01
1.902589155069573379e-01
1.771669837974913508e-01
1.703199359805831481e-01
1.607306215212481459e-01
1.567455535214842266e-01
2.866488978666599796e-01
5.624095693866595358e-01
7.714802064147036065e-01
7.572855764935507716e-01
5.601667112634239887e-01
2.677734729333489661e-01
-4.328919275518058885e-02
-2.747425875511722015e-01
-3.803553002934633165e-01
-4.101480908635333211e-01
-4.019606426383943720e-01
-3.182390453518347817e-01
-1.572246227134708185e-01
-4.441469809724828827e-03
8.765569303761275299e-02
1.333169625209054132e-01
1.388491125020796246e-01
1.184524520846803458e-01
1.002006111320443982e-01
6.814055338878001467e-02
6.335319121823693340e-03
-4.923502714877024677e-02
-8.324564763910245746e-02
-1.169280712939504002e-01
-1.374200771623608763e-01
-1.166725523926974151e-01
-6.292491147944585805e-02
-1.133652915701876575e-02
-7.593340670980566753e-04
-3.380625490444365278e-02
-6.422784411861083564e-02
-5.904212356858080241e-02
-2.226991544439248585e-02
3.018415575661030983e-02
5.910234382066235914e-02
4.167257110629626893e-02
3.208097695105707747e-02
5.982031823205626042e-02
5.418305591829018775e-02
-1.782056572707057737e-03
-2.823474005021468086e-02
-2.170963274869979961e-02
-3.272923946068357487e-02
-2.786130975305303389e-02
1.942381800885800355e-02
5.637448051401908189e-02
6.135525358512159549e-02
5.266892270826011024e-02
2.680777830424233704e-02
-4.242175649309194892e-03
-1.552170812634358701e-02
-3.234078898506936167e-02
-8.126386273235719493e-02
-8.400977390513554577e-02
5.394632678939970116e-02
2.622858697016907659e-01
3.729893222729227520e-01
3.029329754694793375e-01
9.885626958617012294e-02
-1.070756319082347557e-01
-2.272656579462924431e-01
-3.087351404603490557e-01
-3.922146526351767415e-01
-4.004230965588830848e-01
-3.047779623170286945e-01
-1.913805751278220557e-01
-6.255742983939639734e-02
8.150285167860898961e-02
1.018690112143869897e-01
5.380814100910805142e-02
1.435459213537199630e-01
2.538680914530109245e-01
2.078400494091681983e-01
1.345008249617333507e-01
1.158155845994543326e-01
5.375037481283444218e-02
-3.186506016858980939e-02
-2.544248463865877302e-02
6.031147171852743738e-02
1.199330193567668401e-01
1.108972372090077790e-01
5.448605203818254750e-02
-2.309836760911678985e-02
-8.202036814430271883e-02
-7.814178227535481525e-02
-1.788922578080847509e-02
2.311836852924291363e-02
-1.397491217986233242e-02
-6.813093783883542032e-02
-7.502535494269801930e-02
-1.024621750551237831e-01
-1.378751606915246120e-01
-5.119793095087606105e-02
5.209785339572729074e-02
-6.144357175674155375e-03
-7.964721435076710376e-02
-1.894955974667541371e-02
5.439130304048378495e-02
6.598781794321861849e-02
7.300661181906425989e-02
6.862095191639469571e-02
3.905476264191119762e-02
3.706081337884617466e-02
6.104541733751075311e-02
5.272099009648173462e-02
2.529031482633019301e-02
5.663169456782479044e-02
1.837037253741289067e-01
3.386848094220079597e-01
3.791268043161367118e-01
2.315153406542748149e-01
-1.279191000140910382e-02
-2.197661226182509309e-01
-3.633884243913620415e-01
-4.721904393205327843e-01
-5.390341480596809731e-01
-5.487932282063160416e-01
-4.891368443412450473e-01
-3.468461670895711113e-01
-1.571019808957966335e-01
1.865882430564025363e-02
1.596939483438535867e-01
2.666098506988788808e-01
3.319206549371983561e-01
3.511198962996364692e-01
3.183277787156540417e-01
2.274428617528577168e-01
1.105911770592025167e-01
3.644503024518297440e-02
2.895702593859116047e-02
5.736984203248902958e-02
1.037258485015374321e-01
1.420737042985034670e-01
1.299365074738114689e-01
7.682618038337563071e-02
2.697187510400980009e-02
2.303377482733438841e-03
-3.133453062680965906e-03
-1.613709318552289385e-02
-4.520533617952095934e-02
-6.332520408932723610e-02
-6.686420195649142584e-02
-8.791975714928397523e-02
-1.205167182995143804e-01
-1.161668388326174417e-01
-7.756616434037598429e-02
-5.875213523929899428e-02
-6.817619388690934756e-02
-7.240918055060108216e-02
-6.861783067525858981e-02
-7.758834553457917560e-02
-8.975078387967373728e-02
-7.238212422860884621e-02
-3.191255038455517723e-02
-2.491983818599110764e-02
-9.269979044550477609e-02
-1.986762259366705585e-01
-2.497714560192977329e-01
-1.871134856723113971e-01
-4.109978670433297662e-03
2.983063821008781202e-01
6.462063168644425204e-01
8.487596462360750271e-01
7.808072181430409930e-01
5.245762471343471400e-01
2.387706979664865614e-01
-4.009504654540765878e-03
-2.124843357901696483e-01
-3.902788559890802422e-01
-4.981720464228432954e-01
-5.056241053498244931e-01
-4.440053653689702284e-01
-3.527806569007345683e-01
-2.264335146382243924e-01
-9.109214835618618944e-02
-1.348294277849905465e-02
3.189696287997520474e-03
-3.168429883430717853e-04
2.417750468386575813e-04
1.374960605333763047e-02
2.154210971171232475e-02
1.265270657663446555e-02
5.422216691090206431e-04
-1.175165794500603045e-02
1.480260407003681361e-03
5.220241171999713548e-02
7.842912359949409662e-02
9.128290642327292759e-02
1.689328071331774872e-01
2.180775277220448338e-01
1.236974558409601466e-01
3.179568614425372364e-03
-2.146445764041864102e-02
7.885913169617092544e-03
4.312493783157125837e-02
7.454860670658808308e-02
9.190458668365029948e-02
1.058010213723110798e-01
1.150920255896350081e-01
8.852420684192555123e-02
3.386531908255306644e-02
-2.933007693204439659e-03
-2.211345267912469270e-02
-5.683088300601211312e-02
-1.040490691849803306e-01
-1.514178796732262300e-01
-2.101126606691784970e-01
-2.725258698008799496e-01
-3.142225414450504073e-01
-3.345836634635915852e-01
-3.301344024191651960e-01
-2.830121267584979061e-01
-1.896876452323016382e-01
-3.982426149979959723e-02
1.546027709310800191e-01
3.026758453755492573e-01
3.382512816764616792e-01
3.104272842408591915e-01
2.914709576067699981e-01
3.098438793168800665e-01
3.622862364631957433e-01
4.077359675385264226e-01
4.088218449074169647e-01
3.750770410773345276e-01
3.214641641075641210e-01
2.485921908413196157e-01
1.547784481141622481e-01
2.645816552556463919e-02
-1.261067460639804794e-01
-2.505372384818742026e-01
-3.302013601456584291e-01
-3.983575068192746205e-01
-4.543460042328679171e-01
-4.658842930860469522e-01
-4.463741241853486086e-01
-4.388098202662109037e-01
-4.286563019895888171e-01
-3.641200822053279329e-01
-2.529083078473959301e-01
-1.564427948994114859e-01
-1.159246126497397722e-01
-1.051274469838818504e-01
-6.224175457301044101e-02
2.839330611809756655e-03
4.100525656474092451e-02
8.415994989759142952e-02
1.679692412399365065e-01
2.497638074855614287e-01
2.999852118167105619e-01
3.246672321246108495e-01
3.200969692122163091e-01
3.013642091252284883e-01
2.911866620473730349e-01
2.801168216307763914e-01
2.615112531075011737e-01
2.486823031785047600e-01
2.417294428232431847e-01
2.210413149797310628e-01
1.748445757615516016e-01
1.141432725599307862e-01
4.261662218157015458e-02
-4.815774303147668522e-02
-1.331127574911386280e-01
-1.845944225995458932e-01
-2.241126724899728528e-01
-2.514027960472475232e-01
-2.065499103141426041e-01
-5.328890578624483759e-02
1.533218310030672327e-01
2.492870031673090625e-01
9.977433719694828174e-02
-1.680890324355398535e-01
-2.953764587831657074e-01
-2.591516293938521120e-01
-2.398626776553666462e-01
-3.249011255008212862e-01
-4.471832174882897637e-01
-4.982263370325443752e-01
-4.301530620486450074e-01
-2.913579798570977153e-01
-1.522609381428986219e-01
-2.831796749621631748e-02
9.867019607029479944e-02
2.211629691427602906e-01
3.037311114524945399e-01
3.395585274608731718e-01
3.542156147033691527e-01
3.489822775412939615e-01
3.052172525409753145e-01
2.380073558162541791e-01
1.973538364871177397e-01
2.053890065717233759e-01
2.148237566295009837e-01
1.708980843232421609e-01
8.249123339341948857e-02
-9.096146306711266893e-03
-6.973253529132567019e-02
-7.924602301157347706e-02
-5.801518968405799948e-02
-5.067266174648545757e-02
-5.765495716907230450e-02
-5.109612639544326013e-02
-5.410545020414320866e-02
-9.773267721792074092e-02
-1.451814744120616951e-01
-1.492855873873429606e-01
-1.057611395017008099e-01
-5.212960295817921363e-02
-3.583393193343530070e-02
-3.553626726824325732e-02
-1.312749345713171145e-02
-2.522172834459063956e-03
-1.997437433516005903e-02
-3.800649519476660687e-02
-5.434953813174404208e-02
-5.757610342368452844e-02
-5.258090856484484710e-02
-8.806936289168774967e-02
-1.175569421992456037e-01
-2.734315010247256178e-02
1.563663307538105673e-01
3.089858281513852001e-01
3.626663161383180123e-01
2.906969678587186801e-01
1.078223948714017721e-01
-9.023636638507259722e-02
-2.230248137239718709e-01
-2.984228493352123479e-01
-3.381371494595469818e-01
-3.259020809045882205e-01
-2.434100975884611884e-01
-1.130444089117459833e-01
1.705359965715784812e-02
1.243873409429777088e-01
2.027142911305951645e-01
2.381143763074739239e-01
2.355363841832360250e-01
2.111280756123354863e-01
1.661069617952306010e-01
1.026985390472245213e-01
3.442598651656904318e-02
-1.677199601969421583e-02
-2.913452665780034978e-02
-8.187116266129029762e-03
1.287311840603176313e-02
7.743918215426966872e-03
-2.171187880260850439e-02
-5.995617984857724847e-02
-9.958550586377652725e-02
-1.179634285618095801e-01
-7.458903285576509723e-02
8.196873356812867800e-03
4.104794493466362715e-02
4.376265642915839332e-03
-2.946815852542564868e-02
-3.946547015269295106e-02
-6.120858677476165299e-02
-8.605234809309485200e-02
-8.912698778205785377e-02
-6.902329439396009958e-02
-2.685201584520493720e-02
3.157145639483167204e-02
8.949895207722018131e-02
1.210153850369209139e-01
1.280735178558566056e-01
1.400850733683496885e-01
1.272031863369133264e-01
5.839366001100872172e-02
1.047691767996697387e-02
2.075818745941108642e-02
-7.620185687109547884e-04
-6.107860531569962032e-02
-3.772840189486904167e-02
8.944795239783033536e-02
1.971159033110429781e-01
1.943876801956088696e-01
8.284720997897160322e-02
-8.685830999335569791e-02
-2.416352696160849189e-01
-3.282284201547331359e-01
-3.463335458650744214e-01
-3.292692295116340651e-01
-3.016352694507770105e-01
-2.477150168744413350e-01
-1.350205402098074992e-01
1.619145467810137462e-02
1.377819440172457499e-01
2.001403705447867554e-01
2.223338379163615763e-01
2.213622037497333384e-01
2.152612177211440658e-01
2.003944699071477653e-01
1.374693876614682397e-01
4.721085258780768901e-02
-3.165466862929365577e-04
-1.680830806282097856e-03
1.149452054146999497e-02
2.702657127705452786e-02
3.415121951518835380e-02
3.108598030056115499e-02
1.431907997360644738e-02
-1.179829626160606645e-02
-1.125540082754110036e-02
1.829947872378372489e-02
2.561207762777074903e-02
-1.325035332446727540e-02
-7.641284845438321705e-02
-1.320577408134574193e-01
-1.527334301135370997e-01
-1.338318615400258538e-01
-9.419002203146614738e-02
-4.420585729323220359e-02
1.988230491741814487e-02
8.000454515222385488e-02
9.781067199313883687e-02
7.589099438301596945e-02
6.118021563338374436e-02
7.594426916339866440e-02
7.196533259759627099e-02
-3.358208392657269226e-02
-2.237227579991897253e-01
-3.469805429429599353e-01
-3.025671629165843091e-01
-1.553550646055334439e-01
-1.468964750755993691e-02
1.291361515791074610e-01
3.571729083209064237e-01
5.994954148816246109e-01
6.636016842935099636e-01
5.034421851882959764e-01
2.363914644102327323e-01
-1.785198986364991414e-02
-1.866039879322760053e-01
-2.712852465813023750e-01
-3.359589295774298434e-01
-4.054210502868119126e-01
-4.260333752450617406e-01
-3.454526152431732777e-01
-2.050246600330229152e-01
-9.921648133431179573e-02
-4.690698514341987840e-02
-6.341871373868629425e-03
3.868849779178761689e-02
9.182071816626669047e-02
1.327692110572277207e-01
1.222370280084965899e-01
8.130965274051971114e-02
4.283151964888745611e-02
-4.651271150039975460e-03
-3.348756145246833266e-02
-4.069254494500450584e-03
4.515641485095008012e-02
7.384077556323247193e-02
9.279150113991971316e-02
8.964295959285779880e-02
5.107090549663936829e-02
2.323010079758993165e-02
1.384556021073301071e-02
-3.050922506679946966e-02
-6.749448992623734156e-02
-5.568781968377286423e-03
9.633459870153576743e-02
1.417750995179008211e-01
1.763209006921748201e-01
1.916335499015334731e-01
7.443939351443795704e-02
-8.165154355567191824e-02
-9.387020519797936724e-02
-3.900670319242960371e-02
-5.715433306828637816e-02
-1.140596253536427795e-01
-1.505730029369600209e-01
-1.839872906689775378e-01
-2.406521054337368293e-01
-2.935325063373890875e-01
-2.872836615835450691e-01
-2.279188987388282850e-01
-1.701063195343899270e-01
-9.352168858557793896e-02
8.451728031330749125e-02
3.149499474812439415e-01
4.068437521663513801e-01
2.987739462975302907e-01
1.431756619124666119e-01
8.064237644192810694e-02
1.022333520905506637e-01
1.303206515305767310e-01
1.419124275368580934e-01
1.786811905681695012e-01
2.465923696633051942e-01
2.977064588868365558e-01
3.153326175883811588e-01
3.014606277325462824e-01
2.118887420124625220e-01
3.597539643682032967e-02
-1.250243338625268708e-01
-2.013276451006405232e-01
-2.577647172282308552e-01
-3.444311483351322756e-01
-4.169248285934394893e-01
-4.425011190384529058e-01
-4.314019748649705610e-01
-3.887309440321631837e-01
-3.232684045449767396e-01
-2.491944846090055343e-01
-1.632385580404555614e-01
-9.454275610614594483e-02
-9.861444698368732054e-02
-1.315983127719509427e-01
-9.699924004898105578e-02
-1.280071783141539105e-02
5.878614350027629165e-02
1.362093237752567965e-01
2.351011894377896261e-01
3.139346044913445266e-01
3.410471524284962030e-01
3.260161280613108614e-01
3.048027668694414105e-01
2.815273134288251433e-01
2.575637440503563136e-01
3.150282930860621722e-01
4.062367528550493434e-01
3.223174217278312326e-01
1.412088913292192660e-01
8.832234286380441501e-02
4.006708915251322445e-02
-1.442258180360942721e-01
-3.015954707190245943e-01
-3.299559042947603493e-01
-3.174152692462455794e-01
-3.290432303189958496e-01
-3.290899807892329609e-01
-2.163409732847810796e-01
3.753146088061339730e-02
2.855587791533265030e-01
3.478595819052915372e-01
2.099793214383387230e-01
8.038125403457614671e-03
-1.535391987003155156e-01
-2.766713324104256855e-01
-3.754178632807341209e-01
-4.235848520867522282e-01
-3.903721811012653697e-01
-2.795214876701413442e-01
-1.354819656006792661e-01
-3.314127798147895043e-03
1.139955561198947309e-01
2.283982718834796088e-01
2.698880492022533995e-01
1.697502793725206294e-01
7.166787247379918790e-02
1.213372726114413519e-01
1.945126225180835167e-01
1.715680296773509639e-01
1.086234543265953145e-01
5.970124169236848410e-02
5.910188237861199734e-02
1.138263484039789830e-01
1.476773013210387342e-01
1.124423566462460777e-01
4.470836299178974210e-02
-1.464238000383033533e-02
-5.589027320649685854e-02
-7.066616945010113782e-02
-3.756793467280319238e-02
2.141839903619845858e-02
3.063325437313805383e-02
-2.596613210289454646e-02
-8.292378067344245707e-02
-1.058553098968413736e-01
-1.138342871151387797e-01
-1.160088477935770079e-01
-1.038006367629041027e-01
-7.888637226100010669e-02
-5.385225496867102057e-02
-2.506961429637286076e-02
2.401536344379431170e-02
6.654446701594332603e-02
4.916069931221030143e-02
-7.209162027480568030e-03
-2.865748270596682468e-02
-6.139016137913825069e-03
4.270006853895544352e-03
-3.441700629536651596e-02
-8.922852064079317413e-02
-6.576736788839460113e-02
8.346407521066583068e-02
2.721249859808342331e-01
3.722763152880769755e-01
3.296387255326037602e-01
1.695322572055276145e-01
-2.822713437461785851e-02
-1.858810860131226150e-01
-2.896312752821011971e-01
-3.632754300175500828e-01
-3.926528524545097598e-01
-3.262777820085117630e-01
-1.773888545899497404e-01
-4.353644297981532074e-02
4.257990973602008428e-02
1.415074234662797581e-01
2.032039267857467801e-01
1.113862192688177682e-01
-5.198553487341280033e-04
7.103953304647220302e-02
1.875509631617128525e-01
1.389208641263557920e-01
1.981303737097010048e-02
-1.275902238180979392e-02
2.143554195075903293e-02
5.643128122055363766e-02
8.043043633906182821e-02
9.073249477074436797e-02
6.651576536821471319e-02
5.933341727130890184e-03
-4.560135132882734560e-02
-5.090830626110811469e-02
-2.482214922172184396e-02
7.317210414830950180e-03
2.980745480028436714e-02
3.053743474354217793e-02
1.707334964188942164e-02
-4.742231863361806923e-03
-4.447855863222280326e-02
-7.512737539260112840e-02
-5.551500670593564196e-02
-8.757300569400168488e-03
2.893346092540027142e-02
5.962779126377076855e-02
7.188750876010889523e-02
5.396327036780783348e-02
1.488058627725030725e-02
-4.460292946350508103e-02
-1.110770127064942964e-01
-1.728324601930174564e-01
-2.294297109667107482e-01
-2.371290155090403640e-01
-1.740192593883902183e-01
-9.425460093460555355e-02
3.888287535837885167e-03
1.885501232562677987e-01
3.988281389050276626e-01
4.522678568433427526e-01
3.042029852112255184e-01
9.293809519402468355e-02
-7.409897542315466157e-02
-1.812011030240187892e-01
-2.347797197619668208e-01
-2.597995863595518040e-01
-2.710166678955108766e-01
-2.484319947792564265e-01
-1.705994388247834281e-01
-3.947058952992610337e-02
8.929004164969334134e-02
1.496368421571349083e-01
1.608747349115023650e-01
1.633795582435029481e-01
1.424099428241668019e-01
1.087249187967762321e-01
8.794620319649122664e-02
5.671954166079710286e-02
2.419073671658618710e-02
2.490093289859299230e-02
3.300830396239242542e-02
2.659799233081342612e-02
1.005069259999428685e-02
-1.956705774590513161e-02
-2.600541282168060062e-02
-2.714615357375400190e-03
-2.316280038386090562e-02
-7.867320921788799326e-02
-9.030080044988768317e-02
-9.976490561633949428e-02
-1.927394000413618635e-01
-3.142840511550013538e-01
-3.233011518655771188e-01
-1.683512844528296526e-01
4.925602003593948508e-02
2.090871105493990467e-01
3.099866325138935785e-01
3.878495779214607420e-01
4.095237382908888391e-01
3.491003249144580267e-01
2.491682819145191741e-01
1.513549203912506746e-01
5.246949521511250214e-02
-7.040303767959404935e-02
-2.210578626164765581e-01
-3.475920627103394334e-01
-3.799159286575246597e-01
-3.182725482671485695e-01
-2.229367701479789410e-01
-1.124431174136571732e-01
6.371003907298511404e-02
2.940255808948371019e-01
4.264722589211002446e-01
3.621779117527523795e-01
1.982524988132426946e-01
4.495305205259874509e-02
-8.913962476822975822e-02
-1.908657508143612458e-01
-2.638441155298039686e-01
-3.557004504660834510e-01
-3.721777952176475446e-01
-1.911561846226439154e-01
-3.717816061106094666e-03
-7.055981911594393086e-03
-3.787135219921611978e-02
4.193118252695364478e-02
1.435682032701691979e-01
1.670144703029844413e-01
5.815918799787628962e-02
-6.704781172591885163e-02
-1.990856877960891017e-02
9.810069012071012673e-02
9.148195992725456638e-02
2.066934983258279096e-02
1.023456637926481450e-02
3.641254774869821798e-02
3.876633844094319603e-02
2.677548102289710463e-02
1.987371155143593388e-02
-5.135063753296462141e-04
-3.703182418826550526e-02
-5.806622922477099741e-02
-4.627697231313925019e-02
-2.307280825777687644e-02
-1.964488085601363149e-02
-2.470003004156552315e-02
-1.715438505654151916e-03
3.939310718851984222e-02
6.346250823899554638e-02
6.459807372272134696e-02
4.053439962685435188e-02
-2.348126913682101191e-04
-3.128256722107691790e-02
-7.951949598416416243e-02
-1.727502287680096060e-01
-2.459068331389284157e-01
-2.550040084859275247e-01
-2.206108940783297612e-01
-7.892297916056868756e-02
2.122557321995618418e-01
4.585139302720558363e-01
4.940927156565528833e-01
4.574047543855288556e-01
5.191780628288774624e-01
6.628956109570400823e-01
7.677541954248805478e-01
6.936214897672219326e-01
4.241592273521739287e-01
7.543276669656039102e-02
-2.691664021013569497e-01
-5.532005099187454755e-01
-7.412899196753610642e-01
-8.651219490530195344e-01
-9.231696792798680384e-01
-8.821568360718204937e-01
-7.709285169385697856e-01
-6.221182974966759094e-01
-4.369564845293980593e-01
-2.485968852581623145e-01
-1.109661587832904139e-01
-2.874535555749088700e-02
4.715302267536342073e-02
1.371594540083324876e-01
1.924361320022447142e-01
1.987568743579446462e-01
2.253195801634118589e-01
2.832247240673250177e-01
3.086978576662212093e-01
3.197940451048931210e-01
3.665946433058905329e-01
4.050870194993559936e-01
3.866696366537255014e-01
3.268545178017803754e-01
2.527688150337733530e-01
1.931158616269164907e-01
1.703899191684455361e-01
1.656864473486612810e-01
1.397991331216004163e-01
1.076969665353547517e-01
1.155063245774765740e-01
9.544325078699339437e-02
-4.275028503223789189e-02
-1.712468600945367125e-01
-1.346571426218050871e-01
-1.306262487338427647e-02
5.816073298430268768e-02
3.975487407200212209e-02
-6.133701050728806309e-02
-2.000488408951751063e-01
-3.229112008819274293e-01
-3.974006968841070075e-01
-4.185577031320672492e-01
-4.171521109825464535e-01
-3.993131695356461064e-01
-3.368192192496352599e-01
-2.460275378769106180e-01
-1.571474188590066268e-01
-3.066170999518312568e-02
1.773547253927540424e-01
3.973688980135785531e-01
4.842191869444281149e-01
3.759980289122505370e-01
1.624810793805241960e-01
-2.168243799577644626e-02
-1.365540308135809178e-01
-2.230077773174902189e-01
-2.740951386867646056e-01
-2.486481651128282233e-01
-1.736704815756532350e-01
-4.418729918735306988e-02
1.868426340612857062e-01
3.758948670762548017e-01
3.558448617685887605e-01
2.536895765911326150e-01
2.196782063971062515e-01
2.017490677314208725e-01
1.619221633677294936e-01
1.177069382566341138e-01
5.432663890219644603e-02
-1.569885664805529407e-02
-5.053685014563039785e-02
-4.529610697127279401e-02
-1.067796595020583522e-02
4.634718127562771628e-02
3.357206146866212326e-02
-1.310313497230835011e-01
-2.694592800377679787e-01
-1.964305175557453098e-01
-7.908238223029818992e-02
-6.964765749515373916e-02
-3.211941255229694425e-02
1.795679584346414337e-02
-1.132414524557339708e-01
-2.401520000420098166e-01
-6.918667636619781069e-02
1.308030382190396856e-01
4.204869694288498883e-02
-9.939434328197627178e-02
-6.730217293640852749e-02
9.847148477548590961e-03
4.058674156182730947e-02
6.650269903611090438e-02
1.040680284633825614e-01
1.255533758717970738e-01
7.804688727018505023e-02
-2.122651945041284516e-02
-5.887433537541914008e-02
-1.966943894457528347e-02
-1.913606621025822768e-02
-6.430805741954903620e-02
-2.664727423038902587e-02
1.230708573723888755e-01
2.818639204417592303e-01
3.657692613743576127e-01
3.258076715589361960e-01
1.439744373561282209e-01
-9.813177817013421511e-02
-2.811573342793952102e-01
-3.673675168179993955e-01
-3.880635319665779459e-01
-3.821461390772754041e-01
-3.552345892466275967e-01
-2.699499518911671614e-01
-1.067658682805119330e-01
6.554640582740459132e-02
1.386914845196587365e-01
1.538278374397827331e-01
2.545641303168462155e-01
3.482891335871378669e-01
2.435941546678132563e-01
6.657642496670734822e-02
1.962763752171299211e-02
3.763502379795882757e-02
2.658443177741882588e-02
3.472255405694388980e-02
7.690277542726248194e-02
1.040062886938477038e-01
1.098449161947893243e-01
9.651862729904549243e-02
5.026268421919170837e-02
4.872367180334992443e-04
-1.092760858984491434e-02
1.326423958932143252e-02
3.616308492214068138e-02
1.289746307231263642e-02
-6.373559488256030914e-02
-1.431300720770401769e-01
-1.880814851907812169e-01
-2.211072063186557413e-01
-2.486202521256078435e-01
-2.261282731481018549e-01
-1.608153341226043198e-01
-1.099362753840834317e-01
-5.316527404102998344e-02
4.928533750833473392e-02
1.403102489085197302e-01
1.669528331441657576e-01
1.454874271547707543e-01
7.661301519408054983e-02
-1.969330095459479249e-02
-6.089376129137204913e-02
-4.195370523066838803e-02
-4.270198357476289591e-02
-3.525779847580984977e-02
8.768805722335760999e-02
2.954806057419566145e-01
4.148994196553500990e-01
3.476303924525573352e-01
1.826939127819188213e-01
4.027008866453408997e-02
-7.328194512885018164e-02
-1.764747477066897774e-01
-2.465827758415522208e-01
-2.827672206687996126e-01
-2.973562579355576441e-01
-2.945445731825486191e-01
-2.913751130709111292e-01
-2.221872466377157462e-01
3.065560534137808796e-03
2.146512814859154461e-01
1.771083279802809218e-01
1.739083373727462467e-02
4.953289977142708370e-03
1.338094448876910869e-01
1.968952734152335793e-01
1.219809901287035314e-01
3.284172335156875649e-02
-3.064792063586932111e-02
-1.374536002096635734e-01
-2.386222174058300616e-01
-2.378364096432154240e-01
-1.380435882165794437e-01
1.839845939423343305e-02
1.901709828030354599e-01
3.142841491138342880e-01
3.323440470493679300e-01
2.488126262041361059e-01
1.445071137717845178e-01
9.063408152710444865e-02
6.352737008186128131e-02
1.320108069332277118e-02
-3.427404409936148089e-02
-3.083711909756489331e-02
2.427348726661809897e-03
1.445104714790072797e-02
5.464128603261163633e-03
5.121113948841227864e-03
2.992066709103218675e-04
-4.106200724598309260e-02
-9.515758615405141285e-02
-1.196446980243881103e-01
-1.426443291625618948e-01
-2.014512540115033223e-01
-2.486060503347687356e-01
-2.521802898919612290e-01
-2.501272485797503831e-01
-2.084080729249091768e-01
-4.420048103044046939e-02
2.038422483267200991e-01
4.144992341898189325e-01
5.001671442977867477e-01
4.275063697428018172e-01
2.494140120678828842e-01
7.430523565683855303e-02
-5.207600320093556251e-02
-1.548679388352816877e-01
-2.413345870748584976e-01
-2.837541150402116408e-01
-2.712327483631589153e-01
-2.190149899101749287e-01
-1.349539986842548112e-01
-3.545755973139397277e-02
3.604841262519952599e-02
7.624596551488729834e-02
1.188172431015530328e-01
1.037071731709753586e-01
-3.071648767040087089e-02
-1.289287032947980804e-01
-5.996690081706992914e-02
9.461800094664976624e-03
-4.813723126228887372e-02
-1.107827383386575243e-01
-1.055381045391660805e-01
-7.951796633220485633e-02
-3.881175198281792971e-02
-5.674298047285849210e-03
-3.366109669206780730e-02
-7.499606593447734337e-02
-7.334223559465814779e-02
-9.972640815772534917e-02
-1.780203788047666214e-01
-2.001631726613996021e-01
-1.380697965956396711e-01
-5.336945895535034901e-02
8.184535189847118308e-02
3.107107725374294582e-01
5.591185064249387660e-01
7.486450164750937386e-01
8.906998797577231342e-01
9.861800592113011410e-01
9.761897567577753065e-01
8.302464622649488035e-01
5.936429237121864100e-01
3.336376678618311886e-01
6.108561559080838421e-02
-2.514336802336830656e-01
-5.669054279037146760e-01
-8.039022421313242184e-01
-9.420549932465629439e-01
-1.005973777875376785e+00
-9.823089107720175406e-01
-8.068203087195912060e-01
-4.950785032184168433e-01
-2.419031193420802528e-01
-1.935233422082726362e-01
-2.510302960014233475e-01
-2.857480186458182247e-01
-3.047095350460036767e-01
-3.256174464590663176e-01
-3.072936658180273617e-01
-2.255631327158710842e-01
-1.165772553270405937e-01
2.000250452155466485e-02
2.588813593582682815e-01
5.489219031424379391e-01
6.885554870924843751e-01
6.167189441785515536e-01
4.608499987415855537e-01
3.249946646743950840e-01
2.414891895167669000e-01
2.073167802524306658e-01
1.883469390080455552e-01
1.749507289821590761e-01
1.815660091557688149e-01
2.057774634264206426e-01
2.677976268924413539e-01
3.522183350880203068e-01
3.330392887486034459e-01
