1.193781611219017491e-01
1.066570582093140651e-01
8.328469475223695961e-02
5.773351565456489448e-02
3.111810116714839453e-02
8.564329447073764159e-03
-6.453132474788535189e-03
-1.607629307437415805e-02
-2.182781706375077832e-02
-3.350167561403942507e-02
-4.998659779588971591e-02
-4.871942183650963820e-02
-4.131632775605365016e-02
-5.216042027652082608e-02
-5.288612376564616468e-02
-3.351800433943808583e-02
-3.797128202500243271e-02
-6.348369721937682786e-02
-6.250894467186539349e-02
-2.570010369310215051e-02
2.704718923554287960e-02
7.157763433037100942e-02
9.224088210340235239e-02
1.033250356288732408e-01
1.102678322120698717e-01
1.012335857332164191e-01
9.921925189994715288e-02
1.107963517317753638e-01
6.874429014747317213e-02
-5.223667893800564010e-02
-1.531160510690973420e-01
-1.580770538753289711e-01
-1.291795715610282169e-01
-1.331873581436336385e-01
-1.330227350886701299e-01
-8.847278595103200138e-02
-3.795627142712434260e-02
-2.244228667189607229e-02
-1.274374375115409214e-02
3.061683349535983950e-02
8.262395469886717192e-02
9.632278958438710015e-02
7.480900781052729487e-02
5.757233753296363971e-02
6.317758596680290994e-02
6.910009450502407891e-02
4.693069941018317148e-02
1.341094454148377205e-02
1.316220863410804028e-02
3.474620743263313882e-02
2.599310990975297470e-02
1.214433084744488342e-03
-1.977601194954967806e-04
-9.755834672234970500e-03
-4.726151543793779414e-02
-6.442129170024234186e-02
-4.157675172757092918e-02
-1.714013731361255580e-02
-2.452783999123055864e-02
-4.699253389436524458e-02
-3.765308281978237831e-02
-8.985414773721020140e-03
-1.210494309075674756e-02
-1.833186416351702264e-02
1.987860692917759256e-02
6.237277920053573704e-02
7.160193985457964649e-02
7.590704911042521486e-02
8.456607931901247155e-02
7.611789872740309937e-02
5.317297093154947640e-02
1.870673405896150152e-02
-3.462307378123902907e-02
-9.036691351266847028e-02
-1.230296366908394667e-01
-1.279194769554283795e-01
-1.264066966713104367e-01
-1.293427954923597467e-01
-1.007596717112106827e-01
-3.199567513618405135e-02
2.092861329725770325e-02
4.360267803528215802e-02
7.120998948928394801e-02
9.955265827983128535e-02
1.104855047202303320e-01
1.121031797400338786e-01
1.035498320529315286e-01
7.646055450974530154e-02
4.190716151658089444e-02
1.303844017545313996e-02
-8.185362036319098616e-03
-1.643535443022266576e-02
-1.249984297309687797e-02
-1.561881593136013602e-02
-3.823941921850876335e-02
-6.557352564498089564e-02
-6.642739057033229810e-02
-3.927541833748395689e-02
-3.029457223371214911e-02
-4.939012831169662526e-02
-5.041278115436591267e-02
-3.335851285446441578e-02
-2.860907423993482024e-02
-2.254655028782785731e-02
-8.631395977853275822e-03
-4.076368795954935995e-03
1.086613347610819111e-02
6.885316910904040744e-02
1.404278560493852634e-01
1.528347041658341954e-01
1.073001016104698779e-01
8.476454393502427798e-02
9.175981487471306097e-02
6.171803251699901210e-02
-1.546086433556319653e-03
-6.729046399915385168e-02
-1.403033334734714865e-01
-1.781125243799695501e-01
-1.523340349481219491e-01
-1.265478513229748858e-01
-1.171328224436805204e-01
-8.318110562391803353e-02
-4.937397837594791061e-02
-3.189564434768226570e-02
8.733076265250470233e-03
5.674913929072267216e-02
6.919603289885720154e-02
7.037350148752292978e-02
9.033984437095099462e-02
1.052268989439362201e-01
8.713111929831497682e-02
4.742701950029751257e-02
2.952298691492310015e-02
5.546159732725618186e-02
7.410758515383721046e-02
3.298249093855946251e-02
-1.474048992692234342e-02
-3.104756402268992604e-03
1.282991936358372428e-02
-5.229647677499544775e-03
1.167319006984801275e-02
1.126040760760321606e-02
-1.199800238248736467e-01
-2.235024781068780941e-01
-1.312535109433318470e-01
-1.871820159379989149e-02
-2.827120369371692588e-02
-3.820930732283990550e-02
4.165741788199268589e-03
3.601299944898175842e-02
7.490110376415165527e-02
1.291311607599067435e-01
1.385411780480780841e-01
1.117804322149410640e-01
9.060160323904362101e-02
5.834586285939586531e-02
2.294050285325974908e-02
1.797837481846115137e-03
-4.855990717132645240e-02
-1.157306297499345188e-01
-1.250756806853521308e-01
-1.050528364022144251e-01
-1.113191579991420349e-01
-8.101721157991052802e-02
1.251667360295664368e-02
7.761370623237151545e-02
8.492579760293447744e-02
7.468620713474855011e-02
3.061561325824209423e-02
-5.745371905315572320e-02
-1.351753531734943281e-01
-1.811933694002904049e-01
-2.148239809259192001e-01
-2.013931240079570584e-01
-1.042485491605530529e-01
2.659572623049355489e-02
1.285896633684576185e-01
1.903319573769675921e-01
2.179955549944763704e-01
2.296046978556856299e-01
2.424349247412529718e-01
2.375133480116182749e-01
2.030646141358291301e-01
1.621015364410277049e-01
1.022389239536548311e-01
-2.741382957174832991e-03
-1.109704877806580170e-01
-1.928364587325556156e-01
-2.763169381343025810e-01
-3.238318772189599515e-01
-2.698282257399736705e-01
-1.661960677900694849e-01
-8.916108739046577081e-02
-2.020020121551020092e-02
6.192280274372913978e-02
1.330353515796048602e-01
1.833071907793071276e-01
1.989758223408298887e-01
1.581786402456212826e-01
8.611281167222065158e-02
2.217182913219785043e-02
-2.104777992651015589e-02
-3.663185326405623415e-02
-3.154934631375382048e-02
-3.643201022279320828e-02
-7.991847146948849456e-02
-1.508546807265815637e-01
-1.899268410895773029e-01
-1.529016025834605830e-01
-6.801510368325056066e-02
-4.491850380348820504e-03
1.672119269932913904e-02
4.177940026564048309e-02
8.401881986969228500e-02
1.095550104618268628e-01
1.094940543677218048e-01
7.062888751384487074e-02
7.670485647590817233e-04
-2.497763660849951911e-02
-1.254819502635493023e-03
8.774138111023425599e-03
3.098635633578758486e-02
9.156174081214941973e-02
1.366307863158998659e-01
1.582634187603462750e-01
1.632871365757242732e-01
9.814205088289672252e-02
-3.104212280684272990e-02
-1.451623513174571112e-01
-2.135494509304279587e-01
-2.357150649879839743e-01
-1.991466303986595965e-01
-1.207280779511306218e-01
-2.955171434523871238e-02
5.836418306352687824e-02
1.059777573531049816e-01
9.025782909012422528e-02
5.560200766155880270e-02
3.952121721869673171e-02
2.705846088370895963e-02
2.378428435305710367e-02
3.164535434355568444e-02
4.061748610168237558e-03
-5.376719267700692112e-02
-8.488100460621561538e-02
-8.557627220372691912e-02
-7.572680405980819485e-02
-5.639517365444651070e-02
-3.205194323080763630e-02
2.141817463538676913e-03
4.737273602238781245e-02
7.659131434226146284e-02
8.352558733550342895e-02
9.794035885933136121e-02
1.160049750082479403e-01
8.685027165026058815e-02
4.632782847664545546e-03
-5.516323721490164200e-02
-6.223645117749236622e-02
-7.554788447538893226e-02
-8.040755562053283900e-02
-2.419831540307036330e-02
4.495009739572554570e-03
-2.168904493606824135e-02
4.450797510456449418e-02
1.534561698672391727e-01
1.091583105400683595e-01
-3.810327314438092389e-03
-1.790971967287034033e-02
5.946509173647378590e-03
-2.854951941458609525e-03
-1.694632849779925329e-02
-5.191092328141536094e-02
-1.093800101527672292e-01
-1.179691383666729987e-01
-6.230918241853388578e-02
-1.204722084573943072e-02
-4.580122974865709698e-03
-3.031856627911680424e-03
2.953825919533275071e-02
6.090483787571149277e-02
4.450524595730889071e-02
1.398793592207212347e-02
2.218742181398508651e-02
4.056948526631073970e-02
4.787721336053494398e-02
8.608542265372186308e-02
9.138301860600792081e-02
-3.442525297457953853e-02
-1.344302203117521410e-01
-4.906775784638785914e-02
3.722091523994065787e-02
-3.105319092159473937e-02
-1.004466627441844423e-01
-6.315455849359180585e-02
-2.025743560632232293e-02
-3.333019848190429263e-02
-4.578218421446655917e-02
-3.297694123990490417e-02
-3.448955734974756826e-02
-6.109230684567266978e-02
-8.167389287206465454e-02
-7.571146049867934213e-02
-4.524922293922751387e-02
-2.364953871938914667e-03
3.975123128814640056e-02
6.946356445353370213e-02
8.651747462654145460e-02
1.227405538094635817e-01
1.916074108082186644e-01
2.348068233374612512e-01
2.157216439303449584e-01
1.809049271741650922e-01
1.619262252908966193e-01
1.347101357097467700e-01
9.010380058412832682e-02
5.074555524695675834e-02
2.094079366672960824e-02
-1.571437984798362830e-02
-5.529819851227932292e-02
-9.197762927182279169e-02
-1.397490038170913773e-01
-1.882216010535391337e-01
-2.135819489439928220e-01
-2.299116482744468226e-01
-2.487540963032863484e-01
-2.435135693136126211e-01
-2.052948714408887043e-01
-1.624322954371217043e-01
-1.314973109514638860e-01
-1.095038045947557548e-01
-9.248001632029489993e-02
-6.639182953350801497e-02
-1.995065435752982341e-02
3.863131052351126415e-02
9.484401958162523572e-02
1.338978097977494286e-01
1.649586772191801165e-01
2.076237752895762623e-01
2.268514237775868803e-01
1.998361570330907666e-01
1.846582358700474824e-01
2.022468685468250538e-01
1.968703575120195060e-01
1.522362425657171614e-01
1.141176276659789796e-01
1.003704130107284098e-01
6.863408861376105174e-02
4.952573260662528065e-03
-4.751687656475526988e-02
-8.805091179841678661e-02
-1.422293694971950018e-01
-1.766828211603143628e-01
-1.649063336785715483e-01
-1.387263922263567151e-01
-1.293832447003949171e-01
-1.412655563085756516e-01
-1.542732577366477675e-01
-1.420198597150424680e-01
-1.116563447608307641e-01
-8.457254851392871642e-02
-5.035726969350846904e-02
9.271092628898799232e-03
7.857115435974679207e-02
1.314307207999808602e-01
1.588171078112273205e-01
1.627665678173343122e-01
1.641120498669367267e-01
1.759615543688107242e-01
1.662174336256783402e-01
1.063718180661651913e-01
1.575202387467241477e-02
-6.251258839396661715e-02
-9.858615930963081364e-02
-1.115458488402771009e-01
-1.361606751966273898e-01
-1.467191545550505238e-01
-1.127190062945678251e-01
-8.149379742019075001e-02
-7.771772930740433738e-02
-4.921458469660647955e-02
-2.981884333870303549e-03
1.258300860641563268e-02
2.991108479172306309e-02
5.678761690665394546e-02
5.535666151191735718e-02
7.722858411108288190e-02
1.012271714901472469e-01
7.270856129329853271e-03
-8.221236466754980321e-02
7.736683076671770770e-03
1.191098025192690729e-01
9.719384491409523152e-02
5.769211096849539283e-02
8.563628420231918226e-02
1.094863411197369157e-01
7.345767602375342931e-02
1.483172683155473473e-02
-1.636469780256467541e-02
-3.405838584681346315e-02
-6.820371844763382929e-02
-1.140690901536273172e-01
-1.539589608812254318e-01
-1.597937695326058227e-01
-1.154700599862637511e-01
-5.537534508858320964e-02
-2.313107163082680010e-02
-1.051584787425667231e-02
1.995765740051337611e-02
4.185939012392612957e-02
-1.316604975244439757e-03
-1.447592582201412750e-02
1.168609293868727861e-01
2.275378761312062126e-01
1.484853029159818871e-01
3.195805571844856363e-02
3.033741226621467640e-03
-4.641959132546114031e-02
-1.551305912355254724e-01
-2.255036077786537474e-01
-2.338591825444603090e-01
-2.418358558905448763e-01
-2.123638827384304040e-01
-4.482968028055955151e-02
1.644626814001708959e-01
2.411766289356839787e-01
2.331246603308286258e-01
2.360017791655272257e-01
2.080538044797694552e-01
1.359151544955257973e-01
7.307525902035784393e-02
4.040150908324140200e-02
3.284868092457469274e-02
2.613760111695839425e-02
-1.229627760196896208e-02
-6.942625979470425091e-02
-1.008788539046628491e-01
-8.510977608835471053e-02
-4.411973767691915876e-02
-3.243467404931108661e-02
-5.179059522053384296e-02
-3.097898742756207899e-02
-8.316186554200169848e-03
-9.719281651896177765e-02
-1.916918905788751737e-01
-1.297911400999712528e-01
-2.213231972024181857e-02
-9.118992626627204362e-03
-1.901899386917709281e-02
2.894753625574704448e-02
8.994485475475855196e-02
9.821255816517000803e-02
7.062046980232460081e-02
8.843344283474968703e-02
1.559519631769375747e-01
1.611669632888402537e-01
8.038703329242252726e-02
3.225708440142725092e-02
3.102147311742674274e-02
-3.023943813931454991e-02
-1.368382559271396348e-01
-1.757916443156614106e-01
-1.432162132518593201e-01
-1.216558407046830215e-01
-1.164197269498476184e-01
-7.832591924647758219e-02
-3.127799236445601150e-02
-2.047370974358181731e-02
-1.944520823184330005e-02
1.585124211978709147e-03
2.663822987916410201e-02
4.621180588547982304e-02
7.442011928257576125e-02
1.167541281819997057e-01
1.480615444562522753e-01
1.371169604439693157e-01
9.430758247256920690e-02
5.580878815123901937e-02
3.708425222083574363e-02
4.197313726942027146e-02
6.628228626416167446e-02
7.311867241369161829e-02
2.161739352845386958e-02
-7.765292182639504937e-02
-1.654027335683247446e-01
-2.014865537108557758e-01
-1.982817727020986520e-01
-1.614761344810407007e-01
-8.241525186476521270e-02
-2.651408617401590853e-03
2.689707477428963586e-02
2.277361206975812499e-02
2.767211508173693379e-02
5.507431671211282520e-02
9.110970180937758012e-02
9.974619148265559399e-02
6.640060696788654959e-02
2.975726558958237400e-02
9.265801146932158006e-03
-1.785377176906829608e-02
-4.862338189279524769e-02
-6.800757983545469010e-02
-7.926843905040659166e-02
-8.173815691214850188e-02
-8.554446723640360406e-02
-9.793959583112187006e-02
-8.858029877269964214e-02
-4.132708365357861541e-02
1.534473294169792258e-02
6.315788791304896566e-02
1.219007405580183057e-01
2.040129419949001932e-01
2.639866452138998065e-01
2.597442943331090270e-01
2.395395007201646109e-01
2.470341043780561741e-01
2.394412452327089325e-01
1.973118358623313084e-01
1.445837423914034248e-01
7.025508413667173879e-02
-2.765637744967411327e-02
-1.133307732957284930e-01
-1.779342176511968798e-01
-2.458257163519651511e-01
-3.159325820768087434e-01
-3.645085445980322247e-01
-3.928397120609137816e-01
-4.035056495156433276e-01
-3.811395013160015499e-01
-3.388603814863574426e-01
-3.023556847571111095e-01
-2.548676397826267759e-01
-1.594368023017198044e-01
-1.631190324025690030e-02
1.247764826978904201e-01
2.121213042098946677e-01
2.544217960367171627e-01
3.123812876393934901e-01
4.027520727722816440e-01
4.633490797619671531e-01
4.551176842612953966e-01
4.032698960644738317e-01
3.222289358025626216e-01
2.150811681926417807e-01
1.097246498002183712e-01
1.891871437896062991e-02
-6.802692372709363833e-02
-1.389596560775091805e-01
-1.748102926419049519e-01
-1.920665684159608144e-01
-2.068397876179582651e-01
-2.024855149009415212e-01
-1.773635495188921052e-01
-1.537312278767698215e-01
-1.328534615180053946e-01
-1.043512631753843178e-01
-7.793550474080117307e-02
-7.259437623053241473e-02
-7.875270150441074368e-02
-5.896758176167705978e-02
-9.338568521449406440e-03
2.916975527318239891e-02
4.051406273582618817e-02
5.673406208602600753e-02
9.226176490430282318e-02
1.090491738336270000e-01
9.211616762343191600e-02
8.496203589327025463e-02
9.611695031831116176e-02
7.648082474681319742e-02
1.874404349140821116e-02
-1.870091035397145746e-02
-2.647197509263184145e-03
2.463802180372793443e-02
2.111942706043364731e-02
1.268299324142112446e-02
2.310086015537177184e-02
2.480600820934975720e-02
1.238028060138827470e-02
4.763711427361963860e-03
-7.840671430083585511e-03
-2.531982358189970028e-02
-3.826637900425913091e-02
-5.545764130693071198e-02
-6.544033474555174812e-02
-6.455972194915297890e-02
-7.737736747613782606e-02
-9.585417022119491204e-02
-1.007474560047956075e-01
-9.556786054981342149e-02
-7.477771415866138471e-02
-4.657770241927990107e-02
-2.714882960540919085e-02
1.325651853975876732e-02
7.359856632806247023e-02
9.222236338568363945e-02
8.372923177876283318e-02
1.108451034597235652e-01
1.558627888778680859e-01
1.917287805598129891e-01
2.299776707519317065e-01
2.436868908136586576e-01
2.008947134640216570e-01
1.161342741154287039e-01
1.782523558493294413e-03
-1.216339034500102251e-01
-2.081196201201634399e-01
-2.606655506058066507e-01
-3.131149147549034395e-01
-3.468481297789943740e-01
-3.338192956804126310e-01
-2.846502154002885643e-01
-2.120244915253250706e-01
-1.183692413282028677e-01
-1.257008717321196622e-02
8.252273814764776727e-02
1.541414970622417835e-01
2.281313275804383589e-01
3.079963247361525713e-01
3.394093945230388099e-01
3.094801146951017268e-01
2.662180687618229680e-01
2.221321894965441190e-01
1.612266946802494993e-01
9.137456729891518803e-02
1.672268826002543812e-02
-6.128164121265543968e-02
-1.079999472644927461e-01
-1.077086481381419880e-01
-1.164592605932999736e-01
-1.709618326698766344e-01
-2.164038173289570821e-01
-2.160201113218353508e-01
-2.054811322026368625e-01
-1.889305500574116059e-01
-1.409584013216452492e-01
-8.389809001322273696e-02
-4.424153545384823527e-02
7.703474300423812648e-05
7.968177884215497941e-02
1.671302674476570216e-01
1.902163810988921067e-01
1.400091231933141556e-01
7.681170295271710913e-02
2.629358019665392621e-02
-7.068214128105141693e-03
1.550158257972814382e-03
3.746841711799771962e-02
6.572462241772827896e-02
8.966172842556097144e-02
9.302053072245591858e-02
5.407404559043555575e-02
1.536837913005533254e-02
3.364857439367267139e-03
-7.344406694910057820e-03
-4.260588918929376911e-02
-1.313010593539963855e-01
-2.039371970289348690e-01
-1.255132252547323524e-01
5.351977359828213182e-03
-4.963916004813814786e-03
-6.687118749850004540e-02
-2.427228989892835434e-02
5.483435176420248941e-02
7.049751435836609792e-02
6.054473785482761272e-02
8.031489818305830031e-02
8.130678875876762302e-02
2.175072822598866223e-02
-2.953832369936288879e-02
-5.368766959398735272e-02
-1.080445039630910653e-01
-1.394745748287938569e-01
-8.411073255565310047e-02
-1.006853345289175986e-02
4.321732709324117849e-02
1.012433763225367989e-01
1.413536896454991587e-01
1.532780214016322418e-01
1.547392431606122998e-01
1.197891920761855467e-01
4.676311489103707891e-02
-3.581064331394609446e-02
-1.294482134943751028e-01
-1.681117018594398826e-01
-9.220393025525253083e-02
-1.199866879040340992e-02
-1.376253938667569912e-03
-1.459400874752816470e-02
-5.132229330369651038e-02
-7.776127093547394176e-02
-4.422373177247820170e-02
-1.048897076886876750e-02
-4.781704902519588046e-03
6.689131678162738709e-03
8.566990066163456680e-03
-3.174512088960988743e-03
-4.385456870261740525e-03
-4.828566242334878141e-03
-9.829261603782411816e-03
-1.173638029478293529e-02
-2.300379343316309375e-02
-3.021645189155082456e-02
8.268678549784079165e-03
7.382999392155716045e-02
9.144395935526765384e-02
4.734282657970842467e-02
2.560530299270417920e-02
7.787016009507984060e-02
1.233440353122131627e-01
8.899464947553341332e-02
5.070368076463421109e-02
7.445073089381976095e-02
9.013909584423895893e-02
5.965649721403175343e-02
3.322380094899059916e-02
1.549518741922584555e-02
-8.593608083760808161e-03
-1.614263465977467532e-02
-1.564027374365627859e-02
-4.192874949374118115e-02
-6.863489305476701274e-02
-2.369451504659128571e-02
2.660393509640091025e-02
-1.124832056619904652e-01
-3.512336876087006621e-01
-3.566334878246479878e-01
-1.716625849285842165e-01
-1.048297102168117279e-01
-1.369716015539019227e-01
-9.890122542019279261e-02
-3.637650438678152048e-02
-9.742865808023581931e-03
3.867418857916261887e-02
1.050131347320928665e-01
1.235625668837854602e-01
1.130543912653328431e-01
1.300641523996974025e-01
1.591825288947563422e-01
1.536336951557941144e-01
1.150470535771245389e-01
9.045452943948682767e-02
9.261612664568547038e-02
7.216370822315416877e-02
3.091764960958964109e-02
4.223208893258793145e-02
9.171041678745613102e-02
7.904825344252397468e-02
7.516205981883541248e-03
-1.922367796337301482e-02
1.319283943410054505e-02
1.791036379959792466e-02
-2.784140254848748233e-02
-6.502047579850528392e-02
-7.761782951923534846e-02
-9.082808348639023754e-02
-1.001647021849494112e-01
-1.052799837142463363e-01
-1.215571883317934088e-01
-1.287819027150657603e-01
-1.024274710342259198e-01
-6.321911968032835338e-02
-4.199992068107311072e-02
-3.956380898199140378e-02
-3.007795781602773735e-02
6.199046166877081321e-03
4.961952331778390901e-02
6.659871492133626059e-02
6.230031615376988019e-02
8.043619713805919003e-02
1.351681465599723631e-01
1.587555231545434431e-01
1.019569340809815677e-01
3.894989290366080575e-02
3.709322813191279211e-02
4.585422838792421046e-02
2.592810616667211299e-02
7.558605672689825208e-03
-1.609529890857509110e-02
-6.747588786215161227e-02
-1.041853591640471283e-01
-1.039487561286786266e-01
-1.028840667231014083e-01
-9.852978518737401381e-02
-7.811792575377700387e-02
-7.028718360960610478e-02
-6.565698381262197181e-02
-2.660265576123505352e-02
3.810870520171183440e-02
9.631582143453767952e-02
1.228631451116590778e-01
1.236804573498701681e-01
1.356121377491026347e-01
1.524580279805180794e-01
1.298142177691602728e-01
6.270425589136396916e-02
-2.282332216359842653e-02
-9.592096912260407449e-02
-1.180208937609287800e-01
-9.553328490455104127e-02
-9.805874205799501586e-02
-1.403012123249408327e-01
-1.407939816559437007e-01
-7.521082799266307073e-02
-9.330059236014039831e-03
4.381308262844556267e-02
1.018747922661608352e-01
1.293402722722106490e-01
1.133978812259669317e-01
7.001681351420321886e-02
-4.920647656715675111e-03
-6.911705096346748567e-02
-7.548130178072809393e-02
-6.995107537396202946e-02
-8.912429373228621110e-02
-9.520709651741308954e-02
-6.396197172146157739e-02
-4.149815070274716008e-03
6.043218323303339856e-02
9.279950061156647112e-02
8.513385549025645482e-02
6.984481552908634872e-02
7.239072483507413835e-02
8.318701201786850297e-02
9.044294925140396180e-02
1.041845379249998066e-01
1.177221464412945007e-01
9.766489844659619057e-02
2.439070047704660488e-02
-7.476622691624672246e-02
-1.482343969703089903e-01
-1.860401248778085215e-01
-1.880294297575277884e-01
-1.301566702629073646e-01
-4.140570202369252967e-02
3.546600343092036478e-02
9.260011959988226349e-02
8.406188043130373433e-02
4.170093445744724181e-02
7.334675065655790749e-02
6.820425721374753780e-02
-9.441002723028119048e-02
-2.181233639277261049e-01
-1.858475056770844958e-01
-1.440072062910824902e-01
-1.270607282859777809e-01
-6.997567006131587275e-02
-1.016447383925601564e-02
2.247047881084992399e-02
5.727119510391332630e-02
9.369791077522027223e-02
1.229095594666875374e-01
1.631195133241430117e-01
1.996123509971532706e-01
1.871064041648237419e-01
1.344315337984975378e-01
8.557216734459960339e-02
3.814748514873148033e-02
-3.206256668598493620e-02
-9.647452566079833813e-02
-1.007845151469134448e-01
-5.823725521654458254e-02
-2.622988711483496133e-02
-8.190384403754498790e-03
2.737017750602552951e-02
7.661158035504575525e-02
1.050840486704499449e-01
8.872985044228851037e-02
2.915452484351590060e-02
-6.596154312284867316e-02
-1.722689566230828362e-01
-2.259605681876527550e-01
-1.808224489753242070e-01
-6.899233736147616924e-02
2.771850613984792183e-02
6.049328413077095096e-02
5.963497015605089685e-02
6.536879787225297056e-02
6.537706932809797533e-02
5.351586920555020943e-02
5.371753152116640062e-02
6.788933553001291754e-02
6.855822540997549841e-02
3.388588507443744680e-02
-1.523046444338229180e-02
-4.316794922801868439e-02
-6.861187767978491059e-02
-1.144012559742695057e-01
-1.402118611953908911e-01
-1.313845731285565310e-01
-1.285456519372754902e-01
-1.022068818979672555e-01
3.177190990372875598e-03
1.075295723180555302e-01
1.077735553829493320e-01
5.319312065069423806e-02
2.555608942470165290e-02
1.249336971531718986e-02
1.757923147999416102e-03
1.537565817115877503e-02
1.925418921032653885e-02
-2.154436241203632266e-02
-5.083212408248615616e-02
-3.417169903807126818e-02
-1.481829765136667698e-02
3.925979307180769984e-03
4.322270306986525368e-02
6.778311273032473772e-02
5.417968577521328072e-02
2.165297703746633246e-02
-2.701946136651271063e-02
-8.621758927209126344e-02
-1.265729717244578612e-01
-1.338028716123407236e-01
-1.169485520420136537e-01
-8.924540676365301517e-02
-4.556920631996535381e-02
3.204655083613823507e-02
1.292956392149697820e-01
2.103535701224135412e-01
2.811112803703073038e-01
3.642005993745546788e-01
4.228733099189173061e-01
4.121450775346826023e-01
3.571504095665863909e-01
2.852744820088849997e-01
1.784008795478987386e-01
4.208027016274711041e-02
-8.636646919035168013e-02
-1.999616083311629711e-01
-3.025363846106321475e-01
-3.712643922904418359e-01
-4.141820736846703044e-01
-4.604112949570706159e-01
-4.775366522408783232e-01
-4.421963189302337005e-01
-3.895839233053131623e-01
-3.142720006956211676e-01
-2.081800036128090003e-01
-1.317917960781477826e-01
-9.851924110695779724e-02
-4.638397996720403094e-02
4.116535471851144601e-02
1.295664222475916560e-01
2.127459233498694147e-01
3.082398250753314306e-01
3.868439676600078370e-01
3.921545312782327430e-01
3.488546587060095128e-01
3.237482500230277060e-01
2.976218767958541678e-01
2.276371170142132694e-01
1.465290765734109379e-01
8.296448114728421919e-02
8.100151713155617772e-03
-8.109535955836044696e-02
-1.421526590740201934e-01
-1.547841623444610737e-01
-1.284591487010287580e-01
-8.983754442139682550e-02
-7.121265656789740883e-02
-6.230558796170097835e-02
-3.972961914164367669e-02
-2.080246890736965268e-02
-2.255880380350428968e-02
-4.020440825203883128e-02
-5.871774816085893745e-02
-6.573620972979699051e-02
-8.342455603443550693e-02
-1.191352569014582502e-01
-1.266603039677357545e-01
-9.952903089044015661e-02
-7.926904201104532921e-02
-5.226687487777167962e-02
1.180418136542287985e-02
6.929830435938105770e-02
7.438194976766032696e-02
5.962831183024257936e-02
7.237959724009424001e-02
9.864338055951232809e-02
9.157111779734462831e-02
5.712183098254443314e-02
4.951451453953940873e-02
6.676534992603541663e-02
5.875522930900827639e-02
2.659120573840779295e-02
9.819751754550475747e-04
-7.938764765800241860e-03
4.873451569214204415e-04
-1.387267696971688016e-03
-3.400209969957542627e-02
-5.395792048942207875e-02
-3.997274985587681573e-02
-3.496756690636183829e-02
-5.250847414809699243e-02
-6.883141899887523785e-02
-7.315194355491753953e-02
-5.456888012931355308e-02
-5.010112405933779371e-03
5.323638102948522605e-02
8.789096429596064686e-02
8.905227744368704457e-02
6.737885553041904341e-02
4.640491200237692460e-02
4.028177303623441813e-02
2.878753010588557329e-02
2.004590100985156973e-03
-8.207929965074509115e-03
7.208987906983575084e-03
1.087529688013327833e-02
-1.890898724295270519e-02
-6.019565469294914373e-02
-8.232615849231419980e-02
-8.914182322303487727e-02
-1.089333602077398877e-01
-1.319633998214118920e-01
-1.123760844899747979e-01
-5.655126926045447172e-02
-2.579537919206682794e-02
-1.959206215922310729e-02
2.853502262072618242e-02
8.904708837554155265e-02
6.650730018690051426e-02
5.296165462839427795e-02
1.843995913012982935e-01
2.780209294198629499e-01
1.471876272694203069e-01
-4.127382688183090127e-03
3.269207979930181807e-03
2.957177182567215581e-02
-2.296492717246560039e-02
-6.720334470082903189e-02
-5.836517277546939692e-02
-4.974271746490699364e-02
-6.439129713270014266e-02
-5.930187497153029813e-02
-2.797046986504725385e-02
-1.705374773457874957e-02
-1.710734743048177714e-02
2.063129803026501549e-03
4.699065957077691938e-03
-1.686463979652681397e-02
-1.741636933484788999e-02
-4.140080074911635030e-05
1.449810652501546185e-02
2.653248779358632209e-02
2.768434761109356268e-02
3.547104247121243142e-02
6.683402357934228877e-02
8.021323564803682638e-02
5.189738067427672463e-02
1.702048006998954643e-02
-2.573571284760102842e-02
-1.282820302705421078e-01
-2.317431090547147354e-01
-2.071767087770320093e-01
-1.388272695183774830e-01
-1.715164020539606815e-01
-1.984924494324082356e-01
-1.184028066747214447e-01
-1.078908665869663872e-02
7.821994234692093706e-02
1.389269995896168786e-01
1.955072725517382759e-01
3.216291124081245290e-01
4.034790158199580978e-01
2.927222163127921051e-01
1.467718947214893266e-01
1.160095484283563960e-01
9.820176453572707076e-02
3.120866221865283702e-02
-4.030898070114653786e-02
-1.068002405614532635e-01
-1.478345186512758924e-01
-1.425290931859239663e-01
-1.468574351815272461e-01
-1.911396008197036867e-01
-2.119011670874079434e-01
-1.783609369992476545e-01
-1.211584758152240426e-01
-5.014733809649461749e-02
1.407752162578740016e-02
3.939326534425079129e-02
5.638157115122899299e-02
8.552383428063452253e-02
6.641477555679427269e-02
-3.457635147690221733e-03
-2.781049134937189915e-02
1.787436225060579434e-03
1.306976720966223846e-02
2.341564212531736452e-02
6.116575095188039185e-02
7.289834499402830792e-02
4.727212980639793755e-02
2.972545818603019793e-02
3.467129484659776939e-02
5.675001809642895440e-02
6.578805872586566961e-02
2.216020353136007731e-02
-4.253835823097935898e-02
-6.131381731111597289e-02
-2.227640874141670682e-02
3.122750262491675449e-02
4.561786373267073813e-02
8.356181521418086511e-03
-4.656865626715262635e-02
-8.173032740518387795e-02
-8.046652833035936037e-02
-5.636756615056337516e-02
-3.029569204723897916e-02
6.489098368302815764e-03
5.926472197269619380e-02
8.957351910946109719e-02
6.121386188609683615e-02
9.896394017117754460e-04
-2.836954897212275173e-02
-9.836781886540522588e-03
1.506173956727507174e-02
2.632184894992876598e-02
4.839351267640101123e-02
6.506345757017241438e-02
3.378738101875174843e-02
-1.334836843469192243e-02
-5.120091584857099087e-02
-1.200700255611123757e-01
-1.448251087805893789e-01
-3.202758252846474307e-02
4.929952185440884121e-02
-2.431721888927745531e-02
-6.225658063446425083e-02
6.665568791902675566e-03
1.735844163803415899e-02
-3.401643635728671122e-02
-2.151095974335115110e-02
3.816559426280358852e-02
5.995293914725937506e-02
5.624128787665302887e-02
6.814857016116421251e-02
6.440653552736043397e-02
2.463431412007440272e-02
-7.472769077517094072e-03
-2.473542412663399734e-02
-5.784906292170896580e-02
-8.839938644026418268e-02
-9.954863666986504822e-02
-1.120672624132753870e-01
-1.063465569908926683e-01
-6.021493636472217276e-02
-1.703597051795612688e-02
5.454420290509316011e-03
3.810759504104925532e-02
6.221243618388102442e-02
4.223870307328662921e-02
4.766691102694342597e-03
-9.442710075497968980e-03
5.451712096803391742e-03
3.443748526848479374e-02
6.299430290229240947e-02
1.013137773226125277e-01
1.593314575794024801e-01
2.059235379330957016e-01
2.212505327952614398e-01
2.218164279401171612e-01
1.966361663500210410e-01
1.327949532196973925e-01
6.863362340915268867e-02
2.481939028234529665e-02
-2.014766966424873240e-02
-5.800218531382807935e-02
-7.424105952174046841e-02
-9.788498948142487777e-02
-1.397668442012702239e-01
-1.765504503312436968e-01
-2.140862683032140057e-01
-2.628542005328457498e-01
-2.907371086334522015e-01
-2.700011110076120935e-01
-2.149836992851942019e-01
-1.593019571571605286e-01
-1.296921547263744645e-01
-1.111109781581294115e-01
-5.935031270549524091e-02
1.039618917412792054e-02
4.128181434039689124e-02
4.824302551639340214e-02
7.600262790307819871e-02
1.090013938202639004e-01
1.423483603666133857e-01
2.035898056796638378e-01
2.568511950714464365e-01
2.509021991146395125e-01
2.136067110252785617e-01
1.729109140262109490e-01
1.254489577734809458e-01
9.318531254448503276e-02
6.035771490371646258e-02
1.553275554048440255e-02
3.055018919453451193e-02
6.156393903747864327e-02
-2.602331795587984470e-02
-1.605416600226766133e-01
-1.909713553131586750e-01
-1.396550742105559240e-01
-9.647089651919243947e-02
-8.351582741782262453e-02
-7.848874079692820527e-02
-7.693870241152697687e-02
-9.355075924061878601e-02
-1.110608101790627050e-01
-1.041098657982149622e-01
-7.671709224739574340e-02
-2.901477403865263330e-02
3.722457868537830394e-02
9.887637874720098252e-02
1.438711671802234693e-01
1.754202372600177084e-01
1.932739008339013353e-01
1.908190132813022688e-01
1.518245663314924110e-01
7.520965894771677873e-02
-3.757261276175299231e-03
-5.545551945189600151e-02
-9.210149093603851866e-02
-1.252922359132362662e-01
-1.367268626567094414e-01
-1.332435641991467634e-01
-1.372764539499799485e-01
-1.238570941978587858e-01
-8.643464315297579026e-02
-6.057779481861313292e-02
-3.094230112066538238e-02
1.987442990661239181e-02
4.899234527282433915e-02
5.289561516665150509e-02
7.079132822133513137e-02
7.868205959007493200e-02
4.404363452387205502e-02
2.143496201756642239e-02
4.527005914019609223e-02
5.374103142740745825e-02
3.239188337073085899e-02
3.494837056609550324e-02
4.239870074470612066e-02
1.996882561750638885e-02
6.690397383586406399e-03
1.774300561958834510e-02
2.091896680352305429e-02
4.371820330185623854e-03
-2.865231596728023966e-02
-6.265911521236119941e-02
-7.387379240170117989e-02
-5.997573770736160104e-02
-2.793929443250574990e-02
1.463315971515461236e-02
4.575353181104019340e-02
4.874958271238510887e-02
3.397170204601865362e-02
1.557283482555892051e-02
-6.981682241741751956e-03
-1.387292500175288726e-02
1.963123521944690544e-02
4.601663815546968433e-02
1.300587829997453329e-02
-2.756285684470580200e-02
-2.519636415456569939e-02
-2.922802393895392731e-02
-7.445170935482969821e-02
-1.039944978844359741e-01
-7.986816858837204880e-02
-5.632548587137988644e-02
-6.975229171782329485e-02
-6.662666587486942849e-02
-9.901627514123850782e-03
5.213319098265280227e-02
7.787142033925525952e-02
9.622012425944710678e-02
1.175678705380598099e-01
1.033800570511216183e-01
7.035465966999650267e-02
5.702304462695323428e-02
3.902867803422711140e-02
1.025673614549879945e-02
-1.530389890617177284e-03
-3.162590055824443872e-03
-5.374096564899791956e-03
-1.215997710683941295e-02
-3.694908383476692287e-02
-6.630851795625684886e-02
-7.446825177095969805e-02
-7.300062786026227657e-02
-7.833818493451970288e-02
-6.754505701488108804e-02
-3.711095936118223582e-02
-3.257409504201673467e-02
-5.056498914249872578e-02
-3.406293927229060020e-02
1.051647864686298256e-02
4.721295753481011270e-02
9.963722413032978509e-02
1.639361406764928419e-01
1.830156569434097658e-01
1.736871128798655739e-01
1.787692641506214153e-01
1.574893688279111470e-01
1.010244735832401541e-01
6.311858536917312745e-02
1.778623859658641851e-02
-8.065884553909875854e-02
-1.899432745790774479e-01
-2.627703200826836949e-01
-2.896746474542257199e-01
-2.817265337631661981e-01
-2.711858537484344023e-01
-2.542649973012423015e-01
-1.939927510479396988e-01
-1.144403374336405016e-01
-7.177943587653888569e-02
-2.651072098626639645e-02
9.573207557701589321e-02
2.302456201251439905e-01
2.748635990707083976e-01
2.747457771827193085e-01
2.852105826999652427e-01
2.509653014075903243e-01
1.691508603772984010e-01
1.204883746578443021e-01
9.948293901382199156e-02
4.793890810980691586e-02
5.490345033263753505e-03
2.179674226951641702e-02
3.078531062350126080e-02
-2.021860168395070434e-02
-7.654539022349629573e-02
-1.069347650675382122e-01
-1.546448411692387948e-01
-2.272857722320031915e-01
-2.548740973375673291e-01
-1.871632513682623955e-01
-7.561914179414050419e-02
3.361403211112227313e-03
5.080416391347328253e-02
1.027238521613663969e-01
1.560731686626727066e-01
1.709227535648588092e-01
1.170408528571571238e-01
4.210522288386510381e-02
1.661529975998623371e-02
-3.785844635231203764e-02
-2.123150976534167456e-01
-3.340805474672323139e-01
-2.368588693897745179e-01
-7.737562501545608429e-02
-1.101992658385688231e-02
3.773450342152514375e-02
1.195668189150815575e-01
1.715257976013037089e-01
1.699309020553848026e-01
1.492962878432280149e-01
1.262980132440308934e-01
8.352646083241220543e-02
1.773002996893201927e-02
-3.175630086019584630e-02
-4.655830889357038399e-02
-5.955010536915915365e-02
-8.049853247410233836e-02
-9.830600301144122588e-02
-1.314503476729669829e-01
-1.543972146019576552e-01
-9.033571206053807312e-02
4.235577260001816002e-02
1.506480212896111892e-01
2.141667675328118026e-01
2.424984748491293973e-01
1.997593142686008294e-01
8.338306943965848039e-02
-2.784837687686834637e-02
-5.392270078761909197e-02
-2.269900960622337621e-02
-2.673066793523137114e-02
-4.749998824483622761e-02
-4.189622735194874215e-03
3.951930597186791017e-02
-2.042943102375580772e-02
-1.045416737894545173e-01
-9.296239509580395133e-02
-3.805709340128596296e-02
-2.320395747321329916e-02
-2.692902220220028814e-02
-3.675133997574818456e-02
-6.531740777053142433e-02
-7.007095178191755092e-02
-2.200195926678335384e-02
3.397846120239533807e-02
3.932903575832946697e-02
-2.125403130755680256e-02
-9.343688039297587400e-02
-1.048471190973641332e-01
-7.240968600753426576e-02
-5.842483165183902372e-02
-5.460797419489180071e-02
-2.424066950431867998e-02
2.662765904991056670e-02
7.328978696926831404e-02
9.499062956211544451e-02
9.047886218721686025e-02
8.423779006821702220e-02
8.927820252314910832e-02
9.155291577982108131e-02
7.806240788156991461e-02
5.674237032811968451e-02
3.476541565560861691e-02
2.197884377879433943e-02
4.853399088827582697e-02
4.501149007747005937e-02
-1.029012027330583889e-01
-2.475207634935690237e-01
-1.912383306834302688e-01
-8.248122593724863116e-02
-8.175374121134094951e-02
-7.992200910343612297e-02
-1.504143732084160627e-02
3.924909750800297664e-02
7.182343119970036049e-02
1.182869376787202415e-01
1.795384839760961193e-01
2.369902027367198349e-01
2.762449528882379157e-01
2.908728225632087327e-01
2.734886199068374268e-01
2.270778265378879668e-01
1.660729159485846984e-01
9.155065656244071315e-02
2.066544536734341020e-03
-1.024642477970864607e-01
-2.224937512869856748e-01
-3.230107067379644481e-01
-3.649584873826941522e-01
-3.699822049994219153e-01
-3.667203080588423147e-01
-3.425442385926092403e-01
-3.033367350223045711e-01
-2.674540434832701763e-01
-2.180242223257674583e-01
-1.534491137314765441e-01
-9.074720342445546928e-02
-1.052115439860702717e-02
8.461938766779833476e-02
1.484414881948947496e-01
1.990254212153144686e-01
2.825944835185906223e-01
3.450745403717105364e-01
3.349623567932403789e-01
3.199772505039144010e-01
3.325555223531798665e-01
2.916630581661374122e-01
1.808220511694210719e-01
8.966023794470963371e-02
4.681374828323363324e-02
-3.795156361407148182e-03
-7.373896564574601575e-02
-1.250907828456199189e-01
-1.613673183211433160e-01
-1.982401467677449569e-01
-2.047469208246811556e-01
-1.695214403021639282e-01
-1.307699213894729373e-01
-1.025467013302791552e-01
-6.452521875419353625e-02
-1.140862155855572845e-02
3.513399721069846576e-02
5.880772328217447054e-02
8.377449102326131603e-02
1.175514587083760359e-01
9.791302240062951801e-02
1.500487283780590000e-02
-3.780580348304252158e-02
-3.387635193175485282e-02
-3.985569601373590426e-02
-6.816343624524265343e-02
-8.590863833649922676e-02
-9.045919857607008507e-02
-8.458252832893364825e-02
-6.314466792934854411e-02
-2.856138883780627580e-02
1.533357072885013252e-02
5.679866810574234204e-02
7.258530313980611492e-02
6.142197714428949268e-02
4.744396399928381414e-02
3.866556650732806688e-02
3.931301021400648854e-02
5.796382183784618003e-02
5.517367229156673603e-02
-1.497928768061301775e-03
-4.132057233703926441e-02
-4.840531781090683799e-03
2.770180279284375352e-02
-6.379729760049349628e-03
-2.130093075948068237e-02
1.705988914504720511e-02
1.357719755433928373e-02
-2.859588427494004839e-02
-3.280491924271201204e-02
-3.144078988296607896e-02
-4.696778260580678627e-02
-2.568081546640386958e-02
1.974739810388510472e-02
4.791438797554990053e-02
7.100471226333419927e-02
8.188855107887055285e-02
6.128890650854879052e-02
3.269180037270206368e-02
1.118687496803633108e-02
-7.009615140501843089e-03
-1.060695553952944840e-02
-9.093154088690491577e-03
-2.266128782397708666e-02
-3.378196299401675651e-02
-4.417068116608403872e-02
-8.078133779533364089e-02
-1.046682146529287066e-01
-8.389799038951661903e-02
-7.743714626532656464e-02
-9.361826211469743975e-02
-6.321783929838355187e-02
-5.079143910235501928e-03
8.754123657780915613e-03
1.772589323661345750e-03
3.586503462531370756e-02
9.187136126685799264e-02
1.139368166950622263e-01
1.042221377390571135e-01
1.026355965556226407e-01
1.054545576904446086e-01
7.436461642562276764e-02
3.050798005383513825e-02
2.411381503888476371e-02
2.207061051305242438e-02
-1.575553368159712114e-02
-4.361231433257446721e-02
-4.048122216241396842e-02
-5.090499939542339480e-02
-7.328016822691724164e-02
-6.923718131550649080e-02
-5.506043723870456680e-02
-5.647905111859365807e-02
-5.186432587601397942e-02
-3.572587111369978502e-02
-2.604059898808480655e-02
-1.203080895387194198e-02
1.440661122036574274e-02
4.820946150329163959e-02
9.059101096997643210e-02
1.136761284041574033e-01
1.052459250300580018e-01
1.142462264945672407e-01
1.356299992777703911e-01
9.233505715579913564e-02
-1.644917688858783117e-02
-1.087582032543629312e-01
-1.463524832217080740e-01
-1.578004357797196944e-01
-1.660985164953814874e-01
-1.616794785225175723e-01
-1.294918756345144195e-01
-6.866795993679010446e-02
-9.134480356770301179e-03
8.230967450810745129e-03
1.020006609965085423e-02
5.161404984751619823e-02
8.981005892307040994e-02
7.951980155977088349e-02
8.241710140613320301e-02
1.140220811156793662e-01
1.024363352081209544e-01
4.752082184807789739e-02
1.560102065900744947e-02
2.768641058598422106e-02
4.794050570525025534e-02
3.633326767427808718e-02
4.002276132432276007e-03
-4.871274599240383099e-03
8.358735188238042291e-05
-2.392969025624442150e-02
-5.572071345781686585e-02
-5.843387962690942128e-02
-5.172238160542858010e-02
-5.017077833653765112e-02
-5.059685583388847524e-02
-5.558349004280006833e-02
-4.051274101990359061e-02
1.448231161628885100e-03
3.129367869543100977e-02
4.222622082833919765e-02
5.350625042441305157e-02
5.769160535152670355e-02
4.776530508362724498e-02
3.111214409939093428e-02
1.154555145240452295e-02
-9.001679177743185031e-03
-2.045315440610105326e-02
-1.144529133508744197e-02
-2.261593587710770265e-02
-1.024292842369517315e-01
-1.459090044729239311e-01
-4.699089568499448255e-02
3.307735454928571739e-02
-2.684503683607294966e-02
-5.710598944170752062e-02
1.302200988743439439e-03
1.890688445385552488e-02
2.294116311468169869e-02
8.357694618153484190e-02
1.231750325388898809e-01
9.877887466388167448e-02
6.445198988852839095e-02
4.429773348612341816e-02
3.020174393477723096e-02
2.176403688344793336e-02
9.397486180096843722e-03
-1.088859968832132409e-02
-2.344381610891775602e-02
-2.972872694024996168e-02
-4.468031149388319856e-02
-5.527808430067171486e-02
-4.860794735125787552e-02
-5.018361885101040032e-02
-7.391773125566498959e-02
-8.836764027730656390e-02
-7.367063125399173074e-02
-4.719706984754149653e-02
-2.420604264423720925e-02
-7.247605447323550443e-03
1.207660974040982924e-02
5.811832259343818752e-02
1.251562766716573516e-01
1.569409143660605854e-01
1.338097815273416591e-01
1.090121503039708367e-01
1.131282424064213310e-01
1.166347807559458827e-01
8.906378746150103720e-02
1.466234380898141093e-02
-9.431316952229575057e-02
-1.727525865475584010e-01
-1.815072224782207644e-01
-1.655336221400993957e-01
-1.571215870664756653e-01
-1.291517700971005767e-01
-8.107695643533070762e-02
-4.456122304980794646e-02
-1.590381315400894377e-02
2.003369606721836643e-02
5.028683176450227110e-02
6.052236009511618303e-02
5.680312164714334394e-02
6.066445776329785350e-02
7.892965318064423808e-02
8.769410942614534743e-02
7.888107479653294618e-02
7.234820317163086212e-02
6.354185842361070868e-02
3.101524485201368614e-02
-2.405218753752642533e-03
-2.079129589429538905e-03
1.668560892491861153e-03
-1.947154081648571483e-02
-3.432061607170804746e-02
-4.432085019888385574e-02
-6.670600810391884294e-02
-6.245379192648842920e-02
-3.163727493590934303e-02
-3.004262483214811472e-02
-4.860176619616329158e-02
-3.404570315292466953e-02
1.190781805986181573e-02
4.274349533256784073e-02
3.989734560690207793e-02
3.593022112852882477e-02
5.742193211032103201e-02
8.247806869659449203e-02
8.101370251005947376e-02
5.348865590182886459e-02
2.065211257395768718e-02
-3.206576900005621289e-04
-2.450300668000148299e-02
-7.703763117173569042e-02
-1.296835090708746419e-01
-1.325488059405464103e-01
-9.369950655227037017e-02
-6.393859060942827521e-02
-5.884694922107817916e-02
-3.791025945744212061e-02
1.399856313789830248e-02
5.698043399798895237e-02
7.272198603280305429e-02
6.678104359550003644e-02
4.503351505663232696e-02
4.247451718147329802e-02
7.169965202697087259e-02
8.694397918017041094e-02
6.228322334933816123e-02
1.792255106014985222e-02
-1.224110855587684510e-02
-3.711749689921226350e-03
1.400068342299174394e-02
-1.154552471924389159e-02
-5.399062028422335624e-02
-5.091036771379595094e-02
-2.952033662536193009e-02
-4.208663269384291250e-02
-4.982807883487637424e-02
-2.651149598557961395e-02
-1.823010629395962687e-02
-1.981436337457867514e-02
-1.184799086018683417e-02
-3.401408783729061025e-02
-5.473603142674635796e-02
1.457359686089434699e-03
8.876654014288364036e-02
1.351706817100257196e-01
1.495312237527995913e-01
1.310970526634999689e-01
8.036075900469151490e-02
4.570854534797397922e-02
3.139707286783996465e-02
-4.347070809301509242e-04
-4.859206424661773049e-02
-1.040769759562150537e-01
-1.579018925961180320e-01
-1.791523666155626082e-01
-1.722293453580475420e-01
-1.574427535728834815e-01
-1.031561326371358556e-01
1.329122036433326784e-02
1.427528804511922489e-01
2.122336600097485815e-01
1.917948775087782720e-01
1.045987840266242586e-01
-1.141379082285286055e-02
-1.220421088039425062e-01
-1.861524821550888942e-01
-1.794486454577587931e-01
-1.300925228084172380e-01
-7.465154249804997755e-02
6.812950015303333162e-04
9.934086469723739377e-02
1.641429113828508091e-01
1.665991737511650361e-01
1.486496047114960750e-01
1.381895367337606650e-01
1.171651694328356835e-01
7.701837079227236149e-02
3.681739074211934359e-02
4.954022216226771497e-03
-3.060178995047868264e-02
-6.936267899937539894e-02
-9.307802891431529724e-02
-9.238624219762214818e-02
-8.145446844816210674e-02
-8.780245734326405649e-02
-1.033766208572321210e-01
-7.109332770450357830e-02
1.627872301848147865e-02
7.646936691463174229e-02
7.500474718099281457e-02
7.854210095602459640e-02
9.834022673303409456e-02
5.634302327895114593e-02
-3.847645644296894540e-02
-8.925852603021552922e-02
-9.204368253887390550e-02
-1.069789906135011903e-01
-1.162355741966241834e-01
-8.842643427351368213e-02
-5.115940070451620303e-02
-3.374966963158091554e-03
7.364303081072166857e-02
1.301465458192199165e-01
1.272439180615395071e-01
1.073844854093426587e-01
8.615012146594182296e-02
2.327253460295547471e-02
-4.877802900308169515e-02
-5.955093320848790089e-02
-3.361293342498392761e-02
-1.024463236945606648e-02
1.739916241432159713e-02
2.578157771995890843e-02
1.279444571616331766e-02
2.341985101523233817e-02
4.555194702346552355e-02
3.322211145506168140e-02
-8.928002355314660493e-03
-4.433768837291993115e-02
-5.645532599520166478e-02
-6.813009677846317003e-02
-9.685157550844530894e-02
-1.079710472116277853e-01
-6.799935851299293565e-02
-4.440500284513711204e-03
4.280275387586315178e-02
7.522964476018739743e-02
9.617908600104958794e-02
8.885202107414111317e-02
6.045789562093114439e-02
3.935448570092855980e-02
4.255584517833954639e-02
6.377377111912842234e-02
6.611984761767608632e-02
3.711917559897362495e-02
1.175905175780247655e-02
-1.200948068248454750e-02
-5.622886589212739566e-02
-9.850515317454844322e-02
-1.278287948259073659e-01
-1.410685087384707659e-01
-1.075004671911846538e-01
-3.884895370708191242e-02
6.865314048165213970e-03
-2.583844698023501918e-04
-3.834374480487345860e-02
-5.222134011368217976e-02
-1.951285513876666738e-02
2.113106214360900917e-02
4.933237640815370251e-02
7.815570114588747674e-02
9.079755683175635972e-02
7.320358121332862233e-02
5.727147728529902171e-02
5.792676995805010054e-02
4.263070915387407595e-02
3.950924448556451286e-03
-1.505119723392553746e-02
-2.013198093125313781e-03
8.799950849986807461e-03
1.730123883072924584e-02
3.939514607568690707e-02
3.671049757704297062e-02
-2.008704296718516122e-02
-7.759949480948198641e-02
-6.908080129923355184e-02
-1.102731169852715076e-02
2.793050648235602743e-02
3.908260005201022458e-02
5.603847907680777757e-02
4.874484967428078380e-02
-1.821250878927100844e-02
-7.567709697859550944e-02
-4.704480568101103433e-02
-2.473822036512246525e-02
-1.375705445222752399e-01
-2.475720792283054306e-01
-1.708633283418821147e-01
-4.391463433777208908e-02
-1.192519639790478453e-02
1.566596898065391805e-02
6.303518343589972761e-02
6.824094664376993691e-02
8.255284030132929718e-02
1.429775304243763312e-01
1.813110579093026864e-01
1.607243501469327318e-01
1.103001785677649033e-01
6.650646187218033079e-02
5.323623823005646516e-02
5.378832969759312493e-02
2.849354947125859808e-02
-1.224332904733701696e-02
-3.137770432695592693e-02
-4.448418042614295242e-02
-8.030670011395854568e-02
-1.136610636798666418e-01
-1.174688619132960438e-01
-1.074543682544020495e-01
-8.876298557250134058e-02
-5.184562405302731158e-02
-3.079538924082905055e-02
-4.991875589212763781e-02
-5.762618012108754184e-02
-3.199530565242360985e-02
-2.528261088974425794e-02
-3.157576042313482712e-02
-3.895687203988315930e-03
3.009292795573085752e-02
4.462598041331079096e-02
6.923231930322369665e-02
1.100263136894202437e-01
1.561056976344848135e-01
1.984562557547010497e-01
2.094890603959836117e-01
1.845211092151845533e-01
1.512192896707324485e-01
1.240835261572337395e-01
1.046447383556981109e-01
8.937519146439107387e-02
5.238548186259672779e-02
-3.470116968609249231e-02
-1.589800078370998404e-01
-2.684061051158738165e-01
-3.204113759977768039e-01
-3.273374626891143446e-01
-3.287490012922594795e-01
-3.185631326299706023e-01
-2.668610121778106081e-01
-1.916168586030772558e-01
-1.293245850697996024e-01
-7.817412742966219075e-02
-1.164326739931709903e-02
8.398735435734137889e-02
1.742078180199627679e-01
2.108673499878906954e-01
2.216710947910717766e-01
2.558749208027410460e-01
2.796732703212905236e-01
2.471446257085416209e-01
1.966051137678020144e-01
1.812852749832631616e-01
1.396966357997682651e-01
6.469373459263703940e-03
-7.981987467018258897e-02
-1.640725408649313516e-02
2.497752768872096157e-02
-5.095368903526917292e-02
-1.084221489181929343e-01
-1.105853418059654925e-01
-1.323234649383772110e-01
-1.351544111008543547e-01
-6.413943862169574350e-02
5.328050819551189907e-03
7.266087517982772193e-03
-1.029781954291161122e-02
-5.992397968310666893e-03
6.110429786234659530e-03
2.169028280770633754e-02
2.947287332262643611e-02
1.345822658440472275e-02
4.768700266370280716e-03
1.441387766618090933e-02
-3.803448029093048355e-03
-3.521790852014079071e-02
-2.443311136816737200e-02
-1.166913301747200295e-02
-4.355931279886900154e-02
-7.363500287692724411e-02
-8.483451042343567727e-02
-9.517791221815048719e-02
-6.478492055454140863e-02
-1.882358661251701606e-02
-5.177364883446674421e-02
-6.408755208164106099e-02
9.087332609211236367e-02
2.304061882789351923e-01
1.574004459368009423e-01
3.900809782719066171e-02
3.587134826014830302e-02
5.966156665628515043e-02
4.059807766378821514e-02
1.571854549685111624e-02
1.142999373161321039e-02
1.321963142540506786e-02
5.219402919652040007e-05
-1.606900402999889704e-02
-1.673903745050868766e-02
-2.330029232007498757e-02
-4.766079260725364364e-02
-5.496321388969491878e-02
-3.598001492961433456e-02
-3.309067174255873184e-02
-5.599279315782966504e-02
-6.787484348788658250e-02
-4.824976152671271723e-02
3.601230786650604435e-03
6.662846586545649596e-02
9.838612629745620286e-02
9.235683966220969987e-02
7.690903777198321301e-02
6.948564024723546950e-02
7.003760238826343965e-02
5.282977103096391652e-02
-1.842922950664272006e-03
-5.057413815811421381e-02
-4.115376172403793081e-02
4.977092963318850705e-03
3.847776485588727535e-02
4.480251093436662946e-02
8.797833835825155310e-03
-8.885303626024521062e-02
-2.014395152723875704e-01
-2.521774091615858193e-01
-2.460759516086860332e-01
-2.348449349213517778e-01
-2.135087784019722990e-01
-1.495434618482127109e-01
-5.123010447436406045e-02
5.158084022171012528e-02
1.429256244245953322e-01
2.178599530860129418e-01
2.665522515040206764e-01
2.752490372685599818e-01
2.573324089203985476e-01
2.470471821683379865e-01
2.423434469834675198e-01
2.108320017132544189e-01
1.420141138823564908e-01
4.888939011006281088e-02
-4.642587789955759936e-02
-1.188395016488766470e-01
-1.631734994962146801e-01
-1.918193677853967383e-01
-2.043910079549322301e-01
-1.954560063805075854e-01
-1.647413977435178700e-01
-1.052313945207538209e-01
-3.446268581671824843e-02
7.015995901919664518e-03
2.184311165144922628e-02
3.811950235669995385e-02
5.485872599705701735e-02
6.730189043806712734e-02
7.533469944109152938e-02
6.216878093592445587e-02
2.674919704474795767e-02
-1.403362585336941429e-02
-7.498352271518356205e-02
-1.615093811987676486e-01
-2.133744016095963647e-01
-1.978284552903178672e-01
-1.465995554405672419e-01
-4.613385728359604282e-02
8.564345917526237917e-02
1.250498675853933261e-01
1.089670263476409384e-01
1.885305533295427716e-01
2.364893520186492348e-01
1.106899171467947834e-01
1.026899196877073886e-02
4.989723319558422854e-02
6.867942156250056440e-02
1.026644447473060856e-02
-4.806403668657419082e-02
-8.486723915028987486e-02
-9.681949228280048447e-02
-8.216185359194572158e-02
-6.718244841905091080e-02
-4.653282054702106291e-02
-5.713555225381307737e-04
3.909481019759571824e-02
4.720057815821890324e-02
4.891198571553992402e-02
5.022267198520048714e-02
3.949278017849098404e-02
4.903178276492766580e-02
8.788113666286796744e-02
9.625850409880014336e-02
6.477580583307182560e-02
4.428309750422153301e-02
1.680190859497381062e-02
-5.170222275233611609e-02
-1.030833357829589736e-01
-8.676864473437218006e-02
-3.571797408437012156e-02
1.426254495593781355e-02
4.160551963429567901e-02
1.111590222472524925e-02
-6.394266796282054022e-02
-1.131916413987435199e-01
-1.049222852062367817e-01
-6.672072455310014416e-02
-2.839460947795460766e-02
2.644815165909128463e-04
2.172395261781016537e-02
3.676926455741164057e-02
3.499038917752031463e-02
1.580631950129581312e-02
4.353968316485219703e-04
-7.456673530324316179e-03
-2.585910956117738052e-02
-5.370659907097494884e-02
-8.307392216247777572e-02
-1.021937276626519869e-01
-7.760253540943795603e-02
-7.253408594534350821e-03
6.022716220385329611e-02
8.532570146665355293e-02
6.043015866318104251e-02
6.285705984207553068e-03
-4.228417561754993503e-02
-6.186401000349354973e-02
-4.005435624225468783e-02
6.130482046434454838e-03
4.266025632138685519e-02
6.845078901183004882e-02
7.903923978242406723e-02
5.969508941281696790e-02
4.285852766798399494e-02
6.009526559978660420e-02
8.913269923995811861e-02
1.038619757249191894e-01
1.056722429351121123e-01
9.575881267235721028e-02
5.892156885886026818e-02
-1.400724114952906982e-02
-7.702029071794945503e-02
-6.110516510175231092e-02
-3.959864247535864468e-02
-1.344197783217565279e-01
-2.015094224112533305e-01
-7.197400459032669839e-02
7.848402413778042541e-02
8.715075547920866916e-02
6.198198336434067313e-02
6.146329900879504010e-02
3.488353118910064721e-02
1.889209134950106672e-02
4.781290522636463813e-02
5.810470195351456063e-02
3.337259232906207573e-02
2.478788958554737840e-02
2.292528698062949732e-02
-5.959062602767000588e-03
-3.689900831974228523e-02
-3.095608573506588440e-02
-2.358956320614189264e-02
-9.106336150881000346e-02
-1.497242735791219637e-01
-6.274783846951781374e-02
7.036865178208440846e-03
-1.186922062820341128e-01
-2.458559556372232613e-01
-2.142746520633918850e-01
-1.442652854770790083e-01
-1.036301716895431241e-01
-6.234922238222909141e-02
-3.583339901505729758e-02
-1.269398165049908517e-02
3.192298492650370856e-02
5.861739611336234251e-02
6.294686429622327328e-02
1.044645390700818799e-01
1.741034498212065129e-01
2.131082228274244761e-01
2.300593643063150451e-01
2.461937277719100370e-01
2.293202631954020243e-01
1.883104116897712788e-01
1.806086099022696234e-01
1.694263465835979532e-01
7.109301316281033123e-02
-5.786725877237303139e-02
-1.082244024034338808e-01
-1.142053700437371394e-01
-1.577699522679001654e-01
-2.206910534507754984e-01
-2.492643545795535653e-01
-2.282287930657820596e-01
-1.758594699132656480e-01
-1.253468693991248717e-01
-8.449984996490307598e-02
-3.001664289516476139e-02
3.740951509661213925e-02
7.992979256063173499e-02
9.232302301444540726e-02
1.053830522812802678e-01
1.065766146129612929e-01
9.344190787324919978e-02
1.156180798083219219e-01
1.254923416628182797e-01
3.430933556561800712e-02
-8.324985208844490336e-02
-1.236891635563715369e-01
-8.823402548953512836e-02
-3.148362116556797236e-04
6.673040164620423764e-02
3.876350210634003923e-02
-2.636954264022524710e-02
-4.608383327300907828e-02
-4.883235758316727126e-02
-8.344860678838880719e-02
-8.842583849910617966e-02
-1.871346774617815845e-02
9.605204314393440967e-03
-9.951230335220537238e-03
9.250425087618391329e-02
2.146818612052079633e-01
1.297947658591641074e-01
-1.068221475731993136e-02
-1.785591431449672778e-02
-1.456602699651379784e-03
-1.877477443619116407e-02
-1.126434951615585926e-02
-1.833279586114751336e-02
-5.828506122634490721e-02
-6.322399071800804959e-02
-4.397523177040959380e-02
-6.651601319650968236e-02
-9.569277404163904766e-02
-6.279367783048608875e-02
-3.319455956902521432e-02
-8.404666076225324189e-02
-8.151493766161301002e-02
8.391013312518245948e-02
2.043398001305277711e-01
1.233096995950050123e-01
3.249060981838430145e-02
6.255612023868818705e-02
9.283413823562505773e-02
6.691231664233250609e-02
4.458305829985935442e-02
2.888482420677558615e-02
-6.305232738447425628e-03
-1.445888725716965029e-02
6.105371457647860989e-02
1.099483664740190381e-01
-4.082166426356776193e-03
-1.044876974137701614e-01
-7.653612498542988751e-03
7.266174305469030870e-02
-3.210022709074696057e-02
-1.589584571577525307e-01
-2.161453738878514608e-01
-2.740389431219592553e-01
-3.022597199011179403e-01
-2.104136216014383387e-01
-4.785392699140059852e-02
6.332176797494923348e-02
1.197640807809202818e-01
1.807186829636862613e-01
2.232340317144872743e-01
2.124825114547078952e-01
1.953576445640586856e-01
2.176410707395194377e-01
2.296607606061414897e-01
1.605403704936313181e-01
5.464421339795677568e-02
2.483214473987027660e-03
-2.332627589691386311e-02
-9.721015964007372057e-02
-2.009225417426301064e-01
-2.754238779222610289e-01
-3.022340144178116139e-01
-2.872181552853060871e-01
-2.326117600144445297e-01
-1.444680452139979199e-01
-4.758979138290540811e-02
3.003781923428062994e-02
8.143583191228445650e-02
1.062033301476649205e-01
1.055282451558536422e-01
1.074106085934608545e-01
1.340584601354045113e-01
1.648207085569088071e-01
1.808746142813459634e-01
1.731100634415066730e-01
1.170347116284191080e-01
3.624511467632470646e-02
5.089118893353335865e-03
1.372078690411690505e-02
-2.304350800136378483e-02
-1.011735519390884602e-01
-1.473495483610869905e-01
-1.612863319044041677e-01
-1.766837510558122715e-01
-1.668939461836214389e-01
-1.057190476710419408e-01
-1.995317418448710675e-02
6.770326448223046301e-02
1.495272115841365101e-01
2.026793725306508809e-01
2.099115660450873166e-01
1.743029140856511283e-01
1.125446406080131134e-01
4.388516271194018575e-02
-2.908228640915500735e-02
-1.034592866955821311e-01
-1.553764836330092380e-01
-1.604392304038016748e-01
-1.056734832980045641e-01
-1.773524448736622447e-02
1.322986664023476089e-02
-4.704197783482536033e-02
-9.357595237516706799e-02
-5.668213549989870037e-02
-2.917177225961180287e-03
1.333768407130671296e-02
3.888184223382478572e-03
-1.300041667768277696e-02
-2.576618875163038530e-03
2.906629047541387650e-02
4.892623164184387030e-03
-1.590065585635312348e-02
1.178310675554506692e-01
2.666086162756661215e-01
1.975990609140129695e-01
5.384606015740871221e-02
3.954882313551126571e-02
5.723665349176861039e-02
1.632419053675481652e-02
-2.135314995685003159e-02
-5.862638798385780281e-02
-1.289327062105277699e-01
-1.701610048996240743e-01
-1.476987167045631932e-01
-1.143008419637171758e-01
-8.665283335237920770e-02
-5.063586913316185656e-02
-2.921573977313407858e-02
-3.331429192809994000e-02
-4.770342388402977474e-02
-5.523402329529004950e-02
-2.340030379821839146e-02
4.670994938211050357e-02
8.896765161714738357e-02
7.121856955091138142e-02
5.139744218533483233e-02
7.339343035190618036e-02
8.862152967744346688e-02
6.097908786418933941e-02
3.585364037467580339e-02
2.084536477009432329e-02
-2.097654981825620643e-02
-5.844086619090629181e-02
-6.928417963898884924e-02
-9.213209829432364439e-02
-1.050085418102044560e-01
-6.886219155436071326e-02
-3.053688892048058573e-02
-1.206976024480389126e-02
2.911314309871932543e-02
9.059891208593978673e-02
1.406522355730303042e-01
1.679029755090343523e-01
1.684127531662879540e-01
1.720035886153817029e-01
1.986748704178381841e-01
1.939055964867863746e-01
1.374653091734739929e-01
8.962134841405905439e-02
5.954239518562103040e-02
6.587614423568685651e-03
-6.587839254999661165e-02
-1.322013159900763957e-01
-1.752454493685258463e-01
-2.055721528243507068e-01
-2.568140421003273222e-01
-2.985411495565294948e-01
-2.848064560384636068e-01
-2.660352275638387387e-01
-2.578000178482202642e-01
-1.842457573280105732e-01
-7.177503313277064367e-02
-1.078039804849683508e-02
2.750950197849068302e-02
8.338996252435684764e-02
1.202643048393187003e-01
1.443329338985178678e-01
1.764243362078694866e-01
1.944430561936066615e-01
2.146120616369924794e-01
2.336515295082535471e-01
1.905136648492575246e-01
1.200539334949252551e-01
1.010767506918387737e-01
8.447354520445993220e-02
1.235458620345987121e-02
-5.969260181274214233e-02
-9.232734698850864064e-02
-1.056319874803445524e-01
-9.640564663055815886e-02
-7.993366055107159474e-02
-9.899970652633899304e-02
-1.238810766788975976e-01
-9.746356668401326417e-02
-3.976278994064270933e-02
4.320053760606823966e-03
3.176717121511068304e-02
5.188387259423817011e-02
5.995811268882560163e-02
4.864054138489447288e-02
2.829376924773162327e-02
2.989957008394467097e-02
5.772611559583182977e-02
6.774165243311386364e-02
4.287776065110705803e-02
1.791019152171203360e-02
-3.115766011769363977e-03
-4.083417400339413306e-02
-6.717577584284770142e-02
-5.780647714583674046e-02
-4.975973153008330513e-02
-6.497944532365708403e-02
-7.001447183167852639e-02
-4.126825759564268364e-02
6.894060159552097694e-03
5.058789502791036924e-02
7.217807035248258174e-02
7.267682857791590845e-02
7.560532253466673014e-02
9.119053605920364458e-02
9.236130340030061781e-02
4.864558900771530359e-02
-3.129504372539801405e-02
-9.995696844328109953e-02
-1.235713490720896507e-01
-1.208206169419384773e-01
-1.116702878744417760e-01
-8.731272230221688579e-02
-6.649547366038091600e-02
-6.985296749394517835e-02
-5.693562610953718794e-02
-1.017653144296381228e-02
2.094048554767614923e-02
2.990922439864825144e-02
5.652666279384049169e-02
9.338860034350696115e-02
1.056254140518042561e-01
8.817222930105930723e-02
6.925683193322471065e-02
7.704297342717100761e-02
9.190284487691394166e-02
7.359699843914142836e-02
3.102934021128816305e-02
-1.113892815780143097e-06
-1.094007279528862869e-02
-9.255519583624315788e-03
-1.283063033084835131e-02
-4.639185161808197927e-02
-8.436673315093237702e-02
-7.460683821705345331e-02
-4.101022816151181360e-02
-4.539488318151457813e-02
-7.455711263351683105e-02
-6.599133841403347078e-02
-1.018417287900654118e-02
4.307299429698048521e-02
7.008133306915972915e-02
8.186540523803817471e-02
6.324513467695995483e-02
1.500992876911204539e-02
-9.075537284500199281e-03
7.788978609842117130e-03
1.604599742945643850e-02
-1.163639576599449429e-02
-3.255210936541991229e-02
-6.888181996294507128e-03
1.048086068637245870e-02
-4.335694381355801458e-02
-1.051285601109621382e-01
-1.035944819307808018e-01
-8.037734869501188262e-02
-6.128669636130704146e-02
-2.270732667756949347e-02
8.644805305355125064e-03
1.613885335577478972e-02
3.924487155344844047e-02
7.756686524127469340e-02
9.101583845303085063e-02
8.262134959760056296e-02
7.392177606186596528e-02
5.772436558959050806e-02
3.831608490008348022e-02
3.657161120017533157e-02
4.418412095771655917e-02
3.566721011495673638e-02
1.000115985433551805e-03
-3.723758504236070188e-02
-4.411751632587069399e-02
-3.544579535506493101e-02
-4.398296485310301818e-02
-4.929018322792035750e-02
-4.422704455363716397e-02
-5.385435300809958414e-02
-5.362805418174131089e-02
-2.928544781253616947e-02
-2.759282017655324826e-02
-3.652100419672983656e-02
5.832411111104211787e-04
6.166898908312105909e-02
1.056424833344073305e-01
1.305111682910188309e-01
1.262050292863260981e-01
1.068291837343929296e-01
1.124873567212546777e-01
1.296519608143214541e-01
1.181881970165530177e-01
7.175705352904598877e-02
-1.653664624557531562e-02
-1.480218408052700330e-01
-2.647561126930202957e-01
-3.152846267876129871e-01
-3.266214546760610737e-01
-3.284391055767471590e-01
-2.978810455816189307e-01
-2.162836911803238671e-01
-1.044806542287576578e-01
1.153599127448336897e-02
1.322233885557883015e-01
2.498610133970612379e-01
3.117927416913870986e-01
2.815807219813408202e-01
2.066237664123017903e-01
1.613162371056154065e-01
1.469144727322167221e-01
1.188585104385742330e-01
8.704410853931998648e-02
7.548547572276922968e-02
5.023563447855866615e-02
5.795431933425590487e-03
-2.217905694609057649e-02
-5.029230266047723941e-02
-8.092883779660035859e-02
-7.150392939190083896e-02
-4.889555138336387774e-02
-6.971178748683747040e-02
-1.183753184380564871e-01
-1.393323711786281782e-01
-1.025026775871000217e-01
-4.910653428183932301e-02
-3.515320372129929205e-02
-2.371841114086730221e-02
2.521284075715285802e-02
5.543477222660064124e-02
6.840831363954719135e-02
1.346272285311644890e-01
1.473509335160614608e-01
-1.725892472254788451e-02
-1.499603239533523757e-01
-6.305003116802508634e-02
3.846527326341207115e-02
-4.455614747077601273e-03
-6.437119907675337149e-02
-8.052408617448393591e-02
-9.990865055375136583e-02
-1.021834795382408623e-01
-8.960643968151148220e-02
-6.209488460575649654e-02
5.577876324066833452e-02
1.832193574702199734e-01
1.542746884164238885e-01
6.323830823387785460e-02
5.613334304974498118e-02
6.701204374178164336e-02
4.090498563704480367e-02
2.858697149869621895e-02
4.282523384995913507e-02
4.292569625116318677e-02
7.938889110695301204e-03
-2.944595134497089706e-02
-3.556141676888852077e-02
-3.161564010854057971e-02
-3.393396287734148919e-02
-2.544402385451576681e-02
-3.052140236157804831e-02
-7.122863575596621866e-02
-7.521166665107482940e-02
1.228527758176788803e-04
6.130292714689603017e-02
3.818306652142294810e-02
-5.576006522975371013e-03
1.726821955607297197e-03
4.605923373789160696e-02
8.121787466845549475e-02
7.212551685504853261e-02
4.417646504207249636e-03
-8.161346124581349282e-02
-1.172607052301787994e-01
-8.661242179415418185e-02
-3.529415826594767963e-02
-1.688104093026965291e-02
-2.945760955895682098e-02
-1.326182845951335426e-02
4.980141303115588614e-02
1.095807952448390327e-01
1.222152665040916741e-01
6.765470806474918608e-02
-3.402605887250489264e-02
-1.155753658852414212e-01
-1.682567796292971374e-01
-2.321106766713687819e-01
-2.158215039337305630e-01
-2.928281631509743743e-02
1.381656706298881876e-01
1.089028575946121846e-01
3.021694067108127851e-02
4.724457700042487829e-02
9.700328747936273754e-02
1.062638271947444202e-01
7.660744085492943167e-02
6.613748755252096823e-02
1.139125992010455446e-01
1.510575873569095784e-01
1.186152796864954201e-01
7.235007496021088336e-02
5.282719544379604892e-02
1.057421912258365779e-02
-7.434701992051367947e-02
-1.416450525463207322e-01
-1.444215519586966034e-01
-1.059895602129990178e-01
-7.091944924565872499e-02
-4.270420118553709676e-02
-2.207294545179605202e-02
-4.261482607994338673e-02
-7.965517537396130110e-02
-6.142868152769082740e-02
-6.515874045609942530e-03
3.706291790910606898e-02
8.563752178630337775e-02
1.032139692975965056e-01
2.740066873227883781e-02
-6.668562740715008874e-02
-9.170751270828281232e-02
-9.717563517653181326e-02
-1.168537936592325410e-01
-9.887407126008186664e-02
-4.506500523065119779e-02
-1.187890077952699283e-02
6.769599885168335607e-03
5.091456866462616693e-02
1.036309353775955039e-01
1.354774168792137745e-01
1.580262784328849424e-01
1.709675620610884850e-01
1.541426773154535024e-01
1.144340517338783142e-01
7.746227770527754075e-02
5.585592397338461079e-02
2.122612661348207905e-02
-5.834047330430969930e-02
-1.296884663106075974e-01
-1.281835735765761985e-01
-9.543759932156342662e-02
-7.786092666389719807e-02
-5.523799175800347266e-02
-4.804016318947425951e-02
-8.929851903629282273e-02
-1.153734168564432006e-01
-7.489182033510941028e-02
-2.938305563822641783e-02
-1.797974095042561421e-03
6.688338613307287517e-02
9.953998327477742158e-02
-1.360538647842110191e-02
-9.236606330150652633e-02
3.424480556527051411e-02
1.794690598091734923e-01
1.875617714003793846e-01
1.511357621182790600e-01
1.370280799799913074e-01
1.327648923736613473e-01
8.101743624770729735e-02
-6.274974517576860367e-02
-1.392056008143356949e-01
-3.006776975125290824e-02
4.787647249173335867e-02
-4.762662559836632059e-02
-1.504929159980779585e-01
-1.693483908078924349e-01
-1.836093381625620857e-01
-2.173143720408333979e-01
-2.245260121715977331e-01
-1.766171495219847620e-01
-9.099538463836567836e-02
-2.199486022576226107e-02
9.369168875918237882e-03
3.974856608692556303e-02
8.572704996914516651e-02
1.194278530864401333e-01
1.244038822283241585e-01
1.169544297819491430e-01
1.176839043709431570e-01
1.305566975242983818e-01
1.619185225222187219e-01
1.933852915487010438e-01
1.387906795424569684e-01
-1.767499942294103316e-02
-1.368082564891303088e-01
-1.244730562126542678e-01
-1.339784352107765281e-02
1.489933262512052881e-01
2.770067509944822981e-01
2.693891993149513109e-01
1.547707952514209007e-01
2.297399365474413202e-02
-9.886593607916099868e-02
-1.762566577569358861e-01
-1.792080466717014819e-01
-1.648093525679460436e-01
-1.687138217542074325e-01
-1.429991324328625246e-01
-8.846663470281471153e-02
-6.563444238992720281e-02
-7.473177394844020272e-02
-7.868341406115153536e-02
-8.209181295056648675e-02
-8.504134710404354092e-02
-5.346499077365114705e-02
-6.989050252490133092e-03
-1.239274555666072808e-02
-4.686973521069913440e-02
-3.587117879769582962e-02
7.555838493519508731e-03
4.529653998943942994e-02
8.368890140368520636e-02
1.105492197834305884e-01
1.035970821449698209e-01
7.924953832017371524e-02
7.738700026056868908e-02
1.065618478968166360e-01
1.102566813316883249e-01
6.062810319569696821e-02
2.493122858743173492e-02
3.146328766982028902e-02
2.499701751809324524e-02
6.190881099291691697e-03
1.137734183738294685e-02
4.362035022207062795e-03
-4.107454249884873176e-02
-8.246267177815549965e-02
-1.057238857092606676e-01
-1.371385107559580097e-01
-1.739598110555898303e-01
-1.947439669571541521e-01
-1.902744903614121130e-01
-1.422081104346367697e-01
-3.208930139783586905e-02
9.188046409670158621e-02
1.522323079412156721e-01
1.841168689948861070e-01
2.706811743317066865e-01
3.307354577121333628e-01
2.615702371873547261e-01
1.972188668144356227e-01
2.530186439536227794e-01
3.016233401138393999e-01
2.592651200267070410e-01
1.823663087923563242e-01
8.639913594831480359e-02
-4.389269020179970698e-02
-1.977239322538114352e-01
-3.425045124816503139e-01
-4.422925259855978730e-01
-4.947284477272346770e-01
-5.006386968768233858e-01
-4.527089439213616839e-01
-3.762833917076903734e-01
-3.004403386226429107e-01
-2.271627529099781162e-01
-1.476725396997362882e-01
-5.557369903671971478e-02
3.132033794308780594e-02
9.388960449575821376e-02
1.549562604607725991e-01
2.280546951949539158e-01
2.880183723907244198e-01
3.271899380356155240e-01
3.529589167001884742e-01
3.585481231074157393e-01
3.327375935386540085e-01
2.653370405197048032e-01
1.685716937893916578e-01
8.114076560642591307e-02
2.766688644689593857e-02
8.991729050264463119e-05
-3.354755987213024759e-02
-8.639241796390087491e-02
-1.225687450343289076e-01
-1.240741229552162761e-01
-1.101204693980193661e-01
-7.754925661082393007e-02
-4.284123162730041345e-02
-4.939281710732189301e-02
-6.843266093618369239e-02
-5.031414225541813723e-02
-3.377646643782802882e-02
-6.217718232317179239e-02
-8.175798533274933333e-02
-3.751084279805633886e-02
9.431874352949967677e-03
-1.826214449660825551e-02
-7.324721507420681177e-02
-7.173145148111426117e-02
-2.936460369235982526e-02
-1.270145197287572691e-02
-2.856319934928020290e-02
-2.332601113605782886e-02
8.162754929487743213e-03
4.027165123217182202e-03
-2.335999904223604040e-02
4.129652075964184745e-03
4.307954130386244807e-02
-1.786025802084827488e-03
-1.820033853615690700e-02
1.287319031871494435e-01
2.430259464823573967e-01
1.436865823757693672e-01
2.804100336979448160e-02
3.671949413221543834e-02
4.027490668433059834e-02
-1.437457976300739529e-03
-2.615226742504032226e-02
-4.685383901094602316e-02
-6.018097370035287164e-02
-4.514886531908517131e-02
-4.921724470985983091e-02
-7.574407880824042538e-02
-6.059324312232074183e-02
-2.107749981210569473e-02
-1.320095430817010834e-02
-2.411421785965349104e-02
-3.823916367353376311e-02
-4.920970429037328786e-02
-1.524158641914636660e-02
5.947802425881804078e-02
1.079675027670944365e-01
1.122422384767179926e-01
1.040769446550316168e-01
9.622878800005610356e-02
9.443075760964561582e-02
9.062645600857992256e-02
3.947121957251605029e-02
-6.434172338822216619e-02
-1.449076939053665636e-01
-1.550037567598791521e-01
-1.332401485919760542e-01
-1.242227578048965969e-01
-1.345747960290190337e-01
-1.372138680075375428e-01
-8.527026586877743675e-02
3.835902937250229225e-03
4.614701380154580257e-02
4.239241267872517066e-02
6.555555363008923331e-02
9.143246570742362411e-02
6.237604068090714382e-02
3.068574447451013348e-02
4.816076343621391448e-02
7.351887818509179884e-02
7.174125513172363577e-02
6.007412933887319728e-02
5.527380502623616826e-02
3.801155523902250560e-02
-2.231606792925187877e-03
-1.867344050004788106e-02
-2.376578932685148582e-03
-1.424006522955672052e-02
-4.512259096140938675e-02
-4.847360553769654301e-02
-5.670053731012829334e-02
-7.511909433667776637e-02
-6.428155611659804036e-02
-6.788903757652708926e-02
-6.542773809232203808e-02
6.807037347376285186e-02
2.128704801254058532e-01
1.443334947849796157e-01
-2.208030634065258346e-03
-6.793468666699855468e-03
4.846162242977616885e-02
4.112449741959132987e-02
8.739892243015965831e-03
-3.609705156355285868e-03
-1.313603569240734230e-02
-4.003180304406157852e-02
-7.160449783845022897e-02
-8.666771824602097218e-02
-9.255520403395002538e-02
-1.018596716482067094e-01
-9.656234538055032124e-02
-6.083906976261312105e-02
-2.606566482553410169e-02
-1.483306405963154620e-02
7.955975431643270285e-03
5.064786907082724499e-02
7.798869706470505647e-02
8.887203750919192569e-02
9.158327155350109994e-02
7.742698450408450062e-02
5.836445596430987759e-02
4.986692666899843196e-02
4.064992055125161985e-02
1.110843097724999867e-02
-3.159425284369322268e-02
-4.715276259717098017e-02
-2.235087703708181148e-02
-3.646980934804524774e-03
-1.951052475190565016e-02
-3.701079374116656578e-02
-2.978654852012267706e-02
-2.159319824866272330e-02
-3.693461787480983860e-02
-5.308012725528787890e-02
-4.944626231506650538e-02
-4.709361139579766597e-02
-3.728889484140296418e-02
1.724585487260486133e-02
8.895946003997803886e-02
1.220630863384566112e-01
1.162813540496427100e-01
1.020892942153825284e-01
9.383204281072650421e-02
8.133202174067716284e-02
6.103090016130353207e-02
3.293436708909917854e-02
-4.028072808611345840e-02
-1.425281917589112657e-01
-1.789360085545673162e-01
-1.557570315528711280e-01
-1.471851148532320741e-01
-1.337093352878514219e-01
-9.555901429992585960e-02
-6.250148184059201029e-02
-1.871212248988592813e-02
3.425279366038770645e-02
4.615217551436608112e-02
3.840892294962580666e-02
6.233783714056256864e-02
8.866203385938821457e-02
8.352076197769492394e-02
7.329010946431223361e-02
7.923573810266483497e-02
8.192993659982354682e-02
6.381801632404864033e-02
4.599165135616701400e-02
4.476365187681062563e-02
3.421692063715937177e-02
7.803123117733739775e-03
-4.936261666944580240e-03
-1.469250432361310713e-02
-5.244465055700054529e-02
-8.055139339520045461e-02
-5.688471757940773144e-02
-2.709566821203035492e-02
-3.519251405910087116e-02
-5.920095415908764591e-02
-6.830598428640112518e-02
-3.894043841073598772e-02
1.688291105018036031e-02
3.976096661753308198e-02
2.845780174141368524e-02
3.569250832521260464e-02
5.099268958427800869e-02
4.465374855415280009e-02
3.496188973098408176e-02
2.752940776651062807e-02
9.564386481192279840e-03
-1.279429481352502805e-02
-4.006177133164622040e-02
-7.689672375019568351e-02
-1.032823884062268188e-01
-1.003683365775061426e-01
-7.381400218672634628e-02
-3.902569395923204815e-02
-1.115331502741775255e-02
9.276941346349047018e-03
3.817194016550232855e-02
7.476990058201378464e-02
1.007936888797661967e-01
1.024917745877853142e-01
7.951380744239464060e-02
6.006383866110670544e-02
5.586395695517409887e-02
3.467704037162160080e-02
5.535561995079828906e-03
-3.297271902387273468e-03
-2.029177473078678379e-02
-4.219896328686596060e-02
-3.558850898079476965e-02
-3.929738304374648383e-02
-7.299074753161099993e-02
-7.994829505117365120e-02
-5.817726942218418018e-02
-6.026422712846984248e-02
-6.953404843830010562e-02
-3.734056886493904853e-02
4.879339761872804326e-03
1.629366637639359863e-03
-9.208478325678299409e-03
3.228793768286114529e-02
8.472690548411632161e-02
9.697105083507258361e-02
1.046782129404920936e-01
1.260406356585156151e-01
1.235667738086271561e-01
9.614631298250680969e-02
7.391297987274222936e-02
5.657371848997336250e-02
1.615343512384262090e-02
-6.416493422974992034e-02
-1.480581668992921873e-01
-1.714102292393049898e-01
-1.426206489674916034e-01
-1.292623073497247976e-01
-1.288022472779081773e-01
-8.907985962511420774e-02
-2.572213632051184584e-02
1.478012859996843606e-02
2.857479302343872429e-02
3.861767782484225309e-02
7.486218160581346870e-02
