-1.096680314398120193e-01
6.268059515283946892e-03
1.390395079949618140e-01
1.591254504360883892e-01
7.662373547848033706e-02
1.121384195276874281e-02
-7.788687231386870469e-03
-6.244162010098502913e-02
-1.562002841728320490e-01
-1.791743944737619054e-01
-1.051561163274952193e-01
-4.498706440065972784e-02
-5.673020605810192435e-02
-7.141580408922189316e-02
-4.863402695346344395e-02
-4.120751321450234761e-02
-6.062691221480204229e-02
-4.160507277727280850e-02
2.685434440956724345e-02
9.392984961693941204e-02
1.387663562832398834e-01
1.463541505110785568e-01
1.125015132137616031e-01
9.122811565973780457e-02
8.013037355157606734e-02
8.472084148528529271e-03
-6.380517570407152894e-02
-2.574658314435354645e-02
5.004444320474726871e-02
4.438804081833867127e-02
-2.294989902584478741e-02
-9.333510048423032668e-02
-1.259107284001983462e-01
-7.194272642582766331e-02
5.085521462839830142e-02
1.510650351479483899e-01
1.774307008329517599e-01
1.474815421793468362e-01
8.555120357242851359e-02
1.587166757138754047e-02
-2.933914415178269508e-02
-5.608196539444867956e-02
-8.928299318732182965e-02
-9.682618736127966697e-02
-4.804247059208816006e-02
-1.213017112658659746e-02
-3.675445897298280917e-02
-3.190214431428381459e-02
4.214783201707283412e-03
-7.111312317161130880e-02
-1.914323181368353666e-01
-1.740429163685032199e-01
-9.574354251699261631e-02
-8.709727826545406171e-02
-8.915735221427689705e-02
-3.374245239142527331e-02
5.909746403807675935e-02
1.486044124110148523e-01
1.997721547434232192e-01
1.956758498374780164e-01
1.521446891287458747e-01
1.049349752675243913e-01
7.416064664412903851e-02
5.117720858916643967e-02
2.263644401471875608e-02
-1.019906672621708268e-02
-3.620307526214883859e-02
-4.209014048621761289e-02
-3.144009620153634388e-02
-4.584721231533282759e-02
-1.053530071403475932e-01
-1.477483228164025442e-01
-1.196005373801839328e-01
-5.165496454133236548e-02
2.244765108354904865e-02
1.037128221448122695e-01
1.753022479121039701e-01
2.152342720152507494e-01
2.204342109651062365e-01
1.947870844900112530e-01
1.695033397477110626e-01
1.701432882205725083e-01
1.606275011340990710e-01
1.217343246301656190e-01
7.885810239606583227e-02
-1.379163085651588863e-02
-2.062303546842277069e-01
-3.945169809492118373e-01
-4.629366963604333862e-01
-4.499151944906063516e-01
-4.224826838798452222e-01
-3.776675745128905692e-01
-3.083782903637964368e-01
-2.359373021322292430e-01
-1.828771487278701424e-01
-1.464703680127904251e-01
-1.094307994319980437e-01
-6.040583236990759719e-02
7.490344891437725194e-03
8.566234933848454469e-02
1.675626644402218035e-01
2.570038583819629352e-01
3.203971604535547635e-01
3.343949357869906436e-01
3.401522170834690439e-01
3.436094467322010626e-01
3.069866018050459444e-01
2.653288918273015717e-01
2.655143471655669885e-01
2.469219042821209631e-01
1.586950346833113090e-01
8.266114038243019269e-02
8.697792969497336601e-02
1.156896951407447860e-01
1.233745536087387518e-01
1.298290542059841735e-01
1.206478317524919408e-01
7.788190805469820399e-02
4.348729935987717676e-02
1.452137162165909740e-02
-7.295546449812650991e-02
-1.970131972873213066e-01
-2.859839588190083437e-01
-3.509851614986523871e-01
-4.060808885481623776e-01
-4.135381499735219513e-01
-3.975946579385798985e-01
-4.040658640445819461e-01
-3.819731376720441607e-01
-2.874854590931926190e-01
-1.700526288397223307e-01
-6.868998415616452136e-02
1.346486048978778882e-02
7.824384813305181041e-02
1.501970788563554149e-01
1.725429815628570784e-01
5.345963119889413084e-02
-8.133990766293952568e-02
-6.934253449015533033e-02
3.088813207893661636e-02
1.484852728476279971e-01
2.447525336048625988e-01
2.313044251646561023e-01
1.486078021444433295e-01
1.244268778811190301e-01
1.685934196403531815e-01
2.130926335619555134e-01
2.264098899693906264e-01
2.297988265873390779e-01
2.184602141420028953e-01
1.486041443629544656e-01
6.419432235544994536e-02
4.874754526866986737e-02
5.333762637798305367e-02
-1.349435213481887941e-03
-6.373615073454300117e-02
-7.223080690085040279e-02
-7.087692989137203692e-02
-9.855021160974689054e-02
-1.305235550557159174e-01
-1.553645018411267675e-01
-1.698004781691353493e-01
-1.503268123324420780e-01
-1.166068399704011660e-01
-1.280914652424996747e-01
-1.810308528905192615e-01
-2.072513932213893018e-01
-1.801114020306216756e-01
-1.224801593745472317e-01
-4.451309690386968942e-02
3.742272037505796345e-02
1.001817285883878639e-01
1.564974126379275465e-01
2.079062508734254577e-01
2.191674891574294237e-01
1.850459580045901165e-01
1.304502539088895907e-01
6.162351897159026176e-02
-1.820734222117141587e-02
-7.743757916233529048e-02
-8.443978086119302562e-02
-5.860999456575985422e-02
-4.873178902705761761e-02
-5.974698847993988038e-02
-5.280970929053650093e-02
-1.831283283476160817e-02
1.616456287481450246e-02
4.608174579459537595e-02
8.240092820156273701e-02
1.118219424853351823e-01
1.151727495805704576e-01
8.108502484213117589e-02
8.504645918442466090e-03
-7.055174196157559807e-02
-1.147036783677066740e-01
-1.257764400570546282e-01
-1.287698959322657877e-01
-1.275082188890875878e-01
-1.257587297208287991e-01
-1.523292441377624984e-01
-1.892864779306898115e-01
-1.016908312706104739e-01
1.393706655711736409e-01
2.707651812177592210e-01
1.757799848518006025e-01
1.083324261463808336e-01
1.342736125799013358e-01
7.529255044334914881e-02
4.989917379847479822e-03
5.978134173183144440e-02
1.273655504749302836e-01
1.333668715181728082e-01
1.435371970724937107e-01
1.531068915119314644e-01
1.226542019858930244e-01
5.242664595456962562e-02
-5.565822629042244812e-02
-1.462466284524980842e-01
-1.546323409052254294e-01
-1.296118675679500953e-01
-1.397882728888099058e-01
-1.770733133564919570e-01
-2.227542386918838768e-01
-2.493996153152547579e-01
-2.044049096277006095e-01
-8.245643493605343821e-02
5.884683793140894903e-02
1.495343780802346756e-01
1.538694294693324638e-01
1.209712700619704762e-01
1.046590302670292461e-01
5.000264247812558072e-02
-2.266279890699766930e-02
2.994233224285556758e-02
1.206371286817962962e-01
5.397983078879217689e-02
-5.455110058783767951e-02
-4.837922771941403910e-02
-2.996022345032832088e-02
-8.124519440307635676e-02
-1.255776510745582608e-01
-1.025375500862142630e-01
-4.075773386754306948e-02
1.429213629658854581e-02
6.802015926610624486e-02
1.258782132736687986e-01
1.521677161783009657e-01
1.453742982400047512e-01
1.158592269979549227e-01
3.704308765539400528e-02
-4.457833232300570381e-02
-4.610123779555795609e-02
-2.544283167073530666e-02
-7.290659411875841101e-02
-1.346608458567004618e-01
-1.405273026156912131e-01
-1.201098290745940822e-01
-9.247815030345225840e-02
-2.424625434838623139e-02
7.914198437871687586e-02
1.557520370493980233e-01
1.619102597686478684e-01
1.239098461421101333e-01
8.379815230802770132e-02
3.719163352185851645e-02
-9.014430398167667599e-03
-2.220429332038633546e-02
-2.324676846171052150e-02
-2.322757176145907876e-02
3.109225044298021337e-02
6.534710732087047058e-02
-5.798245291187570372e-02
-1.849894638152044801e-01
-1.214286356187111310e-01
-4.035277937657506808e-02
-9.158452494394693499e-02
-1.279867674768833119e-01
-8.428345220133971749e-02
-5.025883280437250245e-02
-3.043817431432665338e-02
6.564284011269284208e-03
4.509152748117103982e-02
8.528796195903429189e-02
1.233411499189049076e-01
1.419869424599715380e-01
1.572197359391546423e-01
1.595705162314701442e-01
1.044632667769129220e-01
2.288230190398379826e-02
-9.136160072652298181e-03
9.207341999293364165e-03
2.352172699701789160e-02
1.570560700498533496e-02
2.591707416856164209e-02
7.014575984348223048e-02
8.367362232827227353e-02
3.401455546670563435e-02
1.555920591302549158e-03
5.024708415186188160e-02
1.279207863589984229e-01
1.673123368935627575e-01
1.754033611104733603e-01
1.550728058130663167e-01
6.255398538351299165e-02
-9.616608356228829868e-02
-2.659951855983049285e-01
-4.176841079515209998e-01
-5.135923860628419657e-01
-5.320544320239025682e-01
-5.202925763701257145e-01
-4.961820792449113671e-01
-4.348964029794006869e-01
-3.565246884990310727e-01
-2.734736142706024609e-01
-1.487444892415377695e-01
2.102123684199730391e-02
1.758657396489673452e-01
2.703703438014762317e-01
3.317596076994225873e-01
3.840718824679180132e-01
3.837311118674622268e-01
3.433344150695676333e-01
3.555423034339797450e-01
4.026660564418041988e-01
4.057487101968652032e-01
4.104572133412124346e-01
4.424399454128905562e-01
4.094008362410388457e-01
3.093225938483530335e-01
2.190133876026812976e-01
1.253190270867474698e-01
1.664996832648284186e-02
-6.484126105693051312e-02
-1.345221010274935958e-01
-2.161418284091752851e-01
-2.577699773899808089e-01
-2.250306976121733693e-01
-1.776726727440577358e-01
-1.814632958863131307e-01
-2.089430051729593285e-01
-2.079845465255442949e-01
-2.007936286389170877e-01
-2.022720642008299652e-01
-1.635005015567499165e-01
-1.082065843179753212e-01
-1.368580890408876427e-01
-2.376870378525336169e-01
-2.936469106826923303e-01
-2.603421428194435672e-01
-1.925094658200155462e-01
-1.434938954078697204e-01
-1.197360927376579093e-01
-1.032159284280186606e-01
-7.287186717076755971e-02
-1.846442287946606364e-02
5.281425067739951851e-02
1.328804351915420234e-01
2.091284493900802954e-01
2.619997503048237530e-01
2.885334912895684001e-01
2.792816947540218142e-01
2.192704804461624857e-01
1.385283475447725010e-01
8.111249615250792910e-02
7.072752496327186500e-02
9.701581591654333259e-02
9.134793943643051972e-02
6.493605240228275677e-02
1.210589339039258583e-01
1.875130088297501385e-01
1.169400741246304914e-01
-4.753636917120898642e-03
2.259495202643360678e-03
1.272909253835715349e-01
1.687854902765728859e-01
3.751728845678563296e-02
-9.544415478911999484e-02
-1.240648632389675654e-01
-1.387531491266136841e-01
-1.807895671586032538e-01
-1.954508057492139184e-01
-1.461023597560489606e-01
-6.337399506754384793e-02
-2.428140025057599558e-02
-5.628900064363716316e-02
-1.097156698876872311e-01
-1.339413360777918782e-01
-1.126256842439901928e-01
-6.709006186559893226e-02
-5.087555513728103662e-02
-8.447263707467166094e-02
-1.276819734522605665e-01
-1.376868661163783703e-01
-9.184398521838582630e-02
8.695603603840803414e-03
1.111147066077060319e-01
1.608801970192598185e-01
1.854980529164283465e-01
2.385877883420728929e-01
2.885780142013233407e-01
2.765640771510793350e-01
2.094005188056583810e-01
1.001512602036979949e-01
-3.660445465660251696e-02
-1.359802782408855715e-01
-1.805889610488540797e-01
-2.326211366389726587e-01
-3.102230351565858912e-01
-3.594925936551047752e-01
-3.342873112176813488e-01
-2.318874557396373992e-01
-6.618753439412354556e-02
1.367965777540006145e-01
3.159910665534453322e-01
4.123947459947129857e-01
4.174591748873690555e-01
3.501241315811679522e-01
2.213887295458831506e-01
5.529304931243869681e-02
-7.334427816918191734e-02
-9.953834458519728035e-02
-5.843256489079965560e-02
-2.532229614239589477e-02
-3.178342339608627998e-02
-8.583066936424940674e-02
-1.512833598494947862e-01
-1.459048771996196980e-01
-6.893710273305102276e-02
-1.153517237460991579e-02
-4.780199752381895234e-03
-6.648227311252552854e-03
-7.165261214997758338e-04
7.033825923347197806e-03
1.689057462445459762e-02
1.955907408197866265e-02
1.444148005272264355e-02
1.514899150375087489e-02
1.291125313524908204e-02
-3.733129151110766222e-03
-2.249143090415726964e-02
-3.898711351258209862e-02
-5.258300283489335258e-02
-5.464279030767915657e-02
-5.458102233837962280e-02
-5.701456906924681073e-02
-6.618948109671733693e-02
-1.121558111754449305e-01
-1.306292804603154667e-01
-1.592333056328860963e-02
1.023911249460821016e-01
7.591309944867276338e-02
6.417609290910183950e-02
1.667106025220116416e-01
2.200235402700277398e-01
1.683515261758555259e-01
9.605457890140402244e-02
2.195384275735430199e-02
-4.388084159531281669e-02
-7.265788764349463691e-02
-7.266129191371063778e-02
-6.130132807792208066e-02
-4.945528120508168451e-02
-4.307508522858477518e-02
-6.245910200674258117e-02
-1.313724506890750210e-01
-1.513837504767237552e-01
-1.843574128407073770e-02
1.019387101329060213e-01
4.322854195802962318e-02
-4.075805814949939182e-02
-4.018386576454195669e-03
7.242957368555998088e-02
1.090671853296801691e-01
1.114184538673081704e-01
8.351147071217063234e-02
2.140085258898416845e-02
-3.646592050088760806e-02
-3.789279597654160447e-02
-2.484836721936311416e-02
-7.203013747843184378e-02
-1.370305732912866781e-01
-1.447594002511164712e-01
-1.041789077016494758e-01
-3.961318233403654521e-02
3.895494870769999202e-02
1.058996274408796345e-01
1.506246232771050741e-01
1.690180178693014290e-01
1.408635616882931707e-01
7.678725769586587646e-02
2.357725396193217221e-02
1.250768804203212896e-02
4.344318945766856982e-02
8.988886889226133103e-02
1.190945731151751008e-01
1.257095128510571369e-01
1.161887940026338772e-01
9.414092733695215987e-02
8.794998791134549243e-02
1.064163273572054647e-01
9.665111975444526382e-02
4.746879831252017595e-02
1.317144530310054504e-02
-3.060983784827714035e-02
-1.597685869406231529e-01
-3.514291861702824593e-01
-5.216009118670729139e-01
-5.752951409541119387e-01
-4.579815685880005427e-01
-3.160361491720056204e-01
-3.075834272107789147e-01
-3.075224367764033406e-01
-1.891025375340775749e-01
-6.000966145236395766e-02
-1.097262842852234077e-03
3.393867495526968481e-02
6.934826098035319630e-02
9.538446711741072059e-02
1.295053300153122255e-01
1.873611521467332397e-01
2.288422479171478285e-01
2.188427506252645094e-01
2.048082664783449358e-01
2.366934321734140700e-01
2.935544490513158356e-01
3.477947376380762790e-01
3.945934042511324846e-01
4.204468199261404138e-01
4.138841715817590527e-01
3.782094097700909874e-01
3.145114696084140848e-01
2.126075314034359121e-01
8.460959302879161870e-02
-1.230117292265663076e-02
-5.585132503680141636e-02
-1.041528009805213206e-01
-1.890763444515565217e-01
-2.710931772520039362e-01
-3.176174066913834970e-01
-3.206360718861375192e-01
-2.852215329858630577e-01
-2.397319540091297774e-01
-2.042360564754853169e-01
-1.803496626280554904e-01
-1.704533480953576707e-01
-1.696125062814903550e-01
-1.712185449539778137e-01
-1.762665422024907724e-01
-1.799718089903034890e-01
-1.644744295142415713e-01
-1.132765036922975116e-01
-4.260499482567628449e-02
9.101189087345099016e-03
2.866872100301008641e-02
3.039193479462951042e-02
3.960061332831180114e-02
7.119302787030767909e-02
1.004816630493754331e-01
1.001879900941970714e-01
7.777284749771844197e-02
5.146806844119870827e-02
3.964795039488152456e-02
5.432349267198698095e-02
9.386989710780714591e-02
1.433619254992794245e-01
1.769435718046768191e-01
2.069667465268476281e-01
2.656668899685139529e-01
3.017873967506788380e-01
2.538216793338568533e-01
1.705694332326235241e-01
8.439683427532010396e-02
-4.636952097285550189e-02
-1.753812496887747763e-01
-2.086929646729270837e-01
-1.743138557407313827e-01
-1.561938074392572040e-01
-1.737199182992936741e-01
-1.896200387105541618e-01
-1.562759288517925893e-01
-1.017854316521172864e-01
-9.884509652338999142e-02
-6.367616289365071736e-02
1.088538607983646767e-01
2.340175272234445436e-01
1.396122014195772532e-01
-6.450946340832007520e-03
-5.761597891969828800e-02
-7.790930675916794834e-02
-9.386806158745107653e-02
-7.883249129872663130e-02
-3.476461522976413698e-02
2.440257335945640246e-02
4.419686291386906718e-02
4.868823143482140653e-03
-1.046007952782137228e-02
3.898018122600545310e-02
8.535761099204389191e-02
8.117521280928745309e-02
5.793258223431334286e-02
2.035779735092145548e-02
-8.796185309436181654e-02
-1.879012362360887312e-01
-1.225501077175287779e-01
-2.034950753329697881e-02
-7.380809056011175540e-02
-1.141148910948385498e-01
5.545832900093512763e-02
2.998532982400701208e-01
3.592382631055051623e-01
1.697487948406011804e-01
-1.565479456046524331e-02
8.963984542260383659e-03
7.238271896585227183e-02
1.881789268021269446e-02
-4.296230132354317277e-02
-6.481913650056642107e-02
-1.025884955015690658e-01
-1.138626651005966162e-01
-4.657921761888648982e-02
3.751734569680810483e-02
6.429875995232980923e-02
6.977132879760354622e-02
1.287522226389193891e-01
1.492577474892801681e-01
-1.342905022944799673e-02
-1.949289335256096933e-01
-1.613533207361645960e-01
-5.722368103136966921e-02
-7.746197238080507197e-02
-1.327115682531526952e-01
-1.290437804291727497e-01
-9.701240876346192699e-02
-7.278529950461534725e-02
-8.063937940986594388e-02
-9.622499204970749731e-02
-7.548365987012899125e-02
-3.776651549222748844e-02
6.599642163230549918e-03
7.947884509134418851e-02
1.475383919245147335e-01
1.735752045196539417e-01
1.888925736603143668e-01
2.001924813017244842e-01
1.495148412568135521e-01
5.146905552284956192e-02
-2.340741770165886276e-03
-2.556827227847695283e-02
-9.793286098905300274e-02
-1.696425798559664799e-01
-1.482312808016665318e-01
-7.191269097161839818e-02
-7.391986617454989611e-03
5.665500245278221741e-02
1.195800236303304898e-01
1.381269020748031873e-01
1.055566609009606360e-01
5.750040943093026602e-02
1.016068515937304691e-02
-3.272539755956360708e-02
-4.900277016312092060e-02
-5.557928651195195857e-02
-7.082790131868640926e-02
-2.984991476175906377e-02
2.523816821683313311e-02
-6.031124932424002105e-02
-1.787568166691578808e-01
-1.136576441957119765e-01
2.404443260025884710e-02
4.879669344905306766e-02
1.479144395157924383e-02
7.684140203445464362e-03
7.528435967125844674e-03
-2.339939322227686455e-03
7.616151216873393200e-03
6.429033790686743133e-02
1.519397709252889306e-01
2.179264453718424144e-01
2.332504741325908126e-01
2.167909135532004317e-01
1.808347792780111984e-01
1.440425407922413525e-01
1.450599866374736591e-01
1.538774121772620018e-01
1.196539670350689755e-01
7.663080191132634611e-02
3.903442360637769670e-02
-5.055431069408190814e-02
-1.981114847015419400e-01
-3.604901684187286071e-01
-5.121795206055348437e-01
-6.067565515549432353e-01
-6.075884421390171930e-01
-5.483654737028729187e-01
-4.508087104294917768e-01
-3.187845228083412419e-01
-2.130695923966995364e-01
-1.444321767857821570e-01
-4.181471535705279241e-02
7.629622874046627923e-02
1.372087069567147211e-01
1.688264459672951801e-01
2.171200233167480953e-01
2.551840010189801444e-01
2.679048579756336812e-01
2.770864363862406421e-01
2.847174522729877810e-01
2.976688058664029857e-01
3.457626042691335222e-01
4.160307840100692101e-01
4.553834365349421764e-01
4.378494233475559438e-01
3.774491620330761021e-01
3.102589553249782695e-01
2.473766103975632014e-01
1.692208940595245070e-01
8.995956275212373121e-02
1.724960060706746956e-02
-8.634198344109149381e-02
-1.871501652819352324e-01
-1.881723712320941821e-01
-1.158930937258775690e-01
-9.555554772131413799e-02
-1.447823937552566997e-01
-2.056161971845314740e-01
-2.779768320465793585e-01
-3.578240837097097504e-01
-4.133903425323725012e-01
-4.480371728607916437e-01
-4.658932275035667647e-01
-4.483836775176702760e-01
-3.790570945036924044e-01
-2.642682601510599194e-01
-1.459829451143854484e-01
-4.013374140989704741e-02
7.865073220138145416e-02
1.858601771526109669e-01
2.353701554897786596e-01
2.402677130056918853e-01
2.125871642256838556e-01
1.455950842978385451e-01
8.276252209338581800e-02
6.773785182120724280e-02
7.816776326783431150e-02
8.613182047201728420e-02
9.651395613065841261e-02
1.078159926723495782e-01
1.087247340044708577e-01
1.111533187363505232e-01
1.384336680474334835e-01
1.796896904395434147e-01
2.033822730970086534e-01
2.078911716376845020e-01
1.979116176891529966e-01
1.542452869519473080e-01
6.995521551812197703e-02
-4.077294096998681366e-02
-1.437755420526867223e-01
-1.840954183762718299e-01
-1.618403310848724463e-01
-1.350699004850206553e-01
-1.132700591660018574e-01
-9.718567773700698131e-02
-1.259884606268401319e-01
-1.407612858148232782e-01
-5.700065979626902507e-02
2.793354463823478212e-02
2.347541679162154504e-02
1.750630504760685227e-02
4.453373475640853840e-02
2.920457951472269637e-02
-1.821439244605604565e-02
-2.626584404348699872e-02
4.880415659080117666e-03
1.850413853846339177e-02
-8.409146982233446643e-03
-2.279085595293965649e-02
1.388514997669569595e-02
2.549337339217271070e-02
-4.426415012498447626e-02
-9.238443101549373426e-02
-3.944537857450518270e-02
2.314923852898910506e-02
8.320514230540761169e-03
-4.959385181747134885e-02
-9.144288893943783303e-02
-9.395544963369933944e-02
-5.790227864723453133e-02
2.584129233762942277e-03
6.443388628487564662e-02
1.010738681668521544e-01
1.200257970363845100e-01
1.562585798261025283e-01
1.949418926161300414e-01
1.868072184259190194e-01
1.313985381627711668e-01
6.287556444761503716e-02
-1.453092523067103098e-03
-5.914779035309231797e-02
-1.088385945030889285e-01
-1.507908767764009617e-01
-1.970637457912914892e-01
-2.537717031475628104e-01
-2.950991848620522773e-01
-2.866972583745150960e-01
-2.038463834756186477e-01
-5.970670988577876648e-02
7.699121589388631393e-02
1.823056015023431509e-01
2.897358208748079811e-01
3.572585588440442828e-01
3.177924954066633778e-01
2.129165239125386799e-01
1.139423029379156155e-01
2.423163911940350718e-02
-2.238424880077909823e-02
4.831662849972067492e-02
1.045189698168590697e-01
-6.103443018027646105e-02
-2.612994812634775732e-01
-2.159526908951637791e-01
-7.389294761699884140e-02
-2.371146874330573237e-02
6.594942995584581261e-03
3.038923974000543732e-02
5.818264043576572980e-03
1.059223499040429749e-02
6.811539968324156757e-02
7.624046346278874620e-02
1.187584337275178481e-02
-4.265440042829812123e-02
-6.105287321364791242e-02
-6.202409305307946680e-02
-3.987689692763098093e-02
-3.668922148026294849e-02
-8.377204559604066458e-02
-8.558625509835948719e-02
-3.977491160396115499e-02
-1.033940823275351223e-01
-2.065246045658115370e-01
-1.296994291095968366e-01
3.198544765389366856e-02
6.470227269550178628e-02
2.919415082555077562e-02
5.877970707226036484e-02
1.156587260965649400e-01
1.316330836285124761e-01
1.308221847530765813e-01
1.519702869098885356e-01
1.777986580471364597e-01
1.625897178729966142e-01
1.047216353911773062e-01
4.417104841959855477e-02
-1.739840816182676442e-02
-8.932042394083480885e-02
-1.239822431499900679e-01
-9.409927607002741001e-02
-5.762900023235490582e-02
-7.557124877755953818e-02
-1.235099935057296927e-01
-1.249485626737849298e-01
-7.797005093553674437e-02
-5.886337792002946379e-02
-6.231854000475429978e-02
-1.535183743201225075e-02
5.556316274666447952e-02
8.809752667478254473e-02
1.120950552715628962e-01
1.311759308246188138e-01
8.346597688315966768e-02
1.490729455143779275e-02
1.701901455702452270e-02
2.369612389035155586e-02
-6.091413718135613858e-02
-1.741738472863480769e-01
-2.119974540531736062e-01
-1.587254737007362526e-01
-5.432207204152928598e-02
4.979430516509019550e-02
1.283754659770877382e-01
1.774904658795040113e-01
1.739422056988248200e-01
1.156815646919254204e-01
3.989856050862479464e-02
-2.886891978737647288e-02
-7.139068609585765002e-02
-7.209664266632997975e-02
-4.328039050542280275e-02
3.601307333177344860e-03
4.536475520007579587e-02
3.470397035045715700e-02
-6.893914967154489426e-03
-3.207261881095072216e-03
2.990063309469509836e-02
3.257361946690787852e-02
3.434875810264798046e-02
6.204361925218062485e-02
7.475917267608593597e-02
8.163755817959687799e-02
1.364036106545530869e-01
2.272176679567310120e-01
2.910443497295013282e-01
2.807365853872972883e-01
1.934198000732726963e-01
7.614471129101416103e-02
-2.637276675450922134e-02
-1.369290167482499765e-01
-2.897483950146687026e-01
-4.334542108140846395e-01
-4.985537495469765656e-01
-5.136186563316946785e-01
-5.296057730180265821e-01
-5.125373183763258789e-01
-4.349781782494335225e-01
-3.478826450540937198e-01
-2.673368914002637320e-01
-1.686278752139594439e-01
-8.814008553866485574e-02
5.360122840719211412e-04
2.011370919702190063e-01
4.050143720006584847e-01
4.317942826583909821e-01
3.955190251909480592e-01
4.424954821892678747e-01
4.636008506659267114e-01
3.696823665626571276e-01
2.666443569498330723e-01
2.451584713002996629e-01
2.559583075706910460e-01
2.416307175438537902e-01
2.199366036639963107e-01
1.998229405537978454e-01
1.604984494261316730e-01
1.175368882627174510e-01
9.016774968505711363e-02
5.589290690149867347e-02
8.494378895843424093e-03
-4.371844491469716043e-02
-1.145131589138144168e-01
-1.749840039734348318e-01
-1.812636141466196782e-01
-1.761755911996017443e-01
-2.045865184004237169e-01
-2.356880650151478296e-01
-2.498084131967064359e-01
-2.544178591412499246e-01
-2.499130436206716821e-01
-2.520410940981724357e-01
-2.587292881867470085e-01
-2.364033833189151945e-01
-1.931726763439551575e-01
-1.667782170238801820e-01
-1.526981725892295749e-01
-1.335640906592797661e-01
-1.244132315834268476e-01
-1.173206043283179095e-01
-5.351434301589682446e-02
7.491813254180249015e-02
1.832651092990768560e-01
2.217819017303685192e-01
2.388373195774074753e-01
2.769943652832108083e-01
3.157921062477749286e-01
3.256155912888393233e-01
2.853001534657630400e-01
1.878512504429432906e-01
8.181345455622057727e-02
2.428604948987812123e-02
8.546821826842854186e-03
-2.221345685581896379e-03
-1.924457510190841908e-02
-2.605045907491327500e-02
-2.898926660772905423e-02
-5.350325579378141516e-02
-6.319692210385072229e-02
-2.327111243374885632e-02
1.090605206095850849e-02
1.450595782848908971e-02
2.784026342953308322e-02
3.751394889630073337e-02
6.263567532175558228e-03
-5.746374909794590979e-02
-1.235127531745797425e-01
-1.493206371336242011e-01
-1.189835355988554666e-01
-8.331733164462508390e-02
-7.486501744757934063e-02
-5.092338267031198962e-02
1.297648935019136973e-03
2.259636594462405973e-02
2.543083653059237045e-02
9.029007696922203285e-02
1.348733544536777074e-01
2.462848443114167007e-02
-9.100192900981196598e-02
-3.742210547754444561e-02
3.710049878392024381e-02
9.943277165254001820e-03
-4.801657740197175228e-04
3.932875660130313866e-02
3.146380696016091993e-02
-1.058172584502165003e-03
2.265689686940650441e-02
4.042493178317288494e-02
-2.195570808838672588e-02
-8.196296761645327500e-02
-6.168225878438060583e-02
-1.121014827216214663e-02
6.600728075536872047e-03
-2.421431055748980710e-02
-9.485562591213517192e-02
-1.561971516730698561e-01
-1.571571911150569101e-01
-1.043028421531809607e-01
7.599224824629423683e-03
1.813393945258076623e-01
2.842140841246685312e-01
2.334211629173646441e-01
1.713592941900045630e-01
1.708835632082822964e-01
1.304416877383476059e-01
3.315386349174183345e-02
-5.167660150052439533e-02
-1.085351736737831529e-01
-1.473228011448517172e-01
-1.715032558390309214e-01
-1.984084662189036230e-01
-2.411647780768721439e-01
-2.704323509437294715e-01
-2.307667455898047004e-01
-1.181740457083260976e-01
1.321336718338144214e-02
1.384082809047249285e-01
2.534902035679540422e-01
3.126681069624489551e-01
2.940275903604996910e-01
2.363772253879104779e-01
1.565991905510451532e-01
5.987052836604908612e-02
-7.770485269769530218e-03
-2.339589975470264538e-02
-1.939515529938615895e-02
-2.313009791765666470e-02
-4.785170537470744695e-02
-1.053796529342055643e-01
-1.573146751612586047e-01
-1.321712137865428682e-01
-5.060576114442454781e-02
-1.509238019252803764e-05
2.710947818000318879e-02
6.848581098535078127e-02
6.628159415728784865e-02
2.187554344126791533e-02
3.482660476289872048e-02
2.265498800115033420e-02
-1.608636745916502131e-01
-2.738408569554401373e-01
-5.317594664676956323e-02
1.827608331796071184e-01
1.116757807405153180e-01
-4.200814236717718281e-02
-8.486746847500922786e-02
-1.114248630507467669e-01
-1.182548307714525598e-01
-6.160943626730644440e-02
-2.728796845554694317e-02
-4.289428560398950152e-02
-2.846948392481002399e-02
4.324137720682397906e-02
1.116787072010611837e-01
1.309291908199338161e-01
1.294627098880355986e-01
1.377373707331614461e-01
1.341149625858932271e-01
1.017907503142878589e-01
5.512228771773110270e-02
1.454176455133410206e-02
-8.424441319800985567e-03
-2.407760306248887122e-02
-4.371484049705641473e-02
-6.081693290356364467e-02
-7.365507871202592316e-02
-8.285482223022141990e-02
-1.009153399791760802e-01
-1.509881048532483727e-01
-1.552669649113018191e-01
-2.255424011251699196e-02
9.147857436925588281e-02
3.225595436314846604e-02
-2.375357807432950177e-02
6.289574957322367765e-02
1.472006442259897463e-01
1.368306753182342572e-01
9.047350554859498462e-02
2.538451864184458270e-02
-5.096240593509232530e-02
-6.149830171632143100e-02
8.402337158276811102e-04
1.196972631512991173e-02
-7.158861411818298603e-02
-1.457110297723879233e-01
-1.507855446201474825e-01
-8.819620045624321225e-02
3.631545564403410725e-02
1.255312136897487885e-01
1.161184378151371710e-01
1.172956634286157207e-01
1.233378893542319832e-01
-1.635653162954892048e-02
-1.727242320106025797e-01
-1.187571575063671725e-01
4.196998654942912799e-03
4.226837581556303763e-03
-1.560181142644812870e-02
3.996055001016050184e-02
8.550722151039738539e-02
6.923122628650973942e-02
5.504343715911744206e-02
7.855514920033812576e-02
8.619808703730794108e-02
5.015022931570256581e-02
1.888091192928211329e-02
1.624606097227696000e-02
2.064767832209246645e-02
4.540371108035490960e-02
1.080932993918969215e-01
1.692492925051042874e-01
1.870094034481180056e-01
1.592298899444161420e-01
9.344670261456071436e-02
-1.187457907360774459e-03
-8.993445234645139341e-02
-1.446174129246849682e-01
-2.077933559436432320e-01
-3.191587310966385593e-01
-4.241064440483092168e-01
-4.795201650957465755e-01
-5.019471448881889231e-01
-4.623597997460132114e-01
-3.490962485188685016e-01
-2.498972971905026874e-01
-1.980105599130873029e-01
-1.286321463622437933e-01
-2.155786973552600849e-02
1.000175652380132924e-01
2.176641543887299357e-01
3.105302747543293718e-01
3.947828271588341154e-01
4.751781632871346361e-01
4.954937576228248264e-01
4.517178549517795738e-01
3.934397286752241985e-01
3.243364248431115926e-01
2.570801852689699185e-01
2.296766079609234845e-01
2.162093461839253994e-01
1.672177670804567418e-01
8.871946253509868652e-02
1.883576679931578401e-02
-2.844107564124495613e-03
1.779992689794031302e-02
1.131307943901239954e-02
-4.487248651820688328e-02
-1.069404230393428551e-01
-1.691298804146164625e-01
-2.234268931090347410e-01
-2.238751982751757408e-01
-1.916903691418727351e-01
-1.914621686828996416e-01
-2.193338278085558701e-01
-2.324019466958895663e-01
-2.200937441309341047e-01
-1.986831826250386457e-01
-1.887886884340663207e-01
-2.087969533183444693e-01
-2.338089375318033181e-01
-2.012621473679536976e-01
-1.313147488509982530e-01
-1.057238928765811131e-01
-1.088747993127347907e-01
-7.923815585090940306e-02
-2.112703273709349433e-02
5.263166011977231384e-02
1.358180878718807383e-01
1.957406368135404251e-01
2.269716738169328951e-01
2.665853818682179521e-01
3.253727934216228967e-01
3.625466967632797743e-01
3.304292834496940778e-01
2.224103262758706512e-01
1.037386395891817525e-01
5.648282424110315919e-02
4.918403729604842178e-02
9.377497647040100581e-04
-5.472871909869868323e-02
-7.197306582520551776e-02
-9.326830986893692998e-02
-1.147114111919621260e-01
-7.857573951301953519e-02
-1.158908610844330139e-02
1.026045112726292445e-02
-4.076340277143267014e-03
8.922506812239480722e-03
3.317867205061011265e-02
3.752964533599079545e-03
-6.369346457876895462e-02
-1.122970191981022686e-01
-1.416021784763233371e-01
-1.586775856834021781e-01
-1.365422509203319812e-01
-8.504875434520355049e-02
-5.219303074895634970e-02
-3.915551389058898740e-02
-1.080292908718484199e-02
3.345457660970664604e-02
6.615471966031227780e-02
7.520221226175086149e-02
7.174434837153564892e-02
6.927165705955334873e-02
6.365520831176393890e-02
4.297761293461895005e-02
2.052579641985458406e-02
3.078683354608688014e-02
6.067427451040754982e-02
4.986345505515588777e-02
8.551958643371838573e-03
8.488495981642585342e-03
3.459228133476310862e-02
8.164762812090286398e-03
-5.826099901871988063e-02
-7.657361481504892931e-02
-3.225565126924373471e-02
-3.109379003971740260e-03
-4.104632791978055084e-02
-1.201313700196091905e-01
-1.660655295885768157e-01
-1.148851632067143524e-01
-2.284262413933108374e-02
-7.679307264105140335e-03
3.929955055465655239e-03
1.516068343249647177e-01
2.773011241354021994e-01
1.943909633157260564e-01
7.577036998787670119e-02
8.136966709118602370e-02
7.907707061439515905e-02
-2.354387654638550459e-02
-1.542614700381563786e-01
-2.420234026665038785e-01
-2.492779024202075033e-01
-1.918542087193381152e-01
-1.335352068719398710e-01
-7.482571017667982716e-02
6.120180316637581844e-03
6.592552923319663916e-02
1.000006689065451593e-01
1.484873899108324902e-01
2.001355200499873865e-01
2.466248869770774066e-01
2.446694096946356312e-01
1.150749716743226236e-01
-1.849045213412196798e-02
8.328936134788987589e-03
6.162399084508208419e-02
5.629033963998657242e-03
-5.685820248731515703e-02
-7.924344047214831877e-02
-1.320351320197576950e-01
-1.961489264142455557e-01
-1.926945077378731108e-01
-1.157332947229595399e-01
-2.201563479675780824e-02
4.538150157844206278e-02
7.011487002395558332e-02
5.293700186894927801e-02
2.914418998088783713e-02
2.306632599970690617e-02
8.635366754683631782e-03
-1.583385238404634923e-02
-2.005897262759973043e-02
-1.818357866812957482e-02
-2.411361737185871434e-02
-1.082819500838599555e-02
8.314664304632041203e-03
-1.492857244839473560e-03
-8.084512581338691023e-03
1.148522063593636518e-02
-3.201024465065788194e-03
-7.592260261948434452e-02
-1.176597951526426183e-01
-7.120262407328716014e-02
-1.043699041989482219e-02
1.418935176242890929e-02
6.317451548334288014e-02
1.380746498880537076e-01
1.575691788802263404e-01
1.354605205033163062e-01
1.340188036357535251e-01
1.189185370629111810e-01
6.869832322658740720e-02
5.119779588689155753e-02
3.337032829513889715e-02
-8.931292394484097175e-02
-2.041226782661703654e-01
-1.542076699801681605e-01
-6.020359231105697206e-02
-4.957751452885886950e-02
-5.066794208224562057e-02
-4.327236217975707205e-02
-7.712332784876892167e-02
-1.035513340881788896e-01
-7.044033547360484260e-02
-2.166980639248709123e-02
9.243398774424503583e-03
3.529723396494477416e-02
5.197701568213942969e-02
7.385213877941351757e-02
1.158691661773473824e-01
1.072963431702741166e-01
2.041129822505068775e-02
-3.264034904396531656e-02
4.040077993285619978e-03
3.544812190797275164e-02
-1.711852662732630745e-02
-1.132612953663118260e-01
-1.599486501856825782e-01
-1.220486888344782805e-01
-4.698240940172360852e-02
2.942051986379969064e-02
1.081087012821030091e-01
1.632700101182630315e-01
1.716887176643355217e-01
1.357235419806522014e-01
5.455802025572108888e-02
-3.012235109128744148e-02
-5.612738139744617716e-02
-4.389620706012206663e-02
-4.153408771297793789e-02
-2.604462529372087581e-02
2.455027405208464603e-02
6.577988393355690966e-02
6.883373620954057193e-02
6.998686965551029204e-02
9.517525270457490028e-02
1.115606505225065354e-01
9.425420886394079989e-02
8.082124866964522647e-02
1.032730566688657425e-01
1.207310893549703723e-01
9.287450298365136636e-02
4.510802625367802549e-02
-9.210940712595358515e-03
-9.591123596383889505e-02
-1.985634481613568203e-01
-2.683620684513449151e-01
-2.965182866984726884e-01
-3.060161955339559259e-01
-3.105665151529032331e-01
-3.137223765267175835e-01
-3.133048749640300890e-01
-2.909718379199331406e-01
-2.404752190291932212e-01
-1.854014911865192183e-01
-1.214169012743110537e-01
-2.934793917332079172e-02
4.131741752521472799e-02
4.364488990538654967e-02
4.749549190897372347e-02
1.416523217462564987e-01
2.923974013733272037e-01
4.056310226220016801e-01
4.554151820218193536e-01
4.659973912150032760e-01
4.416022499080860531e-01
3.811731477903844145e-01
2.910353245821682422e-01
1.884132583438681285e-01
1.270359142439649869e-01
1.271931105343704349e-01
1.234505183679982104e-01
7.227900730199143808e-02
-2.538674247206246237e-03
-8.177230267338084224e-02
-1.434861305151709787e-01
-1.506841988331458215e-01
-1.210760675045604862e-01
-1.152902962204595122e-01
-1.475627854338214251e-01
-1.810491555205027137e-01
-1.890646779947796896e-01
-1.981246121976024677e-01
-2.403081792398454319e-01
-2.389500777539895759e-01
-1.281851367467055081e-01
-5.519569901266917211e-02
-1.206015594030148963e-01
-1.705260689267615870e-01
-1.352471410855118628e-01
-1.252595721559356390e-01
-1.441594430442991737e-01
-1.023317738933284538e-01
-2.129237681269731397e-02
3.316364370584246046e-03
-3.318586091717599246e-02
-5.832438410075109492e-02
-8.964138166676766106e-03
1.284876195167811153e-01
2.421588842300534672e-01
2.279150143072839474e-01
1.776613287501351557e-01
1.905696071991979379e-01
2.310579215777830986e-01
2.624865320818542958e-01
2.682591046300182858e-01
2.221390694194562698e-01
1.297529897159178658e-01
2.269328746068596803e-02
-5.517484647254271291e-02
-8.118553477742977698e-02
-9.374979570943847706e-02
-1.219302487372501964e-01
-1.387314271679543631e-01
-1.344994335945010333e-01
-1.250685136155426092e-01
-9.190745548906488482e-02
-2.463685216282569118e-02
2.180788123055805300e-02
1.118855007933993069e-02
-2.094268549268293866e-04
3.037344825289182981e-02
3.737199597703722009e-02
-3.681105889159594358e-02
-1.233673190858590313e-01
-1.319365791114124609e-01
-8.009012360103610895e-02
-3.450136725361378776e-02
-1.696634357411888269e-02
-1.552045758346046883e-02
-1.326668930884923603e-02
5.133153798373559645e-03
3.475531634896397021e-02
5.810862341673318776e-02
7.973875164922701597e-02
1.029650385160776477e-01
1.021673421967544820e-01
7.390824328435462165e-02
4.651507070985050341e-02
3.460911719265536562e-02
4.136152640503829025e-02
4.959542494874131374e-02
2.843896713062902745e-02
-8.602174268033477983e-04
4.504652558063038104e-03
1.757964307698877196e-02
-1.625019967620813105e-02
-9.204737569155024834e-02
-1.407235610296249662e-01
-1.066511007539019673e-01
-9.084101843483866068e-02
-2.228581740677183787e-01
-3.423743970199630282e-01
-2.447623696217372524e-01
-5.577302104126816151e-02
6.280736521824648033e-02
1.405037463254147356e-01
2.014342852822553764e-01
2.371430923366871224e-01
2.483951186221106666e-01
2.081395827753421135e-01
1.406616747572254078e-01
1.151370965724267809e-01
1.115637365489586391e-01
6.473036574824318767e-02
-1.198458653285729147e-02
-6.534980376073666608e-02
-7.832296274158592753e-02
-7.937793743581694761e-02
-1.078894823780634227e-01
-1.098300793319486046e-01
-6.808098525796387607e-03
7.563755913323913505e-02
2.372352116402593608e-03
-7.797355442362639832e-02
-2.793986349491547200e-02
4.334823688446103052e-02
4.008905129436906439e-02
-2.208950095185079759e-04
-4.944857454379023715e-02
-1.027375348014423484e-01
-1.060068307476601523e-01
-4.397724075013720313e-02
-9.908585841104742414e-03
-5.200493447286624882e-02
-1.087685646905116460e-01
-1.335752106777458870e-01
-1.181500197897098758e-01
-5.408635817114699346e-02
3.758388824339908840e-02
1.152143713521350948e-01
1.671636524034009752e-01
1.932245403162647368e-01
1.671944665985739820e-01
8.746399353355667483e-02
1.983543953091509993e-02
2.207352159427390312e-02
6.317301146458012551e-02
6.875330285156702748e-02
2.591753999494936928e-02
-1.963167480953515245e-02
-4.956359732489712400e-02
-6.632724067789877442e-02
-5.707532452558188724e-02
-3.934934545083761115e-02
-4.463588471383660855e-02
-5.881148766890720303e-02
-7.495550808866580095e-02
-1.145978021917852113e-01
-1.486625185948859951e-01
-1.110835999611265029e-01
-1.036001626457737617e-03
1.025719444980334877e-01
1.473417394361089816e-01
1.694908329170266847e-01
1.879955001531818937e-01
1.420290178911723655e-01
2.501211276488198715e-02
-7.000445752552561518e-02
-8.895271734067422553e-02
-6.211093158856202667e-02
-3.201068183417564439e-02
-1.800238708993060974e-02
-2.337039916352763938e-02
-4.409455477612699015e-02
-6.792878772550943467e-02
-8.893910687079514821e-02
-1.121058207673558960e-01
-1.140929225488523935e-01
-6.741190351644775480e-02
-6.206217559391519201e-03
3.458340756871933208e-02
7.902786806668750386e-02
1.313876232851207693e-01
1.573471403539945801e-01
1.454998223773440180e-01
9.054756415041194384e-02
5.196022249395425979e-03
-4.069275504445057229e-02
-3.061627238139300738e-02
-4.691859203152266844e-02
-1.002249673002889030e-01
-1.072597214461510906e-01
-5.388873454205989760e-02
1.547241772669293892e-02
1.004856036527039809e-01
2.003189936868271792e-01
2.648412839104172800e-01
2.710996866609804989e-01
2.578143812554676839e-01
2.444848193474073450e-01
2.028290862854361387e-01
1.266952147133354467e-01
4.939159447075986559e-02
-2.940283991943353631e-02
-1.418224483958036297e-01
-2.636831962296502518e-01
-3.529032515245205115e-01
-4.293548668411963920e-01
-4.939425033252006769e-01
-5.032037188186161414e-01
-4.756773941592072341e-01
-4.491917052381402820e-01
-3.873296046268706050e-01
-2.772408115196144940e-01
-1.895602830663644378e-01
-1.403342737520321681e-01
-5.401525542875475205e-02
9.127854664577982058e-02
2.401427127987780241e-01
3.535980725971376026e-01
4.197962245124203240e-01
4.496049436961903623e-01
4.757872437005686295e-01
5.065964984919657521e-01
5.188899510363259582e-01
4.848861402947167720e-01
3.993560938814320616e-01
2.962984937280133679e-01
2.193316712479574104e-01
1.807369145387664744e-01
1.092765477632054172e-01
-6.684493282609002551e-02
-2.262536173275330187e-01
-2.312945243808792739e-01
-1.705106147159477503e-01
-1.234903468720889019e-01
-5.894572933523178210e-02
-3.163119833134747649e-03
2.080148618637662344e-02
-2.094728541672796068e-02
-1.968434707528227967e-01
-3.842952441031756150e-01
-4.172832097621806957e-01
-3.791833213691740978e-01
-3.592786208505770462e-01
-3.022150880261866290e-01
-2.180411134338542389e-01
-1.732707587258751070e-01
-1.645964814048665736e-01
-1.383499455569889569e-01
-5.761980677249077532e-02
4.760765266863788148e-02
1.284441261306376869e-01
1.816498259194893050e-01
2.027547872739833279e-01
1.809308119836647299e-01
1.526118115326294267e-01
1.567128652865024951e-01
1.780794618911410720e-01
1.887049639553866065e-01
1.877569841289214170e-01
1.841157769999361427e-01
1.792213625353613615e-01
1.580830262354371296e-01
9.938895506923442480e-02
3.238598454516073560e-02
1.158989210076411674e-02
3.172035031553221973e-03
-3.253088659091089851e-02
-3.625173970968612047e-02
-5.900013670164067775e-02
-2.193339383157672517e-01
-3.437755627614551557e-01
-2.330053407670421017e-01
-5.938663221222002797e-02
3.814073755335260774e-03
3.696469897609484800e-02
1.111165228442809183e-01
2.076359444366535634e-01
2.374270823103142580e-01
1.100855636424630246e-01
-3.387402132025980894e-02
-2.718880938919277651e-02
-8.099151764911209639e-03
-9.187162100728893388e-02
-1.455456528907001224e-01
-1.141873056806356479e-01
-8.628345868668463314e-02
-9.048005442324685843e-02
-9.081596302479805205e-02
-5.298549055494553711e-02
8.096260885214890193e-03
1.743918392479240978e-02
-3.413637604987362906e-02
-6.078217480145070573e-02
-6.015992128895283897e-02
-9.984771163662505000e-02
-1.256583742934874182e-01
-5.090782081748379539e-02
9.694301625865603400e-02
2.622181088104398872e-01
3.297601129657296015e-01
1.815035812643022162e-01
-8.475827400694651084e-03
-1.453664358067260215e-02
3.640600377071685767e-02
7.000509075149652372e-03
1.962247285600335692e-02
1.145524906996912839e-01
1.496566206350409822e-01
8.769141850515335679e-02
3.641578488347095577e-02
4.324331614433959275e-03
-9.386433819294928704e-02
-1.572286443873539830e-01
-4.271671051936481306e-02
7.151090864343279119e-02
5.459014651022105896e-03
-8.136163566906358391e-02
-8.127326573900742201e-02
-1.000266318918134612e-01
-1.607617204164363822e-01
-2.096315274961851882e-01
-1.840426998663901303e-01
-2.951199551168722651e-02
9.352944651753063166e-02
7.791173788151951884e-03
-1.055109227230297403e-01
-5.456836583175409677e-02
4.454835753294520556e-02
9.531870585530896611e-02
1.426433306429420733e-01
1.809648427750520649e-01
1.732112258700166940e-01
1.348421419710190694e-01
1.043293135907056995e-01
9.059655733085966722e-02
5.786682212547031301e-02
-1.025615521786543347e-02
-7.206941645775341576e-02
-1.018144726840400222e-01
-1.115657642522628057e-01
-1.000897956948366974e-01
-8.515726587466382336e-02
-1.087144668028716538e-01
-1.478529198858579696e-01
-1.420130232498644507e-01
-9.718959793165314609e-02
-5.521687282562926652e-02
-9.749837578747772709e-03
6.075447791278214271e-02
1.219467503544720277e-01
1.283978272901714346e-01
9.152421827306814195e-02
4.868212997450703516e-02
2.840691326756210333e-02
4.004680645110856446e-02
5.345661197717708341e-02
3.440639324481026967e-02
-4.131470318876506731e-02
-1.887683305739260020e-01
-2.702110618547396426e-01
-1.064615726902171516e-01
1.351858705520445902e-01
1.916047145850190703e-01
1.641290660954548286e-01
1.919635526814294502e-01
1.897364561138675243e-01
1.337390445812046136e-01
8.784256748853062902e-02
6.099970732333260398e-02
6.475061412419756690e-02
9.588581500430148896e-02
1.190697192779818642e-01
1.510895731922591301e-01
1.843636587200815913e-01
1.684267619519951575e-01
1.472290091607469376e-01
1.127706019653029190e-01
-4.346987376226707500e-02
-2.192856617774351369e-01
-2.609339505117848068e-01
-2.852225069119389556e-01
-3.841777261162378498e-01
-4.724440957122496565e-01
-5.261986140970471570e-01
-5.489403286913032698e-01
-4.980424009336561486e-01
-3.972408733084022425e-01
-2.960904828513994391e-01
-1.809896050459477990e-01
-4.900009279005354546e-02
6.262192292110201064e-02
1.526600692353387301e-01
2.155372933154077464e-01
2.040885633639110130e-01
1.905042252592314966e-01
2.925219014957053942e-01
3.864632257347337396e-01
3.312920887136076020e-01
2.505475053065200353e-01
2.418626896383367642e-01
2.412784033028498865e-01
2.275474049836374857e-01
2.319977076698308549e-01
2.705517794218973981e-01
3.337165124146986850e-01
3.714305315557823728e-01
3.449591697893880649e-01
2.668908847363266057e-01
1.596663122380982125e-01
4.100994793070875111e-02
-6.104326741024398983e-02
-1.331211753985880875e-01
-1.876705587903072237e-01
-2.397013305423993934e-01
-2.928314767582625433e-01
-3.243936872268085025e-01
-3.110035775745388920e-01
-2.770037601683723039e-01
-2.525926143187480211e-01
-2.280468802030128916e-01
-1.984691316703173780e-01
-1.865197003921648944e-01
-2.098518222520485144e-01
-2.401763572703409788e-01
-2.101107636631710796e-01
-1.209613151994850255e-01
-6.786111685285779738e-02
-7.557626126908317810e-02
-4.223716455173641415e-02
6.748153121543250255e-02
1.417196280771899630e-01
1.302869639800923185e-01
9.275265409067950939e-02
4.224535846623298646e-02
4.267565938374100198e-02
1.780357332643159318e-01
2.713239131184626007e-01
1.596571381799030964e-01
2.252949168410007391e-02
3.947688713262217930e-03
2.993574539145263391e-02
6.903316490831928887e-02
1.247381782148882789e-01
1.598307507570267960e-01
1.743205732565176191e-01
1.838366106535312683e-01
1.838058531502042570e-01
1.724171324792393989e-01
1.226213352883978314e-01
1.473612180242763608e-02
-8.281671093879536261e-02
-1.133071894921965500e-01
-1.347762429208541335e-01
-1.832131104752056094e-01
-2.008845277604401069e-01
-1.769914392733632214e-01
-1.593744153589353452e-01
-1.406627885709361148e-01
-9.336835393234531322e-02
-3.394987890291868704e-02
1.129362514400310269e-02
3.262359149232716554e-02
5.704390413055896586e-02
1.054036688618315842e-01
1.033189586790304315e-01
-5.283333643806668867e-04
-9.464708258782063288e-02
-8.694461945496488597e-02
-4.322582153928301862e-02
-1.659653290247688900e-02
1.462219236040406857e-02
2.840814701767619549e-02
3.641647972259723712e-03
9.943422913449231557e-03
8.242308078322789500e-02
1.179952871876730897e-01
3.390289999941266397e-02
-9.479172045238427879e-02
-1.710851606297595362e-01
-2.047076744298910733e-01
-2.037583641398568179e-01
-1.086322853675979472e-01
6.689885598387826371e-02
1.982144632709985366e-01
2.334213938237783836e-01
2.435128926996606991e-01
2.468673379634755971e-01
1.884482701016095829e-01
9.143000898741879268e-02
3.163877098870419152e-02
1.500554682238661175e-02
-5.154387684654100632e-03
-5.494364807316526322e-02
-1.145463145063389532e-01
-1.476283776234275924e-01
-1.504190356552968233e-01
-1.409068220086297507e-01
-1.016770640700731393e-01
3.956970040751146139e-03
1.290944395219109642e-01
1.619440699636129355e-01
9.423458539305912263e-02
2.799272108572978257e-02
6.319671925462502435e-03
-2.289293185314258267e-02
-8.929852813504668418e-02
-1.446290185260108996e-01
-1.397715356127008646e-01
-9.251929552063349604e-02
-5.156245184892311456e-02
-5.013149999488337311e-02
-8.124467176819168135e-02
-9.154015009757646149e-02
-6.193092247280764656e-02
-4.087924565101345997e-02
-2.696767811248344110e-02
3.596086938742468209e-02
1.218661372287072886e-01
1.681311120570198048e-01
1.884857742881109743e-01
1.916763036625242222e-01
1.399814219438738627e-01
5.065130787281717922e-02
-4.582897691303190746e-03
-1.462160385769326748e-03
5.038124433104897160e-03
-4.161908930579345800e-02
-1.109787174161027401e-01
-1.335462531819442966e-01
-1.132249062846871768e-01
-7.773586109070931838e-02
-6.494438869624015107e-04
8.993429269117951541e-02
1.005004681520446225e-01
5.094469261004272442e-02
3.735573392991033831e-02
2.093976568130649987e-02
-9.302838029235108164e-02
-1.796401165367599306e-01
-5.470739544129484683e-02
1.233628186484966166e-01
1.109829726844489550e-01
1.034060469565110246e-02
-1.960134998990219202e-02
-2.571933233453664244e-02
-4.434471302169484125e-02
-5.509778193735063306e-02
-9.110059479202428645e-02
-1.703938774180074611e-01
-1.823630346299863481e-01
-2.708505827467350136e-02
1.232998336841234499e-01
7.858266303279332066e-02
7.053174355066121198e-03
8.475830357736692522e-02
1.828351193793480989e-01
1.876320822435283975e-01
1.539987378632900750e-01
1.211885918673555607e-01
8.607487486450690617e-02
7.111670900426472763e-02
8.324478943180854684e-02
9.167163538427383629e-02
8.237797053039960793e-02
6.112962486734641043e-02
3.737074856707389009e-02
3.724004889519753198e-02
6.448130850299987893e-02
8.005644876567880042e-02
5.996402548938654237e-02
1.888270452580354669e-02
-2.725361126805347228e-02
-8.946471611598968976e-02
-1.761270787535611504e-01
-2.580462013568630697e-01
-3.111815857109704320e-01
-3.531907765548974454e-01
-4.138503561165782219e-01
-4.941359731650369347e-01
-5.239307098849554922e-01
-4.335032076731074047e-01
-2.982324497817632203e-01
-2.265315374212003574e-01
-1.860745006741222896e-01
-1.189395289377630227e-01
8.653706333345279056e-04
1.981173772914883169e-01
3.706697664042621354e-01
4.049058231652664097e-01
3.791637237022655316e-01
3.861555137964470252e-01
4.173226368144762888e-01
4.451318459721723131e-01
4.328868954327458884e-01
3.958499241244473055e-01
3.942279570771376473e-01
4.030498471694650697e-01
3.635676642050581497e-01
2.988308319308342620e-01
2.298680612712300231e-01
1.096514726362220471e-01
-5.115225966058856155e-02
-1.545384255993459410e-01
-1.635872466444246998e-01
-1.216163884135293971e-01
-7.534153116844292952e-02
-9.123553603427798919e-02
-2.138118015561354390e-01
-3.753320202068064493e-01
-4.747004068251864384e-01
-4.889326077000323290e-01
-4.379471581315638740e-01
-3.440695576515906406e-01
-2.467197883840676897e-01
-1.710614856142865237e-01
-1.005127746611665790e-01
-3.642137875235471056e-02
-1.562374488943632511e-02
-2.745382963456687031e-02
-2.613977382104248903e-02
-1.872276177526828456e-02
-2.495513415420697045e-02
-2.447711559311963742e-02
-1.265214883775436089e-02
-7.625475856412294862e-03
6.791228354184171423e-03
5.692139990409181977e-02
1.225828797559519179e-01
1.754910299172558474e-01
2.234509944283880056e-01
2.613715576952470032e-01
2.710689749555906247e-01
2.745306007063270104e-01
2.681496683984504470e-01
1.931489186784603740e-01
6.424346951503363823e-02
-2.865741746026299885e-02
-5.072243175249335767e-02
-2.075705656548287176e-02
2.494514713134080713e-02
3.479988326772245899e-02
5.886589652285237340e-03
-2.585369407293078292e-02
-4.973880380710624799e-02
-5.178584682211692658e-02
-2.900797783864073401e-02
-2.829164502693897257e-02
-6.306431904161130531e-02
-7.895085592217546133e-02
-5.658967777446179820e-02
-4.386188069711274146e-02
-6.347392432709721144e-02
-7.645448282837219445e-02
-6.067489661550336255e-02
-3.763612742934388522e-02
-1.455734324952018960e-02
-3.526513395563358327e-03
-3.906493062301513719e-02
-9.062799918794096909e-02
-8.956275067677876844e-02
-5.367188408551866463e-02
-4.436405284024145385e-02
-6.338819110064870810e-02
-8.015785579672914107e-02
-1.042396825031769447e-01
-1.456717087107265995e-01
-9.807582515704492410e-02
1.080915451691156631e-01
2.704443713416893047e-01
2.422218453951013317e-01
2.050907453568792393e-01
2.493779722459954218e-01
2.375240049947889842e-01
1.600898679633361854e-01
1.002483374607534838e-01
3.101588638474345877e-02
-7.559767449383499038e-02
-1.571005623414870045e-01
-1.618440766066885361e-01
-1.228031483503668475e-01
-1.014207298471490326e-01
-1.014437199537202294e-01
-8.518730337096108718e-02
-6.103172335068265952e-02
-6.098690172127117087e-02
-5.838237308050580471e-02
-4.456546985665719995e-02
-7.675051992977890980e-02
-1.241041072370259180e-01
-8.927077737181679518e-02
-1.336051813613827605e-02
1.270970511899688696e-02
3.671475167385560706e-02
1.191429841222994279e-01
2.012740879744394085e-01
2.081517370637167297e-01
1.268082154040066356e-01
2.235984734594383475e-03
-7.337811653804292289e-02
-4.774173668502211532e-02
4.047589318645487821e-02
1.326874062423645806e-01
1.617759918729461399e-01
8.831730808375459763e-02
7.939658575809971364e-03
-3.662690020066819430e-04
1.538500253897583797e-02
5.302400200502249000e-02
7.741804447765786301e-02
-7.412920774250532537e-03
-9.435031844297846193e-02
-6.679779344416150733e-02
-6.087058432062206897e-02
-1.534173632620867700e-01
-2.196500333952299822e-01
-1.977010697448817189e-01
-1.361674535353120941e-01
-7.998010363940818990e-02
-7.086200808006537510e-02
-1.008040012147027598e-01
-8.714163849852762933e-02
-1.610463189235774098e-02
4.248882182951489034e-02
8.713997693332807548e-02
1.547648144068066722e-01
2.137168591115476413e-01
2.216630080740736031e-01
1.795754442316694344e-01
1.091128755207481371e-01
7.012145853584310362e-02
1.047016170153622222e-01
1.013387966044132227e-01
-5.105241490517906100e-02
-1.955272491159061876e-01
-1.630668869419815148e-01
-8.288251090834738988e-02
-8.652999042397685470e-02
-9.842613914203157677e-02
-7.181764235798490659e-02
-5.126136498582457846e-02
-4.742257736623218395e-02
-3.479794325764459101e-02
1.975071832963466029e-02
1.070729406755834556e-01
1.484851704990822474e-01
1.218662561848846831e-01
9.045174603365724320e-02
5.350372067325024489e-02
-1.507496910495285600e-02
-4.959172314049692387e-02
-2.937162518705415531e-02
-4.805218040280818947e-02
-1.275619828760996277e-01
-1.846996912895758070e-01
-1.737625163573793541e-01
-1.001141981311855778e-01
1.430676923535299794e-02
1.190577658978150682e-01
1.738172384920439462e-01
1.656292194925726435e-01
1.006755301921449658e-01
4.083837394584186042e-02
2.091826601357509724e-02
-2.679120490091423112e-02
-1.013465601674296557e-01
-1.067338518909801692e-01
-5.302701113460101673e-02
-2.458256675479291234e-04
5.340829046520861878e-02
6.868457462069489650e-02
1.966479733405691183e-02
-8.035672743485669511e-03
1.212658904172094973e-02
-1.071891231452343565e-03
-5.106292278668869006e-02
-7.382695351808554740e-02
-5.958751234330997987e-02
-7.800164894485400735e-03
8.590083488163396952e-02
1.660792923658361286e-01
1.870236066812975273e-01
1.891567934926477457e-01
2.187054353400810780e-01
2.447241402009575906e-01
2.270034193019525859e-01
2.023205236567532372e-01
1.997128977672995853e-01
1.592108130124973986e-01
4.339948297665154053e-02
-9.568520679100370185e-02
-2.259643365611200272e-01
-3.678794979544417476e-01
-5.058791221016755157e-01
-6.023175563732232618e-01
-6.451536211901494067e-01
-6.106925220928512976e-01
-4.986646066841603497e-01
-3.695302998890637181e-01
-2.460454757241757606e-01
-1.093519464193459662e-01
5.311261854282003925e-03
7.603105703231875789e-02
1.587159600742151511e-01
2.601224191571065436e-01
3.049162229104844801e-01
2.852272998510737567e-01
2.787460891859714351e-01
3.055598326124873698e-01
3.098008184220851780e-01
2.818697526460593461e-01
2.737873638465577741e-01
2.994811384553406342e-01
3.289669814823386051e-01
3.536183133862980665e-01
3.679043312206520810e-01
3.484663951019852934e-01
2.906963429044929770e-01
1.923921359595868186e-01
4.910781802004664243e-02
-8.528583839640097031e-02
-1.410033625589023898e-01
-1.280899390301879215e-01
-7.942322509536972608e-02
-8.426245677196492201e-03
-2.061325318346302060e-02
-2.032802622720869812e-01
-3.898251500417236337e-01
-4.080292327866010260e-01
-3.626992587360748366e-01
-3.708164739970419843e-01
-3.834712986427515902e-01
-3.601887941326796239e-01
-3.307281401411607535e-01
-3.134628504224102885e-01
-2.734769140962181044e-01
-1.804812666908032492e-01
-6.954812090473255770e-02
2.736873629459017632e-02
1.224160529368314848e-01
2.120993417699748307e-01
2.757513898818481080e-01
3.041061621454664299e-01
2.935276243190784173e-01
2.522863974412930532e-01
1.907251677852735972e-01
1.180395894948532420e-01
6.489650576870242826e-02
4.643523321267776366e-02
4.358194061115240603e-02
4.700597667396227974e-02
4.723827653281394146e-02
3.769319987118731341e-02
3.862316144472788954e-02
4.994090472941793701e-02
7.865128920451114336e-02
1.540252705007557898e-01
1.690616435740382173e-01
1.081215334724959856e-02
-1.230473016195579999e-01
-5.468968510614671125e-02
7.459759875602448020e-04
-1.049841443622429454e-01
-1.802074318332858305e-01
-1.292346260270456348e-01
-7.086697996400979915e-02
-5.666887784128588068e-02
-5.278025893049023004e-02
-4.429498968981810531e-02
-2.564149950271890285e-02
8.243908528222654297e-04
2.777606553068393686e-02
5.301400708146621760e-02
6.470751355687744122e-02
6.017717878319223807e-02
4.501321240821674896e-02
1.549567546486305819e-02
-1.654281678607607241e-03
1.124377475486413279e-02
3.829851466144535300e-03
-3.506740828691307793e-02
-4.240242414408768035e-02
-8.717365663328544359e-03
3.667249154144206109e-03
-3.975497429544345290e-02
-8.431783393714233077e-02
-5.040792847033903623e-02
2.738513045418674782e-02
3.884388423414673885e-02
-2.531676886161256940e-02
-8.580165776177393899e-02
-1.087910067281063070e-01
-9.594972138591813249e-02
-2.863974461684524672e-02
6.485926486939749824e-02
1.006177173942561509e-01
8.316433569997658259e-02
9.617524774487147543e-02
1.346675101570554978e-01
1.272508704526413015e-01
6.213531133400727186e-02
-2.898125427163326939e-02
-1.221511758876525633e-01
-1.885828330458212965e-01
-1.987397212254569390e-01
-1.667089367868326011e-01
-1.370571200656904853e-01
-1.036743214137242491e-01
-1.528372314168739005e-02
1.063877570262385247e-01
1.593330090883775807e-01
1.619503867982839129e-01
2.475589690143013000e-01
3.351161912340099858e-01
2.360422421197571063e-01
7.875132820195868133e-02
7.322551352989720153e-02
1.108310353706472573e-01
4.047773106716365948e-02
-4.912149822032875479e-02
-6.477525005613943287e-02
-7.070365463274688733e-02
-1.187721801413697820e-01
-1.781879152031312641e-01
-2.289013846905817162e-01
-2.521551022207182413e-01
-2.003969409199483354e-01
-8.273932074172435369e-02
6.050287106440867951e-03
1.731676668433636268e-02
9.714260311262372383e-03
1.837078207165654398e-02
1.144582712438403649e-02
6.581351162223414430e-04
2.402827420681744389e-02
5.040897514657509404e-02
3.607227889156690986e-02
1.515552285827559756e-02
3.793917568960501752e-02
7.390966220994023284e-02
6.474661553833323258e-02
2.722929717275127809e-02
1.169592230711189590e-02
1.016771645897488613e-02
-1.267354165471617014e-02
-6.030967764566613765e-02
-1.138100189538394369e-01
-1.278404672364887584e-01
-6.127779162845083810e-02
3.828640873572464187e-02
9.994439274250135896e-02
1.376944346676600428e-01
1.605202624047575577e-01
1.297560579542614834e-01
7.504579194828127353e-02
6.036770976098245617e-02
6.727004052475893392e-02
5.010574824815519634e-02
1.142821859631918541e-02
-3.283237944383732287e-02
-7.270343452612228197e-02
-9.606159420253040926e-02
-1.082242447095957960e-01
-1.187312494104204447e-01
-1.136075576777999530e-01
-9.227179730208842634e-02
-8.640539636662533662e-02
-1.038979399877664189e-01
-1.088155966698850646e-01
-6.927298105583450105e-02
5.694065020636029234e-03
7.945596769187132646e-02
1.294714835876926151e-01
1.519500299713441582e-01
1.331149422265292537e-01
6.183889376187930165e-02
-2.198994142758771073e-02
-3.988573051781701961e-02
2.859032612137494406e-03
-7.897967278823386783e-03
-8.639857058556131564e-02
-1.054821070071219058e-01
-4.943691669176210335e-02
-1.142767925060295814e-02
2.679863236368898796e-02
1.032059066220860077e-01
1.434569783253998310e-01
1.360456563013746900e-01
1.449637998162304764e-01
1.027389592460229428e-01
-3.761747683387016428e-02
-1.379266600586826486e-01
-1.454166982888348003e-01
-1.098141704413528735e-01
4.860868559376204170e-03
1.371581834637801145e-01
1.562812671058690372e-01
1.285363684475353263e-01
1.478477613712838867e-01
1.528073538721236024e-01
1.126724855222322880e-01
8.882155284613163504e-02
9.306894935316950557e-02
9.693627151894038119e-02
9.303783863486492223e-02
4.856800251212536196e-02
-6.225926012608316851e-02
-1.856585056990569804e-01
-2.712473349044961513e-01
-3.394856733915179170e-01
-4.083503750862637616e-01
-4.541717927405309885e-01
-4.510542359220776620e-01
-3.894126163215301251e-01
-2.747594959971131345e-01
-1.798396168930851413e-01
-1.885941359183118671e-01
-1.764967069836029245e-01
7.563680752738125013e-03
1.656002699798380662e-01
1.140029406004010315e-01
5.369703793543519760e-02
1.230588493760351454e-01
1.994259884177408959e-01
2.407978760175329969e-01
3.011168415795877351e-01
3.707693082007695318e-01
4.273804651857588399e-01
4.640975452571173832e-01
4.631153720647861460e-01
4.243496129363917291e-01
3.534033450478344385e-01
2.456323589608012670e-01
1.391029573627605154e-01
8.315944739231435900e-02
5.101123274936260332e-02
-1.258881262079716845e-02
-1.069854324679173074e-01
-1.912180719420523700e-01
-2.336715622858115959e-01
-2.345302376340498984e-01
-2.090127093876128495e-01
-1.665678127226102589e-01
-1.303174503898539005e-01
-1.375288542513418144e-01
-1.910457985703302164e-01
-2.504956353490104259e-01
-2.789229657776975402e-01
-2.654195504521981164e-01
-2.183113849320125199e-01
-1.525443919064355947e-01
-8.414600524250315239e-02
-4.887126991016180200e-02
-6.858061496178342875e-02
-9.704483376674878647e-02
-7.135098325198914460e-02
8.956085163644822433e-03
4.924087195150441548e-02
-1.961089493821702862e-02
-6.051372130311834935e-02
3.890899836773430154e-02
1.131723036562417017e-01
5.791305794469300827e-02
2.510770464159366167e-02
9.179681419342687609e-02
1.600927658279026888e-01
1.902541952120631319e-01
2.453601892797041550e-01
3.250469121819407059e-01
3.420515559233975322e-01
2.744722677028536562e-01
1.754151063432751734e-01
6.723846352951562411e-02
-3.436937317392073366e-02
-9.257115535109239346e-02
-1.077437853140998381e-01
-1.162004095161590922e-01
-1.388711418536871245e-01
-1.574757134347306575e-01
-1.424417512675433539e-01
-1.078340510988996664e-01
-8.245330642377027286e-02
-4.400325630030758883e-02
1.993473518574730846e-02
4.972155641601540971e-02
2.298892641219801164e-02
4.592931312317513615e-03
9.303135723522775249e-03
-2.014297004918925993e-02
-8.294874871122885629e-02
-1.082468221669061759e-01
-6.552445895250599839e-02
-1.153503151485506251e-02
4.516835762467712526e-03
3.983905868529709349e-04
4.412854739683360478e-03
4.276297387424279201e-02
7.865111463575392980e-02
1.840638683133467499e-02
-6.105131398141131621e-02
-1.827941797504297958e-02
6.077491326185573833e-02
6.560393062645851481e-02
4.813667492676233783e-02
5.179358490502576629e-02
6.487028061281192859e-02
6.461049500433607706e-02
2.621679019764212165e-02
-1.249598840070559151e-02
-1.074275983413415514e-02
-2.027088421288388703e-02
-6.903099088622210999e-02
-9.313413979552434552e-02
-6.224789825202909493e-02
-2.435131653558430392e-02
-2.265870537730531320e-02
-5.153362655969560835e-02
-9.317335307902102626e-02
-1.305036972612917956e-01
-1.200375701602137829e-01
-5.896580500988284762e-02
-1.112513440608951278e-02
1.764441107773836309e-02
6.654415910878520857e-02
1.372090208471163919e-01
2.336946808932156561e-01
2.791957416075344089e-01
1.492219415421830453e-01
-3.637019111852343028e-02
-7.403420480101295664e-02
-2.929416646176322137e-02
-2.359948553209366764e-02
-2.706123516740735133e-02
-1.420796927543879762e-02
5.182084517706461030e-04
1.746676246907561542e-02
2.098626865436723637e-02
3.706631427231539370e-03
7.096273189263335203e-03
5.281698988637661268e-02
8.737720509720911521e-02
7.203350516104688184e-02
4.490785085816145772e-02
2.256351755415113639e-02
-3.875694528337560174e-02
-1.322637518745741758e-01
-1.821767317310171996e-01
-1.557441299371565280e-01
-9.976462272972065615e-02
-7.474428678167245599e-02
-9.619902567957776263e-02
-1.284598686188790917e-01
-1.241803997749743316e-01
-7.035850604040662370e-02
1.057243372371813664e-02
9.547764526192342727e-02
1.586128823141293442e-01
1.542476722859220106e-01
7.854784157554423052e-02
1.723319035311221201e-02
3.523266298738197966e-02
7.297787042115118361e-02
5.708861360865761375e-02
1.967962786554710089e-02
-4.054275610862452181e-03
-3.634775685305600273e-02
-2.765817861476417214e-02
7.783670179065581285e-02
1.558073995748417151e-01
9.946259453682518292e-02
1.675775615652982595e-02
-2.057461108600077554e-02
-7.632221706863623334e-02
-1.309436063649095094e-01
-1.214282504942234830e-01
-9.451900650654132541e-02
-8.047632005997992777e-02
-2.128654158833425541e-02
6.956740108043742155e-02
1.126906589324148666e-01
1.090073896948113574e-01
9.589644683903260358e-02
8.946802902716324835e-02
1.119616789068506313e-01
9.286688190935173115e-02
-5.654556369048795161e-02
-1.841011707340491355e-01
-1.467293342557786096e-01
-1.099435899116530668e-01
-1.685469120104919616e-01
-1.789141699885974379e-01
-1.084099994582518461e-01
-4.154441023671533173e-02
3.873313706960757052e-04
2.364987106710524437e-02
5.249306365159790017e-02
1.058331527656139331e-01
1.338818567892964828e-01
1.066799572428399068e-01
8.230330960963656850e-02
8.904591284463148071e-02
6.651551109139679230e-02
-4.348283740910664948e-03
-5.589684337245198753e-02
-6.247627864625502486e-02
-6.794894095847173188e-02
-9.530903282452071745e-02
-1.323336250650131163e-01
-1.261933510016931548e-01
-4.360144464922062479e-03
1.510952339763949326e-01
1.589975788262166234e-01
8.743744990262039551e-02
1.249694050260608535e-01
1.913534510465237370e-01
1.536274052468292739e-01
9.582230811418405991e-02
8.731214741050537242e-02
8.321314731853521329e-02
7.907364866858188068e-02
1.006862831304057015e-01
1.333165153150681626e-01
1.422323373976927541e-01
1.029405544849761323e-01
2.418398335311910258e-02
-6.410018352699779765e-02
-1.591426159572742749e-01
-2.784275603577885949e-01
-4.013887023604490456e-01
-4.827658726930887934e-01
-5.260191296232838987e-01
-5.478629288908930528e-01
-5.061490378474877705e-01
-3.770217546804465192e-01
-2.166289058465207251e-01
-7.981870970382239083e-02
2.501915970022711155e-02
1.083313530788875684e-01
1.908257745231461411e-01
2.818019569089040832e-01
3.480191420175874351e-01
3.537751329715861370e-01
3.173633778970504915e-01
2.791208505437807741e-01
2.580687468012524688e-01
2.592677380473298876e-01
2.630142029763559153e-01
2.357742151173294054e-01
1.911325445457737193e-01
1.687577555224631098e-01
1.569853428719220900e-01
1.330035227511046636e-01
1.242215183175078702e-01
1.540997187458133799e-01
2.036837648003678725e-01
1.883779841006219535e-01
1.279059856821179730e-02
-1.925901464428211862e-01
-2.042730525286292065e-01
-1.589008065317080165e-01
-2.901246199556044569e-01
-4.178064442512170462e-01
-3.394409187797577943e-01
-2.368495841126144197e-01
-2.636458196127383635e-01
-2.992687124983456348e-01
-2.422093584209064898e-01
-1.415634966004015172e-01
-6.818271318146867932e-02
-3.774786642753283350e-02
-3.145559871078834613e-02
-2.347812886608328931e-02
5.478645170199997194e-03
4.435788538602733477e-02
6.652624857891047128e-02
7.846890781031323758e-02
1.058755217121544467e-01
1.440640457513949757e-01
1.573054479548651186e-01
1.295141166545598077e-01
1.018708334980406860e-01
9.910311970070879994e-02
7.591477825085120312e-02
3.627890841218851109e-02
3.946490738818571320e-02
4.620844117668827800e-02
-6.141445304338199324e-03
-6.352719308376127139e-02
-7.155814632371838846e-02
-5.087190373500989626e-02
-5.192649300315335670e-03
6.959001941888381948e-02
1.299514668673508178e-01
1.452795339412845943e-01
1.459990279420222137e-01
1.637972821026180970e-01
1.686441961077072282e-01
1.017551666525852855e-01
-3.158516499472881905e-02
-1.471894585028080404e-01
-1.868515518852743584e-01
-1.831012247470134580e-01
-1.795405043956292690e-01
-1.673779838751678906e-01
-1.430728561986190361e-01
-1.199239521317893020e-01
-8.429262177360495600e-02
-3.562874374933565347e-02
7.087039128143700351e-03
5.739329773363587017e-02
1.122305796520442628e-01
1.285643698800005008e-01
1.130375771364856563e-01
9.118959540166457489e-02
3.013647272342835637e-02
-5.142215987042960540e-02
-6.873931792036373778e-02
-3.833352766094581809e-02
-2.584246072477993858e-02
-1.410801694398178784e-02
1.490044491024257543e-03
-2.189374039434443392e-02
-4.546389962277586766e-02
1.530799897876185950e-02
1.127752112584793354e-01
1.224726631044260605e-01
6.158149412691087121e-02
2.867858150386832367e-02
1.878101712550465235e-02
2.416307716140755554e-03
-3.019922094034076937e-03
-2.011055152595005516e-02
-7.032516570352512209e-02
-1.084270125532568324e-01
-9.061699486548810412e-02
-3.399386459513618897e-02
-1.154284047448956955e-02
-6.466505939878036680e-02
-1.316799383454956840e-01
-1.295718268310034338e-01
-5.083288456302453850e-02
3.744531314933061128e-02
6.546898824370489534e-02
3.478053589611496133e-02
-4.879795600156618118e-04
1.050293183008145503e-02
7.790685547267964250e-02
1.580239272230958558e-01
2.086770176009280497e-01
2.282416166495233600e-01
2.362103825145004110e-01
2.445920776360659410e-01
2.158399019550525655e-01
1.107364688517485929e-01
-1.787671227438517030e-02
-1.042410802149668497e-01
-1.639911424189570699e-01
-2.143889698291995549e-01
-2.294778607179422669e-01
-1.932307884428659805e-01
-1.261087388699269340e-01
-9.862368556457459801e-02
-1.461683352454668239e-01
-1.975774557715312130e-01
-2.140303503502134219e-01
-1.847357744128009516e-01
-5.331922856304020103e-02
1.011949877825848165e-01
1.364705433358580633e-01
1.055481353319604049e-01
1.003666327548292936e-01
7.806127580091265505e-02
2.231317641454404893e-02
1.039534634155890244e-02
5.658203549667460697e-02
7.364231879797011882e-02
2.284431313806957464e-02
-3.635734869304176053e-02
-5.391199385891649876e-02
-2.040268577034480557e-02
6.004640979687431851e-02
1.415546636097784750e-01
1.836610198164113361e-01
2.005901415414583500e-01
1.635358477498240204e-01
4.477505737276225167e-02
-5.231456316778529403e-02
-9.588146636535459233e-02
-1.794306958515883010e-01
-2.010101446359445210e-01
-6.052612351359245441e-02
2.646867392047031614e-02
-2.591816340393689189e-03
6.288450286204487483e-02
1.461188475500090900e-01
5.783050779052387180e-02
-5.702203885200857886e-02
-7.270090438950435607e-02
-1.039292366977392634e-01
-1.684164660219018284e-01
-1.625594149703667446e-01
-8.714168224195892321e-02
5.103703010421697592e-03
1.015323690070724094e-01
1.684625992193128363e-01
1.869176322028709425e-01
1.970600152052887910e-01
1.512903147741134768e-01
-2.254464182738307593e-02
-1.710645224836036538e-01
-1.336150922720267809e-01
-3.145734559271606834e-02
-2.340826686745336310e-02
-8.098925682419695626e-02
-1.222645212266609965e-01
-1.405393775073190410e-01
-1.318745625234376273e-01
-7.278433901571274012e-02
-3.150308214705532794e-02
-5.146908190608577571e-02
-4.674349452601012783e-02
1.028953297494568202e-02
8.854911198906809111e-02
1.907831023646112678e-01
2.580399850170209120e-01
2.382036149763268329e-01
1.869885627057285005e-01
1.398662195181056556e-01
8.639533853121558749e-02
5.827406560087212972e-02
7.878161630763239054e-02
1.065580595796268293e-01
9.006934859968521168e-02
3.583639706890506121e-02
9.054960308099574418e-03
3.973931072941072618e-02
6.615228769942996245e-02
3.943407090353032857e-02
-6.268977962073093296e-03
-5.736310303918640274e-02
-1.567459817467163063e-01
-2.921949664574846062e-01
-3.921622132130443972e-01
-4.275681902620155350e-01
-4.170182105840136710e-01
-3.789052814832996052e-01
-3.221264647574826889e-01
-2.493419363206069161e-01
-1.721994432405934694e-01
-1.113440054702593968e-01
-6.054612829378863692e-02
1.096124868843084688e-03
6.534432247129531857e-02
1.266331500148870637e-01
1.975440163169911167e-01
2.494869050706293445e-01
2.444968453672361208e-01
2.151776289614184545e-01
2.159523237320199740e-01
2.521500549941033120e-01
3.046412039680733708e-01
3.628753803284606727e-01
4.099259977306687897e-01
4.132278756063352265e-01
3.711054811762724004e-01
3.275126227001596835e-01
2.836241758419694725e-01
1.786531110723332538e-01
8.575026365103904924e-03
-1.398122521808800311e-01
-2.025860306966722479e-01
-2.041824903116307155e-01
-1.988615598390966188e-01
-2.161085091808482572e-01
-2.636499511003181917e-01
-3.296435988193846534e-01
-3.815546278058242757e-01
-3.755775907620017562e-01
-3.024873757454701884e-01
-2.226383019140157071e-01
-1.711800804597077286e-01
-1.068932585915508410e-01
-4.571704005651516800e-02
-6.602659164671162428e-02
-1.333690541962458398e-01
-1.330487556684230022e-01
-6.081325880448464061e-02
4.440023632508921514e-03
4.193776970863669074e-02
6.575346238748221162e-02
6.770978263697530197e-02
6.875768031674309166e-02
1.130920385955460628e-01
1.849945548200862266e-01
2.337967820452175327e-01
2.471872385470073319e-01
2.456691776723414489e-01
2.378502107424879386e-01
1.979431403432021508e-01
1.291889217431613501e-01
8.565101478559072889e-02
7.044862919109068367e-02
5.035234654159803647e-02
3.875959138018733596e-02
4.585290979541295497e-02
4.271976866613295953e-02
2.718708068458086657e-03
-6.662122970907428943e-02
-1.230222008716482934e-01
-1.391886990093067766e-01
-1.385745785116341278e-01
-1.648483819209160817e-01
-2.111478919962907486e-01
-2.062908865246278201e-01
-1.553647141115480357e-01
-1.449351976488586213e-01
-1.007564921029302507e-01
8.960883505408538674e-02
2.468887692562700686e-01
2.113277761529026577e-01
1.650399668554826671e-01
2.236019823427518871e-01
2.374751409079567388e-01
1.454186195941502835e-01
3.961905275838128321e-02
-5.444232581610988775e-02
-1.747574762211475952e-01
-3.039136454697677348e-01
-3.950015633521973824e-01
-4.461404444868975472e-01
-4.499340284182572480e-01
-3.441302123946304858e-01
-1.253240121140107577e-01
8.450615406869455004e-02
2.107881709239336487e-01
3.099839809020055181e-01
3.317940379930245931e-01
1.497252429879380453e-01
-5.935292256705404501e-02
-5.029890791433521552e-02
2.643994084305491266e-02
-2.078232570709315913e-02
-8.493114824924832829e-02
-7.727944324815580468e-02
-6.957387169364642743e-02
-1.022982946091434975e-01
-1.305374470832695311e-01
-1.034939905976013930e-01
-3.232102682793934478e-02
3.037226941094747779e-02
7.622472869839062859e-02
1.299295507597519606e-01
1.854027831858196806e-01
2.434571791631602866e-01
3.248445432695435398e-01
3.925330378145230337e-01
4.033978726545212057e-01
4.232654068126094349e-01
5.074857092529431180e-01
5.719425134972774272e-01
5.892808905651749640e-01
7.121285633777248991e-01
9.755119611905960220e-01
1.118600919623993439e+00
8.841991182133812632e-01
2.344941292807812827e-01
-6.618988633434659263e-01
-1.304017927017706358e+00
-1.166441757316389660e+00
-4.984098741831344270e-01
-1.786953332240893144e-01
-5.961650685773113301e-01
-1.288013942926124367e+00
-1.686183816951278835e+00
-1.556459671171744441e+00
-9.029650586530619805e-01
-2.026122353397204756e-01
-7.927550214296830156e-02
-3.631848886522265341e-01
-6.342116050909215597e-01
-1.017120569683888975e+00
-1.196113080840678355e+00
-4.653919465308711256e-01
6.394601298211803897e-01
1.051544790989649814e+00
8.216651723627482751e-01
3.176360019361245124e-01
-2.987233336554606655e-01
-5.064434042631151822e-01
-2.877597844524769632e-01
-6.058883291099012580e-02
6.163280269992598148e-01
1.663582022912337699e+00
1.686255531758590331e+00
7.211370703011352745e-01
3.457853061916727477e-01
7.992711687873859105e-01
1.322754093203795556e+00
1.649730424108277305e+00
1.593170037972792885e+00
1.233551314108483288e+00
1.013537392504991974e+00
7.507270742160950805e-01
6.320092279878952723e-03
-8.856960174669484820e-01
-1.386606583924329783e+00
-1.488693651174038735e+00
-1.170692928866481131e+00
-3.017451936697025383e-01
5.121206872781841613e-01
4.805986787666961524e-01
-2.816148938239973476e-02
-2.918262650520427881e-01
-5.139634084056531327e-01
-9.562611702590742002e-01
-1.161964771478467107e+00
-8.136207373648964847e-01
-3.336819191641029470e-01
-3.316416550419202802e-01
-7.829951853873103884e-01
-1.125311617599963787e+00
-1.139050485224328391e+00
-9.922609281979531959e-01
-6.461933608218046743e-01
-5.766036977247601669e-02
5.071282686658247219e-01
8.356332097486693922e-01
9.783976704257750789e-01
1.050843080964672716e+00
1.071379401744981807e+00
9.321225824069434562e-01
5.767291842554517212e-01
2.077372925554007155e-01
5.549011561909274193e-02
1.542019425259844034e-02
-1.008285704755162299e-01
-1.898101962793736497e-01
-1.560891431041822874e-01
-1.444241577166647250e-01
