1.005305639164945364e-02
1.058840819048293830e-01
8.314559821429629016e-02
9.800200162199590795e-03
-2.933419225971302044e-02
-7.161266463799575988e-02
-1.415185356951159101e-01
-1.926633347964279153e-01
-2.177473823584977208e-01
-2.455483689195319674e-01
-2.565581044525891419e-01
-2.070715744743973352e-01
-1.027126691761661020e-01
-1.092889727565071745e-02
8.147039464592761848e-03
-2.745421613227102403e-02
-7.548053125278106346e-02
-1.363167193365726615e-01
-1.927220688011101468e-01
-2.006046002312190657e-01
-1.610545090382056177e-01
-9.068599398589582972e-02
3.947030186131204876e-03
9.420639211597117701e-02
1.747648624183678057e-01
2.554623767457513406e-01
2.899006734201970970e-01
2.680929406581053498e-01
2.778736264901091046e-01
3.291843143089809853e-01
3.105896272572740702e-01
2.107455488980052027e-01
1.383016159574522730e-01
1.110368164569475596e-01
6.950711452489556630e-02
1.242101332314760054e-02
-4.221634808303589836e-02
-9.312501131418586542e-02
-1.318043524694501034e-01
-1.709299898744007784e-01
-2.188860727195286737e-01
-2.337519312735839572e-01
-1.934071001217266272e-01
-1.347214376953184689e-01
-6.606491143162125657e-02
2.297534576672538575e-02
6.471069658881425934e-02
4.044764091490148789e-02
5.791005649768288244e-02
6.944374820532386861e-02
-7.844693588547688168e-02
-2.363629917630439281e-01
-1.860999849592761823e-01
-5.046746468765003768e-02
1.016634699341718850e-02
4.137861534481938885e-02
7.244025282391809706e-02
7.211274092081450260e-02
5.498735558034371917e-02
4.077809254987958820e-02
3.118873200002791543e-02
3.738317355908646333e-02
5.224437293786948766e-02
4.937206920266589555e-02
2.300791505801521447e-02
-3.298763977405937999e-03
2.607401608709716823e-04
2.660002787147497730e-02
4.333702695311589248e-02
3.645429988512834812e-02
-5.880792926283168361e-03
-6.777922311539039124e-02
-8.387281785858735628e-02
-5.209442262623281694e-02
-4.438234782932416744e-02
-4.821704327295411180e-02
4.444386420568748920e-03
7.074385435689199697e-02
6.843573865141112933e-02
3.317998961520708667e-02
4.321728347100350226e-02
7.218669658420526214e-02
3.717322488104878725e-02
-4.383492361906122375e-02
-7.352421297119199339e-02
-3.822300314921303621e-02
8.709865211593503798e-03
5.952667331569846260e-02
1.026662903303594970e-01
8.913811079184480457e-02
2.760463372504655746e-02
-1.746358232047998463e-02
-2.828027199295637256e-02
-4.092015965359768054e-02
-6.570244318061593813e-02
-6.926829014182697697e-02
-4.541787921484657931e-02
-3.900131485180533680e-02
-7.492150559860745462e-02
-1.170841167386039716e-01
-9.758981236669120318e-02
-7.906484407683319476e-03
5.380781676870758506e-02
6.757731616985457324e-02
1.238474301221435953e-01
1.418885144385797770e-01
2.773694038604480883e-04
-1.435456590310880409e-01
-1.210124744019802495e-01
-2.562686008177339839e-02
2.062438215594027124e-02
3.596586263587979448e-02
4.455159713111013497e-02
9.943918322627526632e-03
-4.829969914588856661e-02
-5.259494663564607403e-02
-1.390326775197613281e-02
1.185351861875569290e-02
4.843275670099211894e-02
1.122832581613037034e-01
1.456479098338889222e-01
1.143098720560597470e-01
4.787727958983663962e-02
-1.095337468773994669e-02
-4.191673545316869365e-02
-5.615037570919119425e-02
-6.988063332739892497e-02
-7.536918830208369502e-02
-4.616832069338620143e-02
3.015754806555296513e-02
9.306108787215577882e-02
7.496145629676007061e-02
4.394932959887296042e-02
7.551207422885161669e-02
9.622374942577081869e-02
6.402113705240379538e-02
4.552625149844344299e-02
2.845417515194145763e-02
-3.920050090104848506e-02
-9.546336459852360068e-02
-9.262772022791929127e-02
-8.379486628812447824e-02
-7.052377328559933378e-02
-1.591940349396692156e-02
1.900167663029755927e-02
-2.449157272073559585e-02
-8.636465950941915604e-02
-1.129341350565662844e-01
-1.476881300206063508e-01
-2.179577986128451994e-01
-2.588139557409184777e-01
-2.306656335915790168e-01
-1.911003001896836584e-01
-1.329366650262292227e-01
1.522914857869550262e-02
1.512311886263500438e-01
1.524979054179593507e-01
1.445267674978991945e-01
2.374787045220284887e-01
3.296309889026671769e-01
3.354337221684272619e-01
2.706271661984303023e-01
1.783810050969684979e-01
1.177207615767600218e-01
9.692741310315464154e-02
7.071564531359184058e-02
3.472426427180441005e-02
4.982567792724226785e-03
-2.193748777713543791e-02
-4.209420451130366919e-02
-6.494911501736078119e-02
-1.120753421717814446e-01
-1.558941172905905781e-01
-1.576235007284829404e-01
-1.526145870580554731e-01
-1.653264465157466001e-01
-1.378828205795480655e-01
-7.615906981076236981e-02
-5.287079845283591817e-02
-3.520901027841631670e-02
2.612180260450988264e-02
6.096868611334378685e-02
3.455466376000491946e-02
2.358789089142172141e-02
4.818147984856054056e-02
4.522392792720927174e-02
4.124172214183961099e-03
-3.515905357800836600e-02
-4.820228631140393433e-02
-2.441622609429978247e-02
3.382786044787287200e-03
-1.677646753188300269e-02
-4.845156029850136714e-02
-3.682243131415394860e-02
-2.863002753354335073e-02
-4.617412079463714680e-02
-2.287530999663564893e-02
3.086371502273993137e-02
3.824738343166102228e-02
1.297871522418516180e-02
1.371539659276358727e-03
-1.428307109657087071e-02
-3.332212330068047568e-02
1.167005573474270280e-02
1.434895396021484415e-01
2.556570785767843246e-01
2.383455033489325636e-01
1.404917773399387004e-01
7.869025173334999457e-02
7.528209726072787600e-02
9.238846752865612078e-02
9.595349932920729796e-02
4.814563978084880624e-02
-3.339482339633438601e-02
-6.519564855074443110e-02
-6.159795035876423908e-02
-1.330926963478016034e-01
-2.559202125622169754e-01
-2.995781553769035210e-01
-2.458164201945065575e-01
-1.689029195395862770e-01
-9.915272196802933646e-02
6.952019338876749832e-04
1.145741838224109688e-01
7.842724477204468525e-02
-1.309439331585769972e-01
-2.080985703428610278e-01
-3.907924769524311753e-02
1.059046588200305006e-01
1.450634578086331949e-01
2.012551314389053880e-01
1.808341584733996199e-01
-3.020008769721131692e-03
-1.296240701597776990e-01
-1.950341492765463730e-02
1.354645606185025941e-01
1.170580526770642615e-01
2.844221732614768405e-02
1.279954173525944469e-02
2.520512749478997019e-02
1.070611552446569525e-02
-2.948699074843503382e-02
-8.666155517482018733e-02
-1.213165773420945559e-01
-1.090658332421790833e-01
-7.466426339998752382e-02
-3.057968520643401800e-02
3.652596362511275480e-02
1.240338102842933471e-01
1.870646889356608056e-01
1.876409423438176460e-01
1.679393343087672574e-01
1.703413629024879139e-01
1.594642103104524922e-01
1.196035976576056564e-01
9.244902340030738963e-02
9.027691159460959902e-02
7.083998486455392318e-02
9.075416226505109152e-03
-6.298790467653343772e-02
-1.325441663968445205e-01
-2.187626350619340521e-01
-2.731091230870704711e-01
-2.469596634014244452e-01
-2.181002325785812435e-01
-2.425683966829377258e-01
-2.374508474986424256e-01
-1.664372309599940758e-01
-7.988430665606233161e-02
1.645049476490920148e-02
7.719743455897871975e-02
1.984245205709049553e-02
-9.866214118901214802e-02
-1.743026747252191533e-01
-2.050804661071952972e-01
-1.732165716111495890e-01
-3.040751263362639900e-02
1.023177304222286921e-01
8.051207539382315703e-02
6.605485617911860396e-02
2.271120919859611065e-01
3.779686170721541782e-01
3.701339317053298772e-01
3.384632678126142658e-01
3.563228840641305406e-01
3.413964696141814636e-01
2.667907563292558626e-01
1.729860362978011545e-01
8.336520007517136954e-02
1.069256492408085513e-02
-4.236362109747637827e-02
-9.192637661632832580e-02
-1.487339950048458537e-01
-2.122536755376796536e-01
-2.646937909508220166e-01
-2.770295052135328673e-01
-2.614662152906725434e-01
-2.491460340423276021e-01
-2.137118982207704687e-01
-1.319494915639692623e-01
-5.413443264829068818e-02
-7.528560174368426061e-03
4.330313047742662819e-02
9.878815468612470174e-02
1.158082127430418301e-01
8.382860414516732361e-02
4.534820017195678038e-02
4.807421801176613163e-02
7.708843496289560782e-02
6.958708425957998989e-02
4.009688325741335435e-02
6.494944984825114231e-02
6.258600449599974191e-02
-9.248196630403089646e-02
-2.269523099167426172e-01
-1.467751892340616038e-01
-1.803410858470513856e-02
-1.326285905212936170e-02
-4.794224815182281108e-02
-5.118348062150333833e-02
-5.497182435081510166e-02
-4.783065683955082387e-02
1.179886370438372641e-02
9.540720930803096855e-02
1.341020373677669630e-01
1.305725079809309241e-01
1.357926044209543104e-01
1.253715939645924649e-01
4.903114399172573551e-02
-3.599490454461130168e-02
-5.303982934352940298e-02
-3.119135153561241464e-02
-1.693430952851326249e-02
-3.893476905920713327e-03
1.216039041345706034e-02
2.388912550466574039e-02
2.941086422301363718e-02
2.699363563240186198e-02
2.423685457362860507e-02
2.596433963743842444e-02
2.502608073633602950e-02
2.180535098745121220e-02
1.350130991957907561e-02
-5.623491045944232353e-03
-1.580415877908186023e-02
2.156397140426889736e-03
2.697069782097875554e-02
1.765025508271027624e-02
-5.980731237486219820e-02
-1.888885354726032584e-01
-2.311537483449336572e-01
-9.687630848012934726e-02
2.795285456271407593e-02
-2.688514583975343264e-03
-2.684086777292579024e-02
3.894849975588658697e-02
6.982935520634221682e-02
4.408036973601188457e-02
1.962950990387436409e-02
7.234849918480333250e-04
-4.859137840852035921e-03
1.537622929992274803e-03
-8.527264739217117751e-03
-3.633891859876312025e-02
-4.432824523621529261e-02
-1.942255147514359605e-03
4.197860751159056963e-02
3.343753645634962163e-02
4.556927716132269657e-02
1.116775747433268740e-01
1.105552638991174896e-01
2.591397486941965714e-02
-3.375606692717757207e-02
-7.655640347608733132e-02
-1.194703510274059410e-01
-8.961575808956107059e-02
-1.590914123082973544e-02
2.562554183978655448e-02
6.446679972257635116e-02
1.095830233881821547e-01
1.314071831210644747e-01
1.710665642845441425e-01
2.182889202404680873e-01
1.650059715961104956e-01
2.671095511078624973e-02
-5.392324520070991556e-02
-4.763965673132781325e-02
-4.551259968157874564e-02
-8.634767818758795621e-02
-1.346098973472255600e-01
-1.648464021853121297e-01
-1.799256060137079116e-01
-1.699225861430694040e-01
-1.138830185829294156e-01
-3.582779320380006377e-02
1.096823945836165187e-02
1.383408291049936789e-02
-2.114074827316749644e-02
-7.870657583705434335e-02
-1.048210840543495753e-01
-9.089517482487015354e-02
-8.851369083165987195e-02
-8.521108787118893135e-02
-3.198583708054569819e-02
4.154934943299910810e-02
6.433309149745794486e-02
3.020160521637619763e-02
1.798022405245301020e-02
6.465437464492704289e-02
9.579333871194377348e-02
1.289585457190377538e-01
2.638942327708224678e-01
3.634977990394298586e-01
2.591880216683395410e-01
1.163029741275857093e-01
1.001875500167173777e-01
1.104173963762064559e-01
5.957303887258702524e-02
-1.619501720190414523e-02
-7.556780750301583804e-02
-1.006233260770197646e-01
-1.175173607424069844e-01
-1.644941258000814921e-01
-1.993704898418190985e-01
-1.707184535398045822e-01
-1.262689646562903389e-01
-1.103163968653290555e-01
-8.997872459750101692e-02
-5.829259795310411801e-02
-3.891504692815334066e-02
-1.319636250525500765e-02
2.226664837928871155e-02
2.936591152594219406e-02
2.108911661527582138e-02
4.341753724831334815e-02
7.785924035244257135e-02
8.698897545926931318e-02
7.325615670369281518e-02
3.223829329069052146e-02
-2.956695337555840727e-02
-5.836797640797472542e-02
-3.768635989535611130e-02
-2.642860842093682286e-02
-4.042464056412382184e-02
-1.320431581065861087e-02
5.157518298207937335e-02
6.162463129907015669e-02
1.511254597989764546e-02
-1.335313479746079446e-02
-1.310734528543346621e-02
-1.171732873072943090e-02
-2.466509722616886877e-02
-4.372648583300415420e-02
-3.121389853017844662e-02
5.397424461943709471e-03
2.387840395567539589e-02
4.525458617693738084e-02
8.471723526644235613e-02
8.126743821510939991e-02
2.075239186892807383e-02
-2.508028389234347177e-02
-3.544516565058365709e-02
-4.680840529524336185e-02
-3.099063784980933892e-02
4.100588890800515446e-02
8.238921896443700266e-02
4.352377907891324255e-02
2.260426831621756283e-02
5.962221225521174839e-02
7.148269736396080376e-02
4.500261774747892074e-02
2.552436586640973934e-02
9.274895858233222351e-04
-3.301844578418831888e-02
-6.048084144335313939e-02
-1.032489751457241062e-01
-1.451702115297463791e-01
-1.123933709148508542e-01
1.856516347581218911e-03
1.106761698386042048e-01
1.348263929930831329e-01
6.164899241778681871e-02
-7.341978071198661249e-02
-2.187374758601292601e-01
-3.114176914247872574e-01
-2.855984524417818360e-01
-1.449895432318109301e-01
1.216958463534241128e-02
1.265055957781957008e-01
2.221658427177841122e-01
2.736644055819174581e-01
2.505472986953157788e-01
2.321691366176746874e-01
2.146425691489202980e-01
6.427038827607606253e-02
-1.520928273217080073e-01
-2.329059576561011147e-01
-2.008788016986157166e-01
-1.540816511734561245e-01
-6.377138575176943824e-02
3.472990580457829130e-02
5.054931928257450080e-02
2.161127181227314245e-02
1.972266180477257741e-02
3.622832479083859525e-02
4.058738502793184100e-02
1.451746801406698581e-02
-2.438836102978866535e-02
-1.434745915056172966e-02
5.318242519957477876e-02
1.145220508515044644e-01
1.452877490042223663e-01
1.685896552338049803e-01
1.860761549409234716e-01
1.716872131113534317e-01
9.679432181497654719e-02
-1.925453896213943222e-02
-1.128396734473507412e-01
-1.667925576664495146e-01
-1.719555443560683572e-01
-8.371622938730201302e-02
-3.564061822849610810e-03
-9.311933105263381361e-02
-2.153987809789917329e-01
-1.706083238871418106e-01
-9.665328792366315036e-02
-1.403425113957721404e-01
-1.938464286706319817e-01
-2.000028917343685264e-01
-2.199208174385889059e-01
-2.207269100090912817e-01
-1.399343492107592013e-01
-2.845830751296959255e-02
5.374220405903274572e-02
1.360485859767627259e-01
2.346795455575205469e-01
3.006454167420922752e-01
3.158237767838033005e-01
3.080771876293037503e-01
2.784697017288982890e-01
2.297122141519384042e-01
2.050488094050043619e-01
2.039649826283188583e-01
1.621884656435743643e-01
6.936362067945067711e-02
-4.369410860207249836e-03
-2.198264751914917603e-02
-2.870447912584669914e-02
-7.367096404037565271e-02
-1.528580121070987063e-01
-2.263036741541236130e-01
-2.533477361565730779e-01
-2.363750800376320793e-01
-2.116307018885287827e-01
-1.806580525183477115e-01
-1.182143505116064475e-01
-4.130978216631811528e-02
4.946090189151639005e-03
1.720530216185833794e-02
3.042121814499013782e-02
5.571224847172000227e-02
7.045342815572552819e-02
6.535387758969864180e-02
5.382600628432392120e-02
3.729201787696253406e-02
2.166294238096924674e-02
3.818248285460831837e-02
7.821896197564565112e-02
8.869213226368258263e-02
6.607283025821521216e-02
4.319498752749814652e-02
1.152377817099734143e-02
-4.467181405772929076e-02
-9.045176335861453143e-02
-8.822992149562086661e-02
-6.689036059584790861e-02
-7.073743252237155166e-02
-7.255405238171301618e-02
-3.844145227766429529e-02
-1.475393654152730265e-02
-3.085662381871749280e-02
-2.706903350664872920e-02
1.930600205914720369e-02
5.341156726000978461e-02
6.383742664749877949e-02
6.689178574531581822e-02
3.542829039877586073e-02
-1.326170146696256484e-02
-9.128908666284579407e-03
2.527431018927464926e-02
1.428209744672189092e-02
-9.046642541342877347e-04
4.828017441811966598e-02
8.746807486076270399e-02
4.551192808771310078e-02
6.493345808727197382e-03
3.493912387591242147e-02
6.336230223739065803e-02
5.344931238928350703e-02
5.382593781398832544e-02
7.348649171270241198e-02
7.590480330406775000e-02
6.263225762126468921e-02
4.254118075621132061e-02
-1.359714078027367788e-02
-1.187194255138118437e-01
-2.236744504648352505e-01
-2.607764911924784768e-01
-2.070911374570909846e-01
-1.051221265170333846e-01
-2.790517585443322637e-02
7.935026064345804264e-03
5.176827932827564316e-02
1.017389227395919804e-01
8.889113340714421829e-02
1.705388856048863783e-02
-2.128465439318646957e-02
-9.289182742770969725e-03
-3.199671622608100952e-02
-8.761139441672489980e-02
-7.050693130989466040e-02
1.112895820175385450e-02
4.758516136768754790e-02
3.447510117485606818e-02
3.046223283487904318e-02
3.790398479485092287e-02
5.295479491908278158e-02
6.515980809766126758e-02
3.119566615584647845e-02
-3.898685059928301555e-02
-7.248556139683465238e-02
-3.768027057509715227e-02
3.000290539140316320e-02
7.925404217076192914e-02
7.761117887766263990e-02
4.180986979599533859e-02
1.916976009102160095e-02
1.714871224142715256e-02
2.329209087086352159e-02
4.672675330731725779e-02
6.432150747559615966e-02
4.353431673643304300e-02
1.656544190459773719e-02
1.408116767677037445e-02
2.657122167228338772e-02
5.515572805293537939e-02
7.286576925979953989e-02
3.001543103618468586e-02
-4.777527767617046478e-02
-9.687472009460036670e-02
-1.082840071665849280e-01
-1.035956874519866483e-01
-8.526917504047712426e-02
-5.212739444681660506e-02
-2.759599884923529672e-02
-1.689026170132238575e-02
2.152731099342125587e-02
9.227729568943179861e-02
1.257077489356154543e-01
6.937910223268473064e-02
-4.599377168538931748e-02
-1.625927640804338270e-01
-2.741724833864628286e-01
-3.643288022922134273e-01
-3.509658742104846962e-01
-2.279811134834763553e-01
-1.040629581390548758e-01
-2.095049178747904889e-02
6.983158238454728606e-02
1.710326499526825528e-01
2.401172371483832335e-01
2.614955572289060504e-01
2.499484763484801364e-01
2.358572887972321119e-01
2.385591857396767990e-01
2.322162371651730894e-01
1.890257854536408211e-01
1.344805295025863490e-01
9.539159844868716487e-02
6.319671849832161903e-02
3.838937609073038437e-02
1.333342473498375785e-02
-3.598210504976577517e-02
-9.030722335801161238e-02
-1.322856265755306682e-01
-1.680768873372909256e-01
-1.585865383281141183e-01
-1.347000857794380113e-01
-2.026646851658737702e-01
-2.671863973347575749e-01
-1.633335185841270631e-01
-1.647840733529196827e-03
5.163712897064191842e-02
4.638640417341004935e-02
6.132749514647529293e-02
5.977950808336161825e-02
1.473568495502240380e-02
-1.274518851150846857e-02
1.605436898313799404e-02
4.354821170631394123e-02
2.595316243196483380e-02
-1.528762909370390971e-03
-1.428908105557785170e-02
-2.764015928941293207e-02
-3.513593396536857094e-02
-1.893261944767835048e-02
4.355459936207768321e-03
3.715777921693020486e-03
-1.972180349867190888e-02
-2.153732344423680070e-02
3.044645547623107268e-02
9.771244308444981819e-02
1.256340148756085739e-01
1.208762085330544744e-01
1.033116940070145928e-01
5.417510314854750986e-02
-2.949822283790653338e-02
-1.131201321301979756e-01
-1.617376353060327454e-01
-1.460542038440158230e-01
-6.710321364511150077e-02
2.328937457291072391e-02
7.736163119742953120e-02
9.457428583308612191e-02
9.614480613319688340e-02
7.526625108884815729e-02
9.733161638460722381e-03
-5.873503200844758243e-02
-5.833005908787468330e-02
-2.722334262832710322e-03
4.417177553322639699e-02
5.140132948136330593e-02
7.767915643301598859e-03
-5.965660844792524536e-02
-7.596745491606085587e-02
-2.268665759567884549e-02
3.143542637187966143e-02
4.661503601454852763e-02
4.577968756074382584e-02
3.602595478047761202e-02
1.464533191103559867e-02
-1.439459920261249720e-03
-2.757354789732611652e-02
-7.644410484483592227e-02
-9.636027759400730974e-02
-7.184318256386090784e-02
-5.044040783492539926e-02
-2.767367713207946611e-02
1.494049231374953469e-02
3.547082079698687940e-02
1.616082471566025053e-02
-1.821473759964657713e-02
-6.604303748234960358e-02
-9.833972468502386044e-02
-5.302629028741612932e-02
4.160129601564064444e-02
9.631002849790624987e-02
9.422424359786037151e-02
6.212120991542043058e-02
1.507049063782973236e-02
-1.870478484628550556e-02
-2.626187002009193125e-02
-2.016261038168275579e-02
6.637479259709705946e-03
4.683626662870373630e-02
6.249926917350487332e-02
5.763967785173730596e-02
6.508903242822566826e-02
8.423270646769347170e-02
1.143780958627980127e-01
1.463892231896871121e-01
1.112193884368390395e-01
-1.502101843041740714e-02
-1.366640981453709769e-01
-1.667113303256605727e-01
-1.078742804623167018e-01
-1.189963028928710254e-02
6.563867560452892047e-02
9.575662426552766782e-02
7.129482720620713976e-02
1.025354241570800712e-02
-4.625278114154542097e-02
-8.144055914207579128e-02
-9.056214962062297813e-02
-6.716326256874782796e-02
-4.572247532689329569e-02
-5.133081057246617618e-02
-6.791257065581042529e-02
-1.127924579799502447e-01
-1.694121172428371125e-01
-1.419854158749277173e-01
-8.504223458840858008e-02
-1.625798774314431705e-01
-2.618829165152580241e-01
-1.612937993815760918e-01
7.774451222951724721e-03
2.918688001596633774e-02
4.324625620155349293e-02
2.195368691787200066e-01
3.675090698217637897e-01
3.122119403886497446e-01
2.193865390266857007e-01
2.305864371823546921e-01
2.555288136073923799e-01
2.197136054357012314e-01
1.532149455137949146e-01
1.091333055601751978e-01
9.273222940593689456e-02
-4.694085441124769276e-03
-2.138691160779213063e-01
-3.262134476963820529e-01
-2.703333562502665544e-01
-2.081271665795458858e-01
-9.284546196034539067e-02
1.101277316270420359e-01
1.238861936046281864e-01
-6.439371473568530901e-02
-1.417856489630143213e-01
-9.367089581010426547e-02
-8.486478510684443421e-02
-7.953045744811930440e-02
-1.959735986114038986e-02
3.334491644055559423e-02
4.401382295145546408e-02
5.176135295535123915e-02
7.602361267453677796e-02
8.280628414845025986e-02
3.939558253252432862e-02
-4.176960782518411575e-02
-1.053671066670828632e-01
-1.063748749783010039e-01
-6.044059427803315232e-02
-1.395811812864084997e-02
1.677391509261703245e-02
4.835295481950124125e-02
7.430515584718017097e-02
5.361089581186856412e-02
-5.098840935145504752e-03
-2.567910365456158028e-02
1.507645100821186288e-02
4.488075985594126849e-02
1.677482358638462262e-02
-2.079758194664166338e-02
-1.569302043294167753e-02
7.323876364909043951e-03
1.643083522124812873e-02
3.344081931174592431e-02
5.261589387553566866e-02
2.968434384908638993e-02
-6.560138285562746273e-03
-3.940954570294061959e-03
-7.285499484223944763e-03
-4.832492931703298578e-02
-5.615096637280621306e-02
-6.380237763060665410e-03
4.944270045205685638e-02
9.481136142711954484e-02
1.035131725241845574e-01
5.100879332076941469e-02
7.104875513912586177e-03
8.416977485450040375e-03
-5.179880740176501241e-04
-1.060762366024637846e-02
7.179913684316830205e-03
-1.254215537875978496e-03
-4.312328136794271044e-02
-6.213837624799588982e-02
-7.741050415562497622e-02
-1.243087156307719765e-01
-1.534895538690604910e-01
-1.343051583448950925e-01
-1.160310429344774547e-01
-1.043494287696389577e-01
-1.869082634993862735e-02
1.534835737841676317e-01
2.483034648238345299e-01
1.446451210859796555e-01
2.091159711200779939e-02
5.019722971798301625e-02
8.140420266542812422e-02
1.223030156987742027e-02
-8.942142877177141833e-03
3.915201494780855274e-02
9.538913490157452379e-03
-9.847881633009324120e-02
-1.527036357676657130e-01
-1.011367164231526949e-01
-6.715598988849972098e-03
4.834464209626526676e-02
4.911481392705099175e-02
3.874349307834316913e-02
3.179394936420365525e-02
1.580966403392363578e-02
1.320604745625480504e-02
3.631585695550454407e-02
4.914750079816683492e-02
4.115049779593067669e-02
3.881716524586702188e-02
4.061813565890316086e-02
3.160895145167166159e-02
2.792275843017484951e-02
4.524189526277729717e-02
6.166366819463155874e-02
5.152831373061744075e-02
1.058649821546093876e-02
-5.827587608305238864e-02
-1.187929262353910748e-01
-1.163642934451016853e-01
-6.919086774474347834e-02
-3.964605593797548844e-02
-3.356335970599104435e-02
-2.882306611610450930e-02
-3.466494235855217126e-02
-6.772527022611371517e-02
-1.198757337353847374e-01
-1.547570626753117518e-01
-1.428726121725842901e-01
-1.181705362244550583e-01
-1.272305714835240409e-01
-1.241420934922020519e-01
-4.617939295876401229e-02
5.763045269309567675e-02
1.177357844528361952e-01
1.563210929510123748e-01
1.974075316402450486e-01
2.134318096056296854e-01
2.053983899021549764e-01
1.870569860718366562e-01
1.415836207300381344e-01
8.874185494412201169e-02
7.200147375639720515e-02
7.245970701753133569e-02
5.109375747631320075e-02
1.816257262944166034e-02
2.134600793538554697e-03
1.106520572242580824e-02
3.929438880829825426e-02
6.379068206445849543e-02
1.926175629386239069e-02
-1.314399783276753442e-01
-2.791879118680719030e-01
-2.878661787106084891e-01
-1.959944299360502906e-01
-1.082565371163921042e-01
-3.555123980509312942e-02
2.000568362369193817e-02
2.842247400617956693e-02
1.496118455232479938e-02
1.758821704811969200e-02
2.436202535280693193e-02
2.600402594362150044e-02
2.733846078862635712e-02
1.138095468700939944e-02
-2.215111571712002556e-02
-3.215164075614951322e-02
-2.525336617155687219e-04
4.074009733194158822e-02
6.297784848729237606e-02
6.376522665413980606e-02
3.460982089384911226e-02
-1.990947160302351804e-02
-6.051973181457234036e-02
-6.063271041328744532e-02
-4.338882856095645224e-02
-5.003125339504247565e-02
-6.620924709244062345e-02
-3.337510151035007200e-02
2.474201575911774698e-02
3.577513226049314210e-02
2.822965522601872390e-02
4.526446144256519172e-02
4.578900195048529048e-02
1.882137011741964391e-02
-2.552608339901341061e-04
-7.664033777369291117e-03
-2.090130657752564680e-02
-4.598653489008763112e-02
-3.246815977460437361e-03
1.736043438010950180e-01
2.986808817793147885e-01
2.066618746201000223e-01
8.062892042009268956e-02
5.071786600986788462e-02
-2.063635729149313966e-02
-1.376534036673816852e-01
-1.620068565642572844e-01
-1.200642080202384554e-01
-9.387349656438885581e-02
-5.070947235599800734e-02
1.385867109093493615e-02
1.682481065777452489e-02
-2.933493051120535794e-02
7.556012247793460201e-03
1.115785238737845714e-01
7.483094458697385487e-02
-1.292218954168719014e-01
-2.673260066014935266e-01
-2.335985641682037373e-01
-1.272875276289245627e-01
-1.354408499875096178e-02
8.994271650174462396e-02
1.505250158658346937e-01
1.439671257193576581e-01
5.952667351375403454e-02
-4.896889941620139602e-02
-7.917493620868616688e-02
-2.311877872114780769e-02
2.978220764738121265e-02
3.382879816604240225e-02
2.631536070154488760e-02
3.880264254941219459e-02
4.678551494694103280e-02
3.773649827761355741e-02
3.683478111078958978e-02
3.096216439463982464e-02
-2.132927460048664701e-03
-2.575786613070122147e-02
-1.796129735585184906e-02
-2.443921255285013555e-03
9.053275863988824446e-03
8.319123827148899170e-03
-8.740070807077721451e-03
-1.568815663853025816e-02
1.834571397759805766e-02
8.539470474085797402e-02
1.234087599788985939e-01
9.608590141444314781e-02
6.658822936794678293e-02
8.464974115638566887e-02
9.048476716677260334e-02
3.695134637184632059e-02
-1.701834479895816127e-02
-2.993329904973471289e-02
-5.250991372888023229e-02
-9.099973281102211042e-02
-9.289924618582331983e-02
-8.584592068964753964e-02
-9.850866364815490106e-02
-8.444952670111420534e-02
-6.682032906577817233e-02
-1.000928066285856621e-01
-1.373638517080875421e-01
-1.365458936698135950e-01
-1.290776689843614877e-01
-1.372715147648266854e-01
-1.442818632527686495e-01
-1.232603040623277274e-01
-7.683865081990216839e-02
-2.678407413526465511e-02
2.836329966188408380e-02
5.936190193096724244e-02
1.670814264275695057e-02
9.761576635513545541e-03
1.740064273062062461e-01
3.329239347189092979e-01
3.011226338714783624e-01
2.627201384739553114e-01
3.311832741699374805e-01
3.295137153040100242e-01
2.314121865369558051e-01
1.564219781282500110e-01
8.116094493422855438e-02
-3.151417066601561179e-02
-1.235752521909335294e-01
-1.633644375035832041e-01
-1.745636159851535751e-01
-1.829254666292216835e-01
-1.887365008420462120e-01
-1.778405515769929113e-01
-1.526724836628642057e-01
-1.294460867398402049e-01
-1.134718798563863484e-01
-8.773160664422964550e-02
-4.585574174200263142e-02
-2.667469621626689796e-02
-4.673365322832687824e-02
-5.131183275613682843e-02
-1.062675397002144084e-02
3.797412244656380581e-02
7.025709556777667841e-02
8.563257548241273720e-02
7.754610094251121466e-02
5.427463425766664018e-02
2.684139022431249189e-02
-7.042182145110112423e-03
-3.828667520507610805e-02
-5.242878479232560701e-02
-4.352045331843590326e-02
-2.157513769365829170e-02
-1.278331035927712626e-02
-5.796760021180933503e-03
2.920157383636600226e-02
5.331624701291221013e-02
2.545750421238930639e-02
-9.256327291041832953e-03
-3.144326593666663811e-03
1.913034758039308322e-02
1.333387765643270079e-02
-9.731209948299637813e-03
7.239836907606564051e-03
8.233800590926265706e-02
1.575441769371307976e-01
1.734519738753768081e-01
1.490298334813057179e-01
1.300843207607032259e-01
9.237618336924299789e-02
6.445603332777931349e-04
-1.015698295825540193e-01
-1.528597911467602100e-01
-1.423132112415687045e-01
-9.662935126926500140e-02
-5.342643789246016850e-02
-3.670747162007184650e-02
-3.740413327268404114e-02
-2.583764873071436180e-02
-1.142285882139298936e-02
-3.953298457511079944e-02
-8.230455833792113540e-02
-5.827432482698922250e-02
1.496377392625702733e-02
4.086256281269223800e-02
-1.116219198625480538e-02
-7.604772961427304356e-02
-6.765198635686234252e-02
2.109688336536165443e-02
1.000364574382216210e-01
9.332395559598685719e-02
1.791704255076382452e-02
-5.785414721168843921e-02
-9.050399557937169326e-02
-8.171698345952460585e-02
-4.252437440333126789e-02
2.147183659708772063e-02
8.796566272515897456e-02
1.053838220327209252e-01
5.346398170733035471e-02
2.584738761730738868e-03
5.147807076108502217e-03
1.356654792020192159e-02
7.455986816667156160e-03
2.829715824099263144e-02
5.894813166478914818e-02
4.424518915233464911e-02
-3.277512985684301328e-03
-2.532028641604130298e-02
-1.166149079593506444e-02
-1.026701744800394625e-03
4.336547690891851166e-03
2.064836599716647278e-02
1.918531658705357676e-02
1.083497748446755849e-03
1.606017526669466927e-02
6.290433687742526259e-02
1.124790096409376688e-01
1.507975377949387630e-01
1.379193407159648443e-01
6.583021766451671586e-02
-7.226110035883991090e-03
-6.133773616873380852e-02
-1.058048714381331912e-01
-1.248024650327829999e-01
-1.424557451940600683e-01
-1.874981358444985924e-01
-2.188967639938473875e-01
-2.033322356046526058e-01
-1.355052427217454114e-01
-1.044399563355934146e-02
1.043998652443892949e-01
1.273493348988010143e-01
9.402538015148459438e-02
5.783024265532555469e-02
8.427876205654993846e-05
-6.608604245268095978e-02
-1.085625138070090562e-01
-1.633803809294064324e-01
-2.233210580048755334e-01
-2.102877442670461616e-01
-1.327815689343567196e-01
-8.544629671381722552e-03
1.907564100371607063e-01
3.396551752744810249e-01
3.193484487938537120e-01
2.547897391611391726e-01
2.393018812944414930e-01
2.127887505534047652e-01
1.671812213398652103e-01
1.271098226530051056e-01
7.580371507220187710e-02
2.580455141847601969e-02
1.581233767290466524e-02
3.244837562691147564e-02
2.003233027206446915e-02
-4.737185136665324203e-02
-1.447806672129917094e-01
-2.170890305297991651e-01
-2.264320920488201994e-01
-1.953377337788943791e-01
-1.582944416656958675e-01
-1.159514416669737563e-01
-8.181360955191202544e-02
-7.809609542277189120e-02
-7.821327108318695820e-02
-4.695846186248755355e-02
-4.837716923840076205e-03
7.096022268507980180e-03
-1.458289112256355713e-02
-3.404692863731163810e-02
-1.694930306834402725e-02
3.179848691694932977e-02
7.884142151432113610e-02
8.929782265819645459e-02
6.005745382721678488e-02
4.294899324617923453e-02
6.042936763796667027e-02
7.066241126422274921e-02
7.454817574311924100e-02
7.327626692620038684e-02
2.964738361759059956e-03
-1.082441646628062581e-01
-1.439430152900714188e-01
-8.972559431846849343e-02
1.472264181462634020e-03
1.034527111716482678e-01
1.717743172333524027e-01
1.745114736351963403e-01
1.565244334900042500e-01
1.479947073769618537e-01
1.092753529498169951e-01
4.293211417060088797e-02
-2.691872761634534622e-03
-3.806943578725699440e-02
-8.319635258965719926e-02
-1.269715381514195940e-01
-1.782658646153967297e-01
-2.046487719500933444e-01
-1.413707302352262274e-01
-3.501737112307299477e-02
1.915964599682431699e-02
2.649638572002675427e-02
2.567264109859881613e-02
8.301949759572664622e-03
-2.090970868512512931e-02
-3.357504833840707636e-02
-3.756246373201251043e-02
-5.831416221208714917e-02
-7.863958483823689505e-02
-6.295562810351321148e-02
-2.758508854283662354e-02
-1.190984512650002103e-02
1.304603664919233574e-02
8.724708282652639257e-02
1.428276398531406477e-01
1.074972681240754929e-01
3.911204680819298229e-02
1.094312992372097927e-02
7.221027861197973699e-03
1.488621270006451960e-03
-1.240659923397578746e-03
8.632052703187445206e-03
4.150556975296995632e-02
7.033852940863137559e-02
2.827891775214642217e-02
-6.833625141113298940e-02
-1.041128444304072892e-01
-5.156020340655692591e-02
-9.613287799121491076e-03
-6.950570592466737661e-04
5.763877591096217001e-02
1.437538837387135615e-01
1.546314247643045814e-01
1.244909307642488583e-01
1.322635226029144628e-01
1.063138408317135103e-01
-6.975812298830885889e-03
-9.200470629677925949e-02
-8.235547916662060153e-02
-7.183672945777622165e-02
-1.015509676808940692e-01
-1.078776259611525512e-01
-9.324536243183256801e-02
-1.082834502441461649e-01
-1.255679682873121761e-01
-9.241887147955323012e-02
-2.513219637737661161e-02
2.908888158952345829e-02
4.712798120179874373e-02
3.224443471580419607e-02
1.090508947263275560e-02
1.144272401570611830e-03
1.847762920466214723e-03
1.115040989474124292e-02
-1.759945566339178417e-03
-5.434123195139584778e-02
-9.705859962696490595e-02
-1.142163073836135606e-01
-1.345428397274914256e-01
-1.261351711070503312e-01
-6.383421326553148645e-02
7.950950139192190791e-03
7.295782998006505871e-02
1.438846970741185782e-01
1.953957311813698805e-01
2.136781588905256601e-01
2.258361130525703975e-01
2.311456230300398540e-01
1.944187595090776932e-01
1.279396478900338141e-01
5.970397592930606206e-02
-3.233924940920067381e-02
-8.598294253441533808e-02
-7.785131949732800039e-03
5.747776232202388841e-02
-3.294706168282562908e-02
-1.274351759700845799e-01
-1.317759738029575800e-01
-1.489641026287080450e-01
-1.773008594303200069e-01
-1.647226008239190131e-01
-1.445708705283377526e-01
-9.893553369838491152e-02
-1.091097354681578105e-02
3.632303179389075043e-02
3.469409327687933420e-02
6.632257239730601772e-02
1.134951888987802138e-01
1.124097150642459214e-01
8.327169880390800083e-02
4.551402709904849714e-02
-2.827743775564464310e-02
-1.045493732277045784e-01
-1.093870330775670030e-01
-5.146248283687672453e-02
1.251403648889676257e-02
4.859513655510738772e-02
3.347553524876593217e-02
-1.293318633513451145e-02
-3.446236526829268842e-02
-3.052738815699649819e-02
-3.490573691904878123e-02
-2.977046462741902294e-02
1.370008523893206931e-02
5.933312688658135686e-02
5.919083969427806069e-02
3.510384957439884740e-02
2.972221067866169172e-02
4.497462741392510566e-02
7.269454407765789383e-02
8.950430745488252571e-02
5.436295684071749262e-02
-9.634420498780818173e-03
-4.347966803474125064e-02
-5.711498049580011893e-02
-7.175062740781221193e-02
-5.815568123310990711e-02
-9.899426957965268975e-03
3.784452703317722766e-02
4.457772385194690157e-02
-6.525125716824815326e-03
-5.174903417395979033e-02
-2.168231615594138489e-02
2.016491892449082807e-02
-4.607501056564296607e-03
-3.547403517331183115e-02
5.628983535032510213e-04
6.408735778973338737e-02
8.855391063070093549e-02
7.538493260038309218e-02
5.097105273073847254e-02
3.085634128622886073e-03
-5.717742298684184987e-02
-7.945091571683708664e-02
-7.661317795094552130e-02
-8.989194582543444390e-02
-9.562554040904314157e-02
-6.497224004638767203e-02
-1.788043769014147771e-02
2.256281531898619852e-02
5.648011757555886775e-02
8.377315564073463394e-02
7.805888729945310855e-02
1.799616541371740555e-02
-3.729528353040962446e-02
-2.019824488465402773e-02
2.850671205136960304e-03
-4.012694995315844310e-02
-8.030962850320717827e-02
-7.792431750387673883e-02
-9.104783990455370124e-02
-9.503102499120395785e-02
-1.819185944274099437e-02
7.143635944581031016e-02
7.658756088370413662e-02
4.962878244676775102e-02
5.935793485282186283e-02
7.580544388575602421e-02
7.344579167446513290e-02
5.454079350223172556e-02
2.118798884035746899e-02
8.080933223333860299e-03
3.334421332986673564e-02
7.085048158971800347e-02
1.186558630028426431e-01
1.636393944297580005e-01
1.454184171564213701e-01
6.820079055639238774e-02
1.081718138316355854e-02
-7.697527547210050725e-03
-3.034621045360214389e-02
-6.234197336983489379e-02
-9.119298844860808384e-02
-1.287829259425059547e-01
-1.482817430675979486e-01
-1.207938032601588302e-01
-9.906430775469529659e-02
-9.670969167471504813e-02
-5.462449951765460665e-02
-2.960859595541223688e-03
1.457003310764412585e-03
2.307010619987524824e-03
1.137470778490715095e-02
-1.042586804676942300e-02
-2.542175083602359748e-02
-5.469735909176843408e-02
-1.796060756140166748e-01
-2.585372739362690186e-01
-1.511798467020697700e-01
-3.893787562121919787e-02
-3.966751061893473290e-02
-1.798864065675727722e-02
5.748094589119130682e-02
1.122508397415196424e-01
1.718064280259777865e-01
2.523608327116718675e-01
2.831509278012172004e-01
2.441088371241044164e-01
2.052118579423042044e-01
2.036512373367640460e-01
1.974431423576956113e-01
1.459516701369840408e-01
4.530460947072766087e-02
-8.117496166518073375e-02
-1.642317467286523724e-01
-1.741598471875603071e-01
-1.856512787040490164e-01
-1.796659764181424146e-01
-5.926683127855372768e-02
3.366119895514377292e-02
-5.342840952874313570e-02
-1.323694796054210032e-01
-7.425325649231970249e-02
-2.660781868620572255e-02
-2.518485557665767205e-02
5.878888638069857883e-03
2.043849442009114392e-02
-1.754414869830941276e-02
-4.756529753936061811e-02
-3.771700695059279629e-02
-1.727614272671496032e-02
-5.549039608093086703e-03
2.003227377828322928e-02
5.121025973119588959e-02
3.251843338944558626e-02
-1.458745410955663777e-02
-1.525798090972909846e-02
6.278286849463558632e-03
-8.927189382515800589e-03
-2.763132071300626255e-02
-1.312165201056197245e-02
3.848950167505300066e-04
4.121533251408007401e-04
2.038279759523377310e-02
5.190079279984014665e-02
5.994496555351391115e-02
7.222224909113349189e-02
1.258325758047600385e-01
1.532692619604209272e-01
8.759037764246636881e-02
2.034543895311590606e-02
3.745297610455700782e-02
4.850351095629352322e-02
-4.020800085028416321e-03
-2.999202786934497544e-02
-1.608161850129786324e-02
-4.097018490769843702e-02
-7.758905752816618040e-02
-7.320705787555221999e-02
-6.942380613404355860e-02
-6.704997156663673741e-02
-2.780875910373740642e-02
-1.017836769229834432e-02
-5.569034392248697896e-02
-9.076201564638652908e-02
-6.416906622082012290e-02
-4.102642542362644473e-03
3.303605936469079796e-02
-6.914125647099086253e-03
-1.020911080847961422e-01
-1.673378446982898282e-01
-1.858550276962135372e-01
-1.857628387022360883e-01
-1.408811319465341216e-01
-5.329695865855678394e-02
5.785930303382105788e-03
3.081413265533018003e-02
3.951979511166330006e-02
-2.337005896099707269e-02
-7.870763075019762689e-02
2.039968264700533357e-02
9.633293999377348649e-02
-4.546429845005294651e-02
-1.681541573780887255e-01
-7.283151073394752983e-02
6.545336308215506105e-02
1.132929410533344838e-01
1.207861074648649558e-01
8.818420797521715759e-02
1.052048051055582550e-02
3.068175846729033485e-03
1.341775000067323143e-01
2.947895300156678222e-01
3.806526305921939524e-01
4.307419787486141405e-01
5.626071226775850587e-01
8.770978171050628491e-01
1.280419663906460670e+00
1.462515471918987675e+00
1.320839305729773372e+00
1.086239704047349042e+00
6.848341642662358897e-01
-2.480150093838753567e-01
-1.344119439424340534e+00
-1.776567864111371131e+00
-1.560483601181377189e+00
-1.126149368172981724e+00
-3.394082281656096156e-01
1.018934146473125413e+00
2.698474665373446157e+00
3.771194083085720017e+00
3.029636801627396014e+00
1.057731049418829894e+00
3.021303771040514952e-01
9.206888306080692752e-01
-5.177813863339317813e-01
-5.920903722467070196e+00
-1.270122620752840348e+01
-1.652897069511131889e+01
-1.290807152495864862e+01
-9.556085587044158558e-01
9.360978632735324823e+00
6.493402997583707759e+00
-4.435570706198277868e+00
-1.042039384278970360e+01
-1.029681257153513130e+01
-7.937659278552879449e+00
-6.733841406662384177e-01
1.176542995959341731e+01
2.131979191474318114e+01
2.223010202594687357e+01
1.795325451219465052e+01
1.441150333201204425e+01
1.237687506117413960e+01
9.412558248629554924e+00
5.362048763089108050e+00
1.491023810985651288e+00
-3.341641536468483498e+00
-1.019640134256752617e+01
-1.555220721147938434e+01
-1.585372872568827241e+01
-1.380284756415920633e+01
-1.311127207721888333e+01
-1.225907345775405588e+01
-9.024451110578116442e+00
-4.453200179057116515e+00
9.498303073619318582e-03
3.699582065359363181e+00
5.808462298220218756e+00
6.230401447898261225e+00
5.609028994788976874e+00
4.586053791049074846e+00
4.211514050600319692e+00
5.262103832383726143e+00
6.637849983796117570e+00
6.411021572019278025e+00
4.440965751543546780e+00
2.273589393866402464e+00
6.938382079906524336e-01
-8.281007490633073287e-01
-2.283043434693168727e+00
-2.807174897175116701e+00
-2.453985655364014917e+00
-2.134043283003329350e+00
-1.885503365370473805e+00
-1.356640522950686600e+00
-1.191143723411821842e+00
-1.830512775816960591e+00
-2.302432761114852067e+00
-1.936434004727724423e+00
-1.586149208256396381e+00
-1.987339287616147310e+00
-2.771949430925529256e+00
-3.507888148987174937e+00
-3.874676314021083812e+00
-3.431718451808826398e+00
-2.848995260990520695e+00
-3.727049109371262769e+00
-5.887402338289954074e+00
-6.944567053415683588e+00
-5.195985330441382111e+00
-9.356894165122302542e-01
4.545911850856391823e+00
9.348146396313925521e+00
1.168972836587396458e+01
1.144706411764533804e+01
9.776255125690001435e+00
7.689761142245127523e+00
5.744381942368686822e+00
4.040748436946985933e+00
2.473611847930863306e+00
1.159543373085750728e+00
1.275408367913311025e-01
-7.828052864060734972e-01
-1.529786627226961127e+00
-2.040120226723803665e+00
-2.313561308340212896e+00
-2.312172070435019045e+00
-2.321998156959511839e+00
-2.642381426078170392e+00
-2.892736219639124418e+00
-2.721295092149635497e+00
-2.472987273316452850e+00
-2.412087076101194327e+00
-2.329428216124006745e+00
-2.141724690983743074e+00
-2.007372250370124789e+00
-1.884623445425872124e+00
-1.575765959805029315e+00
-1.127136062407068984e+00
-6.789505732677614258e-01
-1.026444291962226307e-01
6.376787008657136546e-01
1.176811442432327715e+00
1.349599054244926766e+00
1.424975944101753544e+00
1.496372558177846646e+00
1.438451941831644820e+00
1.316532456831042364e+00
1.210182871143926198e+00
1.023861576922181271e+00
7.499961427252497259e-01
5.000518370823938685e-01
3.003785570688117246e-01
1.467230041415165387e-01
7.576829537918741697e-02
6.691808695033188426e-02
4.153915695334073344e-02
-3.249170241052634633e-02
-9.756576223140805970e-02
-8.788600542280876338e-02
-5.136828029868190093e-02
-9.395411434434472464e-02
-2.152017479948012402e-01
-3.268912003988988513e-01
-3.847648175867321441e-01
-4.027508554236335914e-01
-4.005016532779295257e-01
-3.780268804210628053e-01
-3.174101055303250596e-01
-2.325891211317659135e-01
-1.669939930261703787e-01
-9.663000623494769070e-02
4.051515603742887606e-02
2.055900205115433199e-01
2.978926147493139442e-01
3.075418972766558179e-01
2.890724943984482320e-01
2.422172873233561230e-01
1.926627195496956602e-01
2.232232011800422966e-01
2.263924309897103471e-01
4.468527512663893891e-02
-1.277193317499505654e-01
-1.486841144275944104e-01
-2.739875821355635677e-01
-5.126395470571163404e-01
-5.472014296248126630e-01
-4.104410368148066479e-01
-3.413439963428335777e-01
-3.297251997904258047e-01
-2.836839686588359943e-01
-2.105422272548708451e-01
-1.271231638371316530e-01
-2.317806291284161407e-02
6.292273771496886825e-02
6.516244896350006921e-02
7.951675123628790254e-02
2.358325885736040628e-01
3.561711974600239028e-01
2.713309924884154123e-01
1.865825974287037003e-01
2.361155432351081385e-01
2.836829006628028838e-01
3.026235466911183503e-01
3.422612923165708199e-01
3.567182014736132167e-01
3.609652477976738050e-01
3.564171643786306909e-01
2.403664340965099566e-01
1.069345515797298779e-01
1.312652710219496532e-01
1.642608774027339291e-01
4.429465462879896009e-02
-8.134814336162866921e-02
-9.765265930704059016e-02
-8.397591421507695497e-02
-1.022914651433091543e-01
-1.283176524149358677e-01
-1.285827983496031779e-01
-1.244907554270417022e-01
-1.708459430309198224e-01
-2.547721814548113972e-01
-2.933199670749742083e-01
-2.572437146799342877e-01
-1.984321353170850621e-01
-1.548024972219025908e-01
-1.285693798540007426e-01
-1.203595028847658510e-01
-1.201528076796143651e-01
-1.218773702213168941e-01
-1.408464957659444072e-01
-1.753841079521440138e-01
-2.017660606917877630e-01
-2.055739206682554443e-01
-1.627934181802783431e-01
-4.612247567140467797e-02
9.412170255111138029e-02
1.726814984498688532e-01
2.217408364411227462e-01
3.082315793166147122e-01
3.569248370519954028e-01
3.013929647252652222e-01
2.385936347706459348e-01
2.166419495053093225e-01
1.446073842852580449e-01
3.042211349908582191e-02
-1.560364278618133621e-02
-7.988934475778079747e-03
-3.926078950188636313e-02
-1.005645821132198359e-01
-1.247636451610187325e-01
-1.077246096515262486e-01
-8.041211452338828392e-02
-3.832288599644288751e-02
1.223506332988326568e-02
2.874554181884907134e-02
1.184361491985337633e-02
-6.985122822463896326e-03
-3.425408252516248808e-02
-6.882048918356520328e-02
-8.167194098248933831e-02
-7.248693446653320382e-02
-5.618598618476614015e-02
-3.801720783347349586e-02
-3.463545536759862764e-02
-5.008349155603682851e-02
-4.085754318004335139e-02
2.983570580717322118e-02
1.169912235180521065e-01
1.417163624967516800e-01
1.109225326850046267e-01
1.077997102680968433e-01
1.436541377607696013e-01
1.361839056769278133e-01
8.096992309199778359e-02
5.673420518903639354e-02
4.802565389728873091e-02
9.254990937847814431e-03
-9.345038008740369495e-04
3.022991588234448176e-02
1.050598308677102612e-02
-6.387201536754662234e-02
-1.065754042061199947e-01
-9.904268516242324683e-02
-7.405219450637051670e-02
-5.520249871663587826e-02
-6.976863566226115809e-02
-1.049513990498204818e-01
-1.044405324781415845e-01
-7.652170797696636328e-02
-7.346297228074712138e-02
-6.096369199277106021e-02
2.170017801580172850e-02
1.214017951425069436e-01
1.657477031683178559e-01
2.096563654977010582e-01
2.983805686135005963e-01
3.202136575451065004e-01
1.983857060513369852e-01
-7.119020986665898498e-03
-3.140598075893249463e-01
-7.412098232857822211e-01
-1.041675746261704338e+00
-9.419355599341936447e-01
-4.968527605916160939e-01
4.114701436772780219e-02
4.674046042084782360e-01
6.628717816369044114e-01
6.281626001051874297e-01
4.904539891947482522e-01
3.457799766784198647e-01
1.838010216635954652e-01
-5.647527716375146112e-03
-1.698719230952244752e-01
-2.227525729114914199e-01
-1.545021075458828108e-01
-4.977868813399267955e-02
6.928662274572924828e-02
9.943875191951938308e-02
-1.712896245526096262e-01
-4.513903761003770221e-01
-2.555193254762325727e-01
8.597663721643859780e-02
1.483404982234194924e-01
2.288678627103349905e-01
3.754972238404961637e-01
3.274035362809077920e-01
3.061712518037278952e-01
2.958515703553774578e-01
-6.758908266651167396e-02
-4.001629309058604145e-01
-2.273667805246951668e-01
4.191895011172966368e-02
1.009986744561437860e-01
1.952670224030818302e-01
2.825471926258789068e-01
1.870711513181016195e-01
9.283434554609494571e-02
9.458827817339716948e-02
4.002523940380749157e-02
-1.276440245104336624e-01
-3.652687809528113450e-01
-5.239697816182042889e-01
-3.814819545590871219e-01
-8.283192496445622444e-03
2.971274588181084808e-01
4.923196154062023933e-01
6.824296491160311007e-01
7.788126115601616828e-01
7.396724281900775022e-01
6.792107507332545424e-01
4.837497295336462000e-01
-9.792545392315148839e-03
-5.116742450855985558e-01
-7.133008140327534718e-01
-7.852805440100056877e-01
-8.669773895746117898e-01
-8.077485764513101518e-01
-6.331346438028513379e-01
-5.403083570505651245e-01
-5.521513637784072337e-01
-6.048541433600971295e-01
-6.741196803999116582e-01
-7.104548214996875277e-01
-7.371637599103324501e-01
-8.087136273981201384e-01
-7.122244808431748009e-01
-2.095411423816202490e-01
4.295468957525537812e-01
7.657989070728297154e-01
8.360143280876527472e-01
9.232652324208614480e-01
1.046043077602289983e+00
1.032430903029009750e+00
8.331072935097233456e-01
5.609233315885135962e-01
3.428196825217051380e-01
2.366441634417106588e-01
2.139695067275574902e-01
2.055370589415667082e-01
2.085142641816704612e-01
2.431522090418582749e-01
2.554369439777504636e-01
2.313714226682662412e-01
2.263973378392719615e-01
2.049922163827700983e-01
1.156384625036011027e-01
2.817843564319888472e-02
-2.485746123848758815e-02
-1.231796825664823181e-01
-2.881411314120524980e-01
-4.429120597956721639e-01
-5.229254576377033725e-01
-5.341519925641575739e-01
-5.145467119094967456e-01
-4.691982776300752667e-01
-4.048814138420936404e-01
-3.439517885781397388e-01
-2.559437193219483708e-01
-1.284562493331327659e-01
-2.683258543143528241e-02
3.272729261130663536e-02
7.015254880513108193e-02
5.279014790001690383e-02
4.849571714603900796e-02
1.688800520168549646e-01
2.517082821811589821e-01
1.219465690455146939e-01
-2.038477497712511827e-02
-2.311347171245446697e-04
4.486699593675134989e-02
2.936304819749586265e-02
2.013855076943022598e-02
2.879899118647693407e-02
3.480839030720225824e-02
4.326201467311203280e-02
3.367867658430672567e-02
-5.800163917905091018e-03
-3.514856889105034271e-02
-2.957348828170736077e-02
1.513717448490111209e-02
1.086016906407603344e-01
1.549680726287626653e-01
5.074469674334412816e-02
-1.883918994789546969e-02
1.252794686580414596e-01
2.105490519142612094e-01
2.481891485104914530e-02
-1.388100691434347445e-01
-9.107330613543414277e-02
-3.303984303873248179e-02
-5.453334787418050167e-02
-4.541077271720421471e-02
-7.864610126288274286e-03
-3.273977806271828606e-02
-9.473520355328672593e-02
-9.292525173513616066e-02
-2.743375179151661541e-02
3.181345914869465608e-02
7.703664433412237000e-02
1.181663579873640513e-01
1.324898026193914724e-01
1.166198912342288618e-01
7.179949310317902678e-02
-8.340190073253943639e-03
-9.965364560699256635e-02
-1.669589071714558393e-01
-1.843060614351185733e-01
-1.508010256949439409e-01
-1.086912132603603254e-01
-7.213559164449065420e-02
-1.051136608112907683e-02
5.509579433164682460e-02
8.537157115412324915e-02
1.023594118625895666e-01
1.152286939251262188e-01
1.070731889839834916e-01
1.052702475102095386e-01
1.128663809587590189e-01
8.573287628566525487e-02
4.066611529970435429e-02
1.930040991688870486e-02
8.469421905474339152e-03
-2.887493207688857089e-03
-9.284407836870175318e-03
-1.730527328507796073e-02
-3.161206025211420884e-02
-6.712828464132608586e-02
-1.182217105791362327e-01
-1.294527962163262158e-01
-9.446688541091312341e-02
-6.901152448368942649e-02
-5.960169704018498243e-02
-4.954795307818601890e-02
-4.940279666470782927e-02
-4.356324673682265142e-02
-1.684403472850413974e-02
8.708713767557666602e-03
3.351195904968336248e-02
6.703898370556635178e-02
7.594352636598339368e-02
4.521926150433343283e-02
2.100329160033503548e-02
2.943341251542323789e-02
3.831942103911228914e-02
3.871405505708841455e-02
6.007660114745815710e-02
8.153878229083048879e-02
7.293215506610423171e-02
6.897166053782793904e-02
2.397981670189553577e-02
-1.443918464621494757e-01
-2.748394817475994789e-01
-1.875149836403086634e-01
-1.514721776641643480e-02
8.634575532323431057e-02
1.481083644798705801e-01
1.843906176830921173e-01
1.547878433301894674e-01
7.118547667263841472e-02
-2.495500950461766038e-02
-9.768386360711417415e-02
-1.107678768947936154e-01
-5.828670989104074718e-02
1.861812296684303009e-02
5.824012094218285196e-02
2.758120252241651194e-02
-1.716539745201536502e-02
-8.708377741731877092e-03
-4.278944570945235337e-03
-3.807786443450909136e-02
-1.374890239588611243e-02
3.771672532646318937e-02
-1.520811042036741487e-02
-1.039524443433903073e-01
-1.063060778912075788e-01
-4.704231177357369453e-02
2.934580618150969822e-02
8.790645431605549620e-02
9.249918947950354353e-02
7.934738952503653242e-02
6.925895602047293931e-02
2.127383915845439816e-02
-4.250529736159478628e-02
-7.960518478882577798e-02
-1.214484391884593645e-01
-1.776789099826633911e-01
-2.003776904938728565e-01
-1.634620555083801108e-01
-8.845911592568259096e-02
-2.020900297736852314e-02
2.460688416433056205e-02
6.732646025789720823e-02
1.186085458758802530e-01
1.630684482282042380e-01
1.780055338906949558e-01
1.629738256607760061e-01
1.392042822299074667e-01
1.209229424559195853e-01
1.181942013863986340e-01
1.073456102671594414e-01
4.435739896357757811e-02
-2.689063312298200017e-02
-4.403208209514725135e-02
-5.698488998628947755e-02
-1.009724693165945097e-01
-1.151695116903005273e-01
-8.828998976322080527e-02
-7.644365052719087616e-02
-8.150751523997107340e-02
-6.436519877992881444e-02
-2.169115624614586027e-02
3.520211868021129453e-02
1.138052432557536964e-01
2.038425656429639909e-01
2.726130200734622200e-01
3.047791342249063229e-01
2.720169125182803627e-01
1.433646984454486073e-01
-1.898138913639247499e-02
-1.328283419606464677e-01
-2.255659129682727471e-01
-3.307676199227143066e-01
-4.073141980249473937e-01
-4.329762793026830092e-01
-4.032753800571029501e-01
-3.275807290600580846e-01
-2.741532337484170467e-01
-2.066977604943822655e-01
-1.841566286328923802e-02
1.429886872980479784e-01
1.051688992348774193e-01
3.823970075474714125e-02
9.787729202396616701e-02
1.789745186386488274e-01
2.041069875311309900e-01
2.119088263602041389e-01
2.300260509192302849e-01
2.493774626747795597e-01
2.485002415994664593e-01
2.222969391473439971e-01
1.884360350021052621e-01
1.604941604272905886e-01
1.294850814815497186e-01
8.593272879448468626e-02
3.668268566809283066e-02
-1.655817548776870179e-02
-6.228703995263464022e-02
-7.038289164445285517e-02
-5.721851809647906378e-02
-8.090362070112086523e-02
-1.382403587536067957e-01
-1.652221806152292249e-01
-1.474314680240937647e-01
-1.293245019791664230e-01
-1.202312018030639446e-01
-9.258538644625811942e-02
-5.703458042241534021e-02
-3.798618068914649815e-02
-1.714516131188622422e-02
1.046484281675157807e-02
1.518280533607227825e-02
1.177239484208644771e-02
3.193956020036609056e-02
4.859087659665462661e-02
4.378455519262176854e-02
4.853903474219620207e-02
6.141162982597554720e-02
5.850262569820265102e-02
5.053677637358755526e-02
3.292742244320931433e-02
-1.946881666993133947e-02
-9.001667697575775617e-02
-1.538358849668762518e-01
-2.072447790155466651e-01
-2.290790011476963595e-01
-2.051904914745794617e-01
-1.537798027673764889e-01
-8.606053570092841998e-02
4.886341139067225392e-04
1.070259492122724865e-01
2.127266415986089898e-01
2.632922709299447828e-01
2.537342020272510545e-01
2.531223801901288928e-01
2.720418024545001590e-01
2.423979019054550155e-01
1.452806640539273664e-01
3.325113358623277282e-02
-4.668818348564344328e-02
-8.888911686450903793e-02
-1.110469309551292139e-01
-1.198951416017772498e-01
-1.075663960376773143e-01
-7.947290022644754037e-02
-5.750142845173606548e-02
-5.216231458296049367e-02
-5.270958906301374119e-02
-6.069432019941325973e-02
-9.770938958283956199e-02
-1.467802548493892523e-01
-1.532475557057106086e-01
-1.044585349139694197e-01
-3.551464896637457347e-02
2.281791601279656995e-02
6.330885676665477801e-02
1.033079181490101917e-01
1.385602635354527545e-01
1.228958287763176338e-01
6.791526043781627442e-02
3.389115265823622325e-02
1.113852163088509262e-02
-1.103225174606719400e-02
2.491325509812958305e-03
1.277962163240260567e-02
-2.638636261648109882e-02
-5.550169273614299903e-02
-5.137389952550254490e-02
-7.247399714468702459e-02
-1.008725058212738834e-01
-7.139975992780163427e-02
-6.157247357733075174e-03
4.386159960109156652e-02
8.721244836999762773e-02
1.402762782478903514e-01
1.795212594328910172e-01
1.807216792087799895e-01
1.490671872111649643e-01
9.655815550735415143e-02
3.121540599538397132e-02
-2.551146016744041886e-02
-5.788937203958077760e-02
-8.595183028959565985e-02
-1.161553244643454691e-01
-1.245970222342532574e-01
-1.323210356606331628e-01
-1.562526648338206370e-01
-1.695577960072163770e-01
-2.132351307763613313e-01
-2.482632240381163757e-01
-9.214709131387169294e-02
1.257240848522359900e-01
1.016496729437251223e-01
4.081314038563726987e-02
2.496747718712598874e-01
4.449551761323177757e-01
3.372395360708425049e-01
1.575774921932634187e-01
1.038017731393243159e-01
4.771232056863142224e-02
-7.242918592398890631e-02
-1.589232065197481170e-01
-1.953837736649757240e-01
-2.241816297933115765e-01
-2.410635650549499409e-01
-2.667080225985278275e-01
-2.622604950321646422e-01
-1.151914142395588370e-01
5.317895458300539446e-02
4.358185258833169318e-02
-1.645434670406478728e-02
2.898182113875902646e-02
7.728698021734246859e-02
7.074373382332976856e-02
8.829605233414064558e-02
1.324195484574760828e-01
1.484176852800029589e-01
1.426900719777230431e-01
1.436464570211189451e-01
1.498985665461032846e-01
1.484207822708855096e-01
1.198368179214537033e-01
6.056153705416689875e-02
2.613897185977043236e-03
-3.589738668299446989e-02
-5.734457348906812912e-02
-5.419227954442210060e-02
-4.708887858925581843e-02
-6.520056880058291982e-02
-7.255587769518762054e-02
-4.149690475902669679e-02
-2.755410957768557670e-02
-5.584865095010517477e-02
-7.846542720266400095e-02
-9.327355430846252793e-02
-1.368721039934241435e-01
-1.791355436085398656e-01
-1.595519150114295681e-01
-9.409266753912412518e-02
-4.495291509543190844e-02
-1.708727236730745586e-02
2.224048607067920930e-02
7.146649937659596552e-02
1.066965635602674656e-01
1.095446699825535636e-01
7.440078519382251065e-02
3.086290495737193870e-02
3.082829895528997263e-02
7.863529141350353302e-02
1.156848528957332145e-01
1.053209596505564061e-01
8.004086760404166556e-02
7.504067374246420341e-02
7.029040617588751261e-02
3.906015059419104540e-02
1.163538118988456660e-03
-2.201918909288632167e-02
-3.825443913341544655e-02
-4.700892075802776821e-02
-5.005749454751881600e-02
-6.626470942184875534e-02
-8.967509065408511837e-02
-9.608050709848031667e-02
-8.340863716562320340e-02
-6.252493613776653747e-02
-3.621546788643600218e-02
-5.304624280832401576e-03
2.064099291264302402e-02
3.098906856778795016e-02
1.965144220890188004e-02
-1.566655415976180715e-02
-5.639098350751033106e-02
-6.906498290625069647e-02
-4.101170800822964008e-02
1.629814838894797641e-02
7.779742943975824498e-02
1.143374960408616303e-01
1.181471341041183121e-01
1.003758012994806492e-01
7.031049259189081635e-02
3.114519844460133385e-02
-1.776375177697694929e-02
-5.458344758812759545e-02
-4.305910568255118254e-02
4.422337458092721885e-04
2.652456329145621780e-02
2.618110336311428935e-02
1.059370826640496435e-02
-1.800099288193209718e-02
-3.932575654153354361e-02
-3.245387513756325948e-02
-2.613774778906435142e-02
-5.491713365862144897e-02
-8.186544974033919952e-02
-5.522844025956742675e-02
3.637848274448280891e-03
4.117038338863640567e-02
3.337890545805058395e-02
-7.167214177898371258e-03
-3.136384550961084094e-02
-7.417512622845214010e-03
3.063234948141510539e-02
5.128250724588637871e-02
5.612577358776714431e-02
2.577848810917465067e-02
-3.518923098011787765e-02
-5.993937559441016305e-02
-2.846832169923797784e-02
3.006029433478968338e-04
-3.092723210174600293e-03
-9.684680631426179770e-03
4.186910090045917188e-03
2.075420554891262495e-02
1.421292173488702959e-02
3.104147920922195516e-03
1.030676249264416908e-02
9.440292955541149111e-03
-1.772046453238668856e-02
-5.014994719954859320e-02
-7.531382340343789616e-02
-7.492721480501890463e-02
-1.743674699666259570e-02
6.913959719560003325e-02
1.266995732469162750e-01
1.519477032277708195e-01
1.463677571411753364e-01
1.127114520315919133e-01
1.082431310415032794e-01
1.001120044712085211e-01
-2.803148162172827695e-02
-1.725074672123325936e-01
-1.514849514754617044e-01
-7.693504174880308466e-02
-9.916670093927137941e-02
-1.409864757172779870e-01
-1.458946522176646776e-01
-1.357156811996103052e-01
-7.430834536227437503e-02
2.472482867227657893e-02
8.750857288396640676e-02
1.358409181149038136e-01
2.094228885678720842e-01
2.611032894382233072e-01
2.674243693741668593e-01
2.441352656636838203e-01
1.651960604939656518e-01
1.740534115880769395e-02
-1.560091749946332373e-01
-2.978485332759545634e-01
-3.656547155585193609e-01
-3.725365689607684216e-01
-3.662680736713744278e-01
-3.237822721328948439e-01
-1.993746876685009717e-01
-5.584704853069967501e-02
3.384920277758971668e-02
1.007942746397884060e-01
1.699301691909471668e-01
2.313971602764227087e-01
2.849021085243851892e-01
2.449451737756429270e-01
8.049637338345455584e-02
2.118486638235007880e-02
1.675252935941585752e-01
2.485891930802016647e-01
1.513709659632846982e-01
8.399023939758898383e-02
1.013037735317771360e-01
6.147982084551623094e-02
-3.864026875680223044e-02
-8.578427020287526794e-02
-8.296239935054598724e-02
-1.117095918269894461e-01
-1.615045016386099375e-01
-1.675562001163744541e-01
-1.327485139226668720e-01
-1.033679228064343369e-01
-8.684251861948895368e-02
-6.570934196748007272e-02
-4.393689569282452356e-02
-2.541120618124254396e-02
-5.922968016953644027e-03
6.969083102801143514e-03
1.421781756522855558e-02
2.136318151696956283e-02
2.403460649175787056e-02
3.156811749149894541e-02
4.566438314336949272e-02
4.220437195218382925e-02
3.032217805548629436e-02
4.754809468980231851e-02
7.968831045139569691e-02
8.407647754012120833e-02
6.132440986034182889e-02
2.973471719410472960e-02
2.784884689150004047e-03
1.284410342362049366e-02
5.651342219965541785e-02
6.359183518244082567e-02
1.845753034952686208e-02
-8.538875947066279157e-03
-1.474851154280746798e-02
-6.748604457616876051e-02
-1.414099433842280207e-01
-1.502578111341177636e-01
-1.004541659428331291e-01
-5.795468763927166811e-02
-4.039770554225097232e-02
-3.456135586864364506e-02
-3.587771959806890926e-02
-3.366149663690436167e-02
-1.385443708780376842e-02
7.644949400994331332e-03
-1.466097894320568529e-04
-8.734748893933727901e-03
2.868391869498266439e-02
6.659194683120178704e-02
5.758208343484094716e-02
4.350484870217199290e-02
4.029672516746369421e-02
3.023432606889129778e-02
5.283371064064686096e-02
1.107782224904597795e-01
1.150721713654576095e-01
4.380515586593099198e-02
-1.574799688525542474e-02
-2.551740046278649920e-02
-2.974849749941456747e-02
-3.674812995743062527e-02
-1.887261515597173089e-02
-3.335416652786860059e-04
-1.346313349152747189e-02
-1.752959009845708391e-02
2.334213994027981715e-02
5.940205281688006045e-02
5.622114695019651831e-02
5.982957629579788855e-02
8.104928868283813037e-02
5.622607008857963273e-02
-3.575546568238242157e-02
-1.340169925261898431e-01
-1.752483739309610433e-01
-1.503802715500352216e-01
-1.003986803554456353e-01
-7.261756384136043574e-02
-6.657841192110217077e-02
-4.686815130361704496e-02
-4.777331613054769388e-03
3.775364393846103450e-02
5.852494862858204083e-02
7.020941699369188937e-02
1.195352512307629178e-01
1.575976602116250513e-01
7.531446378117148677e-02
-3.728336552846343854e-02
-2.418759754012723626e-02
2.200706165599557868e-02
-5.410833501989993632e-02
-1.989747232546004163e-01
-2.281106233530121319e-01
-7.014546620800692078e-02
7.444836618934325134e-02
2.824122764074056546e-02
-3.964347163077241998e-02
2.574643930183061549e-02
8.472145869565222975e-02
6.766708654526450151e-02
9.215641392807771837e-02
1.573457482602764468e-01
1.655266585645468469e-01
1.298604893798997462e-01
8.413312517464810458e-02
1.897118379751656925e-02
-2.327720748586040861e-02
-2.790397028715937977e-02
-4.031325033709173833e-02
-4.473298282196953163e-02
-2.871108815697838781e-02
-4.300292163396720463e-02
-7.524809231661064302e-02
-5.797979205749460851e-02
-2.219104453415656972e-03
1.812163447776492936e-02
-1.926563843920108682e-02
-6.643964392049755974e-02
-9.042331065313119476e-02
-1.091014549376933540e-01
-1.290435387423360392e-01
-1.195280817911450050e-01
-7.106257792669584683e-02
-1.796431255991769518e-02
1.954842608745324326e-02
5.625613500630540637e-02
9.868285995420815471e-02
1.403607395667795243e-01
1.741244588065881116e-01
1.886550618646537780e-01
1.886827484855691517e-01
1.748078423031950157e-01
1.141667392735100511e-01
6.870572510420386650e-03
-9.174854764173663579e-02
-1.593717895560886055e-01
-2.146769754908599559e-01
-2.473346195336759423e-01
-2.315534552790790013e-01
-1.775484209160217153e-01
-1.129505014972435883e-01
-3.999012353782192136e-02
4.678728794195761292e-02
1.210943789021808048e-01
1.586037702460574295e-01
1.640685342240854327e-01
1.214227096941330047e-01
2.900691871781538311e-02
-3.573173345348258645e-02
-2.686902928378984146e-02
-3.888611689829638007e-04
9.749051925093494761e-04
-2.488169800912775481e-03
1.759968167940135705e-02
5.857713262407093086e-02
7.553506907034307494e-02
4.236756646170093676e-02
3.365241059819016646e-03
2.037719787870082011e-03
1.571624102443609783e-02
-4.526923000294842681e-03
-5.701854192835775770e-02
-7.818258977016276368e-02
-3.767637583338619145e-02
1.770939874589410462e-02
4.531742694742577071e-02
3.957370650006011153e-02
1.172310204320477570e-02
-1.056890248153201893e-02
-1.476087770375852232e-02
-1.687401320667993032e-02
-2.569626272479243190e-02
-3.446955922939672762e-02
-4.132055843157977915e-02
-4.568854309940613423e-02
-3.877622146252317908e-02
-2.395418155823243050e-02
-9.723989221551643941e-03
1.062104529330854322e-02
2.757022320998414600e-02
2.234713131903592540e-02
6.906810339110674643e-03
-6.757406266359434165e-03
-2.196420031589653432e-02
-2.208533859025062912e-02
9.912438167170826639e-03
5.735125017934455949e-02
9.262793478546291204e-02
9.813972048528335490e-02
6.688381341135356262e-02
1.223775638344868320e-02
-3.527403045511062762e-02
-5.517564752696899749e-02
-5.510082432374874273e-02
-5.015111359582043182e-02
-3.923369773887265544e-02
-2.146490408273613731e-02
-4.179219364423250767e-03
1.685666226052740663e-02
4.954163053194785005e-02
7.382670682018452335e-02
4.828215478054032755e-02
-3.742203746575852030e-02
-1.413730728852861662e-01
-2.043854036227002458e-01
-2.042311410753004930e-01
-1.672934817828198584e-01
-6.411499507622064886e-02
1.532592087474982934e-01
3.260797395471827231e-01
2.809213847339832593e-01
1.562044727874321026e-01
1.115033595420420326e-01
7.671648940680066142e-02
1.171878208156095294e-02
-2.676658059113548593e-02
-4.871223748243613816e-02
-7.912141388791076035e-02
-9.448549128058811308e-02
-9.477713217612029895e-02
-8.504408364775137286e-02
-4.002210717664413109e-02
1.402866543075431509e-02
1.657832944814248768e-02
-9.982353608277068704e-03
-5.665871407857803362e-03
2.007553100808741331e-02
2.312019827756629092e-02
-1.413598153836861070e-02
-7.120732845238524067e-02
-9.284693161488620505e-02
-5.682025493702978075e-02
-9.985382178404873452e-03
1.261015405769520814e-02
1.597600760106039630e-02
7.081579897377125038e-03
2.332057156942532114e-03
1.726265608243853639e-02
3.630361781666554405e-02
3.814517622285423099e-02
3.281871833633071001e-02
3.511008403808150991e-02
3.058087437626736543e-02
1.139351664025095058e-02
-1.411466627327523371e-02
-4.481326990044418729e-02
-5.710938309721104444e-02
-3.214291239986022397e-02
-2.605594455068465688e-03
1.628972474186308680e-02
4.610969644025639247e-02
7.907656665208230573e-02
9.850824969823809840e-02
1.077311529179523358e-01
1.024119663435791583e-01
9.040900289301000148e-02
8.947495806124827755e-02
6.211216442729201870e-02
-3.304577859454191358e-02
-1.313812727633001665e-01
-1.715317905975254631e-01
-2.078232521390521725e-01
-2.051882854172068504e-01
-5.420689739473249363e-02
8.835593423400919799e-02
2.494678821119619000e-02
-9.552538187124301472e-02
-9.727395315657968999e-02
-4.024188515267938804e-02
-7.168375452988928753e-03
-3.378429875524890935e-04
1.980397110165485475e-02
8.953178784538984303e-02
1.785172517034998851e-01
2.230310791005689908e-01
2.034144807754285078e-01
1.432752759628548866e-01
6.992276335860497793e-02
1.247922443848867996e-02
-1.459921220017880092e-02
-5.026985951799794322e-02
-1.161817670789845047e-01
-1.697141720891972017e-01
-2.051251106632885901e-01
-2.387172202287832778e-01
-2.346492165425840548e-01
-1.959888831255172936e-01
-1.561841258157442291e-01
-8.313878454141356011e-02
1.734594846889994657e-02
7.359504672554958993e-02
9.388984699241788301e-02
1.252383745084464928e-01
1.455414150170778187e-01
1.430851343140415455e-01
1.609949232045300993e-01
1.962209259890181079e-01
1.885560653528695618e-01
1.408646742640411731e-01
1.240940519820226545e-01
1.258232360719316600e-01
5.703418659655389716e-02
-2.604356281938393150e-02
6.445698058256836560e-03
4.803437162335733035e-02
-4.376037693668176354e-02
-1.533073445660087797e-01
-1.922723745458531364e-01
-1.819532445002258469e-01
-6.894663478423061764e-02
6.032568665777052891e-02
3.536043813986149836e-02
-5.594342446838448946e-02
-9.643964525636324059e-02
-1.467672945708859977e-01
-2.064361565865948100e-01
-2.043216178876786082e-01
-1.448220776583150349e-01
-6.090012672681111017e-02
2.084069503905212895e-02
7.394166549068212357e-02
1.014132739665601912e-01
1.203057750509921309e-01
1.313501209100029210e-01
1.266961626119787188e-01
1.087409319440415523e-01
9.106476474336783200e-02
7.207963595098165754e-02
4.187692446686742953e-02
2.124961026671906561e-02
2.317880080199731171e-02
1.671132599891816256e-02
5.964137404696909228e-03
2.879037044391780098e-02
4.145609444241702551e-02
-7.113458769270580850e-03
-3.914804460937593156e-02
-1.026012406268288907e-02
-1.794537206821244374e-02
-7.088841670764993441e-02
-6.976232950108560149e-02
-3.623378944778703203e-02
-3.058777407074593502e-02
-1.249216802886429084e-02
2.489317863093982661e-02
3.226794438368802559e-02
2.194133447090090838e-02
1.481456501659422949e-02
-1.787076907124451886e-02
-7.159574263471910061e-02
-1.027214771530885751e-01
-9.921156411303966305e-02
-6.613342681918056576e-02
-1.223979076936844955e-02
1.575411592418649032e-02
-1.855177213175726245e-02
-6.382216714253818868e-02
-4.483715769645700566e-02
2.375399969964349378e-02
6.346270149200197719e-02
5.142066567687804401e-02
5.625269432346542003e-02
9.905510455149237059e-02
9.536944415219762716e-02
8.638578712001307447e-02
2.008905349912356864e-01
2.953860163889581170e-01
1.795649788261328428e-01
4.453128423292054827e-03
-8.042249667929876611e-02
-1.681235738257109702e-01
-2.724163321191773179e-01
-2.759975035824059342e-01
-1.814858672243767068e-01
-9.000061981467351313e-02
-3.261706978590434014e-02
4.405375677099740428e-03
1.767925616593621005e-02
2.483478690159698563e-02
2.779278965284976560e-02
5.365150021538613728e-03
1.153078801868076542e-02
7.884131517170007986e-02
1.045807507824569604e-01
4.348623874927534660e-02
-7.259705679137978471e-03
6.503057005671757790e-04
2.541268583644537560e-02
3.854593524315416686e-02
4.715133316269153052e-02
5.872849054735096441e-02
4.408616265462072387e-02
-7.327190963191432781e-03
-4.776775777387221034e-02
-7.295344403907791375e-02
-7.635577174668445322e-02
4.546066190844010382e-03
6.816649942956838626e-02
-3.831926943282265574e-02
-1.635250831406999117e-01
-1.229217873199973665e-01
-2.882032927252481044e-02
9.472206462583211695e-03
5.699589166716698130e-02
1.174699043452934327e-01
1.270801880908848935e-01
1.111721777471329636e-01
9.695785148233954098e-02
4.826018516095206129e-02
-7.836611089862020874e-03
-6.004792362371426384e-03
1.476057883595402985e-02
-2.333438517803674422e-02
-1.011647931591989624e-01
-1.440247318935212739e-01
-1.249010958648466008e-01
-7.960269800009761587e-02
-4.665354956623037064e-02
-1.876469768420099479e-02
1.800965486343904243e-02
5.124287919721300100e-02
8.139962756933719068e-02
1.087247415400127148e-01
1.136724669446388114e-01
1.086371170892480725e-01
1.072521851146808758e-01
8.145800826190176258e-02
3.368820584313982763e-02
-9.809357240853848470e-03
-5.129031810296308391e-02
-7.614459624790140269e-02
-7.238632895715353677e-02
-7.290034925497650142e-02
-9.363128969319667316e-02
-1.222192728271968010e-01
-1.524391251096702260e-01
-1.665929155544505491e-01
-1.466917662057154459e-01
-1.056894529128223764e-01
-6.796790820326131799e-02
-3.687883830790276984e-02
2.036670146036183987e-03
5.225410781336162214e-02
1.009534193097579580e-01
1.346109970055215099e-01
1.446919122606724895e-01
1.401631715142497292e-01
1.381062287163662972e-01
1.289954542483466027e-01
1.071428144098700297e-01
1.053949790189938340e-01
1.212617250828400550e-01
9.994025264538095032e-02
4.799487662048612657e-02
1.836259561982176228e-02
-1.004849538809790555e-04
-3.315762946348017881e-02
-6.392652640671031561e-02
-8.599413260348676147e-02
-1.017839724933196632e-01
-1.126788895952063468e-01
-1.316234985733775731e-01
-1.399551098610715139e-01
-1.092391782256835336e-01
-6.434211886907212352e-02
-3.505811830503126336e-02
-1.076421357367258330e-02
8.322708212017398272e-03
9.482201914609897364e-03
1.928089285365979996e-02
4.619489340464694171e-02
4.427148840369928007e-02
2.488356358766581622e-02
4.549740543333580245e-02
7.374604055825965954e-02
5.584716845454907458e-02
3.676178688485191859e-02
5.811795200761494390e-02
8.031820866360965538e-02
6.401260268011729759e-02
1.643282241128040961e-03
-9.071254995432431745e-02
-1.624132174184336752e-01
-1.775290538029480891e-01
-1.503547393205567628e-01
-1.026943500047539648e-01
-4.720288654931452388e-02
-5.778079817050821299e-03
8.124668977564768538e-03
6.587973956137627846e-03
1.082751643583947619e-02
3.569972518495384550e-02
8.313317134311978829e-02
1.367766097723338847e-01
1.650530869971353898e-01
1.444636487715004747e-01
9.749781887550758308e-02
7.913693225445056489e-02
8.836112427453890472e-02
6.785933510619088227e-02
2.478050149859579304e-02
9.414665526310362492e-03
8.637637830699700092e-04
-3.283143187496748855e-02
-6.868764660131732036e-02
-8.742204221792010399e-02
-9.098699867389513363e-02
-9.570198559540556149e-02
-1.127975378440813636e-01
-1.080162375382490159e-01
-6.767165588369916662e-02
-4.440923474241936786e-02
-5.144818298047823535e-02
-3.692124520829148659e-02
4.318354559858076508e-03
2.278456616063520221e-02
1.539303540651501892e-02
3.000831650398835468e-02
7.647340216394160617e-02
1.067308834608750867e-01
8.225921348388301468e-02
2.259695589957432665e-02
-2.446082660294744693e-02
-4.535214557461993146e-02
-6.126114743585541617e-02
-8.158473275057140373e-02
-9.652223456143380065e-02
-8.794657663226991551e-02
-4.000729913822637096e-02
2.565800467005367042e-02
7.352111400747154968e-02
1.109933595384254568e-01
1.361360166496287105e-01
1.174185533200287901e-01
8.479926279486350860e-02
8.955955911605620323e-02
9.921794493614764787e-02
5.149211079518865863e-02
-5.560015990127201158e-02
-1.555898727013793059e-01
-1.861369163608111443e-01
-1.615722977195553911e-01
-1.168545559112128818e-01
-6.041715074227425875e-02
-1.969324692462488119e-03
6.519511245353497297e-02
1.321032964013672817e-01
1.423929704827716636e-01
9.562384434841285363e-02
6.006578538290492653e-02
4.904095832771339369e-02
2.850880698117800802e-02
3.631663244269740104e-03
-8.258792847802318843e-03
-6.436415010378834095e-03
6.903622741841506510e-03
6.065697570060865802e-03
-1.928159897236863055e-02
-4.256614553284662761e-02
-6.739729231292600209e-02
-9.682817235917687282e-02
-1.062643676780594404e-01
-1.166523858384881651e-01
-1.472019023208301081e-01
-1.489722933230620550e-01
-1.008141509170269040e-01
-4.212218628684926552e-02
2.199406306191501251e-02
1.151053464850464308e-01
2.156780436396594502e-01
2.741282855530668972e-01
2.649968306461393253e-01
2.039492219446200072e-01
1.327691270904629850e-01
7.369308535533017346e-02
1.052125475985600869e-02
-7.158919576240917182e-02
-1.555845651848085376e-01
-2.103629983553114979e-01
-2.247958313564526467e-01
-2.208515818526758101e-01
-2.091413998476123748e-01
-1.550525999506849328e-01
-6.521178673421805516e-02
-1.149559023537867486e-02
1.396810912337177746e-02
8.239522445071564838e-02
1.626130329339477154e-01
1.796344486872052948e-01
1.542757915909347410e-01
1.376146533878066791e-01
1.157707978847906244e-01
6.448574861247209633e-02
5.478771330059254568e-03
-4.081879198846109780e-02
-8.167064364489845518e-02
-1.117388907219652727e-01
-9.853721554754468759e-02
-3.710788506160403455e-02
1.534050794667044838e-02
2.972735492101341581e-02
5.006534168807612317e-02
8.484814468772416962e-02
9.412802675834153199e-02
7.488282721336417258e-02
3.866991611666696638e-02
-1.476576407020333687e-02
-5.833829928853741936e-02
-6.561235908297029240e-02
-4.976367871574090274e-02
-2.587797686102605646e-02
-8.376099854780539450e-03
-1.683884049979117795e-02
-2.505695607975309824e-02
-3.892314282300933081e-03
7.913073343729830691e-03
-1.772509065138098971e-02
-4.524174340145614703e-02
-4.952996415638379751e-02
-4.330946612737413687e-02
-3.643299329611315168e-02
-2.442352674581491773e-02
-4.979834440301672549e-03
1.185156025213761517e-02
1.621789071642028290e-02
1.531988170303427536e-02
1.764784779944048726e-02
1.356932314992584723e-02
5.204287192197452547e-04
7.997842207166320355e-04
1.754892061818745866e-02
1.866405433454011026e-02
2.763588684668331994e-03
1.550554397365527803e-02
6.577829047946565089e-02
9.126728474250006551e-02
3.658033210218478853e-02
-7.283630451006405104e-02
-1.539770405438735668e-01
-1.511823884142910746e-01
-8.673702630954865933e-02
-1.836890022829055710e-02
4.849148169693832944e-02
1.464815083811514818e-01
2.366302911200406922e-01
