-8.145967789818181481e-02
-5.731039055929301740e-02
-4.564991404451367030e-02
-4.070771389376167532e-02
-3.065706066053610832e-02
-1.706014412746889239e-02
5.905472430352361538e-03
5.266475863426915011e-02
1.066398200083449044e-01
1.382456907289695835e-01
1.604283819993669868e-01
1.639469981208773186e-01
7.919408685786387403e-02
-8.061917275839781960e-02
-1.960214139547045709e-01
-2.267076028196823856e-01
-2.238256723066484044e-01
-1.837261899057824610e-01
-8.710302533284980386e-02
6.372119888610616387e-03
4.823670554328814142e-02
8.036192955794380088e-02
1.349659295585401431e-01
1.551216295547550583e-01
9.995287347967964087e-02
3.036525694825354532e-02
-2.703968364791395178e-03
-3.096069326909584724e-02
-6.425022906232756570e-02
-6.115405636535229533e-02
-2.434725063684621549e-02
1.271773745625637535e-03
1.137581295455887889e-02
3.146654863797966606e-02
5.600861791422694080e-02
6.577055671797084335e-02
5.937725948151342109e-02
4.096151838123579525e-02
1.684657476700740508e-02
-1.496231025212808527e-02
-5.683037838911869644e-02
-7.564028876794189060e-02
-5.375720742268054464e-02
-3.498563632305691506e-02
-4.099932530185834006e-02
-4.344764396461988504e-02
-3.584889327713614016e-02
-2.750581833094930054e-02
-1.153463991271139882e-02
1.107578552234407022e-02
3.050978894453684059e-02
4.481519674013468429e-02
5.892292082877039622e-02
8.426487619488753911e-02
1.152135761912519984e-01
1.008914079505580513e-01
1.017784257580658588e-02
-8.557592945278026664e-02
-1.058360528070069473e-01
-8.732967393521506860e-02
-9.007028636917299713e-02
-7.212698644445593443e-02
3.666510633256165816e-03
5.474391274519817274e-02
2.312076276705592182e-02
-1.455138298533343276e-02
-1.953599010582147012e-03
2.931660677436001908e-02
6.911242785238569386e-02
1.305279806943077936e-01
1.984553855302166048e-01
2.216326812404631197e-01
1.259645755308917980e-01
-7.165856576479207041e-02
-2.163367315965189774e-01
-2.196855711458541860e-01
-1.786304246096681592e-01
-1.742781862851565666e-01
-1.579305303810130123e-01
-1.080731948336609294e-01
-6.026413822186212771e-02
6.908707889665580831e-03
1.088248772617616544e-01
1.768310497469912923e-01
1.732752644065950753e-01
1.467455034938052183e-01
1.195009541658426100e-01
6.810592778602835018e-02
8.284067631749407121e-03
-3.192264777226536121e-02
-6.326730042624557904e-02
-9.436967763682092836e-02
-1.016456900198774299e-01
-5.102634972352845799e-02
2.407267735756678934e-02
3.091457395002980557e-02
-1.124803310942790700e-02
-9.778866754141486012e-03
2.458137808730195134e-02
6.270371608950310593e-02
6.710113891980720724e-02
-5.008665911550034405e-02
-1.781156689413152527e-01
-1.257961584595427840e-01
-2.054008635869952054e-02
-4.336779449263081232e-02
-9.978813418645320066e-02
-9.076614543136640734e-02
-5.716004143421235528e-02
-1.579524081717570416e-02
4.077224673482540696e-02
8.057965956572024635e-02
8.511840263945354146e-02
8.022919993430836783e-02
9.798182773918714950e-02
1.428925928809645363e-01
1.953934248653511063e-01
2.385240484887764800e-01
2.615529963621453513e-01
2.500596288260368283e-01
2.029121178835554817e-01
1.273863001452284205e-01
1.824377258712694960e-02
-1.158046431157143119e-01
-2.452550259799711752e-01
-3.301969796494191312e-01
-3.211780010333902258e-01
-2.397933702539136458e-01
-1.702365517191342104e-01
-1.092732558981854563e-01
-2.814436411150209039e-02
-2.460085028365179005e-03
-6.695475537459494308e-02
-1.262962611430951398e-01
-1.207670030753826285e-01
-8.988653238075072771e-02
-5.490505629920580666e-02
-5.036877619700327879e-03
3.710938161567269022e-02
7.002202040937301197e-02
1.210486679688389799e-01
1.582525257893728499e-01
1.526041159625132759e-01
1.437695546858913931e-01
1.487449625913395412e-01
1.408105139895027280e-01
1.052484843656400632e-01
5.055460869500169596e-02
1.095568859615006496e-02
-1.535501326439543679e-03
-2.554648270391498416e-02
-6.548118567797234224e-02
-7.979690267723238417e-02
-6.494739261189350077e-02
-4.929719140288626317e-02
-4.403009360895100699e-02
-4.956694982081197298e-02
-6.770399091504897271e-02
-8.159700029764435647e-02
-5.147274015984505680e-02
2.495449132695968728e-02
7.369817295262268142e-02
4.078427196907517815e-02
-2.110215687567653167e-02
-5.357787170235789320e-02
-6.814443603183578668e-02
-5.738159075857249269e-02
-1.608227112995583297e-02
-3.852025497591862919e-03
1.454814469386512578e-02
1.387438283876291090e-01
2.420028004319094150e-01
1.614436719006508703e-01
3.260044706195863728e-02
-5.867085322080398124e-04
-7.797036405726587988e-03
-2.445239289378838346e-02
-1.254080302913494413e-02
-2.424704940442334866e-03
-2.953978068193741785e-02
-6.608438204033184604e-02
-8.232523714259973313e-02
-8.085432826160753039e-02
-7.016417523956050561e-02
-4.227799481537768828e-02
1.749114270776988556e-02
8.294296767056748287e-02
1.202250055519673566e-01
1.764736041436800740e-01
2.352905974841221215e-01
1.486025032694953396e-01
-4.624564297076659558e-02
-1.575204723804486950e-01
-1.790860789053944635e-01
-1.640417328600163316e-01
-1.441498280369492013e-01
-2.436519504558443128e-01
-3.917398758518007007e-01
-3.249945757187211459e-01
-7.442659873592166742e-02
1.165886670514733325e-01
1.934424255625630806e-01
2.227685488431413452e-01
2.230862002363502850e-01
1.950143695817485590e-01
1.326210719153628759e-01
4.628589281782920228e-02
9.787361440854413369e-03
3.548375508692205860e-02
1.640081277045866981e-04
-7.749139718124127552e-02
-1.510354341437918080e-03
1.488865124226601555e-01
1.106160750522038605e-01
-3.595984518086291909e-02
-6.987624346007537124e-02
-2.711682257924798861e-02
-3.604746568436350759e-03
6.293854414526799806e-03
5.800741255192750495e-03
-1.846206919836868021e-02
-6.752457667288445931e-02
-1.015974288280671323e-01
-6.732371311559082194e-02
-2.844843222368289085e-02
-8.211920286112303624e-02
-1.177441496201819399e-01
8.010432305039200118e-03
1.426891537950459588e-01
1.108957887168901119e-01
4.113593354079761455e-02
6.000892294928683590e-02
8.838210581486073691e-02
6.798055472533637289e-02
3.112125727773224632e-02
3.463430470867225400e-03
-1.331422256584656461e-02
-2.636021225588278810e-02
-4.320740691482058415e-02
-6.293554813220504640e-02
-7.057401193292504871e-02
-5.482643634455944270e-02
-3.103776853358748006e-02
-2.095462070620851547e-02
-1.963682679291652022e-02
-3.050209634724324222e-03
3.587290685613197389e-02
7.743552438283302086e-02
1.101195206419952610e-01
1.374625638403864647e-01
1.371688792015248182e-01
6.830281060538731519e-02
-6.808322650890981376e-02
-1.951380431143776573e-01
-2.237902010365956373e-01
-1.757858678140302722e-01
-1.385202960686636176e-01
-1.159016010837574384e-01
-7.591002811472499778e-02
-2.563826407648010786e-02
4.425349172963585764e-02
1.240959006194861242e-01
1.412246614631854080e-01
8.303318336921587661e-02
4.442055938250689950e-02
6.225932560000747157e-02
5.409445091288794805e-02
-6.743409008851249282e-03
-4.837677056877733028e-02
-5.339418345592304022e-02
-5.638163171219583158e-02
-5.284818386448560112e-02
-3.208679984642913430e-02
-8.147881816339724165e-03
3.273905418322998334e-03
3.516516979940287682e-03
1.077249449424845344e-02
2.400222056614353949e-02
4.563070306408509996e-02
1.222279865581138714e-01
2.458685132358642833e-01
3.234960216245525433e-01
3.149599120953667786e-01
2.437135622837209026e-01
1.417431135108935814e-01
6.845981595148098453e-02
-8.332895101425839834e-03
-1.937998567773622227e-01
-3.659846112957629849e-01
-3.394955620765386373e-01
-2.479597222584874194e-01
-2.487958396740737321e-01
-2.419896060324785159e-01
-1.760756656130274267e-01
-1.308229780631358086e-01
-1.010206427692564163e-01
-5.285805176214304624e-02
-1.540280364338842550e-02
2.039562223563836513e-02
7.947340688086962368e-02
1.089250143034556362e-01
8.465748536950694347e-02
7.748361686522789449e-02
1.112661426982551605e-01
1.360221105059430946e-01
1.404511834535382420e-01
1.608572358924253431e-01
2.269410475420782225e-01
2.693069035680693557e-01
1.508226458346267895e-01
-6.117938995772445598e-02
-1.551275467551747334e-01
-1.439213302345233869e-01
-1.602889554913713710e-01
-1.845988913403283360e-01
-1.634011013662326484e-01
-1.239682401610229662e-01
-8.833004359161886199e-02
-3.726114696989493019e-02
3.800782334205562996e-02
9.678516454017237203e-02
9.349272481437898019e-02
5.792579114036692373e-02
6.004093394677299106e-02
9.449519137693278281e-02
9.244319749431970101e-02
3.822619546303541310e-02
-1.464177999585903819e-02
-3.252810684182625561e-02
-3.458988887809184842e-02
-2.748731529506862753e-02
4.738152056194259998e-03
2.383451581670018374e-02
-8.638439029350271706e-03
-2.611456209317991259e-02
1.136429097178569617e-02
1.574514863394676362e-02
-3.411249457857910838e-02
-4.112366837540198244e-02
-5.873470279776436820e-03
-1.619180209375400969e-02
-6.072978587419407964e-02
-6.916602056085445482e-02
-4.772028518329822500e-02
-4.224725650270600569e-02
-3.718590707516249150e-02
-1.212031405377468618e-02
-2.057233690565150874e-02
-2.435379113065631179e-02
1.044146488218145041e-01
2.420696829807168493e-01
1.826548590225790247e-01
6.864389229641613965e-02
7.969311801645830029e-02
9.342893701298669862e-02
2.892810558840188534e-03
-9.475349415740903780e-02
-1.117776009219595412e-01
-9.802974150780925655e-02
-1.449311302319433170e-01
-2.237082633832884471e-01
-2.130481980113339557e-01
-1.122232229908972923e-01
-1.199094364778200555e-02
9.806551384304582064e-02
2.178918644978657393e-01
2.641339157452539110e-01
2.683219078629937027e-01
2.584331788077930403e-01
1.106242733874858303e-01
-1.234801469901994075e-01
-2.246398071001450003e-01
-1.983489157176667739e-01
-1.706840094772942573e-01
-1.581457756315750030e-01
-1.463226311673683222e-01
-1.161554238306871240e-01
-5.116146005130119828e-02
1.795270961333117130e-02
7.734166906758192794e-02
1.343899729280308430e-01
1.565340551281403092e-01
1.442458236055410847e-01
1.545706942362981562e-01
1.347292236638284735e-01
-8.825831197804731923e-03
-1.283481229965295622e-01
-6.267486967320365365e-02
1.617557503984439621e-02
-3.612097103857146718e-02
-6.448766900205278596e-02
1.180969536170193082e-02
7.015598579744103391e-02
5.232342611475294947e-02
7.130992958467860694e-03
3.316207627944278008e-04
7.590295779888318883e-02
1.259701104018185747e-01
-1.407611083306141084e-03
-1.660105733413543838e-01
-1.569024413893062020e-01
-8.921703293320100425e-02
-1.083246945556606416e-01
-1.248863287759454377e-01
-8.172774247514925927e-02
-3.987918927893446819e-02
-3.861306508039823865e-03
6.178325830981125366e-02
1.215252285265750049e-01
1.355101894226362624e-01
1.369088255324134862e-01
1.222654070485202221e-01
4.013146440347490490e-02
-6.330624106147118846e-02
-9.725911577802245911e-02
-8.105836588637899132e-02
-8.466121866208435598e-02
-6.316550505989708408e-02
6.144448825838042666e-02
1.586976221985114399e-01
7.479418020303982284e-02
-4.682659188746317314e-02
-4.893168133570514888e-02
-2.487883708910518243e-02
-3.972607843086372464e-02
-2.696052797069469278e-02
3.204765182433611664e-02
1.165053378168915271e-01
1.786819462903580513e-01
1.113471517039977543e-01
-6.785662035869166608e-02
-1.770877825829272889e-01
-1.629457054150598438e-01
-1.335831569888845938e-01
-1.294750705850087613e-01
-1.397188276728968115e-01
-1.546539299183086469e-01
-1.029022713637103154e-01
2.706575121323010272e-02
1.252344763619415713e-01
1.567264454393444140e-01
1.901373639762378165e-01
2.450524019606998560e-01
2.917361767311276166e-01
3.058152918345394822e-01
2.731217338650726023e-01
2.095515060024573939e-01
1.311360491318857568e-01
2.950373268790093539e-02
-7.651300361619578494e-02
-1.546575709505462193e-01
-2.200168465241746918e-01
-2.998214606304642760e-01
-3.643543334039927029e-01
-3.574256276834359980e-01
-2.873696754186240154e-01
-2.170436609163287345e-01
-1.641209384372295244e-01
-9.511078184411154990e-02
-1.305186351254611354e-02
4.205015920956450132e-02
6.927168233481655057e-02
8.612936604093719695e-02
8.082337756736623913e-02
7.379532395398252786e-02
1.130463271626773458e-01
1.653554740635093945e-01
1.682567616454383463e-01
1.486375897743390517e-01
1.496999560579538868e-01
1.460102088082843863e-01
1.070749479045050717e-01
4.611541546291346438e-02
-9.146360579538881375e-03
-3.934729502948763891e-02
-3.934357054701023010e-02
-2.949661164169380123e-02
-3.237989885815856922e-02
-3.898362228519297590e-02
-4.828893524027071116e-02
-8.389888332682310379e-02
-1.295394604083326406e-01
-1.265306533650267518e-01
-4.535339383969043403e-02
6.710064065649062881e-02
1.342027540890395887e-01
1.547246582259741432e-01
1.709299777573273504e-01
1.526855840531166630e-01
4.918642633408481374e-02
-9.497057627642654931e-02
-1.891759960138094665e-01
-2.114184576503232438e-01
-1.881248069585235716e-01
-1.194864100625781522e-01
-9.800088447511984269e-03
9.656032092908758968e-02
1.494937162218821780e-01
1.159567092312304565e-01
1.535533497292428454e-02
-7.595752811530503967e-02
-1.238166298126301412e-01
-1.597348388026393062e-01
-1.774475349764760013e-01
-1.226799292016547277e-01
3.726803428280291760e-03
1.195974646581845213e-01
1.560155501895256758e-01
1.341196383024072514e-01
1.040819721943422732e-01
6.074414322598087335e-02
1.845573016277730124e-03
-2.673700133753834779e-02
-1.055005773810860359e-03
6.438918030221077449e-02
1.330735861852643254e-01
1.464161906460222373e-01
8.391557277357897249e-02
-1.399452736342231968e-02
-1.081430712875759148e-01
-1.770280825099534994e-01
-1.792207811987268640e-01
-9.804997798474321402e-02
-1.773589958243456874e-02
-5.454238529591625903e-03
4.491630879403983589e-03
5.729710850397968375e-02
1.047295291177865462e-01
1.255787867699610372e-01
1.159275100482667908e-01
7.644835094121246732e-02
5.789250700938729233e-02
2.979999546912759367e-02
-9.167330522741630461e-02
-1.841030989920527383e-01
-1.076194722086575156e-01
-1.684448299424661996e-02
-5.467906045512057472e-02
-9.928057895408620714e-02
-5.776153105364562057e-02
-1.411166649552278093e-02
-2.510016858998036920e-02
-2.761427880526303932e-02
4.649669259527586251e-02
1.601017520869450761e-01
2.154381892647441177e-01
1.933702026421154629e-01
1.325597423398665320e-01
2.025775231408738150e-02
-1.243994922001490921e-01
-1.937760208043509957e-01
-1.590248897726474486e-01
-1.181792956530264838e-01
-1.278338090721903297e-01
-1.464435591906217971e-01
-1.250009098293310139e-01
-4.375335192821205171e-02
7.948106366889566565e-02
1.709573128425425637e-01
1.752447307554562683e-01
1.274603543111707538e-01
8.595751244747346087e-02
6.270705168165201238e-02
3.892851166313802264e-02
-2.437847463016600685e-03
-3.980718340115355081e-02
-3.530164382589530414e-02
-1.678537494118063564e-02
-2.100342716600668916e-02
5.248794258678260438e-04
2.351976063933799294e-02
-7.688782514941323865e-02
-2.067766610582475739e-01
-1.559112126598433123e-01
-1.720276567581471849e-02
1.531472089230715393e-02
-5.245784212355910497e-03
1.555746042743609038e-02
3.627891477648600288e-02
2.656975439895626484e-02
2.205698402136289232e-02
4.649318935354562754e-02
1.018590125214463016e-01
1.849876553206570018e-01
2.604293203350696584e-01
2.823373793780153407e-01
2.625125615633367993e-01
2.277741630394611583e-01
1.456995682854471397e-01
3.280429058036410384e-03
-1.184923850480096158e-01
-1.713881741882067322e-01
-2.304227533953457085e-01
-3.199384377762713449e-01
-3.439479910935766549e-01
-3.007907437389547023e-01
-2.782976637412467591e-01
-2.569115900869738400e-01
-1.934777087985966315e-01
-1.263696271647274660e-01
-6.530190562972296164e-02
1.697879247281525172e-02
9.880100244688561073e-02
1.547397441850643651e-01
2.199639721213877408e-01
3.186278573687053584e-01
3.845396917258888658e-01
3.324017295829096996e-01
1.756764405154374598e-01
1.293949946871849124e-02
-8.848707412640012537e-02
-1.321881943295605266e-01
-1.324294642633563612e-01
-1.065454420754576581e-01
-9.168983063743116335e-02
-8.486966801999927534e-02
-4.473964684280119092e-02
1.023690435982321442e-02
2.667549558801656645e-02
2.110034078006810948e-02
3.423045679900573596e-02
4.468022729458676762e-02
2.251330138327827315e-02
-7.454425354044829678e-03
-1.347837162582752810e-02
-4.818500992554268676e-03
2.021456988853475266e-03
3.949726848464041838e-03
-5.827556441638927914e-03
-1.602226346540323171e-02
-1.881289412171361676e-03
1.852980438329106597e-02
9.188364203209549094e-03
-1.591248769288771542e-02
-2.226732146252550365e-02
-8.983702592181057323e-03
1.535715791663617297e-02
4.851679987952279421e-02
5.587699830766089393e-02
4.485759064299815226e-03
-4.780767972559563095e-02
-3.041973554774141802e-02
8.488331604429183788e-03
1.634889074267625170e-02
3.012355561546964725e-02
4.088883597960987076e-02
2.242486415153725071e-02
3.480445535930546536e-02
6.926897585624225417e-02
3.487908442508330653e-02
-4.719076343185214101e-02
-1.036078225140591724e-01
-1.319214265947439568e-01
-1.438287500674687858e-01
-1.429782697694365889e-01
-1.332523399496507166e-01
-1.036232131235381576e-01
-4.154399320023401815e-02
6.196206792324545493e-02
1.678574545956327269e-01
1.907243063336011013e-01
1.438227544520384871e-01
1.190482815561484387e-01
1.064702431768164426e-01
6.720293842372483673e-02
5.141779289215633181e-02
5.139493172806708365e-02
-2.232302206391982569e-02
-1.358429516156328953e-01
-1.654136233258561295e-01
-1.183363354162945275e-01
-9.462554236084799730e-02
-1.113277351088954453e-01
-1.164400071827344646e-01
-7.831914504459883131e-02
-5.210008305022988985e-03
6.840318065417030913e-02
1.129097846161653540e-01
1.226205466260458510e-01
1.136035354149031729e-01
1.090789216299655195e-01
1.052872114921577090e-01
7.142064484014062908e-02
5.486932160446740883e-03
-4.182365577150449348e-02
-2.881035100111391592e-02
1.060084346290979598e-02
8.990845851238304584e-03
-2.326290550508188296e-02
-2.160804677032301252e-02
-6.561495186243042343e-03
-3.420511221300000931e-02
-3.338928967083909516e-02
7.158687177552722214e-02
1.270698515273488982e-01
-2.857854546085289785e-02
-1.875295825271841299e-01
-9.257361967474579678e-02
5.022759617505852953e-02
-4.094639366320902696e-02
-1.917694311211176617e-01
-1.597967942397197638e-01
-4.098881563284256790e-02
2.483110277450357659e-02
5.141570935200771852e-02
7.348912100736929021e-02
1.106817248871226622e-01
1.435340110192034613e-01
1.132233499662333581e-01
4.501274622330236896e-02
2.590133272494848926e-02
4.512981001453739843e-02
1.896605611053513510e-02
-5.952697412282096506e-02
-1.195971533479188997e-01
-1.230301272605478363e-01
-1.005163978794995361e-01
-9.415766776744752264e-02
-9.774511526754676993e-02
-7.589231303641102988e-02
-2.936683132244961511e-02
1.610257275748717271e-02
6.803632157892033905e-02
1.359305292310142854e-01
1.987820889294084070e-01
2.404004261130054110e-01
2.146251804011190811e-01
6.818844996312717344e-02
-1.141974705853696231e-01
-1.971234673165165874e-01
-2.033666387020037769e-01
-2.137601358489902292e-01
-2.034352753340272768e-01
-1.304810142676163243e-01
-2.599886451921065711e-02
6.801120887435768703e-02
1.726929979565359485e-01
3.206496403325549416e-01
4.010024947666054329e-01
3.029236695521318468e-01
2.080839981702927721e-01
2.378295766273905987e-01
1.606566020912031101e-01
-4.472895322117420580e-02
-1.285446373548524979e-01
-1.495134903874017485e-01
-2.607921241075997765e-01
-3.473830440847926471e-01
-3.307154403582319713e-01
-2.861770511273935558e-01
-2.502615094550382779e-01
-2.017410666340934966e-01
-1.092749323410140694e-01
7.604112684467742578e-04
3.846369179948726930e-02
1.941422562137024022e-02
5.484252856763607159e-02
1.236766064524437159e-01
1.073631274583721901e-01
2.918661186521671891e-02
1.868618084729116446e-02
8.460035754068390146e-02
1.226464860261568951e-01
9.740312543649715105e-02
7.288693917500514707e-02
9.461777832537504596e-02
1.232525734129312767e-01
1.034645712658371353e-01
5.597364463704816717e-02
3.258373010132089437e-02
1.858085485788781369e-02
-1.128391461114644848e-02
-2.513533619125289317e-02
-3.519813106748891085e-02
-7.874933403858691561e-02
-8.954140541082680760e-02
-4.659507825485920129e-02
-5.805829907330331552e-02
-1.104397143441247370e-01
-7.902188226184465869e-02
5.034197869169589404e-03
3.675880351912935023e-02
5.138216146738760343e-02
1.200313800907521211e-01
1.923573147032976161e-01
1.799786473803337561e-01
7.181725125521103148e-02
-7.910791993267304867e-02
-1.827886546345791341e-01
-1.742916361498864086e-01
-1.084204894332527480e-01
-7.626251880940709826e-02
-5.217374014387870379e-02
1.949025845737074880e-02
5.896759855055344612e-02
-1.463047245060090235e-02
-8.035233927644198915e-02
-2.831714868908666305e-02
3.336474779722684719e-02
3.179372878638821870e-02
3.791867962691551630e-02
5.080298601263652514e-02
2.249042819518691505e-02
-1.715440184562534894e-03
1.401032655222402695e-02
2.079902866809271722e-02
-1.112275730088255719e-03
-1.573557419557136683e-02
-8.010981152644779113e-03
1.723815781299122690e-02
4.788539203024622798e-02
5.723251752049150071e-02
4.149166225467681296e-02
2.914081746979958060e-02
3.466648987954479982e-02
4.743760929742282806e-02
4.848206653272928157e-02
1.301448732848969024e-02
-5.118005922240372735e-02
-9.632992776460955198e-02
-1.101586827034329169e-01
-1.053581426913630936e-01
-7.526735698560073351e-02
-5.466617154616740942e-02
-8.539111399051003970e-02
-1.011666327413815458e-01
-2.674190458031672213e-02
6.835597056066708421e-02
9.409722899953365527e-02
9.524491410577842765e-02
1.243180426493972340e-01
1.305492294655504482e-01
8.001230361107208866e-02
2.043135744637934043e-02
-4.671637056743064426e-03
-4.393636797148669365e-03
-9.304391606933500383e-03
-3.362510046194135821e-02
-6.779798074320594892e-02
-8.249108645665162443e-02
-5.522082707644086763e-02
-1.488477920650219805e-02
4.595921893769073716e-03
4.196291475730255099e-02
1.307233954914390206e-01
1.834903169980902637e-01
9.423996985602360599e-02
-7.324424613251058480e-02
-1.634065750435075015e-01
-1.523642180550230929e-01
-1.230861914764762866e-01
-1.085178954729333345e-01
-9.002593797069134707e-02
-5.425266817314713941e-02
-3.892050606433317822e-03
4.582872695967135646e-02
8.516373805475939418e-02
1.020147701108041483e-01
8.495711043677268981e-02
6.394180767692418665e-02
6.760717281792494315e-02
7.391515249778575491e-02
6.511955083245150877e-02
4.506487827999856172e-02
1.438909365122335859e-02
-1.310523772797950008e-02
-1.969130068598554106e-02
-1.577351099012936492e-02
-3.431194071251617017e-02
-7.093417803607990346e-02
-6.503020964913300284e-02
-1.260864223210736608e-02
9.385403873041178041e-03
-1.134542228796751526e-02
1.765499452349457606e-03
6.431504792689170247e-02
5.085220569333127882e-02
-9.897861547995297216e-02
-1.889120259826175818e-01
-9.403247372460082909e-02
-2.225312380329499788e-03
-2.053077085367165794e-02
-1.804601179525690269e-02
4.206723087343589018e-02
7.355346582740136807e-02
7.918849309622584542e-02
1.065864794868296161e-01
1.221217801855455504e-01
7.140044636395398436e-02
-2.122591300284303387e-02
-8.507174756859017806e-02
-9.418861344947893066e-02
-8.367569826994716853e-02
-8.190281836141501126e-02
-6.630125395733366123e-02
-1.740812890460421980e-02
2.424862223557973720e-02
1.595215609986510436e-02
-1.968118084808698903e-02
-3.703411835144360814e-02
-1.203852165377332015e-02
6.172516428519679577e-02
1.524683959225725527e-01
1.929531610778633111e-01
1.496384809228607504e-01
6.020095812442515654e-02
-3.988807465065125069e-02
-1.595984291491049367e-01
-2.518820934231551512e-01
-2.334807791953215084e-01
-1.247147343998600832e-01
1.321214787536574738e-02
1.501441476941458575e-01
2.430062976533931551e-01
2.898534289964216359e-01
3.152336303243606364e-01
2.905084336944462331e-01
2.099150843040753223e-01
1.069961175330196163e-01
-1.977007538041275492e-02
-1.566082791057404888e-01
-2.457683469609849292e-01
-2.704009270059238856e-01
-2.780757485712352928e-01
-2.973844362082690984e-01
-2.870843270226471899e-01
-2.224656440601842644e-01
-1.551101126995093060e-01
-1.124107901651615060e-01
-5.778721204560702956e-02
2.197819549031090197e-02
9.845909333550953435e-02
1.382517906928259765e-01
1.305870025175716875e-01
1.202209909145628419e-01
1.492164143024225786e-01
1.752563637711005151e-01
1.470948843473519618e-01
8.480056067748506510e-02
2.201333349924906521e-02
-2.998952207616746232e-02
-5.345477980839827281e-02
-3.306534540362367214e-02
1.410468331632995856e-02
4.849401713974680478e-02
5.522122696474274922e-02
5.625655246060204395e-02
6.227999426429325913e-02
5.677656399631836326e-02
2.428213924000129781e-02
-3.336282265260304830e-02
-8.182673996438057096e-02
-8.348097763041043007e-02
-6.307257852699225953e-02
-6.745318365128954996e-02
-7.878181251332361246e-02
-6.805300469372445316e-02
-6.182901079292979496e-02
-5.703221159427356024e-02
-5.115062569877740564e-03
6.513553845680940257e-02
9.763549740609568650e-02
1.403090066822864912e-01
2.167869126633863441e-01
2.146107772618528475e-01
8.458758242246894321e-02
-6.725885673780443441e-02
-1.648528890593453644e-01
-2.080712459335675169e-01
-1.960856547779014636e-01
-1.581280369901576222e-01
-1.240354251688466358e-01
-6.442613964559416873e-02
1.740656286329305552e-02
6.117968007647772710e-02
6.784559335236123312e-02
8.353303601992502492e-02
9.574069528131341766e-02
7.442522710606762348e-02
4.213994913217457283e-02
2.236011321418896955e-02
9.801440686644626379e-03
7.827053302672144774e-03
4.135965110720063453e-03
-2.481160681994256864e-02
-4.104703053804596713e-02
-3.494495653636473312e-03
3.263667302823298338e-02
7.375890648330628296e-03
-3.131695865964338743e-02
-1.731138722430934293e-02
2.062455795783994100e-02
2.984778330228234772e-02
1.705450657891815353e-02
-4.292501823103101084e-03
-3.740458930173881646e-02
-5.834514638537685594e-02
-3.676282216597468594e-02
1.795051354123904097e-02
5.976551132234206309e-02
5.180493031621954958e-02
1.703941610160407405e-02
2.124970940008483276e-03
5.083798974170112249e-03
-3.457382366983796813e-03
-2.971455713107353999e-02
-2.776311437987376285e-02
4.740521901559113793e-02
7.798461773635934069e-02
-4.520482041734274342e-02
-1.056546078369572095e-01
1.324559311162011241e-02
2.751770358269614580e-02
-8.710308449646239626e-02
-6.813689840158312916e-02
-1.461286700862044277e-02
-8.369685700197936062e-02
-1.105089183367915229e-01
-3.229499813588551649e-02
2.829591312958824184e-02
6.440685826767339472e-02
1.190163278232715255e-01
1.820399683062099705e-01
2.401151303154205885e-01
2.349905692542750835e-01
1.194446555313144198e-01
-2.408346084717920277e-02
-1.129600666014686228e-01
-1.821609612113402332e-01
-2.492464687754870345e-01
-2.548006227493909703e-01
-1.873341550820468715e-01
-1.054570202965540993e-01
-3.404999838799164374e-02
4.530636776607445404e-02
1.187332046254076651e-01
1.515272939982271749e-01
1.457956583456015975e-01
1.127889342776550452e-01
5.427616530712599946e-02
1.081911564730603584e-02
2.505302913172688731e-02
5.640274085442402441e-02
3.624926807039902804e-02
-1.897090348361451378e-02
-3.408513303523588028e-02
1.215932938799606927e-03
1.056778565474035363e-02
-4.231339119870337201e-02
-9.355181747790466962e-02
-8.598540361716308644e-02
-3.369689978682705034e-02
2.218142670004171271e-02
4.871689769093311140e-02
4.628062948741040739e-02
3.324186218687104344e-02
1.024835355364905887e-03
-4.663202170984789147e-02
-6.371282624031207598e-02
-3.979376688005975549e-02
-2.709098027655440499e-02
-4.663016749805219685e-02
-5.460163709949492072e-02
-2.588993299029771628e-02
2.269900382755537377e-02
7.289350459034332763e-02
9.721850820641680935e-02
8.953671296209267383e-02
7.904041856030491475e-02
2.095434968145930624e-02
-1.235581790548473113e-01
-1.915602217175840782e-01
-6.774106625971820783e-02
5.525991483736628074e-02
1.798725247086786078e-02
-5.905677867975080847e-02
-5.269908713258449062e-02
-1.367248108682680811e-02
-8.835896414127786952e-03
-3.039591815123121252e-03
3.759493912803996141e-02
7.065763289324732133e-02
9.833458198385597315e-02
1.581489514505658722e-01
1.721003440234719628e-01
7.473289203402995462e-02
-4.219697408159972518e-02
-9.332891353306886628e-02
-7.771323638022950564e-02
-9.675489106528302463e-03
6.167179433441985492e-02
9.129858076480104612e-02
1.169375326015296840e-01
1.785796148621995594e-01
2.186577256721140838e-01
1.626572973197353278e-01
3.896400154188275206e-02
-8.007947067208298630e-02
-1.868180665011895392e-01
-2.851175286730917580e-01
-3.261725010742408948e-01
-3.012908501886494839e-01
-2.696312062224525130e-01
-2.334398502862647384e-01
-1.529723642729015343e-01
-5.218157751378256493e-02
2.083351082296993478e-02
4.461899539483210608e-02
3.448219146612688940e-02
3.463817302020871097e-02
5.322572709207758906e-02
9.338177268877734249e-02
1.754117798869991585e-01
2.595049621419547314e-01
2.971014283594186622e-01
2.532068386350386224e-01
1.021746524180125459e-01
-4.787317734446362022e-02
-8.497786396324386038e-02
-7.901369089404539081e-02
-9.584946227516172312e-02
-9.658946298089768345e-02
-6.452157851057299665e-02
-1.755091528750389249e-02
2.503248910504002334e-02
4.231891235542271923e-02
3.717680079523177916e-02
3.204864694683041276e-02
3.564450540358124475e-02
3.415888106610579650e-02
1.485049870418717229e-02
-1.273989542869555236e-02
-3.026198593298884409e-02
-3.145964671349026076e-02
-2.342072546967888941e-02
-2.065457278921531761e-02
-3.331044919512741315e-02
-4.027980019230148478e-02
-6.097059147266945325e-03
5.270836261653837757e-02
1.014002061501976942e-01
1.538112932040715530e-01
1.883171200802049583e-01
1.299783732438806738e-01
-3.384464181633042162e-02
-2.336604989084632433e-01
-3.233890563061587731e-01
-2.244128757932098706e-01
-1.098204119721484240e-01
-1.089779982424528698e-01
-8.489562669999468902e-02
1.445989573475049868e-02
6.383891057532932456e-02
6.547242301993608238e-02
1.109574254724321474e-01
1.552378624962039710e-01
1.165943918175847555e-01
4.669060461881409385e-02
2.189860669063788470e-02
1.220271283213048008e-02
-3.212383628995575668e-02
-8.750882766350191744e-02
-1.212647055970046267e-01
-1.417215559027790450e-01
-1.237859613937401793e-01
-2.313195701097418844e-02
8.978007964874686053e-02
1.159042236997990943e-01
1.161995098783584895e-01
1.711484341184436597e-01
2.071558796259845292e-01
1.634148330593340470e-01
9.194151989424255433e-02
1.324596599219775642e-02
-8.927174901349799185e-02
-1.754804578619998945e-01
-2.058758063212194900e-01
-1.976757171790860801e-01
-1.646819713179766276e-01
-9.385831534154934208e-02
-2.176942988950028926e-03
6.041627661788294412e-02
8.210577563195320394e-02
9.533640270602579403e-02
1.067959221672795389e-01
9.246836772739223942e-02
6.612020865903478484e-02
6.974544694010471890e-02
8.124226547055554692e-02
3.986585694321838347e-02
-3.779923235400952514e-02
-9.927264283446422810e-02
-1.468911246503179502e-01
-1.646829883929938343e-01
-1.061762972082549439e-01
-2.061589026962848403e-02
1.660033485664341724e-02
5.213304415735180858e-02
1.204120910924643822e-01
1.444860779732558553e-01
1.181739778486871340e-01
1.276748321999987557e-01
1.611536282711705792e-01
1.184504317515720495e-01
-2.853855463045212176e-02
-1.861610288636851851e-01
-2.396669160087036565e-01
-1.904550839127461814e-01
-1.384620978677020275e-01
-1.374942597844230896e-01
-1.399163511447096275e-01
-8.600714822755009537e-02
9.698686923978541014e-03
1.100255863408805823e-01
1.943292926879863769e-01
2.084431569895774938e-01
1.409329046425325804e-01
8.255839028039277383e-02
7.006810196739714225e-02
4.614209154810944291e-02
-1.258521301549582472e-03
-4.783809348468696931e-02
-9.727482293593882334e-02
-1.290114192622478229e-01
-9.619111882972281036e-02
-1.502479690238737661e-02
2.304569081852151508e-02
-1.298143395158318086e-02
-2.753841122059433669e-02
2.123275209135476113e-02
4.485547250196521285e-02
1.171573555792234517e-02
-2.466110473843473316e-02
-5.458612695494434452e-02
-8.504065579308764389e-02
-9.687986799179235109e-02
-8.957638074072370171e-02
-7.508543545061711899e-02
-5.501154358273077638e-02
-2.386313494608473251e-02
2.559546641963199309e-02
8.022320868063066712e-02
1.176233032857262467e-01
1.294288698807759264e-01
1.105839063988828808e-01
7.397344840850679504e-02
4.424074764748332778e-02
2.334861537003469351e-02
2.038367060903638339e-02
5.732988419079616815e-02
1.193659590455250358e-01
1.775143407817444674e-01
2.284362956940471645e-01
2.536119718760025399e-01
2.062368946284272586e-01
8.432251485509545397e-02
-5.152223888421739867e-02
-1.584583572627185633e-01
-2.348648235390880523e-01
-2.657912654159745314e-01
-2.316515100817150841e-01
-1.639242949229204882e-01
-1.254648470804042015e-01
-1.354415006303417712e-01
-1.680481426378168941e-01
-2.127906704676613414e-01
-2.450357026571019503e-01
-2.060138430290130163e-01
-1.084987614287555024e-01
-2.748515775308553455e-02
2.500205297159750761e-02
8.690313566542326451e-02
1.679699735370451252e-01
2.358366584522259002e-01
2.535910518484779108e-01
2.285601547162561253e-01
1.941529841394951661e-01
1.560361883118869530e-01
8.741169522038376438e-02
-3.510280131307379203e-03
-4.130224353442975282e-02
-2.146552385494560067e-02
-3.462825320652999223e-02
-6.285702801488841918e-02
-3.070891462141714379e-02
1.220008920994609253e-02
1.612828496333619521e-02
1.219351591521516953e-02
-3.488384084758881093e-03
-3.594377641493246012e-02
-3.899890206814143889e-02
-1.916892358972362848e-02
-2.669501303163063916e-02
-3.711971983070346676e-02
-1.806297971374527800e-02
-1.559582820686824037e-02
-3.297408179981567433e-02
-1.585491047583298743e-02
9.323223327733694624e-03
-3.634186649350992435e-03
-1.826999111363050016e-02
-4.081775565331181334e-03
1.567872768349302948e-02
2.541553535019172236e-02
2.900088613201955157e-02
3.030253766254622366e-02
3.951011065977663717e-02
5.728920642266423224e-02
5.393141322792985304e-02
2.235757900810708340e-02
4.781787761906639359e-04
-1.349760190073106235e-02
-4.696639481019141554e-02
-6.896035453421371642e-02
-6.996312913134898614e-02
-7.553397979639232818e-02
-3.352271347093217085e-02
3.305835056233095287e-02
-9.176797441867791047e-03
-5.326462710552834490e-02
9.067836695050977835e-02
2.485272290279090246e-01
1.888311492314792284e-01
9.253777446618462188e-03
-1.087740433574645588e-01
-1.250718214393688743e-01
-7.626951435306743299e-02
-2.019376745979005461e-02
-1.463540292608674596e-02
-7.240641697865396464e-02
-1.470512513296368395e-01
-1.808616650364878176e-01
-1.506181840452373577e-01
-7.956688666915767705e-02
-2.508714924583854700e-02
-1.237040777343208914e-03
6.788203665962705413e-02
2.078105665967918403e-01
2.874292849043429965e-01
2.128214618314960282e-01
8.046328523497174590e-02
-1.572969620810379249e-03
-3.744436000938561326e-02
-3.655784919909042807e-02
3.707545524945874554e-03
3.181972694449405198e-02
1.498714355007720739e-02
6.556274622753712270e-03
4.013386621304271262e-02
6.156948873588162507e-02
2.607205326494052913e-02
-4.857581279357765791e-02
-1.291042994566163893e-01
-1.774351559301503567e-01
-1.637684864704247734e-01
-1.094881357829696061e-01
-5.345069197836537639e-02
-7.405221219955428896e-03
2.103344866529831270e-02
3.773498154297753177e-02
6.063363111489396273e-02
7.415043399636724042e-02
7.488935540797458934e-02
8.947744341403131296e-02
8.503762309679477327e-02
2.016396449061612015e-02
-4.136838736484516749e-02
-3.192353681635257817e-02
-2.577112715767427426e-04
-1.137999021096999363e-03
-3.497382351696871547e-03
-3.373701885734665083e-03
-3.290896102823142461e-02
-4.077142963222323696e-02
1.050630483862767875e-03
-1.065937897099137905e-03
-5.141032728759923481e-02
-1.399847465555203313e-02
1.148489101127775219e-01
1.913865946133817553e-01
1.778133624209612684e-01
1.278028537227561545e-01
4.542691059195428510e-02
-5.753136385467602643e-02
-1.367891819894823391e-01
-1.749541850188900682e-01
-1.725406230313705214e-01
-1.555068507672402733e-01
-1.505891706883867032e-01
-1.232319832782942798e-01
-5.050268018385403040e-02
2.731750851972425398e-02
8.078352871952634850e-02
9.913881945948715968e-02
8.104443808373526514e-02
6.315392874736552864e-02
6.488264423912987189e-02
4.969453287789005885e-02
-6.854852507536804071e-05
-4.384472949933078401e-02
-4.744819099659693118e-02
-2.884438069490360967e-02
-1.070343681834191180e-02
1.765881922717872990e-02
4.614709515953585584e-02
3.453980481738500724e-02
2.131710252931603815e-03
-1.243716027443708509e-03
-7.267419405951186517e-04
-1.945720406018772164e-02
-8.576160839998432997e-03
2.749006257990578919e-02
1.575073891759226283e-02
-4.742804312333277067e-02
-1.122289999735675003e-01
-1.539797930692558547e-01
-1.439890683278701455e-01
-7.461407904711687966e-02
2.261588889207149025e-03
6.333320714531701090e-02
1.402087909375600849e-01
2.369744622568778214e-01
3.283397552487196669e-01
3.984089644833700983e-01
4.103600917725596098e-01
3.150170075015862881e-01
1.441931121837457808e-01
-1.013575602700914069e-02
-1.269522410640918086e-01
-2.431127813023324646e-01
-3.547338953216751523e-01
-4.223786484419560505e-01
-4.191700422874640730e-01
-3.593735090318400660e-01
-2.880804034048244922e-01
-2.131851522000167698e-01
-1.026281775196174056e-01
2.263447187401957522e-02
1.138560024641406543e-01
2.006658308455806783e-01
2.948698727255410490e-01
2.921355714455845520e-01
1.535667261611320944e-01
1.936499998900196445e-03
-6.050655436308401136e-02
-4.736522974732790270e-02
-1.957553341440986666e-02
-2.725062592871056039e-02
-4.151288294742634666e-02
1.707224047975124115e-02
7.935216128670365132e-02
1.244519503518479002e-02
-5.672485475358105683e-02
3.067053591525128325e-02
1.150560707726275972e-01
6.159609967618714932e-02
-5.781782100356275440e-03
-1.605137019063948220e-02
-2.065379343875815843e-02
-2.165398193312745301e-02
-7.508277259248298877e-03
-1.238570503792023325e-03
3.155497976733144180e-03
2.049166982270108142e-02
2.178151480446167618e-02
-5.480477963312463743e-03
-2.015972399493101003e-02
-6.870086310195184717e-03
3.085253760459353949e-03
1.443173898314811061e-03
4.443669855027642356e-03
1.389357370045427552e-02
1.851773757797691225e-02
2.561354080469344791e-03
-2.913436350650572618e-02
-4.231081329881127007e-02
-2.564282141993323716e-02
-7.505269886228314868e-03
-1.206630408121448297e-03
8.564233300047586692e-03
1.695976457396594292e-02
1.060382566180525891e-02
7.303787254591313262e-03
8.948285598469770535e-03
7.475246219782689938e-03
2.828164906606674828e-02
4.091252015941040932e-02
-6.044944568474934672e-03
-3.571496189266765153e-02
6.105706182157008902e-03
2.093851495910220573e-02
-1.908382363265870990e-02
-3.556574190753350462e-02
-4.352562491781027110e-02
-7.203605697533344010e-02
-5.537184008016245856e-02
2.157371218141821909e-02
8.813176064388333897e-02
1.168325124278564164e-01
1.232146127117108303e-01
7.844289341381684155e-02
-4.040711111692676244e-02
-1.439054542247049095e-01
-1.467190956636335031e-01
-1.263883494607519475e-01
-1.589573233434329047e-01
-1.611763472889203852e-01
-8.035720025157311319e-02
6.845492794079579765e-03
6.147306755109790966e-02
9.887806375778890322e-02
1.084466573394043953e-01
1.073041959073384732e-01
1.244015971960656247e-01
1.388279362354448709e-01
1.387834197727441377e-01
1.235817633651074970e-01
6.254783341209284309e-02
-2.578777513419222220e-02
-6.540117705828502048e-02
-5.754079413649871438e-02
-6.822981661855072322e-02
-8.732751180476007458e-02
-7.019615291922580436e-02
-3.877802933216254605e-02
-8.681980219061627077e-03
3.827478200014044346e-02
6.939221508018275641e-02
4.125031038417532187e-02
-2.195207730221063538e-02
-7.515140224065051944e-02
-8.985049742288533925e-02
-5.079874283816718239e-02
3.713524590383630170e-03
4.710060137265778893e-03
-4.881515940079509536e-02
-7.997154593844925385e-02
-3.274258019369361006e-02
4.533853240031760629e-02
7.277490186368773539e-02
6.165610731389906812e-02
6.091261521568599319e-02
5.394759184961058635e-02
2.471804364347649635e-02
6.066475936868780464e-03
1.788210881639830732e-02
3.952832865463965645e-02
2.910590023378082508e-02
-2.412322931152149907e-02
-6.131897916452762332e-02
-4.042901880525513747e-02
-1.723970072955046534e-03
1.163177963902852288e-02
-9.746057239955170995e-04
-1.817222141722564868e-02
-1.108016520978220669e-02
1.178088805047250096e-02
4.271770593604518745e-02
1.243315817522460814e-01
1.834005906422930265e-01
6.713573518057108780e-02
-1.177330595092767052e-01
-1.630034720935169545e-01
-1.333505114618024068e-01
-1.400280126936953584e-01
-1.329080034650807485e-01
-1.061684086525758325e-01
-1.120893029491032422e-01
-1.162343588980703640e-01
-4.880421544613024187e-02
7.082828998111549701e-02
1.369729026882844369e-01
1.138852579660409592e-01
9.409350843259790820e-02
1.153803425513535430e-01
1.098054596701833474e-01
6.832550057466819926e-02
2.844060881697879975e-02
-2.066081266169116429e-02
-7.550089816091529182e-02
-1.019457851708750334e-01
-9.285067679196172541e-02
-5.874019406102587437e-02
-1.420843558739958400e-02
2.887395868951313921e-02
7.815510775073697403e-02
1.414552243554668409e-01
2.042962147194530564e-01
2.619321729226977147e-01
3.197959772327684247e-01
2.964301014321342187e-01
1.151517143603191518e-01
-7.695183970286929853e-02
-1.265777761429803805e-01
-1.386090490888516324e-01
-2.043251499024619777e-01
-2.517691112074204596e-01
-2.635677394145824470e-01
-2.655552313401773890e-01
-2.244174655921427064e-01
-1.569432081375588262e-01
-1.242694632975005486e-01
-9.713839047646263825e-02
-3.860729308350509259e-02
6.895741148165643319e-04
1.483448271982554245e-02
5.572511333370222530e-02
9.656446521134104399e-02
9.689051900585085586e-02
9.935995914793814554e-02
1.298313962423345846e-01
1.417005043873653392e-01
1.045261213054746174e-01
5.562781075062560310e-02
4.654355412448397261e-02
6.925347705299286782e-02
7.958170263035807546e-02
8.274688133636139142e-02
1.106524994823780139e-01
1.318984227284595023e-01
8.295701422754893362e-02
-3.333162349794861062e-02
-1.507317179994625833e-01
-2.146869290576537970e-01
-2.165469432469082633e-01
-1.738890550083969089e-01
-1.105304249500898978e-01
-5.797070018113670287e-02
-3.162952446233937426e-02
2.501255594742762822e-03
6.877712116354103844e-02
1.144138948111137338e-01
9.601801686589742091e-02
6.563477909444125069e-02
7.022012755658260663e-02
5.990255202031170151e-02
7.098244122859288796e-03
-1.169169663540623946e-02
1.747758800822143965e-02
4.774390142936938211e-03
-3.329404291052295156e-02
-1.144527675951395075e-02
2.122424630631149570e-02
-3.636952297678872591e-03
-2.939309184522973656e-02
-1.808058117315904795e-02
-1.362654038188449573e-02
-1.747337197643213103e-02
2.823160130437226897e-03
2.928086857450853953e-02
3.522711701860091471e-02
1.995768824746092795e-02
-1.397796737196243221e-02
-4.197318530101485506e-02
-3.486090523518862311e-02
-1.561151832123034225e-02
-1.671740323312106286e-02
-1.441036023325538082e-02
9.262023645967905339e-03
1.212068202838919098e-02
-2.456382259041178448e-02
-5.373135469532710345e-02
-4.281917077415221817e-02
-1.667212231391813904e-02
-9.401851569341673764e-03
-2.076593898936702001e-02
-2.836417075570957236e-02
-1.032284624048406679e-02
4.048405209871794308e-02
9.525912776328598897e-02
1.040802230143550028e-01
5.081433894282645636e-02
-3.727168435701919136e-02
-1.114719732926815754e-01
-9.988319139580069395e-02
1.259280166854117797e-02
1.097268299173262823e-01
1.315678478418189079e-01
1.835991433245207638e-01
2.287104537646459934e-01
7.015495099093543852e-02
-1.693289752315838281e-01
-1.952983348813046027e-01
-1.181293158259982545e-01
-1.703930566366843591e-01
-2.448478749502127905e-01
-1.975505612366159625e-01
-7.707814070783493288e-02
4.301685959198896236e-02
1.157119256880150548e-01
1.360261216139111440e-01
1.541136358171743825e-01
1.614999885988609440e-01
1.120964215480101528e-01
9.268059176972841262e-02
1.761521417408154488e-01
1.722279574269494906e-01
-2.464976918532481992e-02
-1.564233082650093309e-01
-1.036330723223031630e-01
-5.818017417958201709e-02
-5.302331484501011938e-02
5.260449768837712620e-03
3.687483894881919688e-02
-1.298684981614729728e-02
-2.649723160845724249e-02
3.974829246655212783e-02
4.325975658331930596e-02
-9.405812341959017553e-02
-2.076544861159668742e-01
-1.547110271531317582e-01
-3.736419768768960842e-02
-7.846065218440511496e-03
-8.863479836935159173e-02
-1.324960740798387104e-01
8.022775019091500301e-03
1.653002753560715299e-01
1.236218605914901347e-01
2.587501787195814473e-02
2.462229400132930762e-02
2.173377591031884493e-02
-1.543070813933717332e-02
-6.118967972085597243e-03
7.917745780415401044e-03
-5.334701178253811737e-02
-8.243295105313146187e-02
3.597676927000684199e-02
1.326682165941821812e-01
5.626256979803058444e-02
-2.741466639635798883e-02
-9.085385184069372233e-03
-3.669359607161228054e-03
-4.338694968523422457e-02
-5.722059038903132971e-02
-2.163114537309778970e-02
4.784580004597760450e-02
1.047096669343127034e-01
1.205391096041555643e-01
1.401045976795345094e-01
1.616152687933125609e-01
1.023842613777337651e-01
-2.102623022661983046e-02
-8.520603846763155631e-02
-2.387653476399990982e-02
1.155035998667553743e-01
1.693838850491083958e-01
3.792328231229619845e-02
-8.037936528228827038e-02
-7.581413669920114562e-03
7.616431801420316117e-02
1.344685589175367152e-02
-9.141496047218584942e-02
-1.673423662085100627e-01
-2.336018184575192891e-01
-2.691947358120997391e-01
-2.650850443098394793e-01
-2.418439508712747765e-01
-2.029259538825412268e-01
-1.508630027727204115e-01
-7.833046923896608282e-02
2.909466715987782393e-02
1.221933538073565750e-01
1.387682797248568356e-01
1.222947271255305779e-01
1.360880544626474342e-01
1.583210840102211026e-01
1.619082863842029318e-01
1.557663447231979192e-01
1.430476857412947833e-01
1.183835687333865266e-01
7.680882697916786850e-02
2.174185126365477116e-02
-3.385886755913669610e-02
-7.272922966667910716e-02
-8.553438062464717440e-02
-9.169605704642813659e-02
-9.505607170542981765e-02
-6.244176285918889846e-02
-7.116746229467360227e-03
3.003907864641607722e-02
5.873446544968551064e-02
7.554643943955174912e-02
5.758962213495445737e-02
3.977084599904590068e-02
3.801921177075184843e-02
7.706043302227296235e-03
-3.864284250707012563e-02
-4.605097093658760271e-02
-3.185176438229197354e-02
-3.802961756396621568e-02
-4.714919575034205723e-02
-4.334034219992847353e-02
-4.663191620612548716e-02
-3.622418981623626300e-02
1.873227630912456532e-02
7.190791205327588809e-02
1.008332706446189858e-01
1.618894075009229272e-01
1.925332694705967906e-01
4.647730650119395041e-02
-1.445353269607266289e-01
-1.202236668320176560e-01
-1.240352455089320516e-02
-7.004538180590272334e-02
-1.449038626933338569e-01
-8.313569596316852661e-02
-3.502474112931495964e-02
-5.406218120146412398e-02
-5.155395599444086846e-02
-6.151782674561317305e-02
-1.151673710805055234e-01
-1.402328870559068907e-01
-9.689800040240138801e-02
7.969703123027378072e-03
1.392231818948083122e-01
2.101638288837415491e-01
1.634000673201396192e-01
4.950134827374388924e-02
1.472215021131074997e-02
1.342573028184611550e-01
2.228976685980799954e-01
9.591949454145246023e-02
-8.734522353932169803e-02
-1.070130837861278800e-01
-2.103689438767732123e-02
1.170824817787788526e-02
-3.751127405313044866e-02
-7.859564403780713859e-02
-4.717818530944601491e-02
-3.211026887512987218e-03
-1.681437795027774726e-02
-4.805164943606350658e-02
-3.754107422222781321e-02
1.613893256536865460e-03
2.881245118455578319e-02
3.186901078808855592e-02
2.482778443514516153e-02
1.879924563630290882e-02
2.121781211445643994e-02
5.449408136449624546e-02
1.050876949757678785e-01
9.112342741834766890e-02
-1.224966248774679925e-02
-1.094014225248504391e-01
-1.335260264370132788e-01
-1.216910405567614983e-01
-1.038449687795153231e-01
-5.244173198205234754e-02
3.345118153806400652e-02
8.916647348018887087e-02
6.654958948830322352e-02
1.679928701234435773e-03
-2.782232678223910474e-02
1.235500690378658201e-02
7.582283735909094158e-02
1.041410620179760438e-01
1.158598113779237410e-01
1.286649340896580951e-01
8.238817558650805839e-02
-2.841349666352700754e-02
-1.182703364899004433e-01
-1.568400685735203692e-01
-1.597346165811225904e-01
-1.249463312697494666e-01
-8.686747582652681876e-02
-7.350867134494198929e-02
-4.945120672095318359e-02
-9.229177924826746302e-03
1.642433434406859183e-02
4.082019377942266991e-02
7.508723652206134025e-02
9.130590215422584865e-02
7.726133501940030124e-02
5.158523821461359626e-02
4.930455986288610759e-02
7.294520435417671533e-02
5.355146704949691888e-02
-3.116603029983677775e-02
-9.127850480218235862e-02
-8.246812557807584043e-02
-6.476560226102387463e-02
-6.997380022520267862e-02
-6.860198108945694817e-02
-5.373730963647854048e-02
-4.350050764311486767e-02
-2.144939480187250253e-02
2.802232162039349980e-02
6.177073691978639258e-02
5.664195995027469788e-02
5.080714351114966332e-02
3.930243430234486163e-02
-8.856894897120326515e-03
-5.412798421314325009e-02
-5.595955783311619414e-02
-1.438050301509984086e-02
8.515634037699119918e-02
2.266242917061047357e-01
3.468399086989750746e-01
4.024063754640068158e-01
3.738641379092391692e-01
2.768555535525504818e-01
1.596706565972233482e-01
2.687527137416091672e-02
-1.218494328938848625e-01
-2.269281975976861765e-01
-3.166861107759058047e-01
-4.870403455028745054e-01
-6.071195109968086090e-01
-4.966435023284037076e-01
-3.163165137645818081e-01
-2.605162965448548640e-01
-2.208501845749012704e-01
-9.612656206556749461e-02
4.321992885935617423e-02
1.737593829619915042e-01
3.209661961818129350e-01
4.225327823919778347e-01
4.004418804526024278e-01
2.750109593630539195e-01
1.340780682885106823e-01
4.409485544117209416e-02
-3.076673329784160305e-03
-4.994480089482038893e-02
-9.295333434225988567e-02
-1.106757450273614385e-01
-1.069573495029846333e-01
-6.526590846233658316e-02
1.159430550602596338e-02
5.262223781317508509e-02
4.197318681167919174e-02
4.082885559741433745e-02
4.659633837059894146e-02
2.543250821298468495e-02
1.004331476216857241e-02
2.087533781580491743e-02
1.635278162314531686e-02
-1.792917544764210253e-02
-3.998341097960429746e-02
-2.319169941913690886e-02
3.850744744153101681e-03
-1.212625473533088336e-03
-2.537058067875563178e-02
-1.940685080748609168e-02
1.781691476453591168e-03
-1.425352882571675507e-02
-3.791121862252427172e-02
-9.044602713302265021e-03
4.548269175013889415e-02
6.107529429469846227e-02
3.178619737303448739e-02
2.502533243325489026e-03
-5.641764683662673849e-03
-1.426233952195582813e-02
-2.497875414512976122e-02
-2.274762161551244916e-02
-1.345704853786878173e-02
1.163945656951023960e-03
1.290473651465273361e-02
2.374646970359908793e-02
6.316565807346259664e-02
6.585432046518363558e-02
-3.544148268462615770e-02
-8.852334934568534264e-02
-5.374197005458998533e-04
4.534839946486723256e-02
-1.615615286957119631e-02
-3.714079570838373784e-02
-1.621101341352028033e-02
-6.223751259128029040e-02
-1.400832216902365701e-01
-1.532745182022708930e-01
-1.003634122693240760e-01
-1.787712035849618047e-02
6.660185797722416312e-02
1.197564153775208251e-01
1.618062388197981927e-01
2.130131051463637071e-01
1.909003623767697166e-01
7.079691405845892072e-02
-2.953142229658700657e-02
-7.447638224235522686e-02
-1.265942388794486229e-01
-1.593797027710682213e-01
-1.389616914440520989e-01
-1.154758609905899847e-01
-9.881456957581273570e-02
-6.916218387830061487e-02
-4.506747326041361107e-02
-8.792029832707052434e-03
6.094189290674040249e-02
1.122359336242935018e-01
1.216842233264269491e-01
1.397188598052108433e-01
1.746786238701183991e-01
1.692593761345833059e-01
1.036128087223571331e-01
1.371016476366267688e-02
-7.313939498938365480e-02
-1.176098685833135982e-01
-6.762877843576495240e-02
2.754673318931181655e-02
5.363872468088154433e-02
6.879424035054402392e-03
-3.167338756776127973e-02
-4.002477612388165296e-02
-5.107345559134376933e-02
-6.537921551406954135e-02
-5.417595815420763600e-02
-3.292821710730796381e-02
-1.116093484695290967e-02
4.604563083477290764e-02
5.138557034682306179e-02
-8.792578546925763905e-02
-1.799693073705365132e-01
-8.201830300137144536e-02
1.184210566331686011e-02
3.820593688492662787e-03
2.178763901645924123e-02
5.439611314668238440e-02
3.854545406446391320e-03
-3.182336371724046181e-02
8.053205836786286875e-02
2.073815017111592662e-01
1.632950170527724121e-01
4.227061249163830553e-02
-9.592455307633258876e-03
-3.360391311656566599e-02
-7.097229005757874076e-02
-8.053125670694379068e-02
-6.367268719159113743e-02
-5.836268219713995620e-02
-5.429121671959317996e-02
-8.911839648780660664e-03
7.055097836340501471e-02
1.369537520113248141e-01
1.734315157824220799e-01
1.614995219883674504e-01
6.011393434119440687e-02
-9.650711345097540139e-02
-1.964084350054537687e-01
-1.972708543617095467e-01
-1.637837633827697870e-01
-1.403062197529945099e-01
-1.054541160543204098e-01
-6.202507515871939769e-02
-3.406133749176468162e-02
5.574783037027533639e-03
5.921175728147678313e-02
6.496835171823565902e-02
3.241884174762983684e-02
2.243842326030275058e-02
2.706409397370367759e-02
3.611253530930880196e-02
5.009208130864879760e-02
2.528243988021958155e-02
-2.059338839414082481e-02
-1.041200302060496172e-02
5.260323570111025138e-02
1.257608255772366679e-01
2.015373256083194953e-01
2.619725453780301083e-01
2.778171458205730970e-01
2.447540185752908881e-01
1.807213736555465800e-01
1.079493599411136540e-01
3.267372542783496259e-02
-4.224254307965587263e-02
-1.172749051169740819e-01
-2.134176970000215556e-01
-3.170972144462020914e-01
-3.832292596589472189e-01
-4.154167760051764580e-01
-4.145641353692706144e-01
-3.338952339594943308e-01
-1.893305927005252132e-01
-7.028586195214615862e-02
3.562368739113502825e-03
8.625085644242921901e-02
1.691257701418382720e-01
2.066482803432268811e-01
2.273085176597238188e-01
2.483096310583061683e-01
2.183034404199366563e-01
1.496797934684677978e-01
1.017680429059638209e-01
6.029445466117293317e-02
8.558424941050753187e-03
-2.260178091710163262e-02
-3.844491241618955280e-02
-5.285873987475217528e-02
-3.302695961061920954e-02
2.442051819574386079e-02
7.268305995236841455e-02
9.639982795400897642e-02
1.145657152577688326e-01
1.178606700285636105e-01
7.027467737102900680e-02
-3.651695432952678511e-02
-1.658335396727670108e-01
-2.586101104103890602e-01
-2.625565077694132499e-01
-1.858908973042213975e-01
-1.044086630420388156e-01
-5.743867874904016319e-02
-1.236893214608683969e-02
4.486136421214237391e-02
9.651181069763456466e-02
1.313873162930265515e-01
1.348860801104870000e-01
1.027257456250017797e-01
5.290431219284788544e-02
1.577100105661997931e-02
1.340463504664282310e-02
1.959072802063648727e-02
9.061459037300555880e-03
4.889557278833939549e-03
1.892843784791554615e-03
-1.860274350360630047e-02
-2.544591738918758339e-02
-1.503655641808134512e-02
-2.199014991977031944e-02
-4.014676940969917618e-02
-5.086765637921131233e-02
-4.791609980140885267e-02
-1.525960053377349579e-02
2.680422113629207792e-02
2.639179246050947503e-02
-3.691632917380838208e-03
-1.255235043272270867e-02
-5.268512211495188051e-03
-1.025207243713152725e-03
7.337910461574855166e-03
1.374561699241390149e-02
1.247345479676474980e-02
1.605379274358855607e-02
3.588679692541039967e-02
6.747696021372115438e-02
7.824189194543765269e-02
4.525495024341887745e-02
-1.193144925521134880e-02
-6.356773686928451905e-02
-8.697151005073863739e-02
-8.027700159451882367e-02
-7.106661780626684355e-02
-7.829770635028680814e-02
-9.656010917089348500e-02
-9.599534907379296544e-02
-4.868742186508490805e-02
6.404645091135916998e-03
3.352586370242210956e-02
8.721785097897630235e-02
1.788176448509036232e-01
2.194502816045539317e-01
1.983272697620620806e-01
1.958242970622511847e-01
1.889185337846378543e-01
7.326598224883369703e-02
-1.266617662576975112e-01
-2.661802582908813775e-01
-2.784081379372329579e-01
-2.022690153598877272e-01
-8.714583304187470403e-02
-3.513798774850655782e-02
-1.165322371504894927e-01
-1.592669106107382770e-01
-1.323092263675983496e-02
1.489354648294473060e-01
1.611233207280654001e-01
9.523298026170828878e-02
4.284805582412987840e-02
3.336003394714252140e-02
6.810377380752899446e-02
7.824167829194629553e-02
1.508554514894548670e-02
-4.443301686317772947e-02
-3.231338151171768425e-02
-8.772078520904310131e-03
-2.259536083371394694e-02
-2.618187657894861103e-02
-1.853952612850290338e-03
2.597967990096619953e-02
7.046000699901756870e-02
1.215022337478860598e-01
1.226430588915294467e-01
4.819154859044814249e-02
-6.798585929460473909e-02
-1.225023428582753260e-01
-5.105962577544496950e-02
-4.505516711696784179e-03
-1.199300650662964568e-01
-2.007721624768960822e-01
-7.617070430102038103e-02
5.851391335301157903e-02
5.531701080850975893e-02
3.657645264070921026e-02
6.414251556514677377e-02
6.962133797894648479e-02
4.792687897205566427e-02
3.718491820771367695e-02
7.957744454691694988e-03
-6.897780150508896202e-02
-1.249618595007748467e-01
-9.859692380026757741e-02
-4.357089585349512018e-02
-1.808773547726223382e-02
3.853567067197766899e-03
2.318399362226947202e-02
-6.122653277412621123e-03
-4.318058735794858688e-02
-2.468074754136546228e-02
5.339159410786335942e-03
1.908516600935002833e-02
6.018050957214195196e-02
1.212886389614315774e-01
1.705436246091217023e-01
1.951834501822256041e-01
1.340189720304667820e-01
-3.623284743397161417e-02
-1.842477219895220508e-01
-1.919358617342014905e-01
-1.288977557264367191e-01
-1.075869527928906000e-01
-1.114470852616803453e-01
-7.078987997752193839e-02
1.760629311525364199e-02
1.113114646992218321e-01
1.912752647476763102e-01
2.540745988633457131e-01
2.882742149208070703e-01
2.921742400746020207e-01
2.297030312349973014e-01
7.430167868990714131e-02
-4.573925750860972916e-02
-3.889568960967834665e-02
-5.148326352760659863e-02
-1.687010397634025050e-01
-2.639464955515814504e-01
-2.661744114909710968e-01
-2.335406531207366299e-01
-2.216164999352897846e-01
-2.383726501932301178e-01
-2.383170671836483123e-01
-1.719155055760533124e-01
-6.874448599444660246e-02
1.878334183030332810e-02
9.848208289079417310e-02
1.713203641532309029e-01
1.923515149575973915e-01
1.551359539193297166e-01
1.104872727099254770e-01
8.788540602619000774e-02
6.935781452594463881e-02
3.441909187638472756e-02
1.052660970208754015e-03
1.158929467211659847e-02
5.532732453205384260e-02
6.473749831516298348e-02
2.678366940369872329e-02
-1.737930181201149948e-04
1.680668951606110323e-02
4.782135356033417883e-02
4.395467400826111315e-02
2.141231615500754915e-03
-3.657557326598194491e-02
-5.460579293418187791e-02
-5.294191200543718612e-02
-2.968941788646850891e-02
-2.476774107710977280e-02
-7.024625566532931298e-02
-9.840901302742988133e-02
-4.328040687200322700e-02
3.489173668654633326e-02
7.147229526095359720e-02
1.158267609820370636e-01
1.892789186649735389e-01
1.923234913736671103e-01
6.931121354002375834e-02
-8.865227911519692194e-02
-1.766763329862748588e-01
-1.897036695341827450e-01
-1.644728281696544725e-01
-1.158533752849351117e-01
-5.832776874859845612e-02
-8.411393322782725543e-03
3.100863921905020262e-02
5.205452596419656019e-02
5.081469396480144118e-02
4.501477524873889746e-02
4.004806599163732855e-02
2.672003062031596404e-02
2.444678761794034580e-02
4.472842948524079904e-02
3.976867706755152915e-02
-8.649991811022609417e-03
-3.911623389540120482e-02
-2.608627793503582454e-02
2.614381480835009652e-03
3.995483164574954726e-02
5.829218183139004555e-02
2.069605385546700524e-02
-2.462649303420886768e-02
-7.352898041604587903e-03
4.822964508722031585e-02
6.902120240659026518e-02
4.049516739977002122e-02
6.758350066779039537e-05
-4.514584337027531535e-02
-1.072814610888700865e-01
-1.450873857572316239e-01
-1.146574661462375910e-01
-5.356061094246818838e-02
-1.758711251958882879e-02
-2.307782309749661226e-03
1.593367302338525443e-02
2.893052275704467019e-02
2.626529842773438553e-02
3.013507374639440295e-02
4.403803306709998255e-02
3.150045471541502995e-02
7.593307954443010398e-03
2.100631754334156276e-02
3.682623840218418598e-02
1.226128967720809329e-02
-2.481838599895301936e-03
1.061086405926036855e-02
-3.843854097408780542e-03
-2.776025844252559896e-02
-1.277810320678687481e-02
-6.275735978418893815e-03
-1.964434111283533055e-02
2.862783580715362944e-02
1.017965797212652818e-01
8.577591989458059618e-02
5.337634606954282102e-02
1.191313174357947341e-01
1.542245280087614079e-01
1.520497175535352914e-02
-1.602419990300878450e-01
-1.858817107384149458e-01
-1.096765755150370669e-01
-6.537881964437365634e-02
-7.618672017742883495e-02
-1.058829435996092722e-01
-1.167045406188528256e-01
-7.858141288999648255e-02
-7.224028538309612557e-04
9.083008821979016156e-02
1.596509050903033855e-01
1.778033378457821445e-01
1.754592670459221293e-01
1.277154438895091726e-01
-2.287170058518425697e-02
-1.360907676660761401e-01
-8.876193450990761680e-02
-3.840608424807205601e-02
-7.074339787541286673e-02
-4.573146325363279530e-02
5.722100370402322111e-02
1.111450297813945109e-01
8.080409525188674003e-02
2.141256745038626341e-02
-2.827701233531880465e-02
-5.617286733982768121e-02
-6.797857197176665478e-02
-8.063713593858568007e-02
-8.565193901608958438e-02
-6.132237510559380989e-02
-3.277723592968485866e-02
-2.820307378126096429e-02
-1.474120993523194735e-02
1.215182444735118938e-02
3.651942492333429269e-03
-1.619095910879556066e-02
7.767511316680649966e-03
3.559166549183648970e-02
2.328305708133112523e-02
6.675674054685423221e-03
7.647858004270957286e-03
7.044809025217447021e-03
5.314895466145173712e-03
1.108698114913734059e-02
7.762096459571098638e-03
-1.878589573574553084e-02
-3.765982812435256233e-02
-2.388795352327515581e-02
-2.022501870328624954e-02
-3.691396719509635466e-02
-1.857675839301409920e-02
1.864828709361892115e-02
4.469680964295400655e-02
1.277009675023576263e-01
2.810119120484510513e-01
4.115684139147737786e-01
4.785100795869972612e-01
4.778676153924416581e-01
3.627851053291855643e-01
1.274543221514211067e-01
-1.537043629291641456e-01
-3.929436631550345949e-01
-5.240543289127287396e-01
-5.463411597190420688e-01
-5.176037588699881065e-01
-4.461804735523461907e-01
-3.177759869578881680e-01
-1.857256646905414421e-01
-9.129372655521815483e-02
-2.097608301554619581e-02
3.433990491644442478e-02
8.814305989921888962e-02
1.414667655972675075e-01
1.532103217186874533e-01
1.185150351356008824e-01
9.340374786440816535e-02
1.000000303797476814e-01
1.138327653169225184e-01
1.337915477916736540e-01
1.628310717817731679e-01
1.711725731345790646e-01
1.467674549881518298e-01
1.042979484905066923e-01
4.662112394070891397e-02
-1.460879506598238703e-02
-5.801364039744053708e-02
-8.093431033621920068e-02
-7.771352083794356991e-02
-4.439090579194539948e-02
-1.575983169012593402e-02
-2.815165205594126821e-02
-6.276376368693335761e-02
-7.741460064498226212e-02
-5.979357717136444400e-02
-2.331923810759922028e-02
1.775669350404980324e-04
-1.286305980203635013e-02
-2.206826157618129239e-02
2.029711438711306881e-02
7.659915633139856295e-02
8.877445361038550919e-02
6.208560991002632506e-02
2.732634504040998280e-02
-4.824058416211884394e-03
-3.091500299889678866e-02
-3.247016949695970267e-02
-8.893197708339739549e-03
-6.904288567624423771e-03
-3.513839890584010556e-02
-4.052254592633842273e-02
-3.104698444125284645e-02
-4.378250856581968053e-02
-3.496149647019930473e-02
1.464147291248187217e-02
5.043014152828822344e-02
8.275125325704182910e-02
1.520065135223811481e-01
1.896829375248620664e-01
1.077846053033406498e-01
-5.228461698069643282e-02
-1.725161282454783229e-01
-1.976532947716185262e-01
-1.650891268833562242e-01
-1.328225911264576675e-01
-1.136688417692593434e-01
-6.621606097590043705e-02
3.233944900896786045e-02
1.250780313716954306e-01
1.505985525368994937e-01
1.152511649010030809e-01
6.719620351948041304e-02
5.125036143354533974e-02
4.826894660590021202e-02
1.061876795586491097e-02
-3.132160892444403599e-02
-3.862723127127121181e-02
-4.099085340703815389e-02
-4.734524852527474681e-02
-3.140148204353742506e-02
4.503950731139572117e-03
3.144091598400122756e-02
1.973694602419981403e-02
-1.261319343544092635e-02
-6.637017607987495682e-03
3.795432713175823924e-02
5.927035751842751887e-02
2.676485959129128525e-02
-2.585129768069355932e-02
-4.928726814666656297e-02
-4.437147321174900183e-02
-4.089967641933769243e-02
-3.965185238001885104e-02
-3.944102704822805699e-02
-4.982542685088830331e-02
-5.517811054580287755e-02
-3.954101978130972195e-02
-1.112196601688571033e-02
2.142812299031298523e-02
4.680319910272359024e-02
4.491936546231355826e-02
1.316670291187216520e-02
-1.820832524748549480e-02
-1.850060566474075185e-02
7.235340453693487120e-03
2.183084653988532145e-02
-5.228803268510443664e-03
-6.341818073449724535e-03
1.112408754503634023e-01
2.244485204207459228e-01
1.638012107159355357e-01
3.575984245405858936e-02
-9.505083004556560966e-03
-8.055651244903736657e-03
-1.114964794355869163e-02
-3.593674666464058420e-02
-6.453641236302060102e-02
7.197593247089564480e-03
1.285026696991090622e-01
7.410215864682330456e-02
-1.037370075005663306e-01
-1.617231703109957008e-01
-1.272052279186766388e-01
-1.247620869410117350e-01
-1.289125494595166899e-01
-1.318964884233366219e-01
-1.500513466422172537e-01
-1.218607961499480336e-01
-1.733452213474654530e-02
9.374116819945273182e-02
1.464429410349699923e-01
1.434003983280084382e-01
1.174741320652437637e-01
9.624416913726130396e-02
8.142184096119779724e-02
6.900483117445530001e-02
6.626258847698843213e-02
4.440263080208423085e-02
-2.442023255192476636e-02
-8.601805378357295362e-02
-1.000283307919049292e-01
-1.080019374185955394e-01
-7.241056335374870812e-02
7.588533019223803189e-02
1.748846061910664107e-01
7.780123145130091178e-02
-2.094715154206877941e-02
1.622570989640250219e-02
2.280421841944909461e-02
-6.521234436009507029e-02
-1.186563098890781598e-01
-1.111112873889503472e-01
-1.050188912128126179e-01
-9.875028328576759828e-02
-6.815491599213922835e-02
-3.021725758455466246e-02
-4.555480480843121169e-03
3.259805549726180196e-02
8.311289217332733237e-02
8.324589184384366403e-02
4.107375281050479332e-02
3.510575684181527212e-02
3.514860194125996734e-02
1.417370989728519888e-03
3.950482592813434578e-03
2.812171212511147336e-02
-9.028244095072782485e-03
-4.909691918125205778e-02
-3.328298872128335195e-02
-2.315977660246027608e-02
-1.913220252282114148e-02
2.599499250214855339e-02
8.517803968840083340e-02
1.536767715404586676e-01
2.491086234949840272e-01
3.222609011099751286e-01
3.498658561894713026e-01
3.461996371513978987e-01
2.792065627131391503e-01
1.332199248924199331e-01
-1.087832252167289515e-01
-4.410298753038293107e-01
-6.427527627598282889e-01
-5.532850836020379859e-01
-4.061282107466109847e-01
-3.735684691762704568e-01
-3.032820414304260304e-01
-1.562559700287142472e-01
-4.793297039035737672e-02
2.943916352862939456e-02
1.041705894492646056e-01
1.469937620848962845e-01
1.712697591660181651e-01
1.915324156617459195e-01
1.918006857695267464e-01
1.775444247876341586e-01
1.561013266253166165e-01
1.206539864581077648e-01
8.826240227334512800e-02
7.931944161908624502e-02
7.250271501204830216e-02
4.940977025566478664e-02
2.390966501098707592e-02
-4.990662406920212679e-03
-3.260587175363753587e-02
-3.371600476428802257e-02
-3.371162935341644878e-02
-5.860903663760157895e-02
-5.867366799505957520e-02
-2.397295256558011275e-02
-1.510728202255033452e-02
-2.787324164044411787e-02
-2.801894093192635465e-02
-4.202554206956748972e-02
-7.293978292061698010e-02
-7.501331335669393641e-02
-3.780124912411923083e-02
1.480623863304861808e-02
6.057137819543135376e-02
8.541538743228338504e-02
8.640155991227915777e-02
7.081280156643889045e-02
5.434399568080158782e-02
3.618029099337870952e-02
4.702127893553982065e-03
-1.563853370256157449e-02
-9.960932583967081755e-03
-2.009048865238089593e-02
-5.527926600225389897e-02
-7.293489847191839126e-02
-7.242801113055527540e-02
-6.685774115980189225e-02
-3.296532645232139180e-02
1.838954864922889842e-02
5.054239437782639954e-02
7.355044143057221095e-02
1.013861511833226564e-01
1.220370355902557630e-01
1.279458575910446261e-01
8.713453437281566683e-02
-2.812055141624905663e-02
-1.496987165498620542e-01
-1.862049270604065332e-01
-1.539461754135689198e-01
-1.154295213488402833e-01
-7.093063957435760680e-02
-1.785864884820523996e-02
-4.924953142518229132e-03
-2.779961982862045114e-02
-1.322879105157527026e-02
3.986480170955433722e-02
6.868673309870941546e-02
6.209229226037286942e-02
4.176721168265556949e-02
2.432118825443170193e-02
2.263919244292494568e-02
2.441831576019508690e-02
2.828491297545281460e-02
5.248092586077793276e-02
6.724047851571238188e-02
4.274282607880774965e-02
1.035296378095240666e-02
-2.713729854065849087e-02
-8.393178218526735346e-02
-9.249276140288499592e-02
-1.677029836855188291e-02
6.286441067763932911e-02
8.713081367993071036e-02
6.480872336572651715e-02
1.172993484238832144e-02
-4.053577111960000867e-02
-5.335396840152769465e-02
-2.598442092625061206e-02
-5.140051062214273311e-03
-4.700223989355188647e-02
-1.233137137154959873e-01
-1.180654035981280187e-01
-1.001278871049325614e-02
7.194717007803784481e-02
6.700035867311922300e-02
4.960493568023366384e-02
4.074637756402867128e-02
2.228743067602605848e-03
-2.554207329890845896e-02
1.277888065865652803e-03
3.050270613960068614e-02
2.181387281672923090e-02
1.989149242642317475e-02
5.858725632657527105e-02
1.001427068769746714e-01
8.808051408804276616e-02
2.443230037157687051e-02
-1.849978378448945138e-02
-3.439370579539797329e-02
-9.487859332508140342e-02
-1.326005969264281437e-01
-4.683057413440872702e-02
6.424904647871340635e-02
1.082754816231168427e-01
1.162403553718432125e-01
7.557815974994884500e-02
-2.337901602973634085e-02
-1.012004310470724644e-01
-1.136039219918267146e-01
-1.064459678536210652e-01
-1.124517983396508269e-01
-1.150870007954866020e-01
-9.772698845674576695e-02
-4.422053086124441701e-02
4.220472313288006067e-02
1.018705112159877801e-01
1.287504013203920050e-01
1.927506273501716771e-01
1.983433598327068448e-01
2.352606731793077666e-03
-1.871695452913481605e-01
-1.307041762930704343e-01
-6.331411486771298947e-04
2.507706972872651707e-02
2.366347687793368335e-02
6.856630195462494991e-03
-6.112820126159288631e-02
-1.032646166641373042e-01
-9.976280176822353851e-02
-9.611352412073959073e-02
-6.475210550837937062e-02
-5.296472665115354271e-03
3.157563715206750110e-02
4.731745223847291792e-02
4.177354088089510475e-02
1.280979535260168105e-02
-2.126624786570390294e-02
-8.164834690414229934e-02
-9.740020051831624337e-02
4.275905432973876180e-02
1.700876885337127276e-01
9.998313948573619991e-02
1.756410223638558282e-02
8.993606447051039066e-02
1.868486114667146647e-01
2.162427506952260547e-01
2.445575139867987302e-01
2.858339728555123194e-01
2.663769055314073042e-01
1.704161754243943838e-01
7.337852961785237826e-02
1.137419886432926991e-02
-5.289638274022756548e-02
-1.386209971601547186e-01
-2.380318092354265780e-01
-3.300540750334462481e-01
-3.853946310227022165e-01
-4.056325163369068898e-01
-3.841345367011052558e-01
-3.030907653638995614e-01
-2.025503835227903671e-01
-1.068869240877768634e-01
1.877613322312028654e-02
1.556120651685375111e-01
2.321543874916879857e-01
2.166369539933980515e-01
1.358809776714980377e-01
6.062833717246270820e-02
3.994156998243895973e-02
5.373238299006874441e-02
6.351781569478222311e-02
4.320912991956574190e-02
5.025450700249645478e-03
1.213752231811820320e-02
6.521189944563815510e-02
8.056403850338833550e-02
4.863012185195377673e-02
3.677333330268370282e-02
5.139998836549249106e-02
4.791009013234879405e-02
1.429004288122915668e-02
-2.175623164149512873e-02
-3.565396009144271294e-02
-3.719694744841884476e-02
-3.918095690657158459e-02
-3.343503945466785865e-02
-2.296880194617634263e-02
-1.764906286910195021e-02
-1.417503574809939743e-02
-1.518543764115036845e-02
-1.930803856547407688e-02
-6.182367694608967811e-03
2.354638364070208573e-02
3.760156878387099777e-02
2.912761365504889371e-02
2.853389143079011758e-02
3.113808326271732055e-02
-7.001109774361736343e-03
-6.569079135229009825e-02
-6.885659839559062079e-02
-1.311532729806725792e-02
3.272428215592115830e-02
2.830002721905645890e-02
-9.886084497808788826e-03
-3.096406258357422767e-02
-1.835878368643948690e-04
4.607486668577218114e-02
4.214692395161874494e-02
-3.374436028317601491e-03
-1.383871575792742364e-02
2.975024835171924745e-02
5.737697901672267342e-02
3.073549749199224260e-02
-2.016026968188772833e-03
5.683693495206595427e-03
1.918191772808059900e-02
-3.238308247869048362e-02
-1.264158550704709560e-01
-1.505207829910868156e-01
-8.154427673292168055e-02
-2.030618640501157326e-02
-5.467794780212292122e-03
4.873222931353345111e-02
1.717400341226191784e-01
2.368470854046933749e-01
1.419228275353553170e-01
-2.505792361048935629e-02
-1.176698711125860469e-01
-1.355306900797455250e-01
-1.752204885655412880e-01
-2.454502907170345583e-01
-2.544681661567528286e-01
-1.443536123856360154e-01
2.651858950896273520e-02
1.410026484043761519e-01
1.795698193268108755e-01
2.199695857449442404e-01
2.493671600992564963e-01
1.812339492285044984e-01
4.405546327676203994e-02
-5.684476733523953496e-02
-8.774403706849662199e-02
-8.871899635358213021e-02
-1.039468939618799909e-01
-8.750113211874184505e-02
3.621698880863162551e-02
1.543733846986647118e-01
1.221546195582486893e-01
2.744479182408765539e-02
-3.499756510449079233e-02
-8.359903583139084715e-02
-8.716498017444412882e-02
-5.036697396676671767e-02
-7.374049052721523036e-03
8.168525985094778064e-02
1.366428123503352632e-01
3.402780944604076596e-02
-1.005471955912597554e-01
-1.126991737233307977e-01
-6.460753656332617056e-02
-5.317959597904076824e-02
-7.452262189577162077e-02
-7.145215431371190751e-02
-3.246261345376520203e-03
9.333603376109718408e-02
1.379944919009822579e-01
1.098854371744023561e-01
5.864076298214854210e-02
2.397465775725732967e-02
4.987704848062741482e-03
-4.621809776864171243e-03
-5.313399173171933290e-03
-7.563659709940113995e-03
-3.075565045957332280e-02
-7.220781856759839190e-02
-8.601731485301955527e-02
-4.601219671982811898e-02
-9.608696275836480297e-03
-3.014471353255803593e-02
-5.344265484981209485e-02
-1.205182346438329020e-02
6.019562080859430786e-02
1.191621307066969698e-01
1.740917850709691739e-01
1.877850420518978325e-01
9.681193687243389023e-02
-5.774544292371494580e-02
-1.646718459516464117e-01
-1.857132786957597925e-01
-1.764472127982313066e-01
-1.737066235232006539e-01
-1.495106947678636611e-01
-8.933198712777133677e-02
-2.876419715660971307e-02
4.104048777608500925e-03
2.568939800687563765e-02
5.498775744337355137e-02
7.753659189763421888e-02
7.589893887365342651e-02
5.605107782097999702e-02
3.842808524718824281e-02
3.764037028424132431e-02
4.674669773828439567e-02
5.892213966165298772e-02
9.730468753132032189e-02
1.862610798498851028e-01
2.881920990284044803e-01
3.280768019848869788e-01
2.953741880541423392e-01
2.244431121014659192e-01
1.077454983565701019e-01
-4.607055925622270676e-02
-1.733132715802775392e-01
-2.549956309116926945e-01
-3.116236183422396167e-01
-3.296712448587283406e-01
-3.176727268001316440e-01
-3.187230174858141640e-01
-3.110660131640847759e-01
-2.419809956104099768e-01
-1.440574385413492253e-01
-7.494271941119881597e-02
-2.574448008426195172e-02
1.632840202493710674e-02
5.612587733940975487e-02
1.288974702358247071e-01
2.214394181154228924e-01
2.736821992181820429e-01
2.816383641624345402e-01
2.544566471927960927e-01
1.798948934638601727e-01
1.045426538857029269e-01
6.736490534612704639e-02
1.685793684014540161e-02
-5.764471250599365049e-02
-9.465350331276013718e-02
-1.033162960282666132e-01
-1.284836844706116199e-01
-1.285636420251782541e-01
-5.538428122018753536e-02
3.329436620878066522e-02
7.129852591887883562e-02
9.926692344447765604e-02
1.478186469891110966e-01
1.357234126651292450e-01
2.377418855996138794e-02
-1.047180874551720819e-01
-1.756540549090899461e-01
-1.695293866145984596e-01
-1.056757824095645171e-01
-5.566546584105202394e-02
-5.154342857623565172e-02
-3.520373416578723158e-02
2.333157906468618509e-02
8.468547353289382351e-02
1.257498537268396666e-01
1.488210559249472376e-01
1.423570851523667802e-01
1.027441224329186525e-01
4.950384902793312364e-02
-5.547584766452689012e-03
-7.019219483324912190e-02
-1.478992646439595271e-01
-2.166104556433451067e-01
-2.402968772684145882e-01
-1.945312731585001897e-01
-8.097578262644467006e-02
5.164810304955714387e-02
1.341976957229871203e-01
1.531896555377927349e-01
1.376387666465608561e-01
1.002876748100742510e-01
5.096140256666979035e-02
1.405622655751311359e-02
-1.547572741357920029e-03
-2.262990148450465255e-02
-5.823105357871973670e-02
-5.337133859810494485e-02
1.904163199934881534e-02
8.202405805155568719e-02
6.431034462028797916e-02
-6.684440800595742305e-03
-7.180969774740553202e-02
-9.621555472479093041e-02
-8.544884460408219695e-02
-8.767387937171342016e-02
-7.058406387125340520e-02
4.941937231598651087e-02
1.657893719962202639e-01
1.446724204981629514e-01
6.916579965216114456e-02
-8.789554237068408077e-03
-7.033974750677669807e-02
1.208917707796363164e-02
1.240025106548816314e-01
2.912301391457918637e-02
-1.184921105961319193e-01
-1.060877584697689502e-01
-3.296209191333433763e-02
2.417493050669461060e-02
1.045753837632320687e-01
1.608361102641728269e-01
1.504179431745643891e-01
1.148249223823133019e-01
5.916102984695677247e-02
-4.415490004103018312e-02
-1.509274398262152039e-01
-1.872177257101313719e-01
-1.680572062163307179e-01
