-1.239034953659137739e-03
-1.367852084387115308e-01
-2.139180318780457279e-01
-2.270591162794188267e-01
-1.814827318626147934e-01
-1.097007341589490981e-01
-7.007669353780517085e-02
-5.836193530757945863e-02
-2.975905030471442253e-02
-4.963679439834101786e-03
-3.590972065708755712e-02
-8.609369940339815785e-02
-6.997126842930082025e-02
-6.888562676325860751e-04
3.870081708747979965e-02
3.147088706165710598e-02
8.054715097251228390e-03
-1.256643276203624725e-02
3.561202710703991609e-03
5.920725227435352095e-02
7.857346426610083145e-02
3.109655521119710636e-02
-6.050218510756611053e-03
1.106897611403575774e-02
4.168997982841504690e-02
4.945437702988631640e-02
3.262744885521130095e-02
1.486347709895812982e-02
8.380557075571786960e-03
-5.451847777739654913e-03
-1.295872962169906592e-02
7.641058329323366372e-03
2.356776976393519518e-02
2.118263801373279978e-02
2.736930994708026629e-02
2.056750222059952268e-02
-3.577321157085008169e-02
-9.311194029886284140e-02
-8.402680756903307957e-02
-2.947496848434982136e-02
1.772185915742920809e-02
4.366177313344755256e-02
4.893302939131390084e-02
3.731691884784131552e-02
2.024584266509132924e-02
-1.748071444064470655e-03
-3.422208598467459117e-02
-5.965350527845793283e-02
-5.090592733388624863e-02
-2.227696313054348953e-02
-1.657761855701704243e-02
-1.424658029142064977e-02
5.794664254583112295e-02
1.556243339686004257e-01
1.224431575315474835e-01
-3.662079051268650465e-02
-1.389140613455260298e-01
-1.115335161353471771e-01
-3.787950223492602547e-02
7.265600034879264937e-03
2.376361050673041729e-03
-2.796341970340349842e-02
-2.198592482632029735e-02
4.428671097919437138e-02
1.106362687757419250e-01
1.010974022476749390e-01
3.586733476987735009e-02
2.640938924589662437e-03
6.735109317134516105e-03
-1.590724622169478741e-02
-5.377270801019493063e-02
-3.841019714981951105e-02
2.207283845396617455e-02
4.821192757293465969e-02
1.419598397774427673e-02
-2.613002692693512999e-02
-3.531796058240679187e-02
-2.867945319008625288e-02
-1.575122746451181402e-02
6.449377115622744079e-03
9.165307278843881286e-03
-2.587321863548664586e-02
-6.098268437757381477e-02
-7.606563693626254563e-02
-9.852928939336688674e-02
-1.228795105215449018e-01
-1.108981737927969696e-01
-7.453944110737603657e-02
-4.589944612468578600e-02
1.248122164758918087e-02
1.321630404029555950e-01
2.347376082127163865e-01
2.510594270525107752e-01
2.232408301693997732e-01
1.844294678653415620e-01
1.195437280024462950e-01
5.963189904011806375e-02
2.048337812616041892e-02
-4.743480533579513825e-02
-1.183327927588831985e-01
-1.108556534115547193e-01
-6.039510312099866107e-02
-5.431167253667521649e-02
-8.269192513682409318e-02
-9.133439446639332604e-02
-7.480964470960879686e-02
-5.393802380324902446e-02
-3.177151895158537159e-02
-9.110660865075099688e-03
-1.105603214449626601e-02
-4.597126613603346595e-02
-6.532149818803568986e-02
-4.080252069904741208e-02
-1.592883622728963680e-02
-1.508449171721018556e-02
-5.297335345892925651e-03
2.589998570048754334e-02
4.507605910834101143e-02
3.331573283664172880e-02
1.421710629092257268e-02
1.219483537176969598e-02
2.471255831429116159e-02
3.127147340756198518e-02
1.982458883981299061e-02
1.128151093968863400e-02
2.457068276001459634e-02
3.222991296346691681e-02
9.551836160530163128e-03
1.307255201163981355e-02
9.859676616656835868e-02
1.621036163027397281e-01
7.535557768711345639e-02
-8.177694375440860974e-02
-1.715703889213781586e-01
-1.561547740730607203e-01
-3.564766011855581562e-02
6.950877551949039002e-02
3.088239814898129793e-02
-2.624352815211931228e-02
6.760941405859140912e-03
1.911046583329643542e-02
-1.542357593080544501e-02
-2.009463574000967465e-02
-1.485413031143436452e-02
-1.665642885471405391e-02
7.580851618277234527e-03
2.967335171946398550e-02
1.552150616946168515e-02
1.860871320537908769e-03
2.192161630887139862e-02
5.406364979432845552e-02
5.369426771265643078e-02
4.162610778780833840e-03
-4.798603836526460498e-02
-4.724422134460169037e-02
-1.640262292817771042e-02
-1.249238852568930989e-02
-2.775126519542408382e-02
-2.264089144068998777e-02
2.963358765910651445e-04
2.176306719754327740e-02
3.167133497783205381e-02
4.820833443190530171e-02
1.055432313667495486e-01
1.012599750237013208e-01
-7.917714345495062422e-02
-2.257734670527636878e-01
-1.322370581153364810e-01
6.843100451586214134e-03
3.330506404329286463e-02
5.787294066155748706e-02
9.743391079566554591e-02
6.440863813613775801e-02
-2.218562677662352933e-02
-9.278385400365526947e-02
-1.130614444739558855e-01
-8.340605506911132061e-02
-3.266652270184564055e-02
1.716324090602872748e-02
5.567702485358135001e-02
6.290348262355703601e-02
7.138910105531165451e-02
1.495260862516697986e-01
2.218285854304383742e-01
1.239529390295557310e-01
-8.111556436623751365e-02
-1.514874877703168976e-01
-6.202964289652554419e-02
1.548427650341095002e-03
-1.611270687355879222e-02
-3.697487686767007148e-02
-4.371686616544498416e-02
-5.813087245577008150e-02
-7.190426249092214672e-02
-6.959824829910561672e-02
-5.802138648670699533e-02
-5.889972558670919511e-02
-4.849167044175373142e-02
1.142032611219624683e-02
6.627162638355414692e-02
5.359853519966079755e-02
1.792250693219647403e-02
2.437895688146488396e-02
7.731664037451117799e-02
1.188928228511642177e-01
7.680503985228863406e-02
-2.193862084574366503e-02
-6.827280485058942472e-02
-3.082039202002336692e-02
1.839402202510378656e-02
2.591167024648971529e-02
1.017944674859751208e-02
5.170094008349599736e-03
1.611470761899951726e-02
2.843654970122125661e-02
2.879344887929077487e-02
1.265862766095207821e-02
-1.287645447759957866e-02
-1.910763225165389156e-02
8.700904439928009576e-03
2.900331038871307304e-02
9.561228083421510759e-03
-1.924725439134716831e-02
-2.859194412161025420e-02
-2.459060469530301163e-02
-1.676934535564997622e-02
-1.108179679719431023e-02
-1.854613187797999468e-02
-5.143792800454741188e-02
-9.673710657010202441e-02
-1.110771734717431181e-01
-7.827931291249880241e-02
-3.188490937536300751e-02
-1.829202913298926328e-03
1.233127432921257705e-02
2.987949103044108129e-02
6.645366945156869209e-02
8.848219629727036017e-02
4.589934367419609695e-02
-2.407996297161977411e-02
-3.566212489186551537e-02
8.150703438216572866e-03
2.567922966210129526e-02
-2.168293863019630369e-02
-9.123375436143381367e-02
-1.158842197052283030e-01
-6.422059880531716392e-02
3.094277510929927325e-02
1.065204519651233445e-01
1.564044618663937014e-01
2.178582124490566485e-01
2.567172680777232152e-01
2.008974856686533972e-01
7.640080593322236269e-02
-1.682746757814194277e-02
-2.422213835953289374e-02
2.739502240662169963e-02
6.705306855710609082e-02
3.834491520926171931e-02
-4.790433857349383345e-02
-1.281261653721132432e-01
-1.690405878357901792e-01
-1.900745602596318196e-01
-1.986960703993097543e-01
-1.793565991333244958e-01
-1.405920737658302444e-01
-1.104329644216226064e-01
-9.752009155252652772e-02
-8.589128824691952269e-02
-6.505984544390626401e-02
-4.265674245623185534e-02
-1.489231404695952332e-02
3.395749188688427372e-02
9.479381811862341856e-02
1.372448718679138147e-01
1.413432659726057417e-01
1.160799470782576948e-01
9.457985435908634886e-02
9.492483416843007504e-02
9.806438947796693173e-02
8.653289955673500178e-02
6.614475150214914334e-02
4.236571225289294251e-02
2.223103209208929579e-02
6.016629211519918669e-03
-2.628293051820648069e-02
-7.045671911633755169e-02
-8.941593240956827171e-02
-4.155832310795716522e-02
8.314563733091726028e-02
1.819342932065179941e-01
1.208713392482405335e-01
-5.006477432855575144e-02
-1.573460112014728185e-01
-1.482113518421622478e-01
-1.007846539113582129e-01
-6.920370910083664673e-02
-4.965858205013311266e-02
-2.871473287140397998e-02
1.110896422724279298e-04
1.536551711901753756e-02
-1.188254584043865053e-02
-4.756906820879809594e-02
-3.772731992950149882e-02
-6.182930837077980392e-03
5.264467653591307916e-03
1.041632386131603229e-02
1.614821651638203431e-02
2.119660502995893842e-02
5.020919877255314301e-02
8.078729724745158103e-02
6.759066906229069249e-02
4.204626349471346503e-02
3.490084458803889567e-02
1.578988125083637464e-02
-7.843993205891804099e-03
-4.305260833148142480e-03
6.701651415804353931e-03
1.058176913780840833e-02
1.205514361682025193e-02
-3.476648209172295521e-03
-2.739082336566520809e-02
-2.817631914094684970e-02
-1.424203253297893525e-02
-2.236686085861096240e-02
-5.037836648275334506e-02
-5.580827686439240182e-02
-3.587853896425095140e-02
-2.443501525401091043e-02
-1.501310664626022071e-02
-1.122206715933401697e-03
-1.656540608648160266e-03
3.757338699810930382e-03
2.687120245713420924e-02
4.029215979841600792e-02
4.598316713291193680e-02
3.899254990149784300e-02
-1.399866355120634766e-04
-2.927791360930422082e-02
-1.430184604405307022e-02
9.915396430350283119e-03
3.257160119590268854e-02
7.880302586363283068e-02
1.333211022294382153e-01
1.424024936603567049e-01
4.525303652729215087e-02
-1.452696717725944497e-01
-2.385845785985572509e-01
-9.630485913889051675e-02
6.799816514553203017e-02
4.010401926247603166e-02
-2.775437070776413245e-02
7.906829863544816150e-04
8.670826039775590341e-03
-5.035389472331689570e-02
-7.791328881184296506e-02
-4.796782762592458754e-02
-1.106230595189263213e-02
5.995234846515911514e-03
1.279624554176064452e-03
-1.028209915973966534e-02
-1.352179861519559566e-02
-1.157187765248092470e-02
1.209116284805968056e-02
6.365356846184018480e-02
8.367310145281517397e-02
3.727364709562362710e-02
-1.964752738157371503e-02
-3.045043189570199177e-02
-1.524597607762500848e-03
3.798379625297765988e-02
6.291011234313528822e-02
4.907449071368043952e-02
9.643387687580209575e-03
-9.253461897669177857e-03
-1.109924210653673304e-03
8.107008365117107304e-03
9.458081595184793938e-03
1.922109568461011914e-02
5.493356465833348218e-02
2.991669204865371468e-02
-1.352071575862509589e-01
-2.344890126831032373e-01
-9.680717926657111949e-02
5.077855562744588991e-02
5.330169716107026334e-02
5.173220411222072268e-02
6.996904184151975237e-02
4.164676448569354372e-02
2.357414114270967725e-02
3.046956070969523284e-02
1.750462546411699419e-02
1.475592010181933644e-02
2.458490092467998517e-02
7.745792247041113953e-04
-1.723624097254729433e-03
7.907801629501980123e-02
1.443396760311081162e-01
7.569252981015225923e-02
-7.829799862754152628e-02
-1.716859267608684680e-01
-1.395708280158450831e-01
-5.823857820826751353e-02
-2.909403248393224728e-02
-5.618786267166898246e-02
-7.940081221611076934e-02
-7.115705771849296923e-02
-5.082245701879434252e-02
-3.355926679613550900e-02
-2.157796296261790467e-02
-1.886207427953399268e-02
-7.165678952014128966e-03
2.355435814608949213e-02
2.763269638376542742e-02
-1.022533470558296270e-02
-2.149869412894345883e-02
2.875676842530252436e-02
8.629333563561636389e-02
1.043793980309575958e-01
9.815742179191516703e-02
9.256459280529757971e-02
8.189839766691080214e-02
6.063808469433686760e-02
5.091215901570274316e-02
6.268177012472198051e-02
5.438519311648091353e-02
2.772766762878145497e-03
-2.887952075765779988e-02
-1.159274278560383162e-02
-1.715983133030279245e-02
-4.317077867997583251e-02
-1.333709748259711073e-02
3.115666471029894524e-02
2.026455682005585957e-02
-1.059764932998865858e-02
-4.209155931421947744e-02
-8.776740403883460939e-02
-9.314388933495469647e-02
-2.961244361946436046e-02
1.785415895943884626e-02
-1.299068176976090477e-03
-2.040085523111527521e-02
-1.846906156646173011e-02
-4.994352537743212972e-02
-7.585894099973593263e-02
-3.826061846229376895e-02
-1.251799263702410916e-02
-5.142938138910921331e-02
-7.748385904313873085e-02
-2.809415740917707918e-02
6.100511031333706591e-02
9.732578223558373265e-02
3.146291889735632064e-02
-6.336146114958737807e-02
-1.035542311988824626e-01
-1.172844130511777883e-01
-1.366439807806256179e-01
-1.235605094113008673e-01
-6.893295460958538678e-02
3.434782376918398342e-03
9.264367206404734711e-02
1.775021143823936609e-01
2.320166617182611857e-01
2.670216633483433188e-01
2.742682280521266946e-01
2.384712418837847681e-01
1.808215053744019196e-01
1.107204345585485056e-01
3.782410982161282104e-02
3.767981197169367746e-03
1.129456363193626078e-02
1.024148935584734410e-02
-2.044227451970463683e-02
-6.641966457405691637e-02
-1.357835013472606933e-01
-2.222388593300515525e-01
-2.644786664080380212e-01
-2.426544853743024255e-01
-2.001509422874112321e-01
-1.468029365706517986e-01
-8.809633197593400022e-02
-5.930627677326921754e-02
-4.272794582735836566e-02
2.398125461971725714e-03
5.741421030959910354e-02
9.541407132832953331e-02
1.131920075624507499e-01
1.125090279108371394e-01
1.067009086600534673e-01
7.728575783053984183e-02
-7.553230894738974938e-03
-7.631174489386785553e-02
-2.377946797328557918e-02
9.750394524773847715e-02
1.452252205237596905e-01
9.243007800294028575e-02
1.223940488863793814e-03
-8.021536223410609401e-02
-1.069839307561468444e-01
-7.593919325122537589e-02
-3.692306154500912124e-02
-1.073776640049725790e-02
-2.489960810801786217e-03
-1.380517077463313397e-02
-5.702912083863557677e-03
3.400476880011048253e-02
5.589184562850375154e-02
3.746906260081766388e-02
1.895606889954767546e-02
2.256973694004694997e-02
4.631994982054131980e-03
-4.503339947331005955e-02
-4.565247253076800543e-02
3.522448356236647371e-02
1.066310459008905226e-01
9.581908372044417588e-02
2.721040599196873286e-02
-4.691234841653230819e-02
-4.660572005116608851e-02
6.282233009688847902e-02
1.213525812210549115e-01
2.130909788764203880e-02
-6.709497507805757543e-02
-5.212597157349423138e-02
-5.145368492808762712e-02
-9.212504852097444519e-02
-1.209796918648875785e-01
-9.427700733744825978e-02
1.960709516631688881e-02
9.510731710990207033e-02
8.871043048442932288e-03
-1.020552284446833852e-01
-9.183833781696444654e-02
-2.003246709829913097e-02
1.876104848505973435e-02
8.510974418580766546e-03
-5.262902206604164190e-03
2.597855700285416070e-02
6.881837476901692119e-02
5.559723705418456730e-02
-2.126299471401660660e-03
-4.114017240333771308e-02
-3.163942868550867482e-02
6.774015538821578919e-03
3.289601652924940833e-02
4.677087967802787127e-02
1.056269075367340382e-01
1.988150683881604319e-01
1.959744473343694726e-01
4.790745552904589200e-02
-1.099713817541816824e-01
-1.643258497670705143e-01
-1.356853531080465525e-01
-6.988087733578982053e-02
-8.466211553374916599e-03
8.152462849994986799e-03
3.629158861406679010e-04
1.637711760982447223e-03
-1.517987410782293232e-02
-5.781190097364275610e-02
-7.012259336279887123e-02
-3.847924483550369673e-02
-1.076312765155727595e-02
3.618914924847841524e-03
2.499200037598978477e-02
3.511361178875520295e-02
2.450076185661986816e-02
3.265291354675176061e-02
6.460246575912469147e-02
6.519355658631149908e-02
1.759650195158181385e-02
-3.166912544523663164e-02
-4.337198109717153166e-02
-1.846842069547352180e-02
1.609382873902817299e-02
4.490440972901547229e-02
6.943564676304807282e-02
7.062690745951875904e-02
3.172479730849548513e-02
-3.047009888157649338e-02
-8.577008970720412240e-02
-9.661816499115258305e-02
-5.736221966879709311e-02
-1.880094529231114697e-02
-4.947056575516964837e-03
3.344473520732326333e-03
1.305376816192603540e-03
-4.206239481036488925e-03
1.485040450776784968e-02
2.659916000896040897e-02
3.151486541601076705e-03
-2.796609075600477948e-03
2.018016287727486882e-02
1.777560970687900796e-02
2.982293913662002402e-03
1.537035820181458998e-02
2.409637944737437129e-02
8.044454694567859318e-03
-1.373759842739716991e-02
-4.987809498816717091e-02
-9.536814897544897141e-02
-1.058452209684575679e-01
-6.687501052457318906e-02
-4.878635350574083741e-03
4.463054387848849891e-02
6.238948724589718497e-02
5.057375381195676478e-02
3.960227642044381394e-03
-4.996254974348107725e-02
-2.110289097780563422e-02
9.147401978386271448e-02
1.506570933005977331e-01
1.103859564533192367e-01
5.828050494842638984e-02
1.289019056194974991e-02
-4.101507441033434842e-02
-4.420174139059217244e-02
3.628403609895115844e-03
1.931629163880550087e-02
-6.786137168300475364e-03
-2.566275489575228080e-02
-2.902265597140640113e-02
-2.965718786361216594e-02
-2.636632775718521227e-02
-1.417789118025553768e-02
-2.079334100963559084e-03
-2.771110627185775777e-03
-1.970452836288008602e-03
3.321425471022714567e-03
-1.623730333612975751e-02
-3.948752757082389653e-02
-1.471184366003581122e-02
3.535461542969179499e-02
5.408823595665484402e-02
3.789476791570995512e-02
2.055537480782863163e-02
1.616519286493946217e-02
-2.096983486598804833e-03
-4.983280360672991127e-02
-8.675748269959467074e-02
-8.537064199045477086e-02
-7.546741585311264600e-02
-6.326432815053223413e-02
-1.867091902741139370e-02
3.682381084776358698e-02
4.634968682097064668e-02
1.269603655237212456e-02
-1.006206646412265149e-02
-1.020078036242311539e-02
-2.850156750959343885e-02
-7.314971911351617062e-02
-1.041620380482181640e-01
-1.010507357154649677e-01
-7.382096183279594770e-02
-2.276066295391792477e-02
4.960016786859923477e-02
1.124485477589533128e-01
1.499409728820675913e-01
1.775811244211012996e-01
1.895477438831217332e-01
1.789697699321353419e-01
1.670078120538071864e-01
1.515323934592745780e-01
1.268200394341977844e-01
1.101441087788150031e-01
8.719566007086586301e-02
4.126180255199363850e-02
-1.744565159233048973e-02
-9.950957510573943399e-02
-1.856144830513604405e-01
-2.084423499116138667e-01
-1.831664206338610990e-01
-1.860302757656688288e-01
-1.978743250056352598e-01
-1.749796783778515830e-01
-1.650727223881636452e-01
-1.695274492338265659e-01
-1.106153204349497043e-01
-1.816760964556244848e-02
1.904473087751951815e-02
3.648929788685769532e-02
9.151533416756840733e-02
1.299155312741040458e-01
1.186997324457666897e-01
1.032938072636181426e-01
8.462718411268459195e-02
5.542469193022495771e-02
6.451593392233069546e-02
1.004444255418275589e-01
9.260443058875102162e-02
4.975349889195681413e-02
1.428298900391769544e-02
-2.356097259003904834e-02
-3.928867031361111400e-02
-3.821431507756316293e-03
8.705731540700190757e-03
-1.671603915128912557e-03
8.370525049874992518e-02
1.766155237118531285e-01
7.215403244023510521e-02
-1.264417520534097117e-01
-1.807841770608547838e-01
-1.163451171323469091e-01
-7.032671422406239214e-02
-4.487864453313894497e-02
-1.532687005872966461e-02
-1.813384662296672195e-02
-4.982803582675945225e-02
-5.118505708086590333e-02
-1.666990986001891731e-02
3.849700977669519297e-03
6.947143995232581484e-03
2.156823644657054201e-02
3.499960662606090706e-02
2.246116351057666702e-02
-4.486100494192645817e-03
-2.075924865511943190e-03
4.913991370435045331e-02
8.460528662834651548e-02
5.793181449049647491e-02
3.354699341143342617e-02
3.378972081619346229e-02
-7.752260142593158168e-03
-6.387800339766350199e-02
-4.483107005141765550e-02
1.823693357445921662e-02
3.868883868051219838e-02
1.256780028629857215e-02
-2.827931381742405242e-02
-5.583400349553122727e-02
-3.559695832782514002e-02
6.675596809145292222e-03
5.614128455465019346e-03
-2.211106203269279022e-02
-2.303851462189263760e-02
-2.221583653622111534e-02
-4.556265840493619462e-02
-3.814909374425613092e-02
1.542067850304634259e-02
4.161625750493330722e-02
2.390054640923458887e-02
2.217031289170661584e-02
4.465534594061876250e-02
5.292723384241548173e-02
3.059906832881601271e-02
-1.292462235521019132e-02
-3.030179130320284631e-02
8.081936463383537772e-03
4.107000034360202417e-02
4.328429067530246976e-02
9.708383337194149976e-02
1.791808646531083127e-01
1.284757909844835011e-01
-5.234058563317196822e-02
-1.750553842546119510e-01
-1.679376408443248037e-01
-1.176924620940713317e-01
-8.068449570798040538e-02
-4.024543172303782917e-02
3.897996553345370319e-03
9.159203625153114481e-03
-2.650321678197037692e-02
-4.966333734071958633e-02
-4.643881056242122468e-02
-3.196287740301882729e-02
-1.327921240557614763e-03
1.679628894347580392e-02
-5.286640521286287142e-03
-1.609809121460543599e-02
2.135911358272108568e-02
6.250843718131027238e-02
7.080754451982634867e-02
5.782988483093783744e-02
4.311912409605107160e-02
3.752805761447839533e-02
3.547534206449970418e-02
2.029355988197289323e-02
-3.296171712678635374e-04
-5.946225500359307234e-03
-6.139407551047564721e-03
-7.455888528551784730e-03
8.395139690528286708e-03
3.069026692706732645e-02
2.681098429009617576e-02
-6.324732438164085320e-03
-4.258054949339846323e-02
-4.362349309669014130e-02
2.304924810578748082e-03
4.076110865210220979e-02
1.688327428013395790e-02
-2.868555475737339863e-02
-3.097226797981982027e-02
-1.490030253242568582e-02
-1.530856574412709642e-02
-7.192965379518160771e-03
8.481735527726942669e-03
1.245248361900499687e-02
1.646800046722834629e-02
5.057521945375065275e-03
-3.745419088039234762e-02
-6.184237267264817983e-02
-3.499116156788348309e-02
-2.985559612216426469e-03
1.502390314411663694e-02
8.718227023027005917e-02
1.565779056558464777e-01
3.161919470519099912e-02
-1.647384631972352853e-01
-1.106338747349266682e-01
7.148642340121567906e-02
7.847656805721461848e-02
5.065855936389335179e-04
-1.709517269044383281e-02
-4.943051974328541848e-02
-9.768235161107828579e-02
-8.106090749256347761e-02
-2.640039739594829404e-02
-5.649468946805473804e-03
-2.441298637790632539e-02
-2.793289410467776623e-02
3.891488179028826724e-03
1.219393448875866551e-02
-1.274802835202876877e-02
2.027617872533136675e-02
1.199146550799675415e-01
1.561975534996858928e-01
7.916717573849239853e-02
1.902307096241470305e-03
8.841994767629118845e-03
4.497020374770805545e-02
3.740780595201551040e-02
1.007369070342106418e-02
9.956071321897986062e-03
9.601894770614613495e-03
-2.217884469195864627e-02
-4.274633123461166195e-02
-1.390036872521204989e-02
2.634722955185875640e-02
2.734329910566150879e-02
2.936740841074725675e-04
-1.956812624467334574e-02
-4.266109056425649443e-02
-8.131732704873660678e-02
-8.676601563667908634e-02
-3.394159678175413808e-02
1.522380290732256586e-02
1.176905702258959283e-02
-2.007978888314066596e-02
-4.008251630454924552e-02
-4.157986472672978856e-02
-4.907556882278404226e-02
-7.324947382050978062e-02
-7.829792015480159517e-02
-3.285932454258987112e-02
2.212611172974908447e-02
2.319491201788153462e-02
-1.353975086148426210e-02
-1.354713986343581561e-02
3.911393692763068253e-02
5.870944342243154118e-02
-2.177158580137881355e-02
-1.143562701726770769e-01
-8.486706840722994805e-02
2.400375059546554224e-02
6.863505945883395520e-02
5.979607848839745693e-02
9.909137552884297873e-02
1.596236530153799793e-01
1.880386036686667039e-01
2.288358134792811971e-01
2.483853396627744015e-01
1.535463372804948823e-01
4.662261003792830122e-02
6.342722018090912739e-02
9.615327835388134958e-02
2.413436361615620487e-02
-7.026443994948841643e-02
-9.611149183034198296e-02
-1.005571878559143317e-01
-1.564076529354588019e-01
-2.293544010422911283e-01
-2.457108157339796262e-01
-2.295358060698531044e-01
-2.300299016486764270e-01
-2.125114612824873239e-01
-1.466787273951214721e-01
-6.816108187002731245e-02
4.507166526487790814e-04
5.779836931451925314e-02
7.862002214960743529e-02
6.780666220904198183e-02
7.351329452560667610e-02
9.307580277755589382e-02
8.790985308603560533e-02
7.746513784034229910e-02
9.284353755188486101e-02
1.010447276277703366e-01
7.513089748084891828e-02
4.453346430787551852e-02
2.415101293092430240e-02
3.984368128246928986e-03
-3.921741037043333100e-03
5.572639085278763976e-03
1.342675161999181549e-02
8.152005328683722962e-03
-8.208862746821251472e-03
-2.217982672854857187e-02
-3.047733838408649143e-02
-5.204325427002448601e-02
-7.395126584852831919e-02
-3.761411603181810670e-02
7.973639967799434070e-02
1.697128370191412772e-01
8.279940163182794577e-02
-7.098170518867462364e-02
-4.016578004535092949e-02
7.481083618424602677e-02
3.855503265649735251e-02
-3.801231222785002306e-02
-1.985608838543813370e-02
-1.113204839357956506e-02
-4.839886687702351503e-02
-6.302885993510434770e-02
-4.699347207286403566e-02
-1.609030663721849191e-02
2.193483125398354439e-06
-1.913667865989727990e-02
-2.124221904044546957e-02
3.181212792077400299e-03
-1.122964256791363427e-02
-3.458579903827160851e-02
7.675709781195909354e-03
6.183887602725143123e-02
5.472662274468714783e-02
2.641837844836900442e-02
8.192288833510485285e-03
-3.149893027699871700e-02
-5.999020189020855265e-02
-1.755683807652956563e-02
4.194144959481693746e-02
3.775652161446221150e-02
-3.967968927901299736e-03
-2.437919707461671734e-02
-2.397610134910891505e-02
-2.440527363809379471e-02
-2.767125466174569920e-02
-3.476512855183244016e-02
-3.956377193729577330e-02
-2.131405521912474454e-02
-2.154108630285905997e-03
-2.327907077296693591e-02
-4.801051166006439080e-02
-2.115874751687676567e-02
3.733047184934011609e-02
7.737838249980652505e-02
7.200615065310436713e-02
3.955961081703083387e-02
3.081402242188610238e-02
4.274824084856153339e-02
2.845582775999671785e-02
1.322744144289457816e-02
3.963254581259122167e-02
5.747781640540951253e-02
4.983761511413716677e-02
9.605522868270557901e-02
1.692831890065189526e-01
1.240554723127020031e-01
-4.155891308414335489e-02
-1.695969345984665311e-01
-1.864675632900436031e-01
-1.428277552401938655e-01
-9.159761879836701703e-02
-6.811622646586699970e-02
-7.022609525303347144e-02
-5.537374526085440257e-02
-3.027124143142502152e-02
-3.574750067608480769e-02
-5.549858604140307794e-02
-4.385068613440531310e-02
-3.484328977868909188e-04
3.188654957322234473e-02
2.959126635947970443e-02
1.864073766950671840e-02
2.645774335431291813e-02
5.609628404738037366e-02
9.959434075325133973e-02
1.231351611757183218e-01
8.950583888102768559e-02
2.820861622507114461e-02
7.914094923431591599e-03
2.269005327109378800e-02
2.887690425075440173e-03
-4.484796306950528805e-02
-4.074572222033381874e-02
1.326468538400651237e-02
4.266508395362141742e-02
5.249083148648193281e-02
8.847738669680160761e-02
1.006000720513540170e-01
3.508637215493978778e-02
-5.054273178211576151e-02
-1.074979859693008799e-01
-1.474593359375108159e-01
-1.341550029979595438e-01
-4.569139218792045432e-02
2.447208587618499021e-02
7.477048346671885670e-03
-2.064680059566620374e-02
3.565299205797523019e-02
9.290921112792427383e-02
-1.487366337562513741e-02
-1.619187272674326994e-01
-8.752596969340892263e-02
6.252996446601555292e-02
2.491463973085045538e-02
-6.959162827560382014e-02
-5.088680302912076264e-02
-4.769812496117947082e-03
-6.269067935259931695e-03
-2.383993861636801367e-02
-2.929681328472101554e-02
-2.235331034025724722e-02
-4.540650047907465563e-03
3.411469498706509035e-02
6.726082171150957190e-02
4.477158574317801482e-02
1.645365674326743077e-03
2.152759279189544669e-02
8.811563853236936694e-02
1.159276824153215590e-01
1.047130124607408980e-01
1.065442155868564778e-01
9.369471902477322089e-02
4.158083269243653679e-02
1.096289270347557479e-02
1.414255789387191403e-02
3.916163705138760165e-03
-1.119909327989192585e-02
-1.437691266549316962e-02
-1.826785160304841144e-02
-1.513582425726549621e-02
-1.775172552225607464e-02
-5.727394317722411116e-02
-9.562838187208606844e-02
-8.713433153363528416e-02
-7.445504964677150672e-02
-9.002181929548692951e-02
-8.261211721247729844e-02
-3.170670634525667858e-02
5.454169737568332829e-03
-4.784659121172464558e-03
-2.916683505430716847e-02
-2.889793588795835921e-02
-1.438118735514028190e-02
-1.810448865713980976e-02
-4.060608944876473170e-02
-5.334526336467919350e-02
-2.870773816095828837e-02
2.211353821149943805e-02
4.386042963025257868e-02
3.067935917474336888e-02
5.461662911294789396e-02
1.175068712159924866e-01
1.193978013775072733e-01
4.125854812001700234e-02
-2.471298329524347637e-02
-4.150120516335783355e-02
-5.482087397077070601e-02
-7.587280267400318967e-02
-6.789623176386802572e-02
-2.744378858303519672e-02
1.435117740674110576e-02
3.646653549208395129e-02
4.106861680015766458e-02
6.070584516665268604e-02
1.123718555734177782e-01
1.654068256226584044e-01
1.933892431227875741e-01
1.749285565042561219e-01
1.088540025955772317e-01
6.780397132163958063e-02
7.810409842683574411e-02
5.198942893072312776e-02
-2.708926221276608537e-02
-7.762784206939998821e-02
-9.584641067682149462e-02
-1.383083471647980067e-01
-1.959912458996738716e-01
-2.140302402074128474e-01
-1.928188317958444420e-01
-1.871346325793881438e-01
-1.930919345761828998e-01
-1.572096505558973900e-01
-9.094732673141063539e-02
-3.875702609317328157e-02
-1.858919106169018565e-03
2.773527910432364851e-02
3.965221192698015207e-02
4.470392945672224672e-02
8.232627432226191644e-02
1.421196167233671759e-01
1.536426593718446254e-01
1.109434367691316675e-01
9.017003205511070485e-02
1.129922445071344789e-01
1.189867855497096505e-01
7.975024876017167141e-02
3.973460454335739356e-02
2.760070927724852033e-02
4.664917268636475239e-03
-4.318027338544994792e-02
-5.831612235232624952e-02
-3.796937701414495464e-02
-3.904101205380880457e-02
-2.129452373518322950e-02
6.484042488678506966e-02
1.126264451224828766e-01
3.374129992828265451e-02
-8.130889473779172316e-02
-1.279754101190385684e-01
-1.072486085221723284e-01
-6.221124628040454463e-02
-2.777895505276121654e-02
-9.224858493522882993e-03
-9.525843934168123917e-04
-7.418468137163536716e-03
-1.315692684687581014e-02
-5.995461961366608389e-03
2.881057474587655001e-03
-5.976788333224907976e-03
-5.281386730736711138e-02
-6.318890931528371724e-02
3.940197899223388950e-02
1.058862083031428120e-01
3.583819754901770155e-02
3.556233341646052384e-03
6.498967902767445459e-02
8.130984222619722090e-02
4.291226652541021286e-02
1.154611033741648890e-02
-1.374901429467944268e-02
-2.495001309216806490e-02
-1.947105199612365889e-02
-1.717091336237563243e-02
-1.163781153584885278e-02
3.873020823601759297e-04
-1.084712435048921413e-03
-2.023704491090907304e-02
-4.191201977684378549e-02
-4.659350783342226104e-02
-3.511784699426389461e-02
-3.869438742601782888e-02
-5.014357406225881247e-02
-2.343750893681641884e-02
2.406826939105534066e-02
4.201245512275723210e-02
3.675139644324029731e-02
3.107793614217154582e-02
2.719338068849635331e-02
2.744955725474062039e-02
2.890395093051763634e-02
2.262599306325072460e-02
5.215269243322508651e-03
-8.734776411146713548e-03
4.399556780423019391e-03
2.097450141098722992e-02
4.182781777631650044e-03
-3.274746803682406036e-03
4.771062346446154623e-02
1.050797234368695682e-01
6.085525203281092615e-02
-9.864786926026516967e-02
-1.821575901888226323e-01
-5.265407354285005226e-02
6.707991381181024892e-02
-1.388811921270645400e-02
-9.919637895905202007e-02
-4.765841553070111758e-02
-1.966593237469708381e-03
-3.652416539434190368e-02
-6.628690063292486112e-02
-4.485110653963262500e-02
-2.299831358953660296e-02
-3.912096911304037417e-02
-3.329075105978573923e-02
4.022384413745571513e-02
1.130320552414800228e-01
1.294566827950891785e-01
1.285867629770436615e-01
1.416352684676402129e-01
1.290000352784610727e-01
5.120790816620298530e-02
-5.171133974746677103e-02
-1.000899443659999111e-01
-6.633048918879116962e-02
1.540569648624325397e-02
8.664390978291876266e-02
9.963328181457858923e-02
4.568673586055810310e-02
-4.750240260817586990e-02
-1.212225717769259414e-01
-1.202821690540255006e-01
-7.101512497748205255e-02
-4.588532898420600442e-02
-4.959203894331172535e-02
-4.360522204915829453e-02
-2.546674075900175541e-02
-5.428210750379833943e-03
2.824061420042676615e-02
7.112367575589934043e-02
7.564790155859602017e-02
2.276503176081914881e-02
-3.260104479127758775e-02
-5.015102387900942371e-02
-3.885427294455892633e-02
-8.246990878582625972e-03
6.010862228997748344e-03
-2.068870412016066834e-02
-2.113469582998987045e-02
2.391604788564460557e-02
1.108348970333091627e-02
-3.798677544570452230e-02
2.647851980990333781e-02
1.316818033524782827e-01
7.221481754642226913e-02
-8.001035165325164067e-02
-1.181300034811560429e-01
-6.045724568609405630e-02
-1.302211649652460987e-02
2.417962408410342240e-02
4.383282103257090528e-02
2.064461245434325715e-02
3.252949113690752330e-03
1.850684784528534507e-02
9.892894652989392759e-03
-2.651905456140676159e-02
-2.113339815585532633e-02
1.664071900947774671e-02
1.531725958223608026e-02
-1.420447042683399379e-02
-1.927651962883589198e-02
-2.693037032462921795e-04
3.755001721718738417e-02
9.446955931811414076e-02
1.208105424782586756e-01
8.530512616605202825e-02
4.209701708141543042e-02
3.268331913912009279e-02
3.356958774857388139e-02
3.263957515200381632e-02
3.025778436118077216e-02
8.096077426988014525e-03
-1.973032704179928515e-02
-2.115205773143422063e-02
-1.951517384908280084e-02
-4.966241983167454799e-02
-8.989589727738694913e-02
-1.075219019607335652e-01
-1.075952719188766338e-01
-9.772436975987421059e-02
-7.434808699920532338e-02
-6.947536697355818913e-02
-1.005662275045443727e-01
-1.038151692940599002e-01
-6.151442646650135543e-02
-4.678067699688519959e-02
-6.583606946830287965e-02
-7.628561498899354143e-02
-9.381518152405741995e-02
-1.144509755409434809e-01
-8.476119585445646143e-02
-2.237165028340638157e-03
8.955059724557926093e-02
1.736785467036922048e-01
2.564907849631317127e-01
3.469267505905919702e-01
4.345444357737842100e-01
4.555071113658484272e-01
3.593284494932698636e-01
2.101156351248426868e-01
1.122852472777901012e-01
6.860044513409634115e-02
4.020848427438772354e-03
-1.089345346909474099e-01
-2.138388957553529202e-01
-2.699882329490482236e-01
-3.104147170090629237e-01
-3.436673329918415454e-01
-3.347484859726913564e-01
-3.005856860219109916e-01
-2.670155815616118145e-01
-2.168530762622972730e-01
-1.626283255921115167e-01
-1.237550289874545795e-01
-6.678978891368259063e-02
2.132130005679463286e-02
1.031483372416799188e-01
1.590023203725463852e-01
2.009208511550710230e-01
2.326824870782146781e-01
2.338557044563872034e-01
1.977630263260352350e-01
1.565050262671038028e-01
1.350189807909334683e-01
1.268403916478129112e-01
1.193476490718680394e-01
9.279103926062642893e-02
3.216380265734743865e-02
-2.906443477830107647e-02
-4.343951512099026441e-02
-3.263538161757579409e-02
-5.659079111959260111e-02
-9.484564847463111681e-02
-7.755151116158193192e-02
-7.024772157101644154e-02
-1.760074128371589830e-01
-2.563491592062242530e-01
-1.555571008726620852e-01
-1.476065087629341646e-02
1.854089869590505590e-02
1.529328845288688982e-02
3.485951216496641081e-02
4.040792387783384565e-02
2.281380662473251122e-02
1.772511248872062767e-02
4.554090149102052454e-02
7.164051046271174839e-02
5.906418368715932177e-02
6.216780109399520915e-02
1.433627957786341722e-01
2.112094850216571784e-01
1.293088767461673394e-01
-3.785315232324734658e-02
-1.175099914388357536e-01
-1.051159811321659143e-01
-9.611991843256104118e-02
-8.390702511127368091e-02
-4.373298228955862371e-02
-2.584744135172431165e-02
-4.542888946273652279e-02
-5.091187270718022795e-02
-2.598595597024673867e-02
-7.790750428514567512e-03
-2.145458771585494195e-02
-4.450105835071265642e-02
-2.659498064181743671e-02
2.365740649928993466e-02
2.069250035505017585e-02
-3.345287812686716794e-02
-1.284026159837171541e-02
9.139026919490644829e-02
1.291023134737283307e-01
7.272111931333039014e-02
4.595153459223938475e-02
6.112603965007264162e-02
4.195763189733273807e-02
1.493155519670637948e-02
2.046890931345057146e-02
2.122797708323107685e-02
2.258607115673353510e-02
5.012590813408430990e-02
3.453864251083043485e-02
-6.409524388041210052e-02
-1.520287313213069258e-01
-1.658116511142852245e-01
-1.554165601748962178e-01
-1.450660173446092216e-01
-9.239057341719840444e-02
9.174051355445503667e-03
1.019201982652990918e-01
1.273115539317183353e-01
8.366283174669958411e-02
1.634677540321541334e-02
-2.943957771501167983e-02
-2.911284450147208838e-02
6.510235867744995283e-03
4.807173484962531940e-02
9.039020176863866995e-02
1.203649567833772055e-01
9.999087976547406387e-02
3.378103585080069471e-02
-2.169351354187179157e-02
-8.020833799199104247e-03
7.238043577978012233e-02
1.120013777009123551e-01
2.076307024226468553e-02
-1.311324544758152855e-01
-2.066128902297652281e-01
-1.609978295150373828e-01
-6.905267894961736319e-02
-3.134609235664133353e-02
-4.549083997770346499e-02
-3.843736172593727185e-02
-9.681807747093516131e-03
2.623071704419978334e-03
1.421341872073834250e-02
2.710012210724775661e-02
1.616685509545165086e-02
9.117086075151452709e-03
2.926225129482058762e-02
3.370056000408210711e-02
7.053478969621253258e-03
9.566231016719911606e-03
7.219654923340187991e-02
1.269947247329372975e-01
1.032659993027165990e-01
2.569017109052739931e-02
-4.704872035163311372e-02
-8.652130845101485557e-02
-6.835071099074543910e-02
-6.843261304260373629e-03
2.785092389340465546e-02
2.078810863718894356e-02
2.147616192535950486e-02
2.774768518535522532e-02
9.620084807206098071e-03
-4.627342158729035558e-04
2.676852792487356344e-02
4.259331747845726546e-02
1.120628024017935459e-02
-2.519420528928621381e-02
-3.242496267058806586e-02
-2.595006290404785337e-02
-1.960902739847405346e-02
-1.877910337530185395e-02
-3.782930868504799649e-02
-7.727602704146160906e-02
-9.700920784531683050e-02
-6.758146829785988130e-02
-4.511880237170680374e-02
-8.069828668553978568e-02
-1.204342717896396409e-01
-1.199512407992611301e-01
-1.040429801561209289e-01
-8.415369563713548384e-02
-5.067952708949678697e-02
1.859808731153469313e-02
1.267931409600432380e-01
2.012655223725110520e-01
2.113657866080182191e-01
2.404961794591849999e-01
3.028126247603918908e-01
3.102426908899442726e-01
2.610010311660581062e-01
2.149670001344186898e-01
1.631341247818923756e-01
9.345639722944754091e-02
2.970509881249098344e-02
-4.143831065268639008e-02
-1.340363127095342000e-01
-2.179095142137449925e-01
-2.837443167831825708e-01
-3.445518416334884537e-01
-3.911935741242387743e-01
-4.091471982122297235e-01
-3.652862625288539333e-01
-2.389383980610792768e-01
-1.133167130964427560e-01
-6.381634608330126468e-02
-2.466738704160828521e-02
5.021252881054777406e-02
1.023454910799631162e-01
1.305717077641326829e-01
1.827982184286403855e-01
2.413087708430060874e-01
2.767722896577623493e-01
2.825199611141078204e-01
2.456719555047196524e-01
1.862834389922211897e-01
1.492256644126254139e-01
1.278712729331261677e-01
9.130497822415306608e-02
5.387846524106172652e-02
-5.716308988019599968e-03
-1.362319079866762817e-01
-2.292092976600734744e-01
-1.758154377169687532e-01
-9.985780783856845755e-02
-8.967646554842581552e-02
-6.780098541585539984e-02
-3.958168537093603029e-02
-5.057004278852011980e-02
-5.662516943165349370e-02
-5.836346456165402569e-02
-8.714610479396901754e-02
-8.503474526524480714e-02
-2.784048102519475626e-02
4.433032476479440917e-03
-6.012753144076905809e-03
3.191027712141894512e-02
1.378993948680813098e-01
1.787532404438202382e-01
7.383218604406009689e-02
-5.201274826090863945e-02
-7.965325184407213988e-02
-6.540500880554571406e-02
-6.237315388808762490e-02
-2.581050470213245088e-02
4.406604855561400275e-02
7.767674156103591965e-02
4.625723641468269809e-02
4.530921795853265488e-03
1.419658106831582847e-02
3.779996349443386083e-02
1.313848434198430087e-02
-7.789442991353937897e-03
2.728027602791778181e-02
4.551216426077849680e-02
6.566046520755493276e-03
-4.212158599720878562e-03
5.609712239315206572e-02
1.098778603551613248e-01
1.079261190973937606e-01
9.600842606308145066e-02
4.460881035986296456e-02
-1.228221226697277235e-01
-2.405003900943641360e-01
-1.286727035711291156e-01
6.134052961828829337e-03
-2.809202951263899475e-02
-6.884191134198537620e-02
-1.802075653455895848e-02
7.394550051971629859e-03
-2.079920852635113934e-02
-2.740086541065385461e-02
-4.880350919336659196e-04
1.169056034965266708e-02
-5.318058477995312242e-03
-2.168294013877074614e-02
-3.867435159186130567e-02
-5.905865818992393074e-02
-4.247894327194164099e-02
1.382458201661933717e-03
2.804185228118089707e-02
4.725649214620787630e-02
6.198903481278662808e-02
5.718107464720915273e-02
4.185619101201719372e-02
1.104501132457431749e-02
-4.959885407666828928e-03
4.112297861514400965e-02
8.846533047922984505e-02
9.865735227632117799e-02
1.329121983315518785e-01
1.632260781898398905e-01
9.647161898693103199e-02
-6.709907686393805359e-02
-2.214074625090378112e-01
-2.442966906971031360e-01
-1.511957121954545791e-01
-5.345500661447552537e-02
1.758630465093435555e-02
6.244199347240881465e-02
4.861761964604764674e-02
-3.334107816746111064e-03
-3.653715652722853285e-02
-3.707097226535301104e-02
-1.102366475831068754e-02
1.890207245443750739e-02
1.790520734703868189e-02
6.653815804733124312e-03
1.560337502683396133e-02
2.046794772671097287e-02
2.163109643838723520e-02
5.050445290243726904e-02
7.772605117547375098e-02
5.850733136043151372e-02
1.920325522754744510e-02
-9.936853413654685857e-03
-4.724111976863165641e-02
-6.961045661740830615e-02
-3.057363952005144603e-02
1.168533094160495618e-02
-1.116882405798145725e-02
-4.343585592463664047e-02
-3.733016820518161166e-02
-2.666332398194905251e-02
-2.199796501571910437e-02
-2.085284223642326976e-02
-3.327795035198901491e-02
-3.146264993161244222e-02
7.480390344409912221e-04
3.078998914374200466e-02
3.527640564884433616e-02
1.177968811140205074e-02
-1.549896838736654001e-02
-5.315507057863904337e-03
2.307735813294597635e-02
2.913658422445352530e-02
3.903651856649186652e-02
5.543385306433375875e-02
2.819570878961693422e-02
-1.160055318435637521e-02
1.293376956825586371e-04
1.963899619094360005e-02
-2.975777129025987573e-03
-1.510032227244313338e-03
8.249072969839900404e-02
1.603647823649717030e-01
1.038924486205256709e-01
-3.792088466028489119e-02
-8.738095889305007302e-02
-1.786637192113300909e-02
2.869872827694646550e-02
-4.725465058279155681e-03
-4.605358866842420434e-02
-5.801587336356700542e-02
-6.514061457845246594e-02
-7.442683748533304722e-02
-7.571037049283331488e-02
-6.242288518722877155e-02
-2.814576020569032472e-02
4.749057337684856744e-03
-5.172269925749761743e-03
-5.280080236103330132e-02
-9.301377416670329745e-02
-9.501803962331112352e-02
-4.904924946891545817e-02
1.904540458775562731e-02
5.185710300358446767e-02
4.470281143309187688e-02
4.466035260578364585e-02
5.184351309614199793e-02
2.966244774837667464e-02
-2.587904712807699917e-02
-8.078505392098607463e-02
-9.582130172741612495e-02
-7.419083122851211076e-02
-4.043011998229990855e-02
1.570790092455864179e-02
9.349650331943729076e-02
1.671972997434970631e-01
2.402120308216863787e-01
2.958743521781118657e-01
2.805633160349856881e-01
2.127490804587996165e-01
1.670006723448251573e-01
1.404526854721641349e-01
8.592170371833809939e-02
2.202436224411078586e-02
-2.740002248918941424e-02
-9.111586610085736782e-02
-1.707418037927354304e-01
-2.360121552896131403e-01
-2.836682781653149799e-01
-3.126632340013094646e-01
-3.203793157818072279e-01
-3.247924903903064986e-01
-3.097399482267939042e-01
-2.237439047629284916e-01
-6.685413189030742220e-02
9.830137492678504840e-02
1.844943901602102976e-01
1.407032355137153024e-01
4.891321709964618902e-02
3.913651583978824955e-02
9.396625209776073018e-02
1.233739337042052964e-01
1.435058853954401525e-01
1.854875099056810250e-01
1.851175413610721687e-01
1.202993175413698684e-01
6.117293259748711465e-02
2.416881352705864058e-02
-1.295536631425347335e-02
-2.192300745348779722e-02
-2.390924568865769595e-03
-5.350596939714347133e-03
-4.428249944130728533e-02
-8.476042310358236631e-02
-8.127739336137956849e-02
-2.732267638621399194e-02
2.042119798617024473e-02
2.696157850597381139e-02
1.756267478490187994e-02
6.404759642536820945e-03
-1.007925243530444388e-02
-1.525935267147428449e-02
5.922746706131026481e-03
3.517085247422047090e-02
3.761295874792457833e-02
1.178692162750132402e-02
-6.506783528211082870e-03
-6.334353190104786979e-03
-1.338164599013723192e-02
-3.532670063438211883e-02
-5.225407325927994978e-02
-4.832102277302852134e-02
-3.327695694203917226e-02
-3.249186364630806539e-02
-3.758830710314898377e-02
-1.608335882217459128e-02
1.420236454302618162e-02
9.771851973499848243e-03
-1.402447659319046996e-02
-1.290000955709029104e-02
9.621079430125245580e-03
1.916890276340583316e-02
2.100406331705086116e-03
-2.685682395982489160e-02
-3.270250363361428686e-02
-8.674907831302518940e-04
2.262041247959596310e-02
3.003142864441942644e-02
1.012631576783775411e-01
1.891175603546689232e-01
1.169908526200412191e-01
-6.852564287352329309e-02
-1.490995723623317892e-01
-1.121386095651145665e-01
-7.307569157840175522e-02
-4.218352527670308355e-02
-1.097965008014742741e-02
1.563255994735058586e-03
1.404741449162995315e-02
2.721578769259824435e-02
1.547626182126606020e-02
7.534099508490271421e-04
1.437135333808103356e-02
3.404788538205909265e-02
3.558161902497816720e-02
4.017876629962141566e-02
4.654100290862060035e-02
2.026602831834235785e-02
4.077033270050275417e-03
5.483422077481753254e-02
1.001457810045510571e-01
6.537964056839926097e-02
-6.169066570172297356e-03
-5.916872427718056215e-02
-6.606312308522721555e-02
-1.990144464605894670e-02
1.631488581598873958e-02
-1.053461545277296213e-02
-5.034087633183925714e-02
-5.764915569992032363e-02
-6.868574059960932954e-02
-8.809820015498272261e-02
-6.310414783193804555e-02
-1.800339246211637989e-02
-2.842990148590584382e-02
-5.853410731435997050e-02
-2.422353883221721807e-02
3.217377787669938038e-02
2.459875077573637006e-02
-1.665663616332027294e-02
-1.668359164985466422e-02
1.788419491686213392e-02
3.157720670072389907e-02
1.828601818217925890e-02
2.415257007007654694e-02
4.546953592231926106e-02
2.084238061842370524e-02
-2.916097515948000429e-02
-9.228031918890915869e-03
7.627728721743132212e-02
1.410924368506430993e-01
1.720894518864557465e-01
1.882603155380296600e-01
1.439715384361076322e-01
1.583312300978188120e-02
-1.200536485532983644e-01
-1.811062340813077987e-01
-1.703152467206807408e-01
-1.256551548615691405e-01
-5.438074380042533240e-02
2.033524723896122308e-02
4.365167976962526508e-02
5.148094430398361676e-03
-5.270450248025154716e-02
-9.159604099638360419e-02
-1.080851593396990329e-01
-1.120884993583587258e-01
-7.249958490528447819e-02
2.896734251399902746e-02
1.038168111304215713e-01
9.035199133648627590e-02
8.202182151259070075e-02
1.333365962794479664e-01
1.493201227597562575e-01
9.736863016330073173e-02
5.526263189307562690e-02
2.945005848680672111e-02
-1.653068739285936534e-02
-5.057678649331185522e-02
-6.660583154368479586e-02
-1.008620110422899507e-01
-1.112564332842499448e-01
-6.087546582166440678e-02
-1.740342853842614598e-02
-1.669412020466452470e-02
-9.775347412605816036e-03
1.762439165258659901e-02
2.772124352728837227e-02
8.910128000004218646e-04
-4.711896845244211568e-02
-8.437601256566847063e-02
-8.896723867573799738e-02
-5.667570034263592210e-02
-9.508872807752460216e-05
4.143423895498689336e-02
5.102691392341705823e-02
6.777140276065987678e-02
1.053898469847243669e-01
1.193956427553667793e-01
8.173298796048289461e-02
2.229976727195154274e-02
-1.087143286256916919e-02
-1.483436666258168904e-02
-2.195841907858565867e-02
-2.659744787818933004e-02
1.460192755794463733e-02
8.574590043195426392e-02
9.636530581130992035e-02
2.085311698501682645e-02
-5.451926123231225219e-02
-7.250312186793829439e-02
-6.126830130376589162e-02
-5.410834900343985954e-02
-6.013653318166312101e-02
-6.560380064507785602e-02
-3.213669124128054611e-02
3.886071207850452791e-02
7.774467211381606846e-02
3.813903205513452521e-02
-3.560094700531157841e-02
-6.020886505689829193e-02
-2.682048282257053912e-02
-2.287597597756760651e-02
-5.713153593644233752e-02
-3.733540390227431567e-03
1.080435144150905108e-01
8.045967985810073553e-02
-2.904803683727857563e-02
-1.639770893565751370e-03
8.221111598255848030e-02
4.348328865332622833e-02
-3.369933705242744021e-02
-3.439272376909513484e-02
-2.779623284320929810e-02
-4.866853992380641702e-02
-1.157047160004773777e-02
1.420853265046454622e-02
-1.389374911123214817e-01
-3.211139885162900831e-01
-2.825212688283826323e-01
-1.612534075026861580e-01
-1.398555583807128411e-01
-4.675836857916916556e-02
2.127860748227466958e-01
3.815367026463628575e-01
3.320857533923712301e-01
2.679831105869392438e-01
2.894091820893464617e-01
2.964117937451029583e-01
2.724762992263187189e-01
2.448241097794514598e-01
1.673739792553224359e-01
4.875455693660629003e-02
-3.886899369734908571e-02
-1.088033772314267456e-01
-2.105913521474041539e-01
-2.995572790996353651e-01
-3.297745801231176110e-01
-3.348898491194949312e-01
-3.050750693983368400e-01
-2.035126108840947801e-01
-1.151237204998939723e-01
-1.287647328754322196e-01
-1.679686456527677008e-01
-1.357089802060386652e-01
-6.145735651126836563e-02
3.124070870750700335e-03
6.792126214518084959e-02
1.301592508426744066e-01
1.477471619731449692e-01
1.392398526493996980e-01
1.708301186894901902e-01
2.075063100815652817e-01
1.728485322813775593e-01
1.136337667348795016e-01
1.023728335449541199e-01
9.811866994745019332e-02
4.218320072037445856e-02
-1.605928112150364559e-02
9.325045867017045520e-03
7.516829021941701106e-02
6.079421471530319782e-02
-2.167244074954381011e-02
-7.496173829279667578e-02
-9.822117845470028363e-02
-1.145310238144452430e-01
-8.715339026398974398e-02
-3.019639533040870821e-02
-3.772960640683278247e-03
-7.309278163108568101e-03
-1.893047281689875377e-02
-4.546491122293424419e-02
-7.305333489019211202e-02
-6.116959204024378233e-02
-8.885194890054758099e-03
3.051645064735457671e-02
2.114638100287483460e-02
-1.656638148595477450e-02
-4.730670252255057134e-02
-4.733077439897312444e-02
-9.730689918378287312e-03
3.436390728879784584e-02
5.370178587373684864e-02
6.244469284125932218e-02
6.549352303920381868e-02
4.442392487416221142e-02
1.046409410248033342e-02
-2.087970567458710333e-02
-4.210462382463502073e-02
-3.702937718817309737e-02
-2.587818047524658230e-02
-1.627804150195395066e-02
5.282714208977665193e-02
1.537435504617563620e-01
1.414521562269203392e-01
4.133232658735372378e-03
-1.065807092030599534e-01
-1.181520613156568228e-01
-8.633908897814678018e-02
-4.947086183765257716e-02
-9.030399940977920301e-03
1.240367774045110852e-02
1.070847674344472915e-02
8.819923598766283429e-03
2.386280472569392644e-03
-8.099936279390805918e-03
1.928954190107220633e-03
2.193238887481135588e-02
2.556650409007747010e-02
2.927470488012554051e-02
3.517855441240785863e-02
-1.365537430691527799e-03
-4.666199538510866496e-02
-2.551181520670828956e-03
7.942113680571639966e-02
5.874105819951491725e-02
-1.209795736753224021e-03
4.626847956576943949e-02
8.926812995825209041e-02
-8.272091034219381314e-03
-9.546941002832710910e-02
-6.916430539149313883e-02
-3.868204655755422272e-02
-3.374425621297683781e-02
-1.803549524696818757e-02
-2.284832907103941449e-02
-4.423626129780719451e-02
-4.134892479196376758e-02
-3.248774602620861651e-02
-4.875607694855991353e-02
-6.440021477558313667e-02
-3.987339567564147924e-02
1.556655145034664331e-02
6.565542728588755206e-02
9.701002732248162341e-02
9.891456404516471568e-02
4.868975882301216501e-02
-1.979147390623428940e-02
-2.989385799483573053e-02
2.792544755827904707e-03
-8.698495719101903556e-03
-3.968321799311880921e-02
1.663773118808255930e-02
1.122159562891152790e-01
8.968796630452649521e-02
-1.255819695582164122e-02
-2.101701833936273078e-02
4.687086984220459329e-02
5.921787057339023691e-02
2.026813701198285772e-04
-9.403947361968659213e-02
-1.401813306511394130e-01
-4.030452178341439873e-02
7.166004275851804717e-02
3.137280089568968838e-02
-2.863690005038799224e-02
-5.175420069561606495e-04
1.746379258694758310e-02
3.970964165481505673e-03
1.952586027810179368e-03
-1.194346968970571958e-02
-3.848327257492104025e-02
-4.235831762141122753e-02
-1.826847919819443722e-02
-1.568721813529671931e-03
-2.175668646622280419e-02
-2.415171815293833818e-02
4.332519414004726288e-02
8.873326046289536917e-02
3.474609456499447302e-02
-2.362633149037692698e-02
-1.719901594978219192e-02
-1.338120045797548674e-02
-2.878119440164332923e-02
-9.108465582494510576e-03
2.011587084840316467e-02
6.975752342913527429e-03
-1.634431931415214478e-02
-8.248568265714484662e-03
3.774411983387089727e-03
-5.392401082141604074e-03
-9.256230137068055530e-03
-1.680239587912178180e-03
-9.573816407663766209e-03
-2.509380325983374266e-02
-1.598440140695416012e-02
2.440734854228400821e-02
6.022606576063872091e-02
4.380150063286615547e-02
-5.088214576715265579e-03
-2.197317867054868895e-02
-2.192548801713453330e-03
9.058976308470812963e-03
-1.555580468365916867e-02
-5.040699099120833637e-02
-4.530266635236922246e-02
-2.693556880284221980e-03
4.709979970942105437e-02
8.619810413062503618e-02
8.839896410898100132e-02
8.014686316192368154e-02
1.063960997918130813e-01
9.393128519810541033e-02
-1.486455679559902862e-02
-1.042149457884688768e-01
-8.278164791715084125e-02
-2.714820728506470507e-02
-1.810828484835994012e-02
-4.159797448795365948e-02
-5.849383352278567788e-02
-5.586233857646236145e-02
-5.434325315106068588e-02
-7.251462129072527851e-02
-9.079373906762289170e-02
-9.220334627010326467e-02
-9.011593451890942408e-02
-9.312985168743859177e-02
-1.059645457299137200e-01
-1.372115702609151000e-01
-1.406624934051628750e-01
-4.844539623443612497e-02
8.722005938219670740e-02
1.644333869304171469e-01
2.154164440811169867e-01
2.945687361380699421e-01
3.284260564917600989e-01
2.780478940140343469e-01
2.351996954231025949e-01
2.454811446649641515e-01
2.357536292848508575e-01
1.497820747981271072e-01
3.185342541117094223e-02
-5.329643246109731086e-02
-1.143488167420280144e-01
-1.787973648447440944e-01
-2.302720624537511473e-01
-2.626444009081153053e-01
-2.850026541946121261e-01
-2.864734190594696583e-01
-2.732481363459589030e-01
-2.587793945017944908e-01
-2.154323086892873940e-01
-1.281775742654432115e-01
-4.721084088752213609e-02
-9.719700060944053144e-03
2.775820232867088483e-02
1.008080100735380402e-01
1.546893043204319307e-01
1.432950278668960464e-01
1.179964409790073832e-01
1.245828719124117551e-01
1.276399474226055653e-01
1.207398483246220067e-01
1.704031879395409843e-01
2.629972181797823882e-01
2.629139498905947447e-01
1.154357356421146230e-01
-5.174506566040668054e-02
-1.097739592320447904e-01
-9.058962072347619132e-02
-8.493085552630119661e-02
-9.204664977828246053e-02
-8.002194306110833877e-02
-7.223158172818444633e-02
-8.137026264785045260e-02
-8.779238561308207178e-02
-8.912686905418222560e-02
-7.566041679651475116e-02
-3.563186136108523194e-02
-1.750596459833415885e-02
-6.638772676715852528e-02
-9.133786151217256066e-02
1.418130580246142539e-02
1.379587644388544365e-01
1.353466733904345187e-01
9.159864826825692141e-02
9.447333369636706779e-02
7.640221515381614981e-02
1.891490097211454002e-02
-1.861210978775761776e-02
-2.759843673126363001e-02
-2.839539546824031493e-02
-1.684127424794244765e-02
1.120573199114646527e-02
2.798073023548943231e-02
7.143367926211888728e-03
-1.654230152030515544e-02
-6.004707122952984352e-03
4.301729441414259975e-05
-2.255273555281550601e-02
-2.894388175019444939e-02
-7.810897223833567805e-03
-2.762847512286709280e-03
-2.660670136730508215e-02
-4.073157086415781641e-02
-1.742548425045821123e-02
1.163843492236859602e-02
4.479469390223884268e-03
-1.141025907960855484e-02
1.156612655486625833e-02
2.917314785479578620e-02
-2.298501093342696089e-02
-7.737966440614771346e-02
-4.267942619986723335e-02
1.903901757072877163e-02
2.419129593680376111e-02
3.593039488368866829e-02
1.182706301777022295e-01
1.655508097966973402e-01
6.430566393929827707e-02
-8.978119621745750401e-02
-1.402733340431245035e-01
-1.059425542958425670e-01
-8.517041155235477445e-02
-7.898651329065657645e-02
-3.543094640056564798e-02
3.262104314053390630e-02
5.475152594596764677e-02
2.442692497873323251e-02
1.290144593969817267e-02
2.727765924178640611e-02
1.758710068671984900e-02
3.840584648733274317e-03
2.057540648577053932e-02
3.640918756833523562e-02
2.892383449825034619e-02
2.227939964309671311e-02
4.508985743629320697e-02
9.511567419982819294e-02
1.183937388385925271e-01
7.210198033427836495e-02
-4.392840390718448333e-03
-5.305294485896178136e-02
-6.585441258065174996e-02
-5.917075342461706328e-02
-4.299913141238410896e-02
-2.153565361762992819e-02
-1.000345071031099979e-02
-2.242803340732435480e-02
-4.159954479594279303e-02
-4.717551490763999961e-02
-4.050863144286094564e-02
-3.124537393577962383e-02
-3.591934887017552563e-02
-5.011024618363306427e-02
-4.462591473951735971e-02
-2.311628715996789929e-02
-1.049212781375371759e-02
-5.955482039152679152e-03
-1.401360691624154581e-03
7.616260968022680808e-03
2.449028045561542355e-02
3.878114476369425023e-02
3.805436989260272546e-02
1.960027708867701987e-02
6.739317672046737581e-03
4.788133370740488975e-02
1.190796627622594528e-01
1.070649546757209969e-01
8.413230435452881059e-03
-1.782112027713171620e-02
7.480871358098264978e-02
1.258216818218326205e-01
2.766649600545705717e-02
-1.393930286632057702e-01
-1.943227900613070380e-01
-5.673425721576656061e-02
8.479109364279785455e-02
5.831291152222254498e-02
-1.438240887383616072e-02
-2.670158056608672170e-02
-3.914555228497321182e-02
-5.547374613282034239e-02
-5.021732100816615751e-02
-5.225660124797480710e-02
-4.946072192554532704e-02
-1.667326323098469038e-02
1.739824921032060920e-02
4.016474373135224540e-02
5.459089240263332449e-02
3.796584985791225109e-02
2.163548457044272427e-02
4.690937961873856837e-02
4.627948082947702657e-02
-4.782702585556739168e-03
-1.760703772817412416e-02
-3.586150616277197431e-03
-3.551949364243140589e-02
-6.679262299681633375e-02
-4.980582922082463920e-02
-2.740070476133407359e-02
-1.791305026750276974e-02
8.685907123001553043e-03
5.091533640200079924e-02
5.945082646499538770e-02
2.161889598495707332e-02
-3.072867982479848305e-03
4.914407570887468352e-04
-1.629917817672689451e-02
-3.238632830133705148e-02
1.076032913308053521e-04
3.817208392627835511e-02
4.413649608456357565e-02
4.294138212382320879e-02
3.379809754111746251e-02
1.820143282636573281e-02
2.243756708214651036e-02
2.237667261607648173e-02
-8.072804813865033791e-03
-3.603524591080030370e-02
-4.332680024898342280e-02
-4.954439522874681812e-02
-5.228017318918064260e-02
-3.393711073750420304e-02
-4.120225235879725729e-04
4.250777989968802101e-02
7.727345821586580066e-02
4.362175394884420382e-02
-4.581170649215873109e-02
-7.276234950115356703e-02
-1.374064483083257439e-02
3.016354217076928565e-02
1.452195787439136167e-02
-1.605031989546414420e-02
-2.200298096936511780e-02
-1.916767420159427859e-02
-3.952275558722859183e-02
-6.166312806340192021e-02
-5.503898459911887170e-02
-4.282082022687715844e-02
-3.211414186649697716e-02
2.822074532346828882e-03
2.878172728959239174e-02
8.334667779905116647e-03
1.137315336543745850e-03
4.250079678944017336e-02
6.207222850373717016e-02
3.409027407284579564e-02
1.143830105398079520e-02
2.748444477428477889e-04
-3.075693300761072474e-02
-7.001638857934786020e-02
-8.150720712745568308e-02
-5.511918933915448821e-02
-3.977757408319828637e-03
5.435396756361335346e-02
1.061301469359403060e-01
1.581230462090142952e-01
2.146694441033911438e-01
2.462930247904533410e-01
2.430026170810343222e-01
2.296842850552772430e-01
1.881270322757127023e-01
7.759764463022197911e-02
-5.914551914410751815e-02
-1.313269623006177445e-01
-1.380086192260625011e-01
-1.572314150492865048e-01
-2.171908076225368689e-01
-2.785706833198925425e-01
-3.119710554295103133e-01
-3.243001837863240255e-01
-3.202390530368898203e-01
-2.750502023274712937e-01
-1.778286568368258602e-01
-7.582787751434949541e-02
-1.361809692638252939e-02
4.518767473587737005e-02
1.549080215895858870e-01
2.681229808755314359e-01
2.823389246224156102e-01
2.028969922890705435e-01
1.396174161805553426e-01
1.366128936891667089e-01
1.433510937632298810e-01
1.424632603649858553e-01
1.436798874544353011e-01
1.143600944861183077e-01
5.870880196599416456e-02
2.496176195767786654e-02
-1.239933760539227436e-03
-4.163585080118788195e-02
-6.366408954530178299e-02
-6.322048701125462800e-02
-6.261607408138428199e-02
-6.792905765356196945e-02
-9.329890198798161671e-02
-1.154589067147265002e-01
-8.023543204980615462e-02
-1.869539076202865469e-02
5.928495051906925578e-04
-9.967962858551554853e-03
-1.520558929386237740e-02
-2.589268066539202745e-02
-4.654472415644326372e-02
-4.253291023288367084e-02
5.806354448637110650e-03
5.040155889592405625e-02
3.433547813103858537e-02
-5.098624826293878323e-03
-2.292377287020338009e-03
1.513849585700076210e-02
7.870045386089433853e-03
1.972863422289717998e-03
-6.332772425638152946e-04
-2.172539636298214533e-02
-3.523068352901351924e-02
-2.206863321417374194e-02
-2.419518691442302128e-03
2.362080955546820224e-02
5.438257435536155565e-02
4.747673903812952428e-02
4.261199246635348666e-03
-8.176122780166675263e-03
1.484985060964417493e-02
1.736607966520730198e-02
1.364389660078198078e-04
-8.526962285912802891e-03
-5.556734889684570612e-03
1.231860077520526009e-02
3.916030132137336695e-02
7.462817307910832310e-02
1.229503559110349808e-01
1.234124809956539531e-01
2.480487153490487651e-02
-9.247291148963540652e-02
-1.384642133775487727e-01
-1.412823170065729550e-01
-1.307639536557612392e-01
-8.314699828560725980e-02
-2.490257874359332393e-02
1.826817170960639419e-03
1.636049554712210377e-02
2.688539321015944242e-02
1.617065506875765141e-02
-2.115441895478754539e-03
-1.319260626401717700e-02
-7.418468074415939667e-03
2.976972808929721423e-02
6.499780420514750245e-02
5.339525951247192648e-02
2.600459591814779231e-02
3.080348118867710927e-02
5.393685925167239492e-02
6.317972228067671170e-02
3.753506202564786676e-02
-2.530227963333207125e-02
-7.310328053402630200e-02
-6.837172362533652792e-02
-4.812407186914642587e-02
-2.987292011122835364e-02
6.698653837100805933e-04
2.951294910272491551e-02
5.492096918010706125e-02
7.670245983072619678e-02
5.935345647947390391e-02
2.876318507212260144e-03
-4.749734221242848248e-02
-7.094584548909455002e-02
-6.744048386055741251e-02
-4.869789191632283021e-02
-4.509038302629594930e-02
-4.604482591561698257e-02
-2.779135516644968412e-03
7.122073644383802860e-02
1.118167337291477020e-01
8.811010699518048717e-02
1.437996125291607016e-02
-5.367268326133675660e-02
-7.044614800153796430e-02
-4.969616689780285285e-02
-2.505166338431234069e-03
5.593195275077070261e-02
6.426690772309140431e-02
2.249820543034987755e-02
2.050296013652065652e-02
7.207014887778857848e-02
5.770596377139650818e-02
-7.666633172561179710e-02
-1.840070782570020491e-01
-1.362715643501178908e-01
-2.323179235963414996e-02
3.433160570924102817e-02
3.575382206772996507e-02
2.972443298482656954e-03
-3.522465610519957824e-02
-3.176739720241046616e-02
2.901146194619504820e-03
3.005416670219553457e-02
4.263509529384717361e-02
3.688659953544280723e-02
2.245048460046700570e-02
2.575577840801056284e-02
2.325574465023627288e-02
-1.576767258669461297e-02
-3.186115467872651513e-02
2.213402420403096788e-02
6.855168034091696505e-02
4.973032381866149959e-02
2.297783824368877098e-02
1.741941230337346741e-02
2.096474135662278367e-03
-1.026466324786521125e-02
-9.036652901606746779e-04
-4.002562691257451760e-03
-3.088400997967506723e-02
-3.644061791327360411e-02
-1.314121249659779000e-02
-6.478979319767081899e-03
-1.077066453449694768e-02
6.173545302944072506e-03
1.461048023614629557e-02
-7.395878667724605469e-03
-3.274060928095883644e-02
-4.535136258400548209e-02
-3.297759066546704365e-02
2.659684150608142110e-03
2.130453613499696391e-02
1.450483593727459712e-02
1.444607735453634113e-02
1.831302498511667987e-02
-7.101679835912113464e-05
-4.134311742151502989e-02
-7.789884483329440057e-02
-7.246348400413255009e-02
-3.410465587954603778e-02
-1.343095091539061453e-02
-6.292376535500687762e-03
2.671140480235223089e-02
7.764657680765071901e-02
1.090224170726196984e-01
8.012027794877185638e-02
-1.507060896948308332e-02
-1.058648493320863276e-01
-1.285959571054235417e-01
-1.043992133203834050e-01
-6.844618365742988209e-02
-1.607710499516526448e-02
5.239664224837037310e-02
1.215522064396217378e-01
1.790939057679498125e-01
2.008111940043026122e-01
1.784783927697516370e-01
1.530902241862539814e-01
1.581265008251268311e-01
1.548809258233576069e-01
8.981817886265078266e-02
5.874481346924659980e-03
-4.825618821180224782e-02
-1.324192430600661663e-01
-2.263212149379688065e-01
-2.057158824200229497e-01
-1.194879788361610101e-01
-1.148677369822262706e-01
-1.767468504082396197e-01
-2.096020019591353645e-01
-1.914114017484498387e-01
-1.387073809815721481e-01
-7.118883419769937715e-02
-2.037283528383145026e-02
5.516505962188604506e-03
2.054453428024728689e-02
3.278988669538944467e-02
6.527307924613723333e-02
1.275530270081220441e-01
1.725545945485012500e-01
1.652009335310087867e-01
1.331355036713930406e-01
1.050667824081786828e-01
7.837249688162134520e-02
5.640977999179191960e-02
4.358147369131935844e-02
2.597832889352146360e-02
1.240306936296674961e-02
2.349835980515853351e-02
2.578458597792257848e-02
-1.433596279904940374e-02
-6.117431813397554430e-02
-7.725389464663896810e-02
-6.833118685533937087e-02
-5.049019729125089201e-02
-2.541482410057927660e-02
2.925886692067328210e-02
1.011261251106850140e-01
1.044807184166588049e-01
3.315849783543477550e-03
-1.153307066810020237e-01
-1.603639823041832224e-01
-1.251693445338704080e-01
-5.631349976351571890e-02
-9.328038865477429609e-03
-9.321532802191733608e-03
-2.932862268579177617e-02
-2.790127634926576825e-02
-4.247592349471238093e-03
7.973440146808952189e-03
6.017793314601189297e-03
2.793088269992325887e-02
7.019837991883301487e-02
7.651137370166796736e-02
3.022024952479700211e-02
-2.592684115841703898e-02
-3.932250789037143590e-02
1.451760963797378567e-02
9.495842748655251853e-02
1.307559789024168861e-01
9.988455539585210097e-02
3.081859564973457935e-02
-3.129589891442908361e-02
-4.600400126058860201e-02
-2.090382433826231540e-02
-1.295668214526298628e-02
-1.856758413816583103e-02
2.462461593894768250e-02
3.670255749589727140e-02
-8.741012812471471438e-02
-1.922117025045779748e-01
-1.444060893354958963e-01
-4.238807185678357403e-02
6.763724129532211471e-02
1.341034315061341298e-01
5.683453144861981554e-02
-4.444517208344414549e-02
-4.308416426061047882e-02
-2.711921596631189368e-02
-3.298203262968639471e-02
1.617429017276393946e-03
4.501784272994184544e-02
1.952049009185891776e-02
-1.857827883454998830e-02
3.579469481020777777e-02
9.801033913741527548e-02
5.580265740699996702e-02
-6.196047653817807720e-03
-1.429913953918622235e-02
2.050029927570439642e-02
1.097895252148000100e-01
1.660818689164889339e-01
6.905749789077658685e-02
-9.419026351158719945e-02
-1.748531683372956114e-01
-1.802583776519858794e-01
-1.530240666565571839e-01
-8.154151434385215058e-02
-2.155358194173904833e-04
2.409405497449641081e-02
-5.149198423506643613e-03
-3.567135741936029725e-02
-3.759717193722988959e-02
-1.207717131312711911e-02
1.726812560458503357e-02
3.097329067064290981e-02
4.455451451514369499e-02
6.429828554410133012e-02
5.585379996224924815e-02
2.502565351813274691e-02
4.742004145103780044e-02
1.344947376029857200e-01
1.833341373224044724e-01
1.365372441686732163e-01
4.329398763939319023e-02
-4.370249046090529665e-02
-8.507003061470891359e-02
-5.718818381801556161e-02
6.990900746967201179e-03
5.821393717427020276e-02
2.942203067165630875e-02
-1.099720932251318228e-01
-2.017172267544812270e-01
-1.171822472330028148e-01
-1.200830239160918973e-02
-1.444603348652606645e-02
-3.393478228618818093e-02
-2.156994853728511422e-02
-1.635631856012960406e-02
-9.177853715127850739e-03
1.253552082306872567e-02
1.763600858250373438e-02
-5.300240997473682977e-03
-2.176753630224053521e-02
-5.277639273474713129e-03
2.355690195771337550e-02
2.987363662969583222e-02
2.104150217517267163e-03
-4.351533917477625607e-02
-5.473806264828982859e-02
7.001610480837953780e-03
8.232480765955724200e-02
8.469369524347045153e-02
4.392132685910400680e-02
4.968473943237038809e-02
7.429124786201225794e-02
1.542082637861011234e-02
-7.722184815488380982e-02
-6.200078920476392863e-02
1.632614850269452009e-02
2.582690297692606315e-02
-1.551097823275717543e-03
-3.187590822059212931e-03
-1.680437441780143620e-02
-4.900090741394594329e-02
-6.111833583553687166e-02
-4.813013204370288067e-02
-2.309954018829264016e-02
-4.806194056095738909e-03
9.009051874867633758e-03
4.365369572782386298e-02
6.896045549995707957e-02
4.367896372240553937e-02
1.404586066893235598e-02
2.993700834957682688e-02
6.208672667343224927e-02
6.085448980170635874e-02
1.927490366909088981e-02
-1.598875992512024946e-02
-9.252312177071227856e-03
6.631562673221355966e-03
7.754677912422703115e-03
2.044435860619260581e-02
2.836733432475056424e-02
-1.148393934570882818e-02
-6.436806222655581944e-02
-7.188456384645450226e-02
-4.096416204452489607e-02
-1.036215400878673712e-02
-5.872440493266592974e-03
-3.016660278148973820e-02
-6.323459707495633630e-02
-7.254201139147216371e-02
-3.811078722612725594e-02
1.596545469536224740e-02
4.904861838692527176e-02
5.510502687120317350e-02
4.299389074598363586e-02
-1.670575175000119095e-03
-7.750457474470953678e-02
-9.833145929217998460e-02
-8.502435669509729801e-03
5.357578612727718903e-02
-1.623909971362046470e-02
-8.527338427747840899e-02
-7.822147227301318173e-02
-7.428658090823619942e-02
-5.661251907304085812e-02
1.372600143927860637e-02
4.456423377264810692e-02
-6.841104329180690280e-03
-3.685325446188039006e-02
2.262532126360763604e-02
1.155727779011178624e-01
1.832988752827931500e-01
2.251667980941706171e-01
2.336701055191535148e-01
2.089893630383972967e-01
1.841661439357148711e-01
1.425660198494327069e-01
6.210929829883572728e-02
7.236301826136458393e-03
-4.083630189739839711e-04
-3.179645770607212457e-02
-1.018999053588486858e-01
-1.693430236642454179e-01
-2.168691653405021846e-01
-2.319661416054766279e-01
-2.144910543979883510e-01
-1.894157453970258531e-01
-1.656020856042825229e-01
-1.419943045159876016e-01
-1.231517343483009008e-01
-9.431998908811600746e-02
-4.566487808271670057e-02
7.114504802449170273e-03
6.071984943454408756e-02
1.126933450381603502e-01
1.389884304838366613e-01
1.240117230136432019e-01
8.110707544953892068e-02
6.407007928283997567e-02
1.044408077001947183e-01
1.348344954997889034e-01
1.048520403289910363e-01
5.739864044798190235e-02
1.671626312896114588e-02
-6.970096877492653470e-03
7.866612526749763856e-03
1.509427270780575037e-02
-7.040377555511435903e-03
1.161492512315398518e-03
1.543174646746329690e-02
-2.324056347076278173e-02
-5.908765283592970485e-02
-6.621201131633526471e-02
-8.824673888765410812e-02
-8.230686479175766679e-02
-2.958360345968611901e-02
-1.028127716766656999e-02
7.966454769181811543e-03
1.045774842641187807e-01
1.686229022134655142e-01
7.888657417013122952e-02
-5.787060079112663069e-02
-9.702240552886637337e-02
-7.684583860877525208e-02
-7.144250891535024184e-02
-4.656979835112416005e-02
-4.818427043111063457e-03
-1.260357874808706868e-02
-4.096650835280626207e-02
-3.119159561336321343e-02
-1.407568635856389430e-02
-4.364294784116621792e-03
2.886430863472216543e-02
5.482703886390692671e-02
3.474191969753828713e-02
6.136572581495739441e-03
4.533172468602827791e-03
2.248524184418953728e-02
5.333507831470758742e-02
8.055414574511696180e-02
7.358595396717296233e-02
3.827028941122170846e-02
7.156804792883822951e-03
-1.305210599973881738e-02
-2.324004284252131208e-02
-1.767735990622816208e-02
-1.032213218951633787e-02
-1.291799157095463967e-02
-2.182979654089367907e-02
-3.402077550188586930e-02
-3.263372628368797074e-02
-1.109325439228073425e-02
-2.746649023411961918e-03
-2.216354018233433060e-02
-4.172970866541608065e-02
-4.447269962088077483e-02
-3.677357090717450067e-02
-3.706800242086064762e-02
-4.720886587713669230e-02
-2.619137380803185713e-02
3.213687167380229609e-02
6.281732668709542888e-02
4.434983832228224510e-02
2.369178372966636303e-02
1.328639934100383710e-02
-1.362426443563525408e-02
-3.921214151447334484e-02
-1.363802480469511469e-02
3.825615766629280462e-02
4.715647092161594223e-02
4.697728581529593550e-02
1.112606395733281850e-01
1.820552265900164390e-01
1.487385503641072138e-01
2.271625955072265057e-02
-9.443568051375320072e-02
-1.527096671343475265e-01
-1.634400703362676732e-01
-1.190352686930955944e-01
-3.093543402211650431e-02
2.039102139922802787e-02
3.668718725451967227e-03
-9.930092252027981556e-03
7.187551402983329354e-03
5.865148444179860143e-03
-1.650488254214317260e-02
-2.989321808163833416e-02
-3.485313001811173733e-02
-1.752279323204077380e-02
1.758331527102530850e-02
7.100748327866626686e-03
-4.132810743556995792e-02
-2.711902337084928435e-02
6.473785469271953197e-02
1.345337146136466600e-01
1.241269950870239336e-01
7.090918509148748383e-02
1.541924498583666439e-02
-3.442181245388540450e-02
-5.847336361682055339e-02
-4.712327067313389073e-02
-1.945906151576024326e-02
2.200786469448134247e-02
4.015828525817152078e-02
-3.762636947634800944e-02
-1.177999639926304853e-01
-3.703048648611223514e-02
7.469143734494701481e-02
2.568376472166780319e-02
-4.223050686205319371e-02
2.645444156261765947e-03
1.895400404635006614e-02
-5.023861557897325858e-02
-7.911106368946591028e-02
-3.825989430465806529e-02
-1.260518978281098892e-03
2.825445159476437998e-02
7.102387115547620366e-02
7.908266752104603503e-02
3.355268630891557885e-02
-7.165076305204090123e-04
1.688054932478458628e-03
-2.397894116695387101e-03
-1.675807531048420854e-02
-3.017064767019671592e-03
4.800010334541476159e-02
1.019089908930929378e-01
9.685091712213542148e-02
1.508351252658196931e-02
-6.343811750310611453e-02
-6.428521242812464120e-02
-2.339283678032795522e-02
-2.267069392523878013e-02
-6.920917867615924979e-02
-9.046396834076092519e-02
-4.627426288170224944e-02
1.543817594488158980e-02
3.334785089452687451e-02
5.699390111072432860e-03
-2.507919508796587968e-02
-3.684006159310425355e-02
-5.136625988542466853e-02
-8.045246941848045730e-02
-9.092515725737504440e-02
-4.453274450367612769e-02
4.401351615246731214e-02
1.025654612457212733e-01
9.742037976812631395e-02
8.476277410420243741e-02
8.649029626712101404e-02
5.425586367695714451e-02
9.827089209201014808e-03
8.679835698898928642e-03
5.176275345503821013e-03
-5.012262192076918227e-02
-1.077892202553216022e-01
-1.194638789175720556e-01
-1.038710720123376119e-01
-7.890838329961986919e-02
-2.362844374608016884e-02
6.204433661216052220e-02
1.375178910402266308e-01
1.854018093443415838e-01
2.118031441000042536e-01
2.079644022022201222e-01
1.745471309883619981e-01
1.306012288821725431e-01
8.627742771571392244e-02
3.761464886413830311e-02
-1.850893974385564578e-02
-6.908768855486194238e-02
-1.094692463526019122e-01
-1.610392787299643191e-01
-2.170821927304801002e-01
-2.435766700084140146e-01
-2.493088679112102357e-01
-2.583175598202895329e-01
-2.452314564735822433e-01
-1.601749611657654615e-01
-8.117526051750666161e-03
1.062351655759621316e-01
9.504972845429005002e-02
2.776717320415341556e-02
1.644630349428823426e-02
5.472696600211317264e-02
8.126206672253839802e-02
9.433739310334079975e-02
1.372163273989971954e-01
1.932433841091320825e-01
1.827460811818957531e-01
1.158652080130527229e-01
7.942244076870810798e-02
5.721494687435867144e-02
1.468369040431745376e-04
-3.225261878519872227e-02
-9.830807574050588749e-03
-5.442016404360480036e-03
-3.671275854151138246e-02
-3.931493322184545502e-02
-3.979203765753187155e-03
2.937801565117952735e-03
-3.962184455607763861e-02
-7.100797001660888452e-02
-5.572348686114851624e-02
-2.928234973403281288e-02
-2.642792562083011790e-02
-3.740974901337167091e-02
-3.550163286607359997e-02
-1.641577423894275203e-02
-2.260587801374415277e-03
-6.584915877120990635e-03
-2.091332309164569553e-02
-3.361592863780443752e-02
-2.352248253077378684e-02
1.731239000068828665e-02
3.795753694410694545e-02
1.103642264017067401e-02
-1.101689020030777871e-02
-1.415999854757119848e-02
-2.154308147249176658e-02
-2.323758149430817967e-03
3.919101796141929300e-02
4.337790928187344741e-02
2.696110829772657355e-02
3.915002114866656530e-02
4.570755590214947706e-02
1.178538581956296849e-02
-1.669997700888499817e-02
-1.146182332252324888e-02
-2.483961117334445787e-03
1.122496956867361298e-02
6.191733115688553835e-02
1.327481332121343005e-01
1.483513843423656109e-01
5.934198425238280949e-02
-7.260030140141400523e-02
-1.411849575102474552e-01
-1.410064453082054969e-01
-1.314547009821984136e-01
-1.098880538070799023e-01
-5.598169949285872887e-02
-1.022133431747889766e-02
-9.809321099350384876e-03
-2.744847098700546606e-02
-1.571663698888157296e-02
2.089657328373694181e-02
3.422713939167051911e-02
1.761450391664121443e-02
9.842159337117264289e-03
1.372896350272015051e-02
4.705799036026390297e-03
-1.959542222196347140e-03
3.234551478205868053e-02
1.008632421809514401e-01
1.317980186514103036e-01
7.052296604426597226e-02
-2.025442667647554124e-02
-4.735694779864582649e-02
-4.124926336540934990e-02
-5.507446574677375001e-02
-4.345390726577434692e-02
8.916314733229298295e-04
1.074089916429034341e-02
-1.015002613130344677e-02
-1.383017225960153293e-02
-1.130823989763455641e-03
2.519275907362116679e-02
7.382424603674389574e-02
1.112240714551371024e-01
9.206823433882260765e-02
2.424668825504737099e-02
-4.006944810916181210e-02
-6.781723005346920741e-02
-7.048122531438542893e-02
-5.595576291637620325e-02
-2.180417985062608338e-02
8.352248457927114247e-03
2.098810173019487885e-02
2.223423615319234867e-02
-7.709359059753164919e-03
-6.070880474264758048e-02
-6.016750689812036534e-02
1.666785529577187105e-02
6.970952929621038185e-02
2.073088687612135994e-02
-4.846077450393643238e-02
-1.170271860227054504e-02
6.879062869743331199e-02
2.495447160698318137e-02
-9.279800375155998482e-02
-9.916468946703921317e-02
-1.939424722869371662e-02
1.873387118920863056e-02
2.147221512401120691e-02
3.945604698250597224e-03
