-3.245294096017715957e-02
5.115013261206859119e-02
1.023317248287742287e-01
1.428109213368436436e-01
1.341630069021731431e-01
8.127736699233190087e-02
5.706810225505577761e-02
8.558051232311365830e-02
1.360528761335751680e-01
1.581645152858603687e-01
8.760211207669646449e-02
-5.117280505291945530e-02
-1.493379551030785957e-01
-1.930486983310128468e-01
-2.339257320716597865e-01
-2.320786509005104969e-01
-1.287358543364037766e-01
4.116973717805372246e-02
1.935730114371754240e-01
2.594300916284983383e-01
2.169713238155466517e-01
9.708470180699342589e-02
-4.193008943584940890e-02
-1.381653230918649111e-01
-1.814805734904074153e-01
-2.186563580910130256e-01
-2.090622628362482360e-01
-6.990144159768280074e-02
7.136526199575855822e-02
6.168534874425977282e-02
1.853282834827900405e-02
4.513077010862133476e-02
5.467371829434192199e-02
4.038350698933439870e-02
6.890540826091540172e-02
9.505799307821174993e-02
6.083935488384403789e-02
1.969748874118425544e-02
4.374121245867777785e-02
9.658428626624199209e-02
8.779662933327975205e-02
2.384839373022493159e-02
-7.018672713534235275e-03
2.270490137680465648e-02
4.654897014155118945e-02
3.323378121094438392e-03
-7.716596251780527549e-02
-1.188980431630409784e-01
-1.028775476962010410e-01
-6.687664886938490816e-02
-3.907456251168919814e-02
-2.962344045575469875e-02
-5.223127870965800501e-02
-1.052424981176350166e-01
-1.578884002044743384e-01
-1.764843496049708638e-01
-1.240122042913315847e-01
2.281397799866089968e-02
1.883348388297502174e-01
2.356193264700303103e-01
1.641371114923079189e-01
1.241325527979087462e-01
1.645504461109625893e-01
1.617434507078333583e-01
6.829764146097455635e-02
-6.881852456764422227e-03
-1.704956888925345665e-02
-3.279182024536296536e-02
-7.590946459180897277e-02
-1.052719110164823946e-01
-1.146033028398656811e-01
-9.788782192208576871e-02
-3.398087121906355479e-02
2.466932971757498580e-02
2.449843078209331185e-02
3.151554508916074027e-02
8.661350287084795818e-02
1.104120386045024105e-01
7.175774517064062441e-02
2.235618957516568445e-02
-1.956069166220879285e-02
-5.831683561718120634e-02
-9.021915813125797046e-02
-1.138188197634839860e-01
-1.054710093073414900e-01
-4.881447935546218836e-02
1.440465797600687381e-02
3.922292154383686530e-02
3.565899913991415343e-02
2.618966590153202004e-02
2.386826595511589572e-03
-4.917518598399740759e-02
-1.041038753560071112e-01
-1.174653909403437224e-01
-1.020235642099215773e-01
-1.146636469552438919e-01
-1.358696518079826054e-01
-1.007217007611540954e-01
-4.208649136071258845e-02
-2.753836726577151353e-02
-2.738944768982255751e-02
6.494893621829898184e-04
2.650023998652552976e-02
3.714432685384164157e-02
5.095799212681171447e-02
2.531160859270773292e-02
-6.851080812521256891e-02
-1.283029268382188115e-01
-3.935970053092217869e-02
2.013512688457819999e-01
4.888587786199247720e-01
6.455672693645535531e-01
6.218682389990162207e-01
5.591958582865307337e-01
5.041535680278600440e-01
3.831767758012761815e-01
2.170693471306294753e-01
5.908170744880489322e-02
-1.025289529197444260e-01
-2.695762295847398127e-01
-4.148327295284591765e-01
-5.245729944080725904e-01
-5.898698699287119318e-01
-6.069660560859539977e-01
-5.791546929629959317e-01
-4.785755625462849161e-01
-3.201964260575397292e-01
-2.167292306053812401e-01
-1.810410347701452705e-01
-1.069628872351993942e-01
-3.506581518359176697e-02
-4.060832510561980524e-02
-3.930556715438418558e-03
8.444651375361306167e-02
4.872409064050760297e-02
-1.671286147094815100e-02
9.143921635198448694e-02
2.352860155914920093e-01
2.650686992894986660e-01
2.865085214012549342e-01
3.395205034913830744e-01
3.342061724204671291e-01
2.506244383990460234e-01
1.447688367102172580e-01
7.715944851644618296e-02
6.385047286839030944e-02
6.640213548818892086e-02
5.122184914335131678e-02
1.663609777762274644e-02
-2.154934053237479719e-02
-3.241325221322902128e-02
-2.976020668127271618e-03
2.784418491639803483e-02
1.161519981457291920e-02
-3.107165252103729486e-02
-2.344436115844963225e-02
3.871400199771694861e-02
5.919814023395315872e-02
-9.147817579845379105e-03
-1.054131862618149368e-01
-1.655752959077066433e-01
-1.809089538566220623e-01
-1.612156018023459259e-01
-1.122256654726271757e-01
-4.611758295773198124e-02
1.814200496733885462e-02
6.103988485379845119e-02
7.265550025306735660e-02
5.439560636345923406e-02
1.230573575151397425e-02
-2.851528636275991319e-02
-4.923419368755303088e-02
-7.314119977859068200e-02
-1.075957262029064582e-01
-1.241768297802513799e-01
-1.258635267731678942e-01
-1.344539329599135358e-01
-1.430782692394124145e-01
-1.273023975657885942e-01
-5.344343996301077759e-02
7.943445834647279435e-02
1.869542355583441173e-01
1.955943458544378843e-01
1.539073796180300269e-01
1.338171145592112199e-01
1.129894850246221938e-01
5.222749734191117765e-02
-8.792713401189092975e-03
-1.349190169304212081e-02
1.396800978608417343e-02
1.840180360798637782e-02
1.434269899157354297e-02
3.013220069353002989e-02
4.406340383106258085e-02
5.433932871346547344e-02
7.272324718469737326e-02
6.625249448895705051e-02
2.908246631366982402e-02
1.087064990267546175e-02
1.376425843809097119e-02
-8.035742261242954584e-03
-4.558200353153550599e-02
-5.756381105682065180e-02
-5.404604284479068432e-02
-5.827894359105800781e-02
-5.332817178919368323e-02
-3.188443366778388049e-02
-2.311197463842343952e-02
-3.067883289922827134e-02
-1.811331901651887233e-02
2.072762173157825794e-02
4.439002621229019840e-02
2.627633726319249588e-02
-1.982974982218184065e-02
-8.313031637818366071e-02
-1.664484910438219223e-01
-2.295697817558241538e-01
-2.048593480638287168e-01
-9.391659877545537050e-02
3.307281691198082213e-02
1.185122356041392738e-01
1.493542469183704036e-01
1.438364729643015760e-01
1.180094645009497067e-01
7.101565517307736886e-02
2.069877339615956713e-02
1.330738949238866042e-03
1.221647881217315448e-02
1.946165042362137110e-02
-5.724287881989052751e-04
-3.100050869471167314e-02
-3.638640416124637456e-02
-2.780284334447553907e-02
-2.922671717789061818e-02
8.551648528357628717e-03
1.155745077679653371e-01
1.989262739135063129e-01
1.887913497014651054e-01
1.287700268408435711e-01
4.681942124816660528e-02
-4.423383902797761724e-02
-9.200375013249473266e-02
-1.073937834479598286e-01
-1.378689278575162547e-01
-1.429909723649424869e-01
-8.827419498532732001e-02
-5.829910846639458494e-02
-1.060096494270124506e-01
-8.842098874006062981e-02
9.275394232852174348e-02
2.223300036497537213e-01
1.254731723091622175e-01
-2.454119395782918683e-02
-6.726144556341136227e-02
-6.037187304210698408e-02
-6.632744273951582392e-02
-7.802993693651083529e-02
-6.093053005309708586e-02
-4.553812523456525485e-03
4.151453057886974468e-02
4.937715547352516943e-02
4.126049553895103084e-02
3.610267495297098117e-02
4.963747744735595713e-02
7.171179315457823500e-02
6.266068832972382374e-02
2.235995856379919405e-02
-2.655230435137360956e-02
-8.791434790096608332e-02
-1.503975197163845978e-01
-1.754905854072158766e-01
-1.413217657246278181e-01
-6.055465121792448502e-02
2.671617621402198189e-02
9.350351069448681329e-02
1.428607599777830250e-01
1.628441401898113039e-01
1.396373311700724318e-01
9.771510789460859103e-02
5.502830620045799648e-02
1.895630630796516641e-02
1.406742125760743894e-02
1.532257425382126809e-02
-2.085658529614419637e-02
-5.129846715546269864e-02
-4.259078489863279970e-02
-4.339410409075385167e-02
-5.935630264788829130e-02
-3.669274670287012846e-02
3.077442317691555726e-02
9.750683328121574622e-02
1.273003234789457649e-01
1.137084270202445291e-01
6.285811614054186147e-02
-1.869701715992169722e-02
-1.062983268687080901e-01
-1.542324623420043839e-01
-1.461357526681286156e-01
-1.184490660357745972e-01
-1.012321862598968003e-01
-8.410602979276160518e-02
-5.693020003689998332e-02
-3.092066050978847097e-02
-1.442504761437308353e-02
6.048967610396669553e-03
4.267319656339972622e-02
6.448606301298254184e-02
3.758914830104866101e-02
-6.230040353069314293e-03
-2.615162874375071000e-02
-2.928401618820434399e-02
-1.708337315630355582e-02
2.222460210350094001e-02
7.522913267450959118e-02
1.132907455183327916e-01
1.088935295265632819e-01
7.264504872867659502e-02
6.088023504340957931e-02
7.814744849878925426e-02
6.585938693102225128e-02
1.615156861628223167e-02
-3.552833041922499185e-02
-8.289000441244245843e-02
-1.225638890113808777e-01
-1.345275355112761362e-01
-1.071223272080231714e-01
-5.007217814363613961e-02
6.640752832724290330e-03
5.240208799223292774e-02
1.070946101312047621e-01
1.524727701253339451e-01
1.376816987942995618e-01
7.366243367961530786e-02
1.619586183281038205e-02
-1.471324027820146776e-02
-1.841378463645132121e-02
-2.511749886504188387e-03
-1.387318965585850918e-02
-7.555750775607816827e-02
-1.217103639701671847e-01
-1.087795676477628093e-01
-9.443601116819508312e-02
-5.859774637937987390e-02
9.183655184004367589e-02
2.233450134297116363e-01
1.523376541678745366e-01
1.938183361125091902e-02
-4.529768457149195224e-03
-1.727364344761682380e-02
-1.119585648288037860e-01
-2.046195365545614986e-01
-1.988074653103893141e-01
-1.183647648016153547e-01
-6.668062971139762651e-02
-7.394309619363834130e-02
-6.951334951717728916e-02
-2.855539981112266423e-02
1.453122323617588724e-02
5.686871586576475873e-02
8.847583109353839015e-02
8.168980813179595180e-02
6.259985712632488986e-02
5.454587517564488119e-02
2.599528821852258725e-02
-1.108217369329396809e-04
4.151446448541264850e-02
1.007688003218577405e-01
9.635118780040198561e-02
8.269871797219810472e-02
1.098483834024897854e-01
1.141985593913094205e-01
7.712618643739269086e-02
4.595243732533279418e-02
1.998130938520983890e-02
-1.030374576083649407e-02
-3.633650699602203327e-02
-7.587627577948516389e-02
-1.208116375168925144e-01
-1.080335933374813318e-01
-1.935838047302108553e-02
6.044965432244385484e-02
5.043476855131964753e-02
3.829723329058747419e-03
3.058996413744898696e-02
1.017655642960629409e-01
8.614571683617799902e-02
-3.364982158997080475e-02
-1.548588760443863899e-01
-1.638778564655922476e-01
8.454831251392165223e-03
1.741725771425673419e-01
-4.375082262244381348e-03
-3.927722749146501102e-01
-5.197064122763694893e-01
-3.469311822532055167e-01
-1.442256122423840603e-01
4.118582274089761797e-02
2.637281442983470670e-01
4.425312610831620974e-01
4.400042989681782202e-01
2.053781301743551058e-01
-1.221378781515810585e-01
-2.837118181558755947e-01
-1.932739905842608685e-01
-2.088469225126180634e-02
9.101005834513285764e-02
1.497580818571407069e-01
1.524512204717365926e-01
6.538326087581172730e-02
-6.542691174661643960e-02
-1.275644817762793537e-01
-5.910820220729103014e-02
8.156731897657264196e-02
1.861810423039900464e-01
2.096441436363571664e-01
1.623400889155242333e-01
6.285975118777581416e-02
-4.390084561271429681e-02
-1.126016877014170553e-01
-1.368531032339641018e-01
-1.055959035568177357e-01
-1.439190091957788520e-02
7.858551791096540784e-02
9.658525326168454495e-02
1.697335438637842531e-02
-9.831619681558181889e-02
-1.530515675311863999e-01
-1.327178409976715323e-01
-9.432640348185544754e-02
-6.826385813812327341e-02
-5.693146060285736443e-02
-5.011963185958173694e-02
-4.158390996601503409e-02
-5.543343127189433173e-02
-4.342220484849806938e-02
7.938138855039297836e-02
1.944030265783764366e-01
1.600558713522076959e-01
1.027290651344520411e-01
1.171929722308366617e-01
8.508874008299326108e-02
-2.518624153236889013e-02
-1.086670964530711270e-01
-1.130705926594753885e-01
-6.193046037877809190e-02
-9.687824937899658373e-03
-4.957832357183955714e-03
-3.810575074186237088e-02
-5.110606490519050554e-02
-1.771439907637240366e-02
1.409395967905112748e-02
3.828713684120028937e-03
1.384670027758551358e-02
1.052869559500603930e-01
1.878246810276964218e-01
1.555474675294630238e-01
6.852249287995010318e-02
1.960894944156718611e-02
-1.222487460267847326e-02
-6.283495295758056987e-02
-1.034423580648248381e-01
-1.064136829644164450e-01
-9.539057828436016406e-02
-9.331329282268084613e-02
-7.374123337262045164e-02
-3.333532871561897815e-02
-1.635383853466483919e-03
4.803089207353919421e-02
7.925116179255597970e-02
-2.587554506289008183e-02
-1.639694632140898944e-01
-1.328910104257312874e-01
-1.764251774544382118e-02
1.494133943932797817e-02
5.060671286924257883e-03
3.063901967513714061e-02
7.606416274109636944e-02
1.125350612871993256e-01
1.299556980442118648e-01
1.246722849253292936e-01
1.118962949214287461e-01
9.736990832624177472e-02
4.923938356444476638e-02
-4.261125556617460092e-02
-1.259520815600500554e-01
-1.483751726592729692e-01
-1.203799098287762215e-01
-7.680611216185222190e-02
-1.655129929411482126e-02
5.125411288141077520e-02
8.664360357438344318e-02
9.177518705913352559e-02
8.721715219662219687e-02
5.759692853880891972e-02
3.819561338407565388e-03
-3.744163636192936184e-02
-4.522143734157585415e-02
-3.760769583483650896e-02
-3.701161619645955414e-02
-2.914072007962043367e-02
-1.574914757927589962e-02
-4.257589336845670619e-02
-8.513330394067358808e-02
-7.148324970707403692e-02
-3.701974878678838954e-02
-2.832282140193835562e-02
2.490980294509452173e-02
1.415529343987222410e-01
2.044859639558950781e-01
1.542865934859544708e-01
7.414461661488624955e-02
3.383034309170449005e-02
-8.618750233138480418e-03
-8.875628402961088792e-02
-1.473235279941804143e-01
-1.413909555711044264e-01
-1.160898396857238946e-01
-1.108510081153632892e-01
-9.576570821866857430e-02
-4.169711733635900197e-02
1.422538836034114434e-02
5.775209926736994681e-02
1.301213024066037727e-01
1.433629118378681178e-01
-1.512728554661337682e-02
-1.499984827448935798e-01
-5.637909081808639700e-02
7.909346131245958977e-02
7.606175787745687866e-02
5.752032282468277913e-02
9.881365008367530567e-02
1.005495196320265044e-01
4.787343431117168507e-02
3.708438862547434878e-02
5.882542183829484600e-02
1.986106659152591866e-02
-5.460252017504800548e-02
-1.020675442463609139e-01
-1.548043773676493762e-01
-1.908638994773710629e-01
-1.342590781936937039e-01
-3.136470977423579110e-02
3.913002049997933718e-02
8.348269818653258900e-02
1.090158986665378527e-01
1.034580276012972283e-01
7.217688086092385880e-02
2.987497208163321372e-02
1.237785269329990095e-03
-1.236233119841438632e-03
4.725403798376871106e-03
7.583833276151689951e-04
-1.301419779117748803e-02
-1.747323247677860097e-02
-6.276958607839651892e-03
-1.976003358960450734e-02
-7.251102129566112942e-02
-1.022770653232747406e-01
-7.560655797364015940e-02
-2.779907660210012565e-02
3.465581971188025356e-02
1.235493215987199939e-01
1.812054074897346823e-01
1.520442910582404938e-01
8.626787629308792227e-02
3.840937230484128134e-02
-2.415832884698207450e-02
-1.050938640115106348e-01
-1.367941499294439422e-01
-1.149560623268305048e-01
-1.068749679994152740e-01
-1.185921476783677875e-01
-9.996743525374333916e-02
-4.665885430394513256e-02
1.161062957170820760e-02
6.948305401588036889e-02
1.188663305478590143e-01
1.125909651458161242e-01
3.894284079221734668e-02
-1.897711015209961952e-02
-5.723974218640263609e-03
2.004904710540404700e-02
1.073401055132659591e-02
6.764551922939555234e-03
3.358799605714442998e-02
5.294792085880004051e-02
5.139742211232996294e-02
4.528503746223559029e-02
1.658804724359684915e-02
-2.377374668911758082e-02
-3.322933900328329387e-02
-4.578041804061620812e-02
-9.368211073738634542e-02
-1.173675430319883750e-01
-8.423146914799709006e-02
-2.788381914445814749e-02
3.611719646240151016e-02
9.331430338360664767e-02
1.070931857603452386e-01
8.238857001199693941e-02
5.641239597327027400e-02
3.620631374036244188e-02
2.160121486846946354e-02
1.589494969676726044e-02
1.146422882193150541e-02
1.011547530198507808e-02
-2.873227832565138085e-02
-1.294162368393483309e-01
-1.626004787106421212e-01
-8.187414861372019348e-02
-5.542432380119845237e-02
-1.033469389610691958e-01
-8.991756772552647603e-02
-3.869310084205205419e-02
9.308262334406444682e-04
8.831266949995922322e-02
1.860552003664068810e-01
2.149132041597014986e-01
2.171910961660804273e-01
1.867600521382541123e-01
6.810884070441208804e-02
-6.137240487940975875e-02
-1.340966184444264964e-01
-1.736368319476974675e-01
-1.674960126422183060e-01
-1.470681090232386634e-01
-1.786846038669391568e-01
-1.519948809472717877e-01
3.440811858625622555e-02
1.862301806784995850e-01
1.476045242308411110e-01
6.787060559425553419e-02
4.662879144926099229e-02
1.348700532466853494e-02
-2.678167736529441650e-02
-1.500326345755262532e-02
4.195128855712487032e-02
8.704156091917199245e-02
7.144512062784304229e-02
2.776195623354133640e-02
2.384428906851090990e-02
4.422193560502445109e-02
3.570170355424624742e-02
2.261484787313455119e-03
-3.801648669094635780e-02
-9.185046892723766621e-02
-1.388106962052373106e-01
-1.425617650315490759e-01
-1.078256542033257104e-01
-4.880650184400241176e-02
2.612820738068255197e-02
7.892124344956479021e-02
1.015303510218019817e-01
1.342270189253721435e-01
1.196537014433930457e-01
-1.772618484143458073e-02
-1.241669965523828079e-01
-5.815722259132586475e-02
3.051516088199335286e-02
2.604037493934602959e-02
9.088688761105885930e-03
1.098251731255337448e-02
6.191285598982977298e-03
4.301348703291534362e-03
-5.156209532287850221e-03
-4.140596246613256065e-02
-7.104487756134925114e-02
-4.969331995265986041e-02
4.504947370925461818e-03
5.789970171873046190e-02
1.169236797451968651e-01
1.592836045227031261e-01
1.353427799008326549e-01
6.064307178937572429e-02
-1.492792363607809564e-02
-7.706591221131595115e-02
-1.259300295731173858e-01
-1.579654100646682990e-01
-1.658355130727348359e-01
-1.389457401453931817e-01
-1.049659090777860376e-01
-1.040056466367206556e-01
-9.735947343372058915e-02
-2.790364343307540074e-02
6.285332453291365973e-02
1.003877060599859122e-01
8.098500481093443004e-02
3.657485136422992250e-02
-1.647780852979999905e-02
-5.344094495832732439e-02
-3.701640211036325012e-02
1.911829433789034513e-02
4.338246875426429033e-02
2.227828500378221943e-02
2.397647904205520153e-02
5.437498239618463597e-02
6.029344332587004140e-02
6.339151730781977800e-02
7.771355435521581922e-02
3.945558769153752893e-02
7.147742263782452810e-03
9.935710020527713238e-02
1.841396041896365410e-01
1.181386702273734962e-01
6.255136361844731985e-02
1.257668835258337614e-01
1.774985231595969659e-01
1.616332587512807339e-01
1.220559756840507576e-01
5.426286479084591052e-02
-3.095799605638704585e-02
-8.413784306128453683e-02
-9.362218309264754013e-02
-9.634932526607412062e-02
-1.249403319466921292e-01
-1.647370729472858730e-01
-1.814668863525912834e-01
-1.715373737889276384e-01
-1.708392228576949279e-01
-2.190408582451969233e-01
-2.746162249445064929e-01
-2.468932904230247971e-01
-1.613255335743860874e-01
-9.576050311428296880e-02
-1.251378559567380144e-02
1.142818339037703079e-01
1.995586106084149269e-01
1.991387153629407547e-01
1.449708250779614960e-01
6.783624565495352532e-02
-1.896313894937107225e-04
-4.374041584668517807e-02
-7.100474573026566150e-02
-7.658828632668394920e-02
-6.893735355406804821e-02
-6.382931557516179077e-02
-3.014290688738725105e-02
5.012503356710793639e-02
1.289290831202849485e-01
1.634663861850791655e-01
1.552419009621468782e-01
1.276211436629829110e-01
1.041545753921475220e-01
7.634127932550940909e-02
3.852286137846169800e-02
3.697477362881099877e-02
8.324595421672714712e-02
1.075007280291944700e-01
7.582549402975072295e-02
4.268855945234701493e-02
5.302722377913068885e-02
7.690869768649119531e-02
6.894573920224397745e-02
1.802351342856803665e-02
-7.281985388586999230e-02
-1.638364566042849468e-01
-1.904584215180126494e-01
-1.563278009231132137e-01
-1.103414432386575772e-01
-6.130011172944047765e-02
-1.461145851076869201e-03
4.712548727797147979e-02
5.361106661135625617e-02
2.145389681995450715e-02
-2.407590348396773661e-02
-7.006900036722041314e-02
-9.638812241937916303e-02
-8.406928637869638676e-02
-5.373815583035264354e-02
-3.089510402253012669e-02
-1.816496102203174826e-02
-1.795535041680654254e-02
-3.202561880105228576e-02
-6.276944797179870306e-02
-1.021828779168079959e-01
-1.072215699632213803e-01
-5.668336051750441640e-02
9.151848885042005582e-03
7.422250966735063904e-02
1.642611824076132543e-01
2.453863677691945355e-01
2.492170793648729732e-01
1.888901580488498155e-01
1.195574091264010319e-01
4.048777973503045469e-02
-5.498163188302478133e-02
-1.154164471768434480e-01
-1.111711732538123998e-01
-8.691190468684439896e-02
-7.830681662027579037e-02
-6.705236065914983723e-02
-3.258874397117668409e-02
2.166922087226497151e-02
8.196888635193784467e-02
1.150437728341366650e-01
9.116532764117307730e-02
3.609520481531277442e-02
-1.581114368646700449e-02
-5.410343056170509313e-02
-3.322296297421110933e-02
4.890006618731519011e-02
6.856246244773123166e-02
-2.544804556911970175e-02
-9.565003502128116564e-02
-5.602692105617050611e-02
-5.866681482640179017e-03
-2.523378791440331753e-02
-5.708750851452541047e-02
-6.283765420756844133e-02
-9.929207823536823074e-02
-1.673061100071352447e-01
-1.718254150039705552e-01
-9.409299611624542814e-02
-1.452146270779383630e-02
3.875619183441006421e-02
9.418388990866208288e-02
1.338521993413758493e-01
1.145424432778642115e-01
6.217326048650223536e-02
4.067748346632846235e-02
4.474035746051736873e-02
4.068027106654863168e-02
3.966963135072194835e-02
3.412993588225204933e-02
1.287293421130940307e-02
2.206064997169716185e-02
5.381305911885506110e-02
3.058376777134352506e-02
-3.024327316782151470e-02
-4.746414037566808186e-02
-3.262492138691484855e-02
-2.301611273267727825e-02
3.374068650986820905e-02
1.319596202805111140e-01
1.439276678350311645e-01
8.003930350904597812e-02
6.349462422093866965e-02
5.184282589511817613e-02
-2.124279657426336385e-02
-8.537052405787752540e-02
-1.161661781856150599e-01
-1.438550953774707375e-01
-1.442210683326590748e-01
-1.239395901338811307e-01
-1.244296261927792802e-01
-1.166140192356394517e-01
-6.310642371524262384e-02
9.131289287067186761e-03
7.115927070297846380e-02
9.678943170749526592e-02
5.953264089452339064e-02
6.321652581025991730e-03
-1.944131160899807351e-03
9.944382813549708378e-03
2.025963489555344943e-02
4.178539290700952064e-02
2.918061410561022945e-02
-1.212194783159021433e-02
3.050838455870524130e-02
8.785495388943473372e-02
-3.047558983958149198e-02
-1.719461452063849038e-01
-8.889777737092477428e-02
3.193094900217180454e-02
-2.529924117833019792e-02
-9.439775549032000668e-02
-5.278837779852024042e-02
2.365538910842361099e-03
5.379256574797459250e-02
1.180188740484408860e-01
1.420927957316958645e-01
1.553461774856186028e-01
1.434476791740240398e-01
-6.583549096568587500e-03
-1.115735472552310953e-01
7.360996704741359919e-02
2.613289988934017760e-01
1.543340704947636088e-01
2.346938239907421855e-04
1.017318267424858341e-02
5.166065682345706567e-02
4.657301367771154305e-02
3.336995233841983516e-02
-5.750773876314745417e-03
-7.029795574843483719e-02
-8.931710817041536854e-02
-5.119560927644050546e-02
-5.689348703538294784e-03
5.538877704366905463e-02
1.328722347104906443e-01
1.443202072862558583e-01
5.065367970907750511e-02
-7.535682260230794349e-02
-1.471516677873956069e-01
-1.642221578626710254e-01
-1.999558493564820849e-01
-2.769694191385417281e-01
-3.279237099186241289e-01
-3.122719971207562062e-01
-2.665624512373567234e-01
-2.312702059538422061e-01
-2.028722291581427639e-01
-1.631454632941307104e-01
-1.259953634067709216e-01
-1.216811474909487295e-01
-1.411870789996386988e-01
-1.562196394917777786e-01
-1.633064402607524723e-01
-1.541389449832545055e-01
-1.127063516671934773e-01
-5.688264177351860795e-02
-2.151549990489268899e-02
-3.581597170466491349e-03
3.223053014340457323e-02
7.365717569778941487e-02
7.339219118996374858e-02
6.917049037273458045e-02
1.461956857082563066e-01
2.745220293422933056e-01
3.403474937505062692e-01
3.234322226871299555e-01
3.100015500420741921e-01
3.605381410024087185e-01
4.635074672409561503e-01
5.970196807202280409e-01
7.494953770422883021e-01
8.829072077526293194e-01
1.023529565866550861e+00
1.302027334368899947e+00
1.629086076768631042e+00
1.618878726370647003e+00
1.207012739936119461e+00
8.209309082814374436e-01
5.812268389907669919e-01
2.014952153813585611e-01
-1.881361129050436454e-01
-3.885890400289675473e-01
-7.846180856228399669e-01
-1.313173309420608836e+00
-1.314840410248840907e+00
-1.254893432543077392e+00
-2.041470557712123934e+00
-2.437537995534862389e+00
-7.216613808996623636e-01
1.166177783384989564e+00
-3.838663144311438291e-02
-3.019852022684444304e+00
-4.270702285328839665e+00
-3.834992532680489230e+00
-3.085149514411801519e+00
-2.384884932223064968e+00
-2.804490447967998179e+00
-3.454759213957576680e+00
-1.134447524845692223e+00
3.440999499914573878e+00
5.552938578832099736e+00
3.160715541263282802e+00
-3.143213457779326925e-01
-7.183794270786822977e-01
1.255247763689958829e+00
2.580364371335960083e+00
2.970224025666465373e+00
3.437835900654399257e+00
3.774752104476173820e+00
3.627888975574912411e+00
3.050671307176262559e+00
2.010716879316144290e+00
8.663211924961119470e-01
2.844110934624399789e-01
4.946443492334474668e-01
9.074801181203868694e-01
-1.929876034892228365e-01
-3.235388350256876766e+00
-4.470045504200861330e+00
-1.191863249789000490e+00
2.388388627774213901e+00
2.043513575989868603e+00
2.691616643498052630e-01
-1.667001751690703748e-01
-5.664013029289446388e-01
-1.540478228113123516e+00
-1.943662090217927574e+00
-1.738663864802882708e+00
-1.500687987728128947e+00
-1.272149429503821372e+00
-1.098414124097695010e+00
-1.037995995962923912e+00
-9.484847962584309622e-01
-8.380774676471486329e-01
-7.919029667958419338e-01
-6.821122195005012712e-01
-4.313742875206049154e-01
-2.272744357019336192e-01
-1.679103369916395971e-01
-8.643704423587839081e-02
-1.003095897902023248e-02
-8.159247147326076366e-02
2.543382387710968473e-02
4.048646715352861025e-01
4.221026305549762103e-01
6.446842725493812098e-02
2.549393365505653319e-02
3.148328936417625346e-01
5.610056547733658361e-01
8.033162578268595588e-01
1.142904541204891933e+00
1.389792667062592191e+00
1.206972461166244681e+00
6.873138373199909612e-01
4.671104870395599296e-01
6.721137755778724410e-01
6.545532417521325863e-01
2.755997865701783622e-01
1.520547641367924196e-01
4.327808690472305653e-01
5.808266452583061845e-01
3.505738233255889513e-01
2.714948301251343676e-02
-1.760361818021992097e-01
-2.830100957191251099e-01
-3.385798110002005146e-01
-4.090828184070313123e-01
-5.225824152368896414e-01
-5.852871560261521111e-01
-6.006347333824400003e-01
-7.105235144388051260e-01
-8.686759774584255078e-01
-8.634820067401490773e-01
-7.802803896093496450e-01
-9.521248965703019707e-01
-1.198363620109036409e+00
-1.078979137178861070e+00
-1.318909341586994133e+00
-2.597746295472939781e+00
-3.208832563822862749e+00
-2.089267706602564889e+00
-9.393987855593581848e-01
2.166834885185282000e-01
9.423891497262326666e-01
-1.801628867022771141e+00
-2.045181473492133861e+00
7.443872144044224370e+00
1.412696953619771634e+01
8.181117550631427093e+00
2.517263187984944306e+00
3.207937025494009831e+00
2.437591394430555169e+00
1.063265285189991971e+00
2.410823414174819046e+00
2.361079021599226113e+00
2.973270654560212223e-01
-2.016224419588374950e-03
5.468560555827228775e-03
-2.792658867379674170e+00
-6.240257436161493310e+00
-7.966015140180473963e+00
-9.543910603189985409e+00
-1.122149300933609695e+01
-1.010334226495008458e+01
-6.249899203610847387e+00
-3.174427021862848530e+00
-1.475312531546664196e+00
6.837615161230614635e-01
2.975122920973624296e+00
4.221589280356253582e+00
4.437710605300313915e+00
4.093885137664478258e+00
4.149359959150722865e+00
4.883372000627567822e+00
4.679686608251701685e+00
3.007477243650393817e+00
1.913607374700491581e+00
2.339882385531292908e+00
2.653802517508607295e+00
1.731940309963123203e+00
6.005526397377582981e-01
5.232469389300894447e-01
9.841791029467855667e-01
6.414883526739899589e-01
-3.765727683202997333e-01
-8.565264887615643419e-01
-6.075399936824656955e-01
-3.476390512732615568e-01
-3.457780955667316136e-01
-5.782634695997861396e-01
-1.189693344850623280e+00
-1.981749288652123075e+00
-2.369384576272501430e+00
-2.188862299326255201e+00
-1.869827328906992214e+00
-1.762756783689487960e+00
-1.770567980150192344e+00
-1.601415651356954628e+00
-1.153813463761789615e+00
-6.188599197373954031e-01
-1.571550968301209106e-01
3.220834230990928804e-01
8.290677302984592600e-01
1.112873999381315926e+00
1.036134975750794940e+00
7.565207304010052036e-01
5.078681323734971498e-01
4.194936038596757122e-01
4.518807189384249634e-01
4.889254028228035565e-01
4.977186484679945178e-01
4.585165009738108033e-01
3.175034164122356728e-01
1.754996819080842652e-01
2.020100498069541117e-01
3.312683639425171855e-01
3.905941405159596425e-01
3.662094726018819135e-01
3.083428159238645327e-01
2.259612997332339501e-01
1.235571855217426906e-01
-1.060259323196890979e-02
-1.581959298948164006e-01
-2.763799158348654306e-01
-3.999699749228038947e-01
-4.525507601224747489e-01
-2.025124027459241360e-01
2.000290052132359109e-01
2.823951719407261640e-01
7.791542690899506962e-02
3.707081072213956607e-02
1.780321882923988075e-01
1.330835350633691183e-01
-1.054716348782064606e-01
-1.809549758956744414e-01
-9.455630180904332771e-02
-1.812098278575590415e-01
-3.821842272862838730e-01
-3.963548068270762448e-01
-2.989326237525337659e-01
-2.717295192751763566e-01
-2.434615872799943403e-01
-1.862923370151751135e-01
-1.701199261440672905e-01
-1.206177146572846581e-01
-3.904250867484526655e-03
2.651050366907438394e-02
-4.539802836556190713e-02
-6.059354491282413491e-02
-2.617069086033055325e-02
-3.303342115393968770e-02
-1.556371337030063723e-02
7.961023955056228951e-02
1.809353932930419795e-01
2.364428017016358408e-01
2.585586893677400133e-01
3.062611323816505360e-01
4.262529487015097596e-01
5.393431440761806694e-01
5.243745594986756187e-01
3.749572520318214530e-01
1.851789580101499411e-01
5.498923063979299641e-02
-1.416123647551811859e-02
-8.454117561092218402e-02
-1.274235714997654090e-01
-9.057467221104238686e-02
-6.268678248900301508e-02
-1.630320070271251698e-01
-3.277998331020473000e-01
-3.708365221284514734e-01
-2.907464288741541947e-01
-3.030497410571427741e-01
-4.126991850169215437e-01
-3.563560517561945029e-01
-1.364197304970900249e-01
-2.445393614851622266e-02
-3.608005699698423052e-02
5.994069491128295457e-03
9.280049099424599046e-02
1.195664739405603860e-01
1.015041719578756024e-01
1.033243468570763657e-01
1.340761760233170063e-01
1.788299541236865742e-01
2.147623862422840813e-01
2.028304683674158337e-01
1.421291208258015637e-01
7.956441114752899058e-02
4.109794183937579698e-02
1.898017124715929010e-02
1.202833206447123660e-02
2.256350089539530673e-02
2.596591570081369441e-02
-8.542725725874809189e-03
-5.231295807754533789e-02
-3.917335114906748961e-02
1.568149316409133895e-02
1.929215409781172980e-02
-5.404922193131476288e-02
-1.319645737468658209e-01
-1.611031377953258681e-01
-1.542339283858376320e-01
-1.285486253101644216e-01
-8.196087492079268122e-02
-1.684727630651868674e-02
5.320953849195786400e-02
1.025753073120697079e-01
1.132416353188016034e-01
9.815355161515103288e-02
8.170997116877332100e-02
8.043849594740520859e-02
9.139794605540053907e-02
8.169313968242257473e-02
2.875847607885602744e-02
-4.252411325232273442e-02
-8.668769866312969752e-02
-8.924698480197278128e-02
-8.911848831670252102e-02
-1.008315196153378168e-01
-5.046586344634731297e-02
7.832374158317080559e-02
1.523408447042323144e-01
1.045360348918408788e-01
3.730983407897778964e-02
7.545383189426636827e-03
-4.008345303982376734e-02
-1.088952760376093454e-01
-1.397578481468101652e-01
-1.248726953825547298e-01
-9.500408036128893396e-02
-5.669008613448674877e-02
-1.274986907006750089e-02
1.252892100794713443e-02
8.884795591253316291e-03
3.567115295695564431e-03
1.574207800218387771e-02
2.196332254732645192e-02
1.854541741213374534e-02
4.486850822378447845e-02
8.207345638612977001e-02
7.245525754783847805e-02
3.907991011757896982e-02
2.135463247665606024e-02
6.541325015537788681e-03
-2.060902901824760575e-03
5.178173725941228461e-03
9.234923995931794416e-03
6.386407740025057053e-03
1.864468508455197418e-02
4.297391921985016516e-02
4.795769772091960925e-02
4.762549101975241395e-02
7.074101711267610781e-02
6.083458383775979667e-02
-2.050150430774675542e-02
-9.217963669771560287e-02
-1.040352537082462614e-01
-1.098210898993000756e-01
-1.335878384753629300e-01
-1.323879496647560883e-01
-7.708852405062480151e-02
2.621681443100141312e-02
1.310119456049679554e-01
1.584192584740672927e-01
1.058590461358513424e-01
5.824686605748953527e-02
4.569316173152286609e-02
3.698064082233968458e-02
1.947655452697233738e-02
-1.594556227470904017e-02
-8.002544417948791178e-02
-1.415923514251413162e-01
-1.443774030925125129e-01
-8.931950073332028950e-02
-1.707320974900068677e-02
7.533278877020581354e-02
1.689416154388889424e-01
1.865621136607542585e-01
1.230259649338303063e-01
4.036120002868840567e-02
-4.714096545813638295e-02
-1.222500459687927837e-01
-1.323765395030959136e-01
-1.077207274089823086e-01
-1.109390946978334735e-01
-8.655526287926565421e-02
4.390205988927737765e-03
5.087831023782880824e-02
-3.898270061091665267e-03
-5.108452802265896903e-02
-2.709918087401999923e-02
5.456094857261553285e-04
1.157527832847668990e-02
6.646370310725577268e-02
1.335805932248704808e-01
1.054981332756699808e-01
-6.512530215463663286e-04
-6.117612366834473958e-02
-4.124951324100718797e-02
-3.185898846365480680e-03
2.060622802001040380e-02
4.677117401368333788e-02
8.064633185461486664e-02
8.699483591121662251e-02
4.544117687077312701e-02
1.040048502328424530e-02
2.654239781489655184e-02
4.715348777541981257e-02
2.312768641747793910e-02
-3.979907177082365327e-02
-1.306134716641485782e-01
-2.060716094613526395e-01
-1.831340114525024654e-01
-7.483542253558637947e-02
8.719329547937049521e-03
4.686984659420996568e-02
9.484165849585338148e-02
1.267667911878960496e-01
9.703958254643052506e-02
4.609980320920339936e-02
3.021090977074714426e-02
5.449270738293287425e-02
7.347597968674028646e-02
4.655224708614673357e-02
5.748761862985476284e-03
-5.490706016937545869e-02
-1.885506302242211385e-01
-2.641801502975922866e-01
-1.345409494806705519e-01
5.541035785146627285e-02
1.379183993259091578e-01
1.541213267961191735e-01
1.481647111995441635e-01
9.598634381264029014e-02
2.007177517590521751e-02
-3.365999067455822252e-02
-8.150545897653552196e-02
-1.493151995897462059e-01
-1.855891664381112971e-01
-1.351826404166074080e-01
-3.745342472102106829e-02
2.573844893691229832e-02
2.889220584304829503e-02
1.474270481354404000e-02
1.892845554936241348e-02
2.725666479909696904e-02
3.363662588009545817e-02
6.039845356141254618e-02
8.924430986584008796e-02
6.567700263004121186e-02
-3.536877816584509549e-03
-4.220637556117192574e-02
-2.149460655932188685e-02
1.051294538232562178e-02
3.256080182808776535e-02
5.978327543080793477e-02
8.490710611586099743e-02
1.000714189332870541e-01
9.568613957448551810e-02
5.473703406933927429e-02
6.793147890196771579e-03
-8.536659594480206642e-03
-2.471109482700054386e-02
-8.673020703205962245e-02
-1.557210724837148341e-01
-1.767068961742974398e-01
-1.637874167944964321e-01
-1.381088148900903034e-01
-9.096984113703594776e-02
-2.204237580290668158e-02
6.563170282857501425e-02
1.407701255222844061e-01
1.436638331072592201e-01
9.605332593458437707e-02
7.285936108845617043e-02
5.750541382432676485e-02
9.833866406809717992e-03
-2.635396302879386421e-02
-3.106717983770981156e-02
-5.008029391483680148e-02
-7.337778194195521131e-02
-4.968418171854202536e-02
-4.616858126813073657e-03
1.650465509650404089e-02
5.838395338215851549e-02
1.399988348023048501e-01
1.633794950075859731e-01
9.565818042878758420e-02
2.903825602959933180e-02
-1.645004814228985882e-02
-9.519284568430752547e-02
-1.670906304638307693e-01
-1.640705968612317656e-01
-1.217437767001654653e-01
-7.937229693225525406e-02
-2.168389983257567460e-02
2.432094928656214350e-02
2.806793906905081029e-02
2.853182046219618004e-02
4.421683784205768936e-02
4.537333642450366161e-02
3.870863354960676905e-02
4.841234846833955552e-02
4.504044866337562902e-02
-1.253248424366747334e-02
-8.129893351033368187e-02
-6.893740415336682692e-02
2.053670974854955589e-02
8.823535966838851052e-02
9.006558604901555853e-02
7.000163740033746307e-02
6.735374533165325306e-02
6.661734866902621621e-02
3.716475956642237982e-02
-3.117146131094578228e-03
-1.506270989131320084e-02
-1.964601868125522011e-02
-5.631634658975715607e-02
-9.718678912987616103e-02
-1.146055764907595587e-01
-1.354140309340529091e-01
-1.469456353150964678e-01
-1.055925294318082186e-01
-3.243666884435888326e-02
3.785503680868226861e-02
1.009071544695614442e-01
1.306935426334537298e-01
1.051047039950962769e-01
5.766227466876056029e-02
3.685325399609099689e-02
4.015365409721691203e-02
2.328638763027815126e-02
-2.807047773442757424e-02
-8.365137675172593101e-02
-1.066695219555286178e-01
-7.043641039425299621e-02
-1.910695534810868262e-02
-3.107079909172302812e-02
-7.781369936431192791e-03
1.768489216573266853e-01
3.220811791875465846e-01
2.198820482757567474e-01
4.436866113760924019e-02
-2.089931262630928890e-02
-5.013580471358840968e-02
-1.134845573382040618e-01
-1.616618947995072941e-01
-1.531309416624644648e-01
-1.137428735936835550e-01
-7.257493991547467327e-02
-2.888749414878617056e-02
-6.744239204247371583e-03
-2.127590826099848634e-02
-2.509599184967409302e-02
1.438326695211443983e-02
6.396416158111860317e-02
7.241535538166407604e-02
3.462149194612823555e-02
-5.348549782231178454e-03
-2.788642998520313512e-02
-3.621197370245236857e-02
-8.524159279108933784e-03
4.587974643266713032e-02
7.845867532649219989e-02
8.312851654830327730e-02
8.130657280094538697e-02
7.240846693905120257e-02
5.348752958472332425e-02
2.835944438718436891e-02
-2.157323172415664264e-03
-3.835699520915883398e-02
-8.216908713103696082e-02
-1.260842469180341596e-01
-1.498935944000949483e-01
-1.435121346852797908e-01
-1.141459383417936652e-01
-6.445535354850846776e-02
9.067481386475482324e-03
8.090235521923436202e-02
1.101319170487174842e-01
1.008617497575582667e-01
9.024222831110673138e-02
8.685212919397122810e-02
6.446111003665540296e-02
1.928724075031822832e-02
-1.559803404972137653e-02
-3.725685431852659990e-02
-6.285138590102143374e-02
-6.553778682375877018e-02
-3.472324506346913253e-02
-2.570642899883763405e-02
-5.293518901079548311e-02
-2.790512479725584458e-02
9.540695555134434680e-02
1.985779204867917647e-01
1.684782722071571648e-01
7.968717045981615898e-02
3.481677992436364721e-02
-4.568535718497572506e-03
-8.060987589336937598e-02
-1.402192220083050278e-01
-1.462695364875401804e-01
-1.155713113890327326e-01
-6.297520604965339830e-02
-9.970601156575883278e-03
1.214264704505418208e-02
2.881172490873600001e-03
-9.731215998236590267e-03
-3.776385688483183817e-03
2.035413815695044995e-02
4.100676004373519229e-02
2.991537104334298508e-02
-1.484361683896735958e-02
-5.013605493409140079e-02
-3.496023565165943398e-02
1.430807092974178268e-02
5.433973493818473888e-02
7.152177521966754381e-02
7.809528997156070518e-02
7.962879035633718683e-02
6.860997903973234391e-02
4.519508308792732215e-02
1.821782285979568414e-02
-1.405161586837523451e-02
-5.251227281060624752e-02
-9.222429381696886641e-02
-1.320651940468504648e-01
-1.559169230865884714e-01
-1.399507701413194860e-01
-8.159679174606633556e-02
-4.138187852173672542e-03
5.568954749732107912e-02
8.895330462337126820e-02
1.153857949679131661e-01
1.305802952701354269e-01
1.160719587471509273e-01
7.536687461003617472e-02
2.826884057215646104e-02
7.631749324895163028e-04
-1.077131937050664762e-02
-4.608575491262251189e-02
-9.190405623550704228e-02
-8.645696242246175833e-02
-4.206361222004192935e-02
-2.109635190658720044e-02
-2.604866307665094569e-02
-7.401134095112176133e-03
6.597733277503417537e-02
1.460762160439860735e-01
1.582821938979254439e-01
1.261407720927031628e-01
9.677888351727143013e-02
2.857428110357040918e-02
-8.581554156114902521e-02
-1.568846519681779128e-01
-1.536035680140348525e-01
-1.406044621094375557e-01
-1.312875684895217776e-01
-8.401145925558893557e-02
-2.405511521243748618e-02
-2.062198082675440608e-03
-7.982222284383187760e-03
-3.743192919698198895e-03
3.717169605947476252e-02
8.598010407725820148e-02
7.033372854871945690e-02
1.564428056983209470e-03
-2.786988731314382975e-02
6.229842347347785275e-04
2.997172834602102043e-02
4.465763396697478016e-02
5.676075478577886912e-02
5.023748645382739020e-02
3.564090315374302681e-02
4.026711101199649534e-02
1.481225408677760980e-02
-4.025497822894254230e-02
1.798254563725043206e-02
1.453853772450089121e-01
7.863813900183254380e-02
-1.162205207704464782e-01
-1.325693198026283437e-01
-5.818495532884300492e-02
-1.146709739676428780e-01
-1.609332179078223346e-01
-8.591523184705417149e-02
-2.531432897846799118e-02
-2.440517120411914848e-02
-1.349534646571381134e-02
5.880934098795420617e-02
1.579086077383091424e-01
1.741761226631655668e-01
1.254810790302064716e-01
7.910118940493431061e-02
1.997505350279647415e-03
-3.405880712116186870e-02
1.429673065986223138e-02
-3.272076720195308402e-02
-1.559737090099435897e-01
-1.261951239755868814e-01
-6.612195437835165224e-03
3.689799838828861089e-02
8.357435776981528286e-02
1.738218781498553911e-01
1.848607233134466343e-01
9.613000725588939643e-02
-1.360445797245618538e-03
-7.188379501560868134e-02
-1.260547490602648701e-01
-1.545126444781712571e-01
-1.471945313951638079e-01
-1.164377418494893929e-01
-7.072744115126042286e-02
-2.271845613172191261e-02
-5.113976585124236501e-03
-1.397060208430776426e-02
-9.305826745232382430e-03
1.880436107751128766e-02
6.175848571651991470e-02
9.378508426177331603e-02
7.254242409957348259e-02
2.271344777129949422e-02
6.467452206387286004e-03
1.901715598250249342e-02
3.001497776584385532e-02
3.746590393921034323e-02
3.964709877013804229e-02
3.247473518301301904e-02
2.435489495260791809e-02
2.418983999799317539e-02
2.283187026448999651e-02
3.703999603707121106e-03
-3.316039006754593899e-02
-7.549067247973750838e-02
-1.097382825364729142e-01
-1.268613189193913693e-01
-1.188995918768626925e-01
-7.011624868928717502e-02
8.718684811004606336e-03
7.092042379490359760e-02
9.345094309908866248e-02
8.600189715555911496e-02
6.482403433829536654e-02
4.912844996236127859e-02
3.557782868609245946e-02
1.435231897586461414e-02
4.196855420676747113e-03
-8.847401453761609413e-04
-3.193509813308087475e-02
-6.018814652805610371e-02
-4.690649805667611999e-02
-3.070067555038843987e-02
-4.372158615093950373e-02
-5.319964354504642251e-02
-3.511058279862436238e-02
1.658139208748226484e-02
1.050001865124686323e-01
1.770527347423767606e-01
1.740106750067311747e-01
1.327951147718738900e-01
9.055695086384057957e-02
-4.790252202471144069e-03
-1.420974878920957529e-01
-1.914914240612725360e-01
-1.198891289840773866e-01
-5.426662507224894183e-02
-5.439692656564922013e-02
-4.393279754511327656e-02
-7.619165367285374649e-03
-7.853187586793007602e-03
-2.475066967647226307e-02
-2.231269709984013902e-02
-4.894029002503186287e-02
-9.772885472402108309e-02
-7.755352828701558843e-02
-1.072001535928093080e-03
2.796948339968058014e-02
1.374408868262349745e-02
3.034657086445979174e-02
5.355129235588278191e-02
4.523819320944724026e-02
6.149827073132475841e-02
1.214069926076554173e-01
1.497738846022975967e-01
1.104137231260054058e-01
4.975574778893955552e-02
8.326505584986067937e-03
-1.630613799282083776e-02
-3.789401402730237234e-02
-6.577571500764431423e-02
-9.072539712167029813e-02
-9.813493523612074054e-02
-9.920795240160248940e-02
-8.171052037051310113e-02
-9.291027292743971738e-03
7.868880308490172615e-02
1.069238819037151011e-01
8.420402245546419751e-02
6.475464588410285993e-02
6.049414848802768530e-02
5.791357252482245282e-02
5.387842930648178291e-02
4.383672646676784607e-02
1.773880960597207929e-02
-2.330193179340486753e-02
-5.975479141102398029e-02
-5.745561749237526605e-02
-4.768639773021901562e-03
5.459340779869155391e-02
7.788078923562150035e-02
8.743819337891858834e-02
1.211848550711119438e-01
1.479760342634700576e-01
1.090613200448007081e-01
4.052846921600265079e-02
3.161074351616043748e-02
4.745344575629230344e-02
-2.845334667703037709e-02
-1.729172244960975602e-01
-2.644326018118405841e-01
-2.981183296578251429e-01
-3.288400322724415736e-01
-3.241796776980656603e-01
-2.603522124313174535e-01
-1.999503931060263306e-01
-1.777672714541620458e-01
-1.543777797381208350e-01
-1.211694597932653356e-01
-1.333670004441123436e-01
-1.953077536796033464e-01
-2.319418144937002157e-01
-2.229976085659203244e-01
-2.329900262520826493e-01
-2.741867010696963924e-01
-2.823431122044675057e-01
-2.576367077023078433e-01
-2.278224797059485163e-01
-2.959071773438091968e-02
5.350551101569378520e-01
1.262566828409054542e+00
1.684250966978241060e+00
1.634094537701519023e+00
1.288439411454179950e+00
8.045669093121305959e-01
2.664347429909368348e-01
-2.062628113639840000e-01
-4.795826594227809436e-01
-4.814972282027580319e-01
-2.911934531615874011e-01
-7.642036871635360384e-02
9.264268909418549303e-02
2.208483125211420095e-01
2.563894156310471684e-01
1.492885727729685585e-01
-1.481188296378231108e-02
-1.007323965516595671e-01
-1.264287103882134888e-01
-1.945439739095947973e-01
-3.198309960083308701e-01
-5.134844204718423955e-01
-8.004943132003432549e-01
-1.008593738425899611e+00
-9.293024202448011417e-01
-7.447266591797244706e-01
-7.433507294272707622e-01
-7.646987310134978344e-01
-5.254228747182243531e-01
-1.154688248549524399e-01
2.286615493015350942e-01
4.255803372145376962e-01
4.849842350282991266e-01
4.249447511223407581e-01
3.196133953438709541e-01
2.608193503741459973e-01
1.937680523907950869e-01
1.660476867442985810e-02
-1.562160629009880786e-01
-1.892328775765805271e-01
-1.843139329106983637e-01
-1.934084135831396489e-01
-8.872275923978814594e-02
1.273955346815486278e-01
3.264502378411676120e-01
4.634231738420999114e-01
5.386247028177956198e-01
5.744664441518916309e-01
6.116321272015272648e-01
6.070736995793865054e-01
5.206190577310921830e-01
4.373387919475053565e-01
3.850317275447193710e-01
2.336476963383392613e-01
-2.465289095304240563e-02
-1.928990964195371749e-01
-2.105000114022743951e-01
-2.248675323482529353e-01
-2.975606000018984898e-01
-3.532153487599341002e-01
-3.406093486777798662e-01
-2.739609230373283855e-01
-2.026361766490623606e-01
-1.598619129902065228e-01
-1.344584559386461375e-01
-1.206377787608179375e-01
-1.142535736075449976e-01
-9.312917836977588348e-02
-6.634746197339819185e-02
-4.035886783010415174e-02
3.400652509257015566e-03
3.041103691463457881e-02
1.329962918021818097e-02
8.050233943089568633e-03
3.412287609279080619e-02
2.900027526085853513e-02
-3.183407192391723983e-02
-9.273943221787050994e-02
-9.152527065459023503e-02
-2.280711021079250347e-02
7.703613925682449570e-02
1.706652585085225438e-01
2.125290169176031196e-01
1.646507020654772169e-01
6.262937161751262749e-02
-1.414139534501715825e-02
-6.300508733562386332e-02
-1.389293393202739313e-01
-2.166935628230858280e-01
-2.230327528624220790e-01
-1.693138560516987690e-01
-1.114897308268398696e-01
-5.683064632336595062e-02
7.886504182266634855e-04
3.677305002961549218e-02
3.944124662690495081e-02
3.938352099303382009e-02
5.341665288363844910e-02
5.812104617691403463e-02
4.478710583129136280e-02
2.363614124739473951e-02
5.524812657034398715e-03
2.500713366715436731e-02
8.365733583038550969e-02
1.272627023185909922e-01
1.502925106152436796e-01
1.714780818256091410e-01
1.549460852959649582e-01
9.589241828789266120e-02
5.326838866059845079e-02
5.239560617031242123e-02
5.633839321032439729e-02
1.760802052474740725e-02
-6.460605034515606859e-02
-1.437153140119865335e-01
-1.973484579083671087e-01
-2.378377826590935828e-01
-2.482510382643935420e-01
-2.107855103558655685e-01
-1.560762631776981268e-01
-8.005170793680575769e-02
5.095748275148997281e-02
1.617205148239516110e-01
1.647034017661155314e-01
1.278707785544619946e-01
1.310780813714826354e-01
1.418566143948601921e-01
1.283476623476233480e-01
9.866548236547263706e-02
5.723256766908914328e-02
1.393751853185569954e-02
-3.663777297082668194e-02
-1.091163429650479910e-01
-1.569657822504786915e-01
-1.115274387677544776e-01
1.102103318177196332e-02
1.235538718440511025e-01
1.647623498176092049e-01
1.444866396972251110e-01
9.774273881787906570e-02
3.363640891237943548e-02
-3.923550465974715712e-02
-9.538634503856242841e-02
-1.245167983816737045e-01
-1.284957931847088564e-01
-1.142842175450143327e-01
-1.043449731030258176e-01
-9.815185816678881348e-02
-7.590683120791705263e-02
-5.531536908176517414e-02
-4.662934648291870710e-02
-1.254863432811592280e-02
5.582057085626659226e-02
1.136018335497760157e-01
1.200800981296249875e-01
7.491120061263993601e-02
1.651005594355667988e-02
-2.314912247137503737e-02
-4.980076668061637207e-02
-5.678667146490084389e-02
-1.962417060091559140e-02
1.523170721997792361e-02
-1.445294955315288253e-02
-4.065767910644314115e-02
1.750568568071150105e-02
8.185144972830019072e-02
5.588868548588336871e-02
-1.815351331957821071e-02
-5.392890824626812157e-02
-4.675825711429468234e-02
-5.720387607619009662e-02
-1.022992202266835154e-01
-1.211944393207367715e-01
-8.403158849537971375e-02
-3.362363456470999351e-02
1.509912901751599146e-02
7.532810103764059351e-02
1.148811316115151693e-01
1.457173744585526232e-01
2.193578578205984397e-01
2.415337674390954648e-01
1.317799827075048502e-01
3.136292751355324732e-02
1.385053663718655015e-02
-2.496400108448860317e-02
-8.171373520992894490e-02
-7.805621067432044757e-02
-5.153325482373193045e-02
-5.099322867092536543e-02
-3.383952516143420852e-02
3.924883357638606768e-02
1.273399457722826089e-01
1.508063754972611137e-01
1.008390213215531739e-01
5.308479519265062868e-02
2.647008709877423857e-02
-2.951739699180214518e-02
-1.078070593869696753e-01
-1.645897260352217617e-01
-1.700006780180986499e-01
-1.095294490008636851e-01
-5.002301953997110445e-02
-6.792251335443989790e-02
-1.152108031969944768e-01
-1.252805756412160576e-01
-1.104109774385787640e-01
-8.441354086328511919e-02
-4.613077460623608850e-02
-3.256937445037529077e-03
3.799033376757758595e-02
3.581373681026159966e-02
-3.867250255890820887e-02
-6.881644271313985817e-02
5.068254907884896937e-02
1.403751500969372401e-01
2.620616765022240613e-02
-6.672773666522271996e-02
6.330594864687427714e-02
2.006946099541915829e-01
1.698894091794569960e-01
9.544553732451536987e-02
6.445732071899201721e-02
3.589198017727479595e-02
1.613277004842521983e-03
-3.241450918357972194e-02
-8.433691135385212867e-02
-1.337972976614123510e-01
-1.341520598993496405e-01
-7.982695682306589768e-02
-2.011671054110800508e-03
7.299723086693372942e-02
1.358970878582533848e-01
1.695595742163166220e-01
1.526526287602730514e-01
1.040936656894869972e-01
6.215812121336199841e-02
3.161179187530702150e-02
1.836223022425330365e-03
-2.700903228389849031e-02
-4.827464152560412280e-02
-5.063624824605224284e-02
-3.929271547740851439e-02
-4.189316334624716698e-02
-5.583883936156038008e-02
-2.905391723174670371e-02
5.598143317804316066e-02
1.269915965557898985e-01
1.180667774956957045e-01
5.008335349053907870e-02
-3.260014887426827129e-02
-1.080968871793516611e-01
-1.663851633701297905e-01
-2.123031316982219308e-01
-2.318708447252466887e-01
-1.888105326690148189e-01
-1.028732273218553733e-01
-4.637905742652285307e-02
-3.884086066498729922e-02
-3.525730439223317275e-02
-1.485982144672612359e-02
1.537522598927043571e-02
6.155711151431336042e-02
1.051663236605702989e-01
1.024667029224701209e-01
4.903949267544638335e-02
-1.006714228620452650e-02
-2.470460256230334189e-02
1.049348471390726054e-02
5.995768951283384635e-02
1.058187882339116509e-01
1.486139659174265659e-01
1.642835444387567567e-01
1.397510172585111621e-01
1.048156192782724316e-01
6.688063155241877333e-02
7.996866849433396929e-03
-4.448567784300522243e-02
-6.069813433480882731e-02
-7.526243818992373047e-02
-1.131334492143680204e-01
-1.378859068597091120e-01
-1.227519232498676116e-01
-6.378206243206013815e-02
2.287081827199899386e-02
7.197339283102317797e-02
7.970313538003509501e-02
1.170443786231305516e-01
1.423005439798073479e-01
7.843486283237474654e-02
5.304362761865682487e-03
-7.449410552179264178e-04
-7.010024192695342438e-03
-5.397237434030310865e-02
-8.636163443425806663e-02
-8.724254909182761752e-02
-9.508505077034133668e-02
-1.065115599767147980e-01
-9.031934036545764821e-02
-4.230065765748775020e-02
3.588831514763463071e-02
1.099530360168859966e-01
1.200203038593367355e-01
7.659867915749954403e-02
1.701724267926981587e-02
-5.366903864783215128e-02
-1.111475683898212885e-01
-1.332661583839145347e-01
-1.180257330861652770e-01
-7.251031273453995007e-02
-3.954209459466084819e-02
-2.933904135925846646e-02
-3.417036741819918025e-03
1.489249987502840392e-02
-1.550973374885543377e-03
1.328175011029344293e-02
9.475121716690872165e-02
1.641007882741088164e-01
1.441205333135089639e-01
5.327934294026320100e-02
-2.046475295006952577e-02
-1.666924774952357330e-02
1.955373951712699801e-02
2.699275938207232328e-02
3.824517917587523519e-02
7.747795432417506345e-02
9.762285007854026864e-02
8.794503717597415560e-02
7.000967908920140148e-02
3.076768103073669602e-02
-2.743372254498221627e-02
-6.552269450908272674e-02
-7.752739446337873763e-02
-1.056965031097905766e-01
-1.578860358864397351e-01
-1.675926687243632363e-01
-9.726825342280043252e-02
-1.626484864246009396e-02
2.970729808857436316e-02
9.460393195607291750e-02
1.285691035996301690e-01
1.035838117636481842e-02
-1.130623988025776239e-01
-3.726592103725204219e-02
7.747774877162394436e-02
3.960928459838387178e-02
-3.083061972900241060e-02
-2.763044387385408043e-02
-2.439889671452694780e-02
-4.570696939919732110e-02
-4.334277781074528241e-02
-2.741401883147906449e-02
-2.894458404870690893e-02
-1.221676324037311578e-02
6.934998248738911963e-02
1.579841636453541143e-01
1.568310690563619048e-01
9.063410236726016089e-02
3.925288997072515218e-02
-2.037498108391825463e-03
-6.533766494220180632e-02
-1.310297848494770823e-01
-1.463202905045872526e-01
-9.422487671528982645e-02
-3.976932296985168092e-02
-2.752508441812953968e-02
-1.281502712989060835e-02
2.403073248338665271e-02
5.173620730117223232e-02
7.030600600488495777e-02
9.285167406586739003e-02
1.074491304299101113e-01
8.744331218267464845e-02
1.892416223703422690e-02
-4.775895530469641270e-02
-4.535844676937080683e-02
-2.677902650423402003e-03
2.279364463699904211e-02
4.886825356496774658e-02
7.774480803879453561e-02
5.761475685033439625e-02
2.360184958212646796e-03
-1.981169278294860406e-02
-1.343587923750094552e-02
-3.275683975247661167e-02
-7.571908968351859226e-02
-1.104345876133982357e-01
-1.412734318259450117e-01
-1.614464810404742656e-01
-1.387702872900308249e-01
-8.288012142777299862e-02
-1.654587472979191648e-02
6.348151832712141396e-02
1.284965983021152114e-01
1.312042955828700563e-01
8.780968762357288515e-02
5.496555305649214462e-02
4.316254311599962423e-02
2.071566332774886499e-02
-1.349717920511932928e-02
-2.895748633364793323e-02
-2.067471020654217811e-02
-1.825648747651103382e-02
-4.414362051600744657e-02
-6.701712889779921911e-02
-4.365148316085196850e-02
-1.305968399389976012e-02
-1.054506208723383041e-02
3.494824890360734293e-02
1.343507140415672318e-01
1.789093979379205168e-01
1.468401238960019839e-01
1.019586111702915215e-01
4.725233169794453708e-02
-2.749192958515929083e-02
-9.333456181558391629e-02
-1.292395423662373033e-01
-1.295870787532135693e-01
-1.014625221918180054e-01
-6.234554026964762852e-02
-1.768382146112098749e-02
1.885869457250162473e-02
2.065148087436361260e-02
5.939464421035352618e-03
2.029847790047651507e-02
5.181827769312164628e-02
4.965156090031210001e-02
4.450886757863538670e-03
-4.004206792514736213e-02
-3.770799152453405134e-02
-2.184858945938394047e-03
1.143049311346947677e-02
2.656317036327786318e-03
2.234907940203595053e-02
6.958659808137665492e-02
8.538770396673751872e-02
5.453948011617892888e-02
2.365541038122123338e-02
-5.071361058813481787e-03
-7.758432514940527547e-02
-1.624811549606557659e-01
-1.881355045993772790e-01
-1.655922818320944290e-01
-1.168239402558670648e-01
-2.961036497481164820e-02
5.572211309167711402e-02
9.883668725471062011e-02
1.177289000688803156e-01
1.153016919344709013e-01
9.222080482150074587e-02
6.903233735994457332e-02
3.854937311966633029e-02
1.251492661561792036e-02
2.338229426680264039e-02
3.536105048584509830e-02
1.779616040430869600e-02
1.220462800611644451e-02
7.879688576638706546e-03
-4.140557882669362866e-02
-7.879840400075446838e-02
-5.036084275702527868e-02
-1.163251048566200409e-02
3.217427601384594688e-02
1.367579791137708001e-01
1.963583497161884850e-01
7.486388348178563135e-02
-7.724481134306088181e-02
-7.879049263559749494e-02
-4.928758352147379063e-02
-1.096586273544507550e-01
-1.762093865160202499e-01
-1.628729978529570299e-01
-4.126452334250109433e-02
1.276994220475710096e-01
1.741239975115468075e-01
5.976071962053880471e-02
-7.264076565713004086e-02
-1.419940555120566827e-01
-1.496830325391052541e-01
-1.071685934362130027e-01
-8.539319356792143823e-02
-1.122692472387978174e-01
-8.960444062396336062e-02
1.700121776310510244e-02
1.183462124024610151e-01
1.723881979203590875e-01
1.969670227812879149e-01
1.856646553176489189e-01
1.461913619469000780e-01
1.149487015853661309e-01
9.374286668823202107e-02
6.495814762514069696e-02
2.913855309218586070e-02
-2.487537658754875730e-02
-9.749016706506560825e-02
-1.424032824586586865e-01
-1.332955473408191649e-01
-9.610973169314898645e-02
-4.861523580731959282e-02
1.006854146561929515e-02
5.577173999832785167e-02
5.412327451191438488e-02
1.514437578919294695e-02
-1.925390361369885145e-02
-2.995643863533046722e-02
-2.118325014012006902e-02
-5.157665121029318591e-04
1.109194241394164532e-02
8.376490817724282709e-03
2.336224294024372844e-02
1.185530755471796843e-02
-1.141476072826260874e-01
-2.269782517387600174e-01
-1.436255396690818698e-01
-1.559254306785421221e-03
2.002197769276424857e-02
4.110769085500277226e-02
1.511194766501197384e-01
2.125583094904165971e-01
1.680445031936947942e-01
1.057596357706208634e-01
5.792224308127639359e-02
5.795061272988146633e-03
-5.933481825395584691e-02
-1.303121876084501474e-01
-1.475456793161879498e-01
-7.713196581181887279e-02
7.654719823362902964e-03
3.829860229483902923e-02
3.568521426893854487e-02
2.683174796776563106e-02
-6.698996029877873210e-03
-5.132696186586247628e-02
-4.407133847675097360e-02
4.953546221298696026e-03
9.096408316477832059e-03
-3.824579745560876404e-02
-5.785263369814151735e-02
-2.143198252518419694e-02
1.674940767409771950e-02
1.254028770912236218e-02
7.800537113917451609e-04
2.349828830987761921e-02
5.584560281959616290e-02
6.542342006661633347e-02
5.953322950855377549e-02
6.802071521963043432e-02
7.543024767063653824e-02
-1.202617158087928607e-04
-1.039925332360925880e-01
-6.178704385386661613e-02
4.576926844578770026e-02
1.973699561854598897e-02
-5.339527672185801627e-02
-5.159672189554566357e-02
-4.775584147006989300e-02
-4.892778623097560065e-02
-5.385756938090927211e-03
2.012811436271607496e-02
2.322675107957260232e-02
8.103037454114993265e-02
1.133156211272677433e-01
2.148965974354748870e-02
-7.114164992947788480e-02
-6.716643440386926844e-02
-6.053986179804600465e-02
-9.689508013627576299e-02
-1.163624485785289681e-01
-8.349564940555859183e-02
-2.528939601378346440e-03
7.490566192621672670e-02
9.246855864312841788e-02
7.759169326884936269e-02
7.912200116572874753e-02
9.154157209996642564e-02
1.086197237742677901e-01
1.301350069629794992e-01
1.162705578165910691e-01
4.376519988161692298e-02
-4.419279567984746998e-02
-1.110662739200254934e-01
-1.657799165474407033e-01
-1.921152375032525728e-01
-1.568885416280403899e-01
-9.939358778402379579e-02
-5.976121834576951508e-02
4.589705086676072049e-03
7.747892759902916260e-02
7.936198340849813515e-02
5.592926410967807155e-02
7.353195521644734223e-02
7.117641244529197830e-02
3.071254357243598243e-02
1.079620891731338135e-02
6.275494837683822866e-03
4.566704313308161955e-03
1.525485719788600980e-02
8.376136203180792675e-03
-6.166430769891854784e-03
2.297921159924847662e-02
6.160868325055483125e-02
4.435354192246739047e-02
-1.118040417108036311e-02
-6.300336235264258899e-02
-1.007589552385791537e-01
-1.134016661644529217e-01
-1.025695878186386745e-01
-8.386747263772242889e-02
-4.578348383468480026e-02
6.566875538381918703e-03
3.933219871407496460e-02
6.590593626754845391e-02
1.022575471238796052e-01
1.103707554733187324e-01
8.560586791765369130e-02
7.230944998431659831e-02
7.631775680379060400e-02
6.646688584279555889e-02
3.322416188891751804e-02
-8.346976601422324143e-03
-5.254884916385531290e-02
-1.034255008723397873e-01
-1.369579712305374897e-01
-1.164102008315132247e-01
-6.309084066048548101e-02
-4.226926421345505308e-02
-6.336144435002903641e-02
-6.998729619886451259e-02
-3.347423905353029416e-02
2.953744804347261527e-02
1.027653267357768324e-01
1.631762114558864551e-01
1.862325697542200065e-01
1.564094442626480508e-01
5.709812856006972470e-02
-7.964084975425618496e-02
-1.741603491934129999e-01
-1.890173780429224848e-01
-1.310971913509098585e-01
-2.751688541202751068e-02
6.332409663526714083e-02
1.156006796983076040e-01
1.505584343921328727e-01
1.571947691059223384e-01
1.119776264567987623e-01
4.400389753054823050e-02
-4.409175170376476369e-03
-4.784895698670124653e-02
-1.066639292149582224e-01
-1.352334954291728453e-01
-1.254599582320948814e-01
-1.430229688575331004e-01
-1.685615918753492481e-01
-1.272732280972175278e-01
-4.944524433327751600e-02
-1.706197534343496108e-03
2.534549955665314769e-02
6.484389169583815171e-02
9.945574883142187239e-02
8.063644186051742435e-02
2.804107006573478000e-02
1.654249680764618285e-02
3.355753835780293098e-02
2.528208130432038625e-02
2.734213177304008202e-02
7.149791852529172043e-02
1.014369733978871951e-01
8.905153610474669801e-02
8.424993649054243749e-02
9.709469997131196795e-02
8.395561193191400373e-02
5.609374072651748810e-02
4.237339620186432454e-02
1.385444900300233928e-02
-4.854577975616365670e-02
-1.187941294138998294e-01
-1.664940314837085877e-01
-1.678576098310603226e-01
-1.107767702059414411e-01
-6.995698925455139452e-03
9.150239358351189289e-02
1.149780778911008994e-01
6.841981823872970991e-02
2.109057990792681525e-02
-1.391931007421067477e-02
-5.939775156353477997e-02
-9.348383166802082256e-02
-1.026023021352073517e-01
-1.112276753864748641e-01
-1.124897950895139137e-01
-7.135382670658733939e-02
-8.005970500081401042e-04
4.282548607687348963e-02
3.405183168750162276e-02
5.172962710396529495e-03
6.875720259676212920e-03
4.645361781090091152e-02
7.877656126206307452e-02
7.703118669211068970e-02
4.988622571023027669e-02
1.154421026080254585e-03
-4.155720655664393859e-02
-3.908083213697510772e-02
-9.614996454595793954e-03
1.432028142026832082e-02
3.198221006878553679e-02
3.844686697779613888e-02
4.181472788966293652e-02
7.929925210063303032e-02
1.574574002627305291e-01
2.325353881272640144e-01
2.323482449848705833e-01
9.427646082891445733e-02
-1.408448903067084923e-01
-3.361625243987416134e-01
-3.940892145435848093e-01
-3.097440551153448629e-01
-1.589422286385557548e-01
-3.960285423600683197e-02
3.872134466332727981e-02
1.065098505039444587e-01
1.311400238643020411e-01
1.090144822135013375e-01
9.069791269820322299e-02
6.249450412108527309e-02
3.756535912365310814e-02
8.428467561234145866e-02
1.122433649418663332e-01
3.446768953581204331e-02
-2.134457831380674395e-02
-2.267334498353984831e-02
-7.790530097567985313e-02
-1.426875216850485850e-01
-1.250625443577746410e-01
-4.806728676201843520e-02
3.943574342719410875e-02
8.917618693500108107e-02
7.152947510479898408e-02
4.320756811195435032e-02
6.366414173105662544e-02
7.849960016123261330e-02
1.899484305566355793e-02
-6.603971071757423761e-02
-1.047047400310153892e-01
-1.007157532027404268e-01
-6.939317987227444640e-02
-2.503367591439701473e-02
-1.150025943516645721e-03
5.293858696336285752e-03
2.608808736893485775e-02
6.151765630510434846e-02
7.830430625110881837e-02
5.554574123524655405e-02
2.215618021326197506e-02
9.660827390159805808e-03
2.642485353969391965e-03
-2.052569710650025206e-02
-4.527207911428798859e-02
-2.187512365140050624e-02
5.055990569538634793e-02
7.040075777787566103e-02
2.870452965147020363e-02
5.648745285703107855e-02
8.720926394329199527e-02
-5.066306416589176631e-02
-1.807574231888944560e-01
-8.309410248227615259e-02
5.218714307339718250e-02
3.556519114189951591e-02
-1.658812473932155113e-02
-2.502698135941222937e-02
-5.466857804307422020e-02
-9.637479442970209309e-02
-8.876567615471671335e-02
-5.287609577458562277e-02
-2.340196584418964207e-02
2.605611537584160906e-02
9.722235503515569421e-02
1.328980600087509290e-01
1.058406816807916234e-01
5.189567609427928052e-02
6.901557545148176605e-03
-2.605866739496631029e-02
-5.159508979963126074e-02
-7.466426311624460577e-02
-8.963519259063858213e-02
-7.219994635130674854e-02
-3.376983206832838424e-02
-1.286446046461928519e-02
1.130895109167384498e-02
6.392759847060081047e-02
8.304728290182468442e-02
3.469354323776818738e-02
-1.448061152420771370e-03
1.103885710701760746e-02
-4.742587140463100717e-03
-6.520317438623909889e-02
-7.930589940130181037e-02
-2.641133177290678341e-02
1.212098683846643543e-02
2.020927180143752486e-02
6.611174208316614176e-02
1.524371638835955445e-01
1.979076193101224623e-01
1.639432537271499069e-01
9.573330342967875661e-02
3.585948465670618646e-02
-2.369497532954201527e-02
-8.674693543268169327e-02
-1.335739008872996458e-01
-1.593683850177257666e-01
-1.644564664470052617e-01
-1.486274818238588757e-01
-1.217930413778293558e-01
-7.428903303303222017e-02
-8.600928937531998955e-03
2.010810193293914583e-02
-2.066475096982409859e-03
-4.277161314919682156e-03
4.924792911671369705e-02
1.039505120202318528e-01
1.160369390919375188e-01
1.045255623502511361e-01
7.387693803808415005e-02
6.511487825426995682e-03
-6.634597631093208658e-02
-9.871813573944149267e-02
-8.090628613832240301e-02
-2.290533881341546424e-02
4.547530856093569274e-02
9.688365121301116545e-02
1.221363025434846622e-01
1.044758958992312442e-01
6.361079840258718199e-02
5.746548082827850762e-02
7.078179442092794038e-02
3.641987424500979509e-02
-3.431431747889363698e-02
-8.225057297812526924e-02
-1.081628256826782375e-01
-1.449046524479918607e-01
-1.866139826483903252e-01
-1.769638388961360109e-01
-5.395523256589564165e-02
1.182494283020958936e-01
1.715603072000425056e-01
9.453781315559280085e-02
2.612776759032994778e-02
-4.476124218154270418e-03
-4.258363498037006506e-02
-8.306742403430109056e-02
-1.337796128091253423e-01
-1.364586769802933475e-01
9.536645488401423315e-03
1.568437955528927119e-01
1.163092879629586407e-01
2.106111862974104770e-02
1.250340138036336313e-02
1.939572698128668241e-02
1.244386267173413704e-02
2.826502425527301077e-02
5.297282083041626732e-02
6.981772459185235646e-02
7.185955259872379985e-02
3.598951003325930736e-02
-3.584428349810083597e-02
-8.983858529347288346e-02
-7.885277639950320772e-02
-2.412490252203205315e-02
1.794896478650599009e-02
2.303982121487406845e-02
1.519959685226980085e-02
3.036504169148221757e-02
5.534093667274773282e-02
4.433886834871123006e-02
1.322962465806524351e-02
1.868165991712244026e-02
4.048475942242452108e-02
6.571159061277697354e-03
-7.987461700444001278e-02
-1.584892443241011639e-01
-2.134385314888380958e-01
-2.384007228068632522e-01
-1.891132932534115851e-01
-7.110412216375938677e-02
4.800023323851272672e-02
1.394651468453518006e-01
2.024463784298917157e-01
2.188481071699397151e-01
1.946623926882085631e-01
1.394262355556656618e-01
3.145573987061976023e-02
-9.579116701520709598e-02
-1.547609691328630799e-01
-1.660105403287859827e-01
-2.276878516289688181e-01
-2.941864097618731577e-01
-2.331169567640573592e-01
-4.206998045697986355e-02
1.752558301383028427e-01
2.847209413841795822e-01
2.283118311745206408e-01
1.529782513636182562e-01
1.679905139988117080e-01
1.543238564953998970e-01
5.765498695458632500e-02
-4.785327316268243175e-03
6.540983569814945442e-03
2.312915719638184570e-02
2.521107806599948847e-02
4.440852271753890912e-02
7.331406974338168514e-02
5.953230088617320059e-02
-7.376961215773213121e-03
-6.020961610544957321e-02
-5.810375342985870523e-02
-3.337255083161082964e-02
2.914060308840705181e-03
5.536735420952387104e-02
6.042998962662522733e-02
-2.589020992828012721e-02
-1.192069532467983500e-01
-1.413826657368320860e-01
-1.463451386919677466e-01
-1.625449368135024608e-01
-1.020882036250328473e-01
3.286035535961496362e-02
9.018255037756778281e-02
4.581026445707257755e-03
-1.131638874239726117e-01
-1.379784980474244027e-01
-6.836199477194745966e-02
-1.096751638641469892e-02
-3.209988172455138095e-02
-7.515492152556152439e-02
-8.683574086254977620e-02
-1.043434818549296567e-01
-1.428331439446812734e-01
-1.323155828280092317e-01
-3.688117869758648915e-02
7.836360480124497652e-02
1.562809912310165195e-01
2.067886702226490736e-01
2.325693898185460795e-01
2.183156980847134887e-01
1.802000603015770641e-01
1.530128337875158728e-01
1.501830200603517518e-01
1.323666816815190217e-01
5.430554133138754125e-02
-2.958734268538855405e-02
-4.106046612068275925e-02
-1.683084408777198171e-02
-9.909897471871570440e-04
4.015351204600208640e-02
8.071055175597754983e-02
4.891946734503137273e-02
-6.603747176589408116e-03
-6.364546413261482766e-03
-7.611067319928454394e-03
-6.390270704276589109e-02
-1.048427087601336016e-01
-1.067050904788050952e-01
-1.201950631022274119e-01
-1.229220350406262235e-01
-8.546286059391511314e-02
-4.525563427427643087e-02
-2.034762174169523277e-02
-9.210909957125281572e-03
-2.249014840541960561e-02
-5.295032075741261390e-02
-8.348476106086299975e-02
-1.003191373059713898e-01
-9.874819232786660739e-02
-8.437897220879392313e-02
-4.570309180423094003e-02
1.269411122878427028e-02
4.589425211619046346e-02
4.365048834417622342e-02
2.506995591483256181e-02
-1.599548060908841107e-02
-6.136079803089392742e-02
-7.239585424219131815e-02
-5.370024982105410516e-02
-1.839304537095745595e-02
3.223058978305317485e-02
8.171252373303639072e-02
1.257299148614416939e-01
1.663825276366778794e-01
2.051746663977205287e-01
2.645586059029481629e-01
2.713488443435216335e-01
1.097676682565550121e-01
-6.491708700697408629e-02
-2.507976806412308413e-02
9.853968286259676135e-02
1.051909598123265954e-01
5.654240527904311198e-02
2.906072337150073653e-02
-4.096685825167156042e-03
-4.916646467290167188e-02
-1.075032443084192324e-01
-1.820446439503127234e-01
-2.416177358181277879e-01
-2.640163819230611497e-01
-2.410426240814585452e-01
-1.477351659322366784e-01
-1.688105407553087273e-03
1.032516352621942191e-01
1.107317450338216602e-01
7.307803125045420067e-02
4.475407591674882696e-02
5.354040188212148138e-03
-5.835444953698257220e-02
-1.030057253669091205e-01
-9.699695096980789910e-02
-4.550472937525399525e-02
2.741529752711315687e-02
7.079121349808213670e-02
6.612473786371801665e-02
5.326234516210821834e-02
3.589942081952875175e-02
1.758196475929497266e-03
-2.644428680768588086e-03
3.264224176363269420e-02
3.341703786181655228e-02
-2.318354611501053514e-02
-6.401682366968441951e-02
-4.995306724665510290e-02
-2.570176787951622063e-02
-2.593477413895238851e-02
-2.269538415180854043e-02
2.920743708899126503e-02
1.047713318155660545e-01
1.147546058780560541e-01
6.085061419293443657e-02
5.018835282929055147e-02
1.046919564939834124e-01
1.351346553385689431e-01
1.055924407359349476e-01
7.775671069300403582e-02
8.091025218889706661e-02
4.051500311954906591e-02
-8.174965220232020824e-02
-1.905617713469250074e-01
-2.104006138264703507e-01
-1.513471997908776845e-01
-2.120271529566743196e-02
7.671323223944268022e-02
1.456826569040974712e-02
-5.037819692658694615e-02
5.169490987881104893e-02
1.351530345428175184e-01
6.047723566319336552e-02
-2.357483423778498899e-02
-2.954532031879161802e-02
-3.300849708602449778e-02
-8.200882900359417194e-02
-1.385213597002387109e-01
-1.593784608923470292e-01
-1.346308295593718896e-01
-4.422355135665043818e-02
9.052467355533191928e-02
1.696864697676328249e-01
1.429705465144047727e-01
5.037247227331141664e-02
-5.418830012635622584e-02
-1.259301574465241380e-01
-1.500555800218147939e-01
-1.367747986878973254e-01
-1.038560768274756768e-01
-8.799569295227624433e-02
-4.135864388818726728e-02
1.188540996175965481e-01
2.241014175796771091e-01
9.442359063551941656e-02
-4.237342551268023089e-02
1.030973359400567946e-02
6.155015709738684282e-02
4.945729316447633472e-02
1.305598259812883188e-01
1.887745761649399778e-01
4.566947808689381105e-02
-1.063441258682300550e-01
-4.207313651717266290e-02
1.332802870479664059e-01
2.115768748855687831e-01
1.465331888411985084e-01
3.205710022846312152e-02
-3.986449201157798994e-02
-6.914083180350352742e-02
-1.039789318005113483e-01
-1.488652099497040915e-01
-1.527739580687585697e-01
-8.984587310462983922e-02
-1.755947164719098841e-02
4.352046558502402351e-03
-2.097447574151846406e-03
-1.378311564720015661e-02
-5.640979226659413592e-02
-1.049219412695705095e-01
-9.216740525755770519e-02
-1.624517246844007015e-02
8.212038640608915196e-02
1.469672691053742208e-01
1.158957574549638048e-01
3.043367763299429860e-02
-8.416292588424379231e-03
-1.822916126675577092e-02
-5.312593813126354619e-02
-6.992770934544563499e-02
-5.216112029549336421e-02
-6.564411542337053596e-02
-1.164342218372188681e-01
-1.237023386120574414e-01
-3.417053890073264849e-02
1.054692665127571621e-01
1.886603412037595184e-01
1.914614663395184102e-01
1.795991489639932048e-01
1.085036270148328069e-01
-8.979113146231672282e-02
-2.426492537076054834e-01
-1.924538667172656925e-01
-7.436013435417031248e-02
-1.342331730200865825e-02
4.019230327654788743e-02
9.949413854088585973e-02
1.163568837938168399e-01
8.842563791036824050e-02
4.312861175977700939e-02
1.293076888815552355e-02
2.450898246112204887e-02
5.147152560431702412e-02
4.965619887500556662e-02
3.096297551958207897e-02
7.516141791992130353e-03
-4.679079429591196521e-02
-1.071704155517142210e-01
-9.692434443550794476e-02
-1.723064857374729739e-02
4.006697675450678758e-02
4.364542008566171805e-02
5.381976323724645822e-02
7.970568057478472079e-02
6.088802110616356456e-02
-1.684135074025109105e-02
-8.993325707837986072e-02
-8.021875867549323191e-02
5.774964165871051755e-03
5.941319723483196036e-02
3.451683125255015222e-03
-1.195375089222069365e-01
-1.997829441457045496e-01
-1.659192612026318403e-01
-6.911367714169887322e-02
-9.173354985332999104e-03
1.228256509524854739e-02
4.003641375916909551e-02
5.064457167471123067e-02
2.223236568853666911e-02
-1.982114784655162124e-03
-9.750699492629900239e-03
-3.521938964877341371e-02
-5.308211352499753871e-02
-3.167366148358403272e-02
-1.478396622194092652e-02
-3.460544070034646778e-03
4.968638085016286593e-02
1.226221578411133689e-01
1.874798961490934390e-01
2.301872867394162414e-01
2.004848708770969046e-01
1.221503272576145438e-01
8.011845884057969269e-02
6.597113501269318003e-02
1.764877169893812672e-02
-7.400120193740299113e-02
-1.585687801020530530e-01
-1.697744965403042150e-01
-9.829181051206190012e-02
-7.234567751914772540e-03
2.857655490126402575e-02
-6.720442815011223522e-03
-5.604215303372912099e-02
-7.499933817248594092e-02
-7.549970225942685687e-02
-7.457612616041836562e-02
-7.396222070558453043e-02
-5.648057705576966375e-02
-1.252683725423607217e-02
4.141964573005849082e-03
-3.993148849376872839e-02
-6.097704154242605812e-02
3.774219462994081106e-03
7.777407783314037315e-02
9.275313749502774041e-02
9.371335182005424702e-02
1.108046422385821905e-01
9.661130353149330330e-02
2.947439184205114665e-02
-5.261630042276990021e-02
-9.119994366129538510e-02
-4.287251222280720475e-02
4.944664564532798290e-02
9.575303764515305516e-02
8.162759763173216276e-02
1.638891661732379615e-02
-1.047986034697667157e-01
-1.967895890803131875e-01
-1.739736412199234528e-01
-9.187707157110582001e-02
-1.907859631895645128e-02
4.476381869736545394e-02
8.321261022582937539e-02
8.406443981584682534e-02
7.835776663671445430e-02
8.906172922055644037e-02
1.082850230761727428e-01
9.821102627802189011e-02
3.342172336198447752e-02
-3.119399643126862312e-02
-3.212386962905683374e-02
-1.141870139311492588e-03
1.275927186119804949e-02
2.060369479417970343e-02
2.458181943252253643e-02
1.150404101652797821e-02
7.143319779202976852e-03
2.309115187755072379e-02
2.973894758351476597e-02
1.863862910507142756e-02
-1.067414139281734620e-02
-7.208453811795557942e-02
-1.349313858622850359e-01
-1.459442719561507285e-01
-1.124732170286293909e-01
-8.021551301228899145e-02
-6.476796343494403696e-02
-4.580730038003771876e-02
-4.302518624895626531e-03
3.798641549558635921e-02
3.840535439219724956e-02
8.479620353364259941e-03
-4.503883228683778703e-03
-6.422180467675829910e-03
-2.222927468234786944e-02
-1.755078099552948023e-02
3.678345230815518313e-02
9.096590050484315571e-02
1.035146830398090551e-01
1.006318398230282019e-01
8.801588334697856009e-02
4.412809717569234069e-02
-2.424556077321071007e-03
-1.086297229079731183e-02
3.120496639075816953e-03
-1.376547727038932543e-02
-7.650588048075640524e-02
-1.120413828667179285e-01
-6.145753881588494894e-02
1.264621462603160440e-02
4.946048234351570899e-02
8.129697388058615415e-02
1.084293606540410460e-01
9.424033302348842900e-02
6.950012932637149310e-02
