1.249644112040620841e-01
1.472878591536517789e-01
6.116970216202880645e-02
-4.330660277528430857e-02
-1.222643918658890549e-01
-1.481583655320629911e-01
-9.055999910975565115e-02
1.093620850209753304e-02
1.116665653486465515e-01
2.027548154953985604e-01
2.369161441529145928e-01
2.043084687242288644e-01
1.850316108202377796e-01
1.843186245792611533e-01
1.223260301179419640e-01
1.503669608063502167e-02
-5.152748615278721772e-02
-6.065832735702569173e-02
-4.316605593819933945e-02
-1.458128708622381114e-02
2.307173076146746063e-02
8.629137566287292671e-02
1.734583577090131057e-01
1.947527506441241174e-01
8.850043440854059307e-02
-2.888937338894084078e-02
-3.823876039382183983e-02
1.003345093988584902e-02
4.140329529651638057e-02
5.292979819616239201e-02
3.898169339168315595e-02
-2.820955702329509471e-02
-1.464755844317513489e-01
-2.390410741465059663e-01
-2.559864337993446592e-01
-2.812232498834097427e-01
-3.106569414885415048e-01
-2.002997613841054625e-01
-7.708835112047067450e-02
-1.958544272273872733e-01
-3.630140465217396861e-01
-2.806825255174558165e-01
-1.233339285448421252e-01
-8.370401538337515768e-02
-5.488409855790188363e-03
1.416229569017997680e-01
1.852031750510843566e-01
1.383318873439634000e-01
1.000488700291702615e-01
6.464203113187332039e-02
4.442557046110925945e-02
9.153803740007304679e-02
2.082288637128869857e-01
3.337121004625981380e-01
3.707186324490009399e-01
2.896465325489053777e-01
2.003368306888209383e-01
1.562153856756528236e-01
7.920871380310987031e-02
9.371423963652494860e-02
3.632406384867267191e-01
5.763756595331799293e-01
4.426545455347513092e-01
1.817313091253599522e-01
-5.482067669768274365e-02
-3.323074301856451251e-01
-5.542493724319849102e-01
-6.254072472552363315e-01
-6.108397882451082062e-01
-5.573459125564186323e-01
-4.634183079687355655e-01
-3.561385376032449313e-01
-2.376898474552823215e-01
-5.576262566940212717e-02
1.550114099040997839e-01
2.525886064729985225e-01
2.153587190159046982e-01
1.753831393141060402e-01
1.858972356358064293e-01
1.774915088915963168e-01
1.125988686340758382e-01
3.018940057006781405e-02
-3.052759192907953528e-02
-7.730531015693478669e-02
-1.314218818055521987e-01
-1.781364826571651128e-01
-1.766101949731476717e-01
-1.213435524535875637e-01
-4.788149235178450203e-02
3.474114074498994842e-02
1.291499175628317009e-01
2.060448806558386470e-01
2.618374999778296797e-01
2.984527834845775995e-01
2.752201005189880423e-01
2.183988793072180468e-01
1.939762286301231209e-01
1.764798196193143875e-01
1.534261898351031161e-01
1.247947697856552629e-01
8.217843675396026282e-03
-1.413887132777990330e-01
-1.599929251080460246e-01
-1.163838185627607685e-01
-1.556373706228891263e-01
-2.310403730949307510e-01
-2.797917518889321276e-01
-3.221463783396755765e-01
-3.398894303608733791e-01
-2.829206012306796914e-01
-1.611407581744998263e-01
-4.132405536533453189e-02
3.964655781643796478e-02
1.042507577664626706e-01
1.576796372506757971e-01
1.728502381809681743e-01
1.638877762522768511e-01
1.575194181776123359e-01
1.302555757558805372e-01
7.665648831642518646e-02
4.464382208074137159e-02
3.996853715523409484e-02
1.052290904435816514e-02
-4.470862027456602023e-02
-5.129485628802252228e-02
3.244433287745222827e-02
1.471865783591701504e-01
1.975808930119062612e-01
1.571565398090127574e-01
8.765946477063150943e-02
5.141530965943567205e-02
3.037321567633413308e-02
-2.411831874226265382e-02
-1.030569311186500525e-01
-1.671235093468937394e-01
-1.963514621897521906e-01
-1.844348266911799150e-01
-1.540354950045262072e-01
-1.372425040207065072e-01
-1.270160976229378902e-01
-1.108451874402399534e-01
-8.386010208614046169e-02
-2.805430276226835232e-02
2.916548425242635259e-02
3.425560289978774736e-02
2.805034618863237045e-02
7.678124190552394757e-02
1.200800414266648686e-01
9.098397044080108742e-02
6.694089581347162365e-02
1.114355256708323555e-01
1.506645937174858063e-01
1.323315412960883175e-01
1.026341396804703598e-01
7.879971025998862288e-02
3.368057670728201447e-02
-4.074846175019426059e-03
-1.423017186461501132e-03
-1.063901015401441316e-02
-8.107165847090878896e-02
-1.765622484082821630e-01
-2.381053472380799119e-01
-2.456103837850116822e-01
-2.011386610262485830e-01
-1.007453767395986299e-01
3.724841708954022140e-02
1.483918461728330196e-01
1.845039884561207877e-01
1.655063906695294906e-01
1.289911966554604383e-01
8.225066037777013783e-02
4.198968102674264374e-02
3.432140300040481540e-02
2.711302610323776396e-02
-1.977139435917865673e-02
-7.132784613611976854e-02
-9.654764104324133067e-02
-1.013683396062141084e-01
-3.129734523765827919e-02
1.322735426526657487e-01
2.347696342925311985e-01
1.746010169962475822e-01
7.450440002505996639e-02
3.796603404748516430e-02
8.328555964406769360e-03
-6.786876100361469155e-02
-1.502122317981511856e-01
-1.826940619250538578e-01
-1.757858503509992787e-01
-1.714144136729042756e-01
-1.571280007296853853e-01
-1.073585867594639143e-01
-5.877284382097422433e-02
-4.000365629497047715e-02
-1.909222351366668055e-02
1.923643547720630537e-02
5.135913339643788378e-02
5.567640685355108865e-02
2.746625901071841208e-02
9.959987744512215774e-04
9.311097011694989545e-03
3.877163880125403250e-02
9.123793384416979679e-02
1.636436400363145971e-01
1.815547146672301937e-01
1.195455488903332530e-01
7.291690777284125236e-02
8.922812673203586731e-02
9.029910325137843752e-02
2.883691398065693634e-02
-3.554902903377281376e-02
-5.201970452925149674e-02
-5.666754709312225163e-02
-1.116433671358673385e-01
-1.999209802985469075e-01
-2.240200975523874150e-01
-1.514130587987150833e-01
-5.600835214976337267e-02
2.889359522086949392e-02
1.134358255712774044e-01
1.484930309103782153e-01
1.166068400414029121e-01
9.406900257466505044e-02
1.073092941593126737e-01
8.955390668710153101e-02
2.671038983502966452e-02
-1.607878794927389277e-02
-4.043379036551895261e-02
-1.035218621635102532e-01
-1.600483479621019889e-01
-1.159471165384673291e-01
1.207002552307070466e-02
1.335172473181365227e-01
1.727383335959808974e-01
1.117010907565807731e-01
3.278133606500152619e-02
1.496658495595005675e-03
-4.125579533386744546e-02
-1.247540331641858319e-01
-1.717326486330802426e-01
-1.478292699126873833e-01
-1.051671126153640307e-01
-8.708853134797241158e-02
-9.396937535771766881e-02
-1.016335652318910293e-01
-7.709668470946977326e-02
-1.852989499544034982e-02
3.805958530643303167e-02
7.195235145526079901e-02
8.417085086799040716e-02
6.897161225860877487e-02
3.963952334521049503e-02
3.244570786062644235e-02
5.104786811991519901e-02
7.975741872139965882e-02
1.203694188628965656e-01
1.605257612365761921e-01
1.765210082052867668e-01
1.559050630138971161e-01
1.015957307588978009e-01
4.704229680709143963e-02
1.330890946201136044e-02
-1.356562548549408026e-02
-3.480494566443449039e-02
-6.267574346023527254e-02
-1.387922194992783631e-01
-2.456258987924275217e-01
-2.944879925168145673e-01
-2.449124529940290007e-01
-1.408764717163596969e-01
-2.281425386311859357e-02
1.014421192395614513e-01
2.017129783118467024e-01
2.291427667572518423e-01
1.917143169387550417e-01
1.605107278531734405e-01
1.629223460024089853e-01
1.347011165412319023e-01
3.962083687205517069e-02
-5.557284252301587790e-02
-9.025073882647771661e-02
-8.407214769548454480e-02
-8.504479968920364286e-02
-1.144597386793015092e-01
-1.306369455871073115e-01
-9.509491683916738991e-02
-8.560214301475720100e-02
-1.669713314186740405e-01
-2.424130303345701232e-01
-2.157319989161039786e-01
-1.165765059137683912e-01
-1.671727787894202594e-03
1.040027989244765305e-01
1.763480261481138456e-01
1.705265037379741777e-01
7.731148789670200250e-02
-2.242730096595856731e-02
-5.524984741861416887e-02
-2.822337629762847189e-02
3.379170634518399025e-02
9.227877834089751041e-02
9.433610760637109460e-02
5.429311621063052928e-02
3.805869060761275791e-02
6.014410568250123934e-02
7.734826692461740927e-02
7.811816061576185022e-02
1.007674042564222217e-01
1.311018373234708601e-01
1.051169968645107727e-01
4.371378090760270896e-02
9.755332738420764011e-03
-1.116468146644362947e-02
-1.960184752267781633e-02
2.237591179251507273e-02
4.853060826024176155e-02
-2.338843539119612319e-02
-1.279836544879365545e-01
-1.895619173087212672e-01
-2.237143272319757625e-01
-2.105632632533540882e-01
-1.144311762793340653e-01
8.891030788407824556e-03
9.817913786203515125e-02
1.503808864431506187e-01
1.572663015626902527e-01
1.175573768423857912e-01
6.065907570687007616e-02
-1.282922632690102274e-04
-5.086704447214784874e-02
-5.481317818122584395e-02
-3.279679081247310890e-02
-6.528559005031923934e-02
-1.506953503394430627e-01
-1.955230396075962884e-01
-1.719707623540330244e-01
-1.254606310416426784e-01
-7.219972312482271504e-02
-2.811975403435800630e-02
5.832790206699474400e-04
6.842462006005273212e-02
1.532185274864296398e-01
1.696266535292681454e-01
2.021661076550875236e-01
3.342859125018576294e-01
3.989090087189023914e-01
2.871431053240900977e-01
1.302009373261746039e-01
1.601137236082093157e-02
-7.768110143416662172e-02
-1.426283247851160008e-01
-1.678941141437600426e-01
-1.726984472540644688e-01
-1.670466290068166604e-01
-1.993097104546943110e-01
-3.082220172202981834e-01
-3.489646296305635720e-01
-1.966296419068563339e-01
-2.123822213892338079e-02
2.956119322884345757e-02
6.239241124297981861e-02
1.441674188387875311e-01
2.089882359839653203e-01
2.339784437186271659e-01
2.259513302198503104e-01
1.588330335299062424e-01
5.071830729465915538e-02
-2.489254974504578888e-02
-6.595135611959897226e-02
-1.497693133329852933e-01
-2.745458016171997695e-01
-3.342941412225564624e-01
-2.821334476208076092e-01
-1.873179339498141083e-01
-8.213802348027732236e-02
8.037606263596711043e-02
2.166711817196493584e-01
1.897140442756073409e-01
1.354717524350195212e-01
2.177783738399318714e-01
2.908234938159263705e-01
2.357324220290255012e-01
1.556533968929294798e-01
9.384810820819733390e-02
7.805649492112452792e-03
-8.968925086303475291e-02
-1.816651664342304184e-01
-2.097495185282357011e-01
-6.627718505112470404e-02
1.571814305664933353e-01
2.398069636498269264e-01
1.832066886195782285e-01
1.149566934871671109e-01
4.746457576869381884e-02
-2.371297459861748322e-02
-4.935459822932086044e-02
-4.122532407023576928e-02
-6.890266319193620592e-02
-1.379017212344753884e-01
-1.968135524510217227e-01
-2.311175970571439364e-01
-2.488463530602919027e-01
-2.365087037001031844e-01
-1.979437534030958901e-01
-1.543387687298145294e-01
-9.632533357251273076e-02
-2.612736085176479289e-02
1.130465516248020663e-02
2.018954519500213568e-02
6.570606176957692612e-02
1.373448094743041081e-01
1.573921863228692486e-01
1.403767960173978868e-01
1.557946444954628196e-01
1.903584147832444173e-01
1.992668627794239589e-01
1.745728400046170081e-01
1.235651622597955523e-01
7.144932890399689762e-02
3.561312508776660196e-02
-1.346252898346063376e-03
-5.353415109718220183e-02
-1.056999029799784995e-01
-1.332904975592439367e-01
-1.666438193688953850e-01
-2.453873382493403921e-01
-2.460847671599954989e-01
-5.417576966698134378e-02
1.371293196970209405e-01
1.510098613514774535e-01
1.216807626706696566e-01
1.323453667654037880e-01
1.005318470876379461e-01
3.657326305982234321e-02
-7.432382169041563263e-04
-1.218699881674086341e-02
-2.038208926300307672e-02
-5.645656772903055037e-02
-1.130267351856819869e-01
-1.337819310780668514e-01
-9.529882884708977542e-02
-1.497489733324587277e-02
8.178119281332327239e-02
1.470853977444335214e-01
1.488019144702474317e-01
1.056305411918088133e-01
3.823288958517603170e-02
-2.432889383340034253e-02
-4.232427476200670280e-02
-3.792298186738583821e-02
-5.456188191262100612e-02
-8.695400200819605740e-02
-1.147807702733903146e-01
-1.126145499645006126e-01
-8.066085979643425330e-02
-7.202408910469647318e-02
-8.669184449218517163e-02
-5.912094122431669346e-02
3.896953868832469386e-03
3.738311155454400458e-02
3.675053434440169603e-02
3.874007460836641215e-02
5.135958274374838317e-02
6.521235691870200246e-02
7.464998092156140130e-02
8.393574354980923302e-02
1.092200009513035197e-01
1.453754768063365010e-01
1.552477429720491853e-01
1.043640199038771976e-01
2.713805725883852368e-02
2.205477331038907529e-02
4.437775198632336326e-02
-6.124748246465186452e-02
-1.888740942239750531e-01
-1.492915645335029518e-01
-9.132596924781932746e-02
-1.657816789057723617e-01
-2.290028829406502431e-01
-1.937593974785287443e-01
-1.214599587043637408e-01
-1.072624388509941726e-02
1.208781169803267996e-01
1.857974148360438393e-01
1.886925951498704956e-01
1.892726927913003232e-01
1.726467510675823436e-01
1.147481916675410496e-01
4.099238183841080740e-02
-1.836117744521809092e-02
-5.085332768492251826e-02
-7.403345878287945214e-02
-1.121190995466524731e-01
-1.128787014811718642e-01
5.913721682978483052e-03
1.711547006065392285e-01
2.087236826163882397e-01
1.174467882659663009e-01
3.409852182829422457e-02
-1.231523382397263500e-02
-6.085078795800955009e-02
-9.806113805414141960e-02
-1.231039770376098075e-01
-1.501539998469247905e-01
-1.469135368009472919e-01
-1.047736369161463565e-01
-8.007567865124035067e-02
-8.967271166565968232e-02
-7.816523522708848648e-02
-3.212830435583147182e-02
-9.582538131453544050e-03
-2.864338613068768968e-02
-4.712265452031080826e-02
-4.432205203580889818e-02
-1.828172600414294108e-02
3.414663695132657412e-02
8.686723329456642884e-02
1.255098105520526808e-01
1.766795499635437638e-01
2.236241197861588148e-01
1.994903089754622438e-01
1.094425591657613994e-01
4.291040395366724908e-02
3.830415083903695311e-02
4.393419763627216812e-02
1.869115815485819163e-02
-2.204606218031944856e-02
-5.044622931270883320e-02
-7.647484670163158527e-02
-1.396332243330529466e-01
-2.150257405217693707e-01
-2.132625292231282166e-01
-1.286603418542186517e-01
-4.324810750497198181e-02
1.380753527362730063e-02
7.127683879582472071e-02
1.304239575654758676e-01
1.581716756347450736e-01
1.305419199343597625e-01
6.024423909315063108e-02
-3.525733154242430972e-03
-2.257427327961562119e-02
-2.387374661336374299e-02
-5.212043161917732925e-02
-8.543144582265770060e-02
-7.186006676345350896e-02
-1.608020466445516695e-03
1.056232044722082153e-01
2.004015947887747562e-01
2.096866443535731206e-01
1.282475697781853829e-01
2.343345602321439056e-02
-5.773589234862080977e-02
-1.082959340695723721e-01
-1.303678786973944126e-01
-1.222074382310583684e-01
-1.129951361461662002e-01
-1.398271637226648212e-01
-1.510821039305282332e-01
-1.039391060764324887e-01
-6.708580617688159053e-02
-4.275454825005427228e-02
5.126481437592853019e-02
1.642863985391219417e-01
1.815409583233138502e-01
1.270636380024081635e-01
9.372293428907774171e-02
9.675388801099685243e-02
7.820212096322089190e-02
7.526293960464661668e-03
-3.709329588301894798e-02
1.624500448592063398e-02
7.190265685602886814e-02
1.653026361361235874e-02
-1.228537739292532849e-01
-2.896741054065254950e-01
-3.855915746389393384e-01
-2.866972630929389143e-01
-1.012899085116421294e-01
-3.333880447238952993e-02
-3.442252220015298153e-02
2.278118195418440267e-02
9.510088114226122880e-02
9.264478517746192743e-02
1.901575914183665367e-02
-5.250663519158722814e-02
-4.930439738441230735e-02
4.157127920942305099e-02
1.500047075965865451e-01
2.016175154824980387e-01
2.049348159709498129e-01
1.854459685585679030e-01
1.428937559613465691e-01
1.175360532187506579e-01
1.320970374190376107e-01
1.215227368288902682e-01
6.255704215848906236e-02
2.476789209260010782e-02
2.197841580877087087e-02
2.298850241454059029e-02
7.191578287922625878e-02
1.592631892322684817e-01
1.465870747204787161e-01
7.815713431707645500e-03
-1.181290017603202624e-01
-1.720082566353797471e-01
-2.050627080240279010e-01
-2.131576356153589424e-01
-1.613176860199592999e-01
-1.046220524674301156e-01
-1.023222876885138410e-01
-9.505174446767625240e-02
-2.816313076769682774e-02
4.092877536856683041e-02
7.272412475058188941e-02
9.176666988853335316e-02
8.042058773108815006e-02
1.145439690364070950e-02
-8.507653551283558824e-02
-1.848559028789877323e-01
-2.773806541064808839e-01
-3.176302255499047211e-01
-2.728163285365873270e-01
-1.928771594847187298e-01
-1.639349478581026975e-01
-1.802633503015144412e-01
-1.919329013289501895e-01
-2.133729509845416206e-01
-1.592391657298946328e-01
1.061450756028623071e-01
4.062203450076755651e-01
4.879356530623342181e-01
4.556971410785423671e-01
4.635927713265765027e-01
4.274848644536686781e-01
2.947498589046807504e-01
1.708716834843280463e-01
1.439581042987150838e-01
1.894601051353999588e-01
2.374247480537132193e-01
2.892882871871291783e-01
3.831708221813053816e-01
4.032704392441428531e-01
1.908548379608788481e-01
-9.416325972793297694e-02
-1.910415418422109490e-01
-2.203444622151964905e-01
-3.955597559029053745e-01
-6.020670447389471214e-01
-6.849187562062248880e-01
-6.921750924686158601e-01
-6.320333912640264673e-01
-4.235779440828306153e-01
-1.572257088359291233e-01
-1.099510060274327961e-02
4.794530082115017189e-02
1.265321054544091273e-01
1.886760979077632405e-01
2.038893473053781935e-01
2.087378868699235057e-01
1.914133207361486400e-01
1.285978412563056894e-01
3.881102901032260771e-02
-4.743376739339796172e-02
-9.945682844178656279e-02
-1.179627014681262909e-01
-1.266123956356295377e-01
-1.113860703473851937e-01
-5.822783806151660135e-02
6.815284286257822580e-04
4.796100801879738668e-02
9.933883086037004206e-02
1.483963503570544240e-01
1.859158798734360241e-01
2.382726174491111848e-01
3.027292620005626600e-01
3.260636301148487348e-01
3.034481089987748348e-01
2.771970725109100253e-01
2.324141955793752601e-01
1.386811623417926187e-01
3.769523301670646420e-02
-4.063800213188391297e-02
-1.195524891128794120e-01
-1.836605828472828716e-01
-2.169197878593371875e-01
-2.600438558686105628e-01
-3.066004703669620302e-01
-2.926954754386333346e-01
-2.179259543191793547e-01
-1.299889200985070159e-01
-3.628469554272174824e-02
5.573693343936063360e-02
1.053002531232852812e-01
1.069110928583426878e-01
7.987487117573120743e-02
1.689098820663788997e-02
-5.970973525630464407e-02
-8.091735695956087104e-02
-5.041185075658523307e-02
-5.631338981539500688e-02
-1.038623191292738779e-01
-1.157611965871431225e-01
-7.426928703508972607e-02
1.799909843892500208e-02
1.541701194805137898e-01
2.411245899108519219e-01
2.223171398554402434e-01
1.666507197643348759e-01
1.139871100888810856e-01
4.744295163884701405e-02
-6.338862638827498508e-03
-2.380066982744032111e-02
-3.986184860998291668e-02
-8.390021576642452128e-02
-1.262703009812136123e-01
-1.252584948804943421e-01
-1.026194584884452948e-01
-9.908211115741331898e-02
-8.803692508485966295e-02
-5.487270135858996617e-02
-5.176797146503895469e-02
-3.771256994893431441e-02
7.545692352651911516e-02
1.611026497749417918e-01
7.861453432548232145e-02
-2.223051285313373468e-02
-2.867022907435384099e-03
4.812234340225642754e-02
8.176393327445165282e-02
1.324358181077496532e-01
1.527235525319617648e-01
1.044574465765119864e-01
4.827402325984661569e-02
1.106718607622742684e-02
-3.695527428083215243e-02
-6.718015579099091694e-02
-5.309548302813892062e-02
-5.164436521017232856e-02
-9.440243186275293352e-02
-1.480779197181409934e-01
-1.854239809616538004e-01
-1.713497266475535741e-01
-8.547887238103990537e-02
1.608280354589484984e-02
7.830444306675604649e-02
1.104160142236375319e-01
1.291682494905122824e-01
1.317750580173093766e-01
1.097686702008389970e-01
6.601860514417341730e-02
2.867741145042444068e-02
9.514726177374996027e-03
-2.431440242607943794e-02
-8.567667684318866494e-02
-1.250191611665958935e-01
-8.886686477139266183e-02
1.747747687061819433e-02
1.439209240585563876e-01
2.320358379204912058e-01
2.208393978208212927e-01
1.029225686893117941e-01
-2.663216091105972960e-02
-9.325986618125273186e-02
-1.266552871978319506e-01
-1.411077363629662795e-01
-1.189557206487169144e-01
-1.042229308165191076e-01
-1.171522175152433370e-01
-9.932658051168634372e-02
-5.500484524880983050e-02
-4.985380872778973071e-02
-6.505162842047733374e-02
-4.154490580425516943e-02
-4.736341716240540650e-03
-9.106752097119984873e-03
-3.819054556661803657e-02
-4.089276856845622948e-02
-8.732910654621665880e-03
2.797225057457577990e-02
6.283381502450105516e-02
1.250254292478319429e-01
2.013756416868389132e-01
2.296653886195269001e-01
1.989530002395269725e-01
1.445757049279098039e-01
8.365730450269796836e-02
4.193164860914757458e-02
2.743538086671973297e-02
-8.106566134648766908e-03
-7.298964816229154551e-02
-1.249137119402340401e-01
-1.667531638849326092e-01
-2.067341071050143586e-01
-2.120540315941794596e-01
-1.728985869862237068e-01
-1.026390945461590626e-01
-6.816765651629886139e-03
8.009321996087946649e-02
1.144220526225176032e-01
1.138436585809060597e-01
1.152914505528841865e-01
9.346700717072646547e-02
3.271159028089166976e-02
2.608441366941749526e-03
7.443271614409637318e-03
-5.466188253988348011e-02
-1.172431035088698781e-01
-2.165523872883332729e-02
1.041173758731785970e-01
1.022848524683012822e-01
1.045958240586867538e-01
1.500575770054290436e-01
1.082306696177172539e-01
2.241936767680337630e-02
-2.808017194351210277e-02
-8.423642011946114172e-02
-1.289845694810521082e-01
-1.087560573136222147e-01
-6.249051414747404387e-02
-5.810316338032957967e-02
-8.587371625822737276e-02
-8.385090621869840943e-02
-5.656974100426032104e-02
-5.105243189456162151e-02
-4.950981549969726836e-02
-3.490526471765588445e-02
-2.144464745015767920e-02
1.538553924146153148e-02
2.183371666569953323e-02
-1.068158165439570401e-01
-2.245984230147647087e-01
-1.158214131047723694e-01
9.949684343928329178e-02
2.094731000921379316e-01
2.297656442350900496e-01
2.269408312666434946e-01
1.808934410506141677e-01
9.090964774392390479e-02
1.554539235394719610e-02
-1.246962331232399912e-02
-7.186097377239880624e-03
2.218379740868096223e-02
6.082583541958246076e-02
8.432330332189878763e-02
7.460404775114831688e-02
5.691438383038921814e-03
-1.020704836082931555e-01
-1.599343285150039151e-01
-1.061544892504318327e-01
3.577485519803224462e-02
1.520392356335844020e-01
1.453936351238217239e-01
9.295678568681133014e-02
8.960216263586320840e-02
4.807198183013530052e-02
-7.666379601135252242e-02
-1.494461812258055522e-01
-1.255736898187239381e-01
-1.313028697549271651e-01
-2.113717465445482391e-01
-2.497127959210874437e-01
-1.687837760335195170e-01
-5.135809144574597640e-02
-2.007711611161173276e-02
-9.799779818355766614e-02
-2.153691569696275510e-01
-2.719259056491815096e-01
-2.005116181585669954e-01
-3.375851733777825159e-02
1.124222905766389391e-01
1.693389836573258311e-01
1.912689211894190167e-01
2.360766169407164106e-01
2.554308098574656904e-01
2.097548289979744018e-01
1.494375816346065478e-01
9.819883393265327332e-02
4.297117064009511878e-02
1.920849323030872358e-02
4.638894666410595807e-02
7.746728598317478842e-02
6.560331041328879009e-02
1.945858315495769403e-02
9.614736704692018743e-03
7.968681527179399815e-02
1.659885196350598113e-01
1.863654562893855837e-01
1.360769963146312711e-01
4.748517841881502721e-02
-6.184068955573910481e-02
-1.715323989603710908e-01
-2.489549646753943801e-01
-2.765546256885494936e-01
-2.482846722870661327e-01
-1.610525786358057709e-01
-5.256756679403693649e-02
3.464794201675218399e-03
-1.663733528421262875e-02
-5.271961500115084770e-02
-4.512930687462192447e-02
-1.053400177456043085e-02
1.500710735037812799e-02
5.841287269429677048e-02
1.310968479622339478e-01
1.515960381245493316e-01
9.419324324714652141e-02
5.622193844992622036e-02
5.204381126890876563e-02
-1.303171693445155654e-02
-1.371972466196698659e-01
-2.467946329554536744e-01
-3.239367335916786272e-01
-3.520010655717722980e-01
-3.112584272137565722e-01
-2.505063229827516613e-01
-1.667705038975908771e-01
5.127550089637077785e-02
3.340432587938866882e-01
4.284344906443749990e-01
3.706990556780280777e-01
4.125473329327756233e-01
5.154179477206507487e-01
4.983564256067704035e-01
3.915317055145334235e-01
2.958605043322371508e-01
2.223457432268692857e-01
1.446385027576803650e-01
5.516455645334329694e-02
-3.787779440700178579e-02
-1.593209400296544120e-01
-3.327130993245465129e-01
-5.032676720170655704e-01
-6.058315991040834625e-01
-6.498839392071911192e-01
-6.499014235324249711e-01
-5.682049964597536418e-01
-4.001633308064114769e-01
-1.943908630851425012e-01
2.317663415980762698e-02
2.188306109967405877e-01
3.436485313836979971e-01
3.990321503130881409e-01
3.948511907496249362e-01
3.250828205805189608e-01
2.112215133858768856e-01
9.281466291680999514e-02
-1.534463388222116059e-02
-1.470390933618289930e-01
-2.642465256705152643e-01
-2.375531356724716048e-01
-1.239369985803951968e-01
-7.956437527171644764e-02
-2.617488720241181038e-02
1.255703134886716199e-01
2.682439161967790087e-01
3.435396450660641032e-01
3.783412893220727824e-01
3.516560682415622585e-01
2.710056745891951113e-01
1.958252863420097412e-01
1.236802690783128517e-01
1.334494857827799724e-02
-1.181423309303643032e-01
-2.271746441559532592e-01
-2.899797474455403923e-01
-2.856706123774301331e-01
-1.936173139908807517e-01
-2.042906583385162289e-02
1.383869409162072628e-01
1.555299619631635710e-01
6.166264296820205687e-02
-5.088737022652356848e-03
-2.186045755548873815e-02
-5.516980478388743003e-02
-1.069450450191997137e-01
-1.352279588665730725e-01
-1.559035720672324044e-01
-2.019355175202845465e-01
-2.265145966827000201e-01
-1.807586169543858867e-01
-1.143407593115258053e-01
-8.664162522577967263e-02
-7.468930965034026315e-02
-3.138207881742518385e-02
2.686342322600429600e-02
5.459155517183438694e-02
7.840506189390389347e-02
1.408960301276870331e-01
1.921571206135859189e-01
1.901643891353950733e-01
1.822754302863792697e-01
1.860973238573797595e-01
1.708108275475201387e-01
1.640225164232946009e-01
1.886945910482870636e-01
1.674879134708355810e-01
6.430765542912640631e-02
-1.844324411186894219e-02
-2.610333687507815359e-02
-4.711030869275346922e-02
-1.384244053368359484e-01
-2.497260253917729933e-01
-3.307217216999072118e-01
-3.468215482775653946e-01
-2.574641963207682238e-01
-1.007907240238595376e-01
2.894122549806912165e-02
1.144985105073916265e-01
1.690285579502081303e-01
1.570057310336813727e-01
9.768617033776536007e-02
6.765656953361916248e-02
6.285951714230278431e-02
3.580979589027234039e-02
-8.493951262770620819e-03
-4.780430013152776186e-02
-7.274209918730960289e-02
-8.268406188880413066e-02
-6.187348070044792342e-02
3.011318121429127498e-02
1.584900024900387228e-01
2.084897288634553481e-01
1.465402535461097222e-01
4.189300132933172771e-02
-2.867615772817671757e-02
-2.765840201986132646e-02
-5.407113072872504755e-03
-4.334244623724854695e-02
-1.107556013567420339e-01
-1.169944931290908263e-01
-7.178455501110603265e-02
-5.701407375998038263e-02
-7.967290707667640248e-02
-7.233153954996364432e-02
-2.952447671499003334e-02
-1.543236969053163495e-02
-3.484714217933889552e-02
-3.183986878056951214e-02
-4.071238058560152848e-03
9.960323059428597553e-03
2.159707712709956276e-02
5.240222637915795123e-02
7.132988877464739585e-02
6.818964063577415136e-02
8.695621796430241801e-02
1.261243085876216086e-01
1.228551444150663696e-01
6.135413477585507924e-02
1.883680785158971249e-03
-6.977893181037381903e-03
1.510605844014934612e-02
1.856041795003868927e-02
-1.030650759420352787e-02
-4.214949537628655263e-02
-6.742674321680393323e-02
-1.195843868369328850e-01
-1.930996665109796784e-01
-2.048428877580001639e-01
-1.131750520386287095e-01
-4.494014171424753901e-04
4.818886519973422655e-02
4.914794940919652716e-02
4.958384167227684186e-02
6.835386097722026544e-02
8.289981614183306036e-02
4.675694887454191068e-02
2.890304801562233392e-02
1.192638941437947353e-01
1.398135235203187832e-01
-5.644239622918112431e-02
-1.909208466116162350e-01
-4.014452145849829040e-02
1.583866374248174003e-01
1.875628345303014810e-01
1.421824480210818198e-01
9.636883327200695959e-02
9.653631321349158412e-03
-8.599153886689192561e-02
-1.280467006693754572e-01
-1.482332674269251638e-01
-2.001673185432039093e-01
-1.951690150509790278e-01
-2.819708343803553965e-02
1.302970698741849065e-01
8.687104654296634587e-02
-7.761273864602208361e-03
3.276253416896469407e-03
1.681465947186664561e-02
-3.058446571658586521e-02
-5.982336073608794658e-02
-3.592476334716138142e-02
-1.010488093781528908e-03
2.172126284849675015e-02
5.806508882194003768e-02
1.068788644250012604e-01
1.254213038723196172e-01
1.321954892446156882e-01
1.801744755225073713e-01
2.194834403739207018e-01
1.574158418801002435e-01
1.362930854251689222e-02
-1.032346911900423880e-01
-1.247600510405363905e-01
-1.034251386071872864e-01
-1.296051172290263453e-01
-1.748561007808651091e-01
-1.783826640306289402e-01
-1.863516183112571556e-01
-2.327878404381232280e-01
-2.886879925539388436e-01
-3.431213076933305461e-01
-3.456312181671178929e-01
-2.358946278774943228e-01
-7.854770448194331456e-02
4.810949067721852906e-02
1.799174209917759337e-01
3.216904074433570293e-01
3.767643985300200837e-01
3.155633251537031114e-01
2.270781658378097367e-01
1.762324482489650568e-01
1.503643073421022103e-01
1.259657494346945183e-01
1.006346825408446499e-01
8.798146457691596867e-02
1.169694682190893786e-01
1.893865355756657598e-01
2.258836252543818812e-01
1.538816305206222868e-01
3.352610007481697518e-02
-3.279309384554534440e-02
-5.558907250485277396e-02
-1.089218067646657156e-01
-1.817475387938126130e-01
-1.853220931819068995e-01
-1.089927558861679691e-01
-4.494129295308638833e-02
-2.410172130907871357e-02
-4.219162336276744557e-03
-1.363786599708190217e-02
-3.479329989341181650e-02
4.706139104425912517e-02
1.175834860500455659e-01
-2.791063445994093617e-02
-2.268044218044382443e-01
-2.432856526194177582e-01
-1.718430319123964711e-01
-1.622461391664092034e-01
-1.788318181587071620e-01
-1.581068158931271395e-01
-1.205604982823003934e-01
-9.837702819310126245e-02
-8.297389998835746905e-02
-5.270108533237412990e-02
5.429058980241305288e-03
8.962294407163234888e-02
1.645084923784483899e-01
1.725595818180987173e-01
1.011605853933487398e-01
2.022570397168188538e-03
-8.647364949496647024e-02
-1.696817944587038773e-01
-2.383228774057222499e-01
-2.545587924278901459e-01
-1.900027862847900040e-01
-5.612798729841745465e-02
1.028860760552031961e-01
2.966147269770256223e-01
5.428983960393123365e-01
6.931264035574145055e-01
6.249842100843583381e-01
4.942283157425834128e-01
4.399049948433431112e-01
3.755093925237528718e-01
2.596161370375690280e-01
1.640604238334043841e-01
8.180704410866723730e-02
-1.423400839410393637e-02
-6.994874025660315076e-02
-1.028822699225001580e-01
-2.171852771200048215e-01
-3.920812251574733454e-01
-5.089079134962242179e-01
-5.337570496682085830e-01
-5.037287771491533173e-01
-4.745347873937454941e-01
-4.950019769682737492e-01
-5.085442714872802084e-01
-4.254823776993599260e-01
-2.933428609778067631e-01
-1.947609520113566250e-01
-1.228802994226957102e-01
-5.959783854245624679e-02
1.529047307314077009e-02
1.226866873642598194e-01
1.956349924481000091e-01
1.783911373672177891e-01
1.581765883307892362e-01
2.087808374766094155e-01
2.662416950509806091e-01
2.823768378238095123e-01
3.087453405500373838e-01
3.724632974900133342e-01
4.246730562648053375e-01
4.296777433710772254e-01
4.015533669380544346e-01
3.522494044462551877e-01
2.756408882612260136e-01
1.704113004002368870e-01
4.368214261391513420e-02
-9.049300925472583690e-02
-2.200212738619341524e-01
-3.317976576869977046e-01
-3.987866681062126051e-01
-3.991862038473651397e-01
-3.247679202937432952e-01
-1.927508843259440885e-01
-6.272856604878723763e-02
2.131884190813734814e-02
5.745131583412105281e-02
4.552702698323707331e-02
9.613304741801324826e-03
-1.329947880488364237e-02
-4.038335813870115587e-02
-9.195658782046325919e-02
-1.356047169841090305e-01
-1.565539530813884472e-01
-1.663658262737375548e-01
-1.370798722904021660e-01
-4.334831739942221485e-02
9.192865309672670904e-02
2.278180101479997388e-01
2.978480185636716571e-01
2.646903721507470331e-01
1.952277499370385638e-01
1.508454534369240152e-01
1.041237604408501854e-01
2.131047587065500876e-02
-8.534516732313626730e-02
-1.663703120697525850e-01
-1.762488471956344394e-01
-1.411181291607064847e-01
-1.317158428463485464e-01
-1.598979175261371066e-01
-1.722008231005171808e-01
-1.323303110872480759e-01
-5.259350471548583650e-02
1.663085002420909564e-02
2.120590925310973998e-02
1.636031256074016102e-02
1.148773213072074584e-01
2.355496854829265407e-01
2.122943573113097449e-01
1.024068083560099318e-01
5.904300145313866321e-02
1.053429779702260288e-01
1.706490931071077133e-01
1.646223223342008490e-01
8.715299494211221909e-02
5.262375792635947541e-02
4.850784663254234519e-02
-5.958055732443243852e-02
-1.701701011020709531e-01
-9.469628805744517708e-02
-1.923174331529054620e-02
-1.978164318091962526e-01
-4.249839801142200058e-01
-3.950668178970156985e-01
-2.029721166601197446e-01
-6.714814135506314008e-02
1.833320549990600373e-02
1.237893545387276362e-01
2.105390006767422495e-01
2.173526721229711578e-01
1.672580976467873404e-01
1.351953126712659436e-01
1.292907091765807537e-01
9.539172066718176746e-02
4.190424389487248241e-02
-2.134783761644266226e-03
-6.780145921531963160e-02
-1.117046893692432707e-01
-4.555579315391528050e-02
5.444521924887947562e-02
1.172415243912549171e-01
2.075567039868643215e-01
2.371931840175905415e-01
7.821990369313980285e-02
-1.083941329391104880e-01
-1.660674433058275667e-01
-1.678862113501801145e-01
-1.677271424331542582e-01
-1.577105321253813586e-01
-1.486909191806085051e-01
-1.145312959624001231e-01
-5.599014445542308677e-02
-2.769827899000145907e-02
-2.652762592096372454e-02
-2.918173248645168985e-02
-3.649025515752726823e-02
-1.639271463348405608e-02
1.891395394051027801e-02
-4.143144604565902195e-03
-5.042100115137956862e-02
-1.652138711722999156e-02
5.679005493238252489e-02
6.306661444391732652e-02
5.380130845360964198e-02
1.319708467767907734e-01
2.281409899378408213e-01
2.273262939186996567e-01
1.768772886537907651e-01
1.666518472322956468e-01
1.627977007640190599e-01
1.019112625276869522e-01
1.295715207161812765e-02
-5.597381131562268602e-02
-1.262539931986556008e-01
-2.272810552472899481e-01
-3.297453927556441844e-01
-3.723579241159151731e-01
-3.081046968830007393e-01
-1.508562605909387899e-01
1.860822004955501111e-02
1.391236961906993641e-01
2.084763894798653538e-01
2.181302238262879944e-01
1.672853786769571416e-01
1.100899281193229856e-01
8.053211641924812314e-02
5.658331580217600132e-02
2.248444986460568923e-02
-2.482004459103160157e-02
-8.795285793418840259e-02
-1.349275103004293763e-01
-9.985653283143851311e-02
3.477396004924793865e-02
1.734024860621279918e-01
1.996752560753431160e-01
1.220905203077245066e-01
3.572817187062959227e-02
-2.154492105471596600e-02
-7.155675295282355741e-02
-1.120449234294653013e-01
-1.337920411292622125e-01
-1.529986778801266656e-01
-1.611059381148730318e-01
-1.399058841642923101e-01
-1.208930461573467230e-01
-1.257255782893260398e-01
-1.220234615674305467e-01
-9.918162088056160786e-02
-7.165559891981089502e-02
-1.653627793425428705e-02
6.178878335696554036e-02
1.054057580738596567e-01
1.222777715342742433e-01
1.491167160363637278e-01
1.567028205536952767e-01
1.485576669571437858e-01
1.566947646744334122e-01
1.541993707237321876e-01
1.340652656558212197e-01
1.041257278724791457e-01
4.575817507228482212e-02
3.958319035523651802e-03
9.932113234960397719e-03
-5.645987495396437295e-03
-4.535276998707460372e-02
-4.223590614278965177e-02
-4.263569311803700607e-02
-1.196703959807048079e-01
-2.013852081372956848e-01
-1.870196960357080607e-01
-1.115577054940410512e-01
-4.996719472726558059e-02
1.952425778343171159e-02
1.241097992937237882e-01
1.907757000763198318e-01
1.591706288082050114e-01
8.689993091799988467e-02
5.493462949221199210e-02
7.048992905083703575e-02
8.342815080340187928e-02
3.474935503694545624e-02
-8.234515666642301668e-02
-2.045269147658069220e-01
-2.423641183558185030e-01
-1.398493559502109740e-01
2.774800182819949987e-02
8.912847357286679539e-02
1.757629956199479454e-02
-5.178139387604593913e-02
-7.081598450972212411e-02
-7.915352711054543522e-02
-4.653094556046438734e-02
4.010092917357564735e-02
9.608914076854005448e-02
6.867430302463262137e-02
-1.648688745907277847e-02
-1.082138441108825150e-01
-1.457384695572880862e-01
-1.196403303912626503e-01
-9.939652698526808827e-02
-1.298432677681411185e-01
-1.482675662379910886e-01
-6.490130077371206174e-02
8.720060777922311601e-02
1.856212365610401260e-01
1.904537685715434192e-01
1.515272948601470160e-01
1.091570115811061337e-01
9.165937034674151440e-02
1.058600542664498573e-01
1.024350304001106493e-01
5.711005879748684566e-02
2.695206974295806523e-02
4.120234092579485446e-02
4.755764379590533830e-02
1.909266605143129444e-02
-9.101179310449868110e-03
-1.690773781528707650e-02
2.962536080009306461e-05
4.990890364200342016e-02
9.194348352377421096e-02
6.898802399926659557e-02
-9.363044535580559991e-03
-8.373033260780370080e-02
-8.653626347975160171e-02
-2.476775816528244134e-02
7.814487715944978818e-03
2.209208698597934714e-02
8.222656627932956042e-02
8.779116172534193185e-02
-2.254262922374233521e-02
-1.116852749447822812e-01
-1.171986727008288570e-01
-1.245332954419976629e-01
-1.509852924572072375e-01
-1.490736649322475793e-01
-1.317345105498423652e-01
-1.196726082422030907e-01
-9.478350804963094067e-02
-7.666924206686366594e-02
-1.129844331654543538e-01
-1.744904956560034970e-01
-1.679887250066630366e-01
-7.510948272020585847e-02
1.033087183688891075e-02
1.889851122770503516e-02
1.935708628674778775e-02
1.305532229882483408e-01
3.107129075364518656e-01
3.849124049819494520e-01
3.390526667385566628e-01
3.247757225848884599e-01
3.645728636495066399e-01
3.564046814652760964e-01
2.936876806824623709e-01
2.373928116948021416e-01
1.641495306957843625e-01
1.076077347571788301e-02
-1.754083360459902652e-01
-2.999472310850943013e-01
-3.875811687892933843e-01
-4.473314029895382737e-01
-3.769868906051830892e-01
-2.404728778683585255e-01
-2.127092452936117650e-01
-2.227469596884378567e-01
-1.438306005337119386e-01
-6.997218519493550448e-02
-7.585862891106513739e-02
-8.376600663075535469e-02
-7.134925558547186575e-02
-9.793228287726227221e-02
-1.478307929590342296e-01
-1.487735099013339501e-01
-8.201435657637376475e-02
2.588468771094529913e-02
1.408147153993482004e-01
2.283826139237274955e-01
2.897732087912196497e-01
3.352047714410519297e-01
3.196951196503772241e-01
2.368643774548186420e-01
1.751015329837161127e-01
1.581792809447938042e-01
1.225720916549004058e-01
6.128900910161198118e-02
1.953378871571508080e-03
-4.991533933058633909e-02
-6.595256422108236594e-02
-1.506060594178786766e-02
8.574773921282533018e-02
1.637330121137482719e-01
1.391610387782855895e-01
4.280937674174543212e-02
-1.550910076478274890e-02
-2.450539255188449034e-02
-5.400612308354359875e-02
-1.068725995670883055e-01
-1.367604762679300312e-01
-1.500713351194182810e-01
-1.907456880316841796e-01
-2.562624384354862395e-01
-2.929520107953453301e-01
-2.713132507963347817e-01
-2.137950843521148891e-01
-1.429284089652159140e-01
-6.831838330378525725e-02
-1.964396071570814056e-02
-3.563252070134477478e-03
3.529647162126418186e-02
1.112611544544548914e-01
1.468187708062617114e-01
1.230871681629335662e-01
1.234487753733178317e-01
1.598120256601098799e-01
1.673105020753006822e-01
1.569567614873342287e-01
1.617559838967560226e-01
1.449841472227184069e-01
9.732387901679594167e-02
5.696792231711029358e-02
1.999850191450524423e-02
-2.058710528361153841e-02
-4.865487036929756065e-02
-1.014065542578543033e-01
-1.979768857771109780e-01
-2.392133387980874271e-01
-1.608574392979567058e-01
-4.791107408474964968e-02
2.803143027289694417e-02
8.956832313648716015e-02
1.324859982338865150e-01
1.273786754696656365e-01
9.906408181907058741e-02
6.989506387032777546e-02
3.899537035299981136e-02
1.882502962143902531e-02
-1.922496430032422099e-02
-8.946053934150521858e-02
-1.174916818679443836e-01
-1.047501621470945943e-01
-8.878996382955048339e-02
2.913326935104620929e-02
1.750303571763606181e-01
8.278889074899054012e-02
-1.098819750488470304e-01
-7.175717866427629155e-02
5.824912475969236392e-02
2.994461964742549734e-02
-5.515533205796878391e-02
-6.881414684721749719e-02
-4.982619127143880777e-02
-3.980370941998304796e-02
-5.231821630076381735e-02
-8.637283414434471229e-02
-9.173262873678075802e-02
-3.383925577230312981e-02
1.386714200103845648e-02
-3.032003859966348261e-02
-5.862003187219130135e-02
6.716441400238458426e-02
1.856630115950610727e-01
1.161603147964914845e-01
3.260726065162999898e-02
6.686131715487277083e-02
7.016739421343606842e-02
2.651199020631182443e-02
6.287020841217902389e-02
1.164351671858786519e-01
8.144847997624471425e-02
2.727694643249124057e-02
1.786792503581667232e-02
8.427320753775599527e-03
-1.500729640937319836e-02
-2.406718256094735747e-02
-3.196283708374694776e-02
-7.172184515402921234e-02
-1.488085132228475771e-01
-2.253911539683965404e-01
-2.406094740524958309e-01
-1.828354783590765698e-01
-9.438115523040538357e-02
1.869805751362408480e-03
9.746063953391712054e-02
1.650528749382152993e-01
1.872278461994432430e-01
1.677369788123812544e-01
1.246597831765411807e-01
8.549404299452467715e-02
5.321173182412188701e-02
8.911408712390721937e-03
-4.386001934404037961e-02
-8.036287049581135322e-02
-7.586911671278982749e-02
-1.100153620760640702e-02
9.385343810079269100e-02
1.633185063964453509e-01
1.453177118778377075e-01
6.526040903179286534e-02
-2.260099378332201120e-02
-7.379813421757994152e-02
-8.510780742268427013e-02
-1.173343963819491048e-01
-1.854542860202396393e-01
-1.991801283896705577e-01
-1.505031589486020005e-01
-1.557283926133048169e-01
-1.667543056828358905e-01
-3.024883671903531163e-02
1.215248811234472398e-01
9.112386172443306953e-02
4.013462730773284526e-03
9.126403369808196164e-03
3.958072317537836282e-02
3.661258962226689173e-02
3.104084866801271048e-02
4.149436214419409408e-02
5.627264473408700313e-02
8.440950787276188527e-02
1.408352676158007577e-01
1.723190514941176921e-01
1.306471571399813181e-01
7.824920124562102786e-02
6.958341913373763954e-02
5.981621817945356745e-02
2.588524420867532871e-02
-1.054752384596333026e-03
-2.726188934879571896e-02
-7.383499405211862987e-02
-1.290043301070114556e-01
-1.835332366774544144e-01
-2.361985140101307001e-01
-2.617399723422338398e-01
-2.160676328595743378e-01
-8.486827484021851331e-02
7.774139257590857721e-02
1.846470158174556842e-01
1.984561180466653252e-01
1.668905618167799698e-01
1.508403901443202966e-01
1.306451981917271798e-01
5.925600699362670171e-02
-2.760977006833286590e-02
-6.965970712729099845e-02
-8.272394812838748668e-02
-9.203577295339164521e-02
-6.365574967555429065e-02
2.223543761665149054e-02
1.233368583231250620e-01
1.761000871014876124e-01
1.449080667264966427e-01
6.421553448472727688e-02
-5.197980967659575346e-03
-7.040926045567402758e-02
-1.486448613664718421e-01
-1.771192537788803256e-01
-1.147570272917037837e-01
-3.089542713104122956e-02
2.873256876368201346e-03
4.186046333569011513e-04
4.931540133342116744e-03
2.749704649657165947e-02
4.152399126561198001e-02
3.208137187306599192e-02
4.812911116280897683e-02
1.159395372645316002e-01
1.456846383679855916e-01
5.733450250981569907e-02
-8.784869300776691758e-02
-1.874930970398297203e-01
-2.249998863039588681e-01
-2.120630895672057092e-01
-1.324175741781205839e-01
-4.145637904545651509e-02
-5.401957949146245219e-02
-1.489032980040110032e-01
-1.717827026531962564e-01
-6.156009671517510135e-02
8.379383734547715679e-02
1.550364268747896346e-01
1.382769194617338993e-01
8.005888019872435535e-02
1.255020712326038006e-02
-4.230835166626450983e-02
-3.549545090072078746e-02
4.310689158368069540e-02
1.091840665914473180e-01
1.091777007472436029e-01
9.461109612211331121e-02
9.026848989980716664e-02
6.233899696666601875e-02
1.644079830162335429e-02
-2.041959652068933706e-02
-3.229667107516688562e-03
1.147584276564903721e-01
2.249497423871736346e-01
1.882708167387627807e-01
1.016107841571433079e-01
7.469648978789883431e-02
3.576890136363460038e-02
2.811966711195862736e-02
1.778982501621361456e-01
3.148076070853785824e-01
2.344271971161857315e-01
9.338589558067690588e-02
4.356860163206004166e-02
-2.714158151320829326e-02
-1.677277678583404819e-01
-2.759187540619633672e-01
-3.010080473959477199e-01
-2.705158565548604899e-01
-2.380588899888866627e-01
-2.364468615491812920e-01
-2.389702284181320913e-01
-2.509526963026798008e-01
-3.251759536254165139e-01
-4.105085051487155079e-01
-4.117920647041936055e-01
-3.663453481344748353e-01
-3.221383704668675518e-01
-2.175144042654299781e-01
-6.210104431030032124e-02
4.658349703856390356e-02
1.525502990479623011e-01
3.653579508273046561e-01
6.083281049928441764e-01
7.198630143557431804e-01
6.907146750490038567e-01
6.060140155057338607e-01
4.948794389456849796e-01
3.656631718675429354e-01
2.366572757316470210e-01
9.134431078340718435e-02
-6.806363889580899218e-02
-1.923919259279272820e-01
-2.752420794721491260e-01
-3.357458352948171632e-01
-3.417631167641406176e-01
-2.846682971690956965e-01
-2.131139878698694867e-01
-1.349263764503138285e-01
-4.810297977889641668e-02
-1.073208980463441833e-02
-3.742985832967754556e-02
-5.410365939231273624e-02
-3.162896368380477274e-02
-2.659094704798406136e-02
-6.033323829282240258e-02
-8.165120638364710415e-02
-7.140464320281528221e-02
-7.086423236669227299e-02
-6.679620407504728574e-02
2.237793299527502527e-02
1.715218755791698135e-01
2.239082380649810022e-01
1.277013453484138195e-01
7.048541579863495943e-03
-4.813524007305241409e-02
-5.939516273066211549e-02
-3.499433290621873499e-02
2.932372241737689691e-02
6.883235472789146769e-02
3.938854155908252247e-02
5.472101502743611113e-04
-9.572589683211497197e-04
-6.092409447845146403e-03
-4.417863408918443202e-02
-6.842270172706411968e-02
-3.761945066154270823e-02
3.575260354620669878e-03
-8.024728832030500122e-03
-4.773194462194932375e-02
-4.164368218371389263e-02
2.046224878998983282e-02
8.098037789181397605e-02
9.697068454085022715e-02
8.441784111346342656e-02
9.734930580979810066e-02
1.452512432285945898e-01
1.597092856718287657e-01
1.097017402371374406e-01
4.543637167033801050e-02
1.639935422812759114e-03
-2.275654457179202353e-02
-4.922812971523204267e-02
-1.068783137015332230e-01
-1.721837262315378259e-01
-2.165164099544235332e-01
-2.572847974318610564e-01
-2.521002404539517405e-01
-1.440658556403717483e-01
-1.593388767305729814e-02
3.835484893051074179e-02
5.420452343684655644e-02
7.013064059546937623e-02
6.572048642785632833e-02
4.605388815345704684e-02
4.634841160176676744e-02
7.751873769223086019e-02
1.138590721057543831e-01
1.198759121228263058e-01
8.219791715530232190e-02
2.109308436904138925e-02
-1.579710920303140781e-02
1.585016119588096919e-02
1.027954306124021083e-01
1.668638407112427169e-01
1.512839097124157872e-01
8.629733349543786125e-02
2.499988668590074486e-02
-2.659783536163441361e-02
-7.441127040693558403e-02
-1.002484906065262416e-01
-9.785184035826613447e-02
-9.943687871372344778e-02
-1.216051314498468316e-01
-1.343107691437524509e-01
-1.251392510466265706e-01
-9.910421969465051106e-02
-5.103023330697614018e-02
-3.175823590671324886e-02
-5.092770596282886197e-02
2.295273655173075966e-03
6.758852567797715705e-02
-3.443135430139547537e-02
-1.563357595020651025e-01
-8.488687241670288264e-02
2.098800061098986952e-02
1.478476835534908718e-02
4.058825509802695131e-02
1.521574609904520203e-01
2.060836808921834573e-01
1.693841183739534240e-01
1.429230574746432336e-01
1.516613350708106989e-01
1.299786792672325553e-01
5.974965511190356848e-02
9.281851262951966441e-03
1.144539492348220500e-02
-1.132224293164974666e-02
-1.137529475596308903e-01
-2.213137590724464920e-01
-2.551183283312016270e-01
-2.211219532731487913e-01
-1.371177490545092137e-01
-3.687457318945112916e-02
2.415068467835341376e-02
5.954610347308084140e-02
1.088225875412083266e-01
1.517516357775256231e-01
1.683857761825913457e-01
1.546967538272161213e-01
8.406581626979398036e-02
-2.055042641976023016e-02
-6.990589635940296087e-02
-4.579112606512639183e-02
-2.028070845840785480e-02
-5.322979377852672146e-03
5.184360328116285194e-02
1.253995716215952072e-01
1.383420862824043529e-01
9.010724582800358484e-02
2.547174928250560411e-02
-3.441815975731030153e-02
-8.308037501389051172e-02
-1.264216430973451322e-01
-1.576238327930397920e-01
-1.530596391679529267e-01
-1.316516403727877871e-01
-1.148047424317699128e-01
-8.226729197047538689e-02
-6.202277743657369502e-02
-9.883968611294172146e-02
-1.282461831985257095e-01
-8.115546465196496473e-02
-2.333515607387259827e-02
-2.100416433380295628e-02
-1.409580659817527906e-02
4.737105716861968185e-02
1.035826215399862360e-01
1.196349515528199459e-01
1.639631236811035231e-01
2.598138141037886761e-01
3.032831717131266314e-01
2.374596244485940033e-01
1.544053921544511210e-01
1.261959255945074299e-01
1.082103063102394236e-01
5.686987766385453308e-02
-8.284432418613672799e-03
-6.682659740980263774e-02
-1.416897243652802951e-01
-2.567829012707730785e-01
-3.671173032756781529e-01
-3.790680401817357326e-01
-2.546396286596926961e-01
-8.681525516245185148e-02
-2.547371518765717546e-06
3.290092670106056771e-02
9.536256820709398951e-02
1.384339261669964849e-01
1.112976840230361086e-01
7.519957496622402260e-02
6.408929296518312002e-02
5.659231421328639322e-02
5.726002241295154171e-02
5.292123749059652466e-02
1.021123586732953711e-02
-3.450174716829350341e-02
-1.729072357762951109e-02
5.277289231273145365e-02
1.246439804106056204e-01
1.460826920836909015e-01
7.233803957431791942e-02
-6.720519384883812640e-03
6.510434303619339058e-02
1.605489766918011263e-01
4.507037061672990869e-02
-1.483076227428467841e-01
-1.861055346838465518e-01
-1.364476850837747224e-01
-1.361236400032093119e-01
-1.639624644137153142e-01
-1.425315209261305283e-01
-6.582299799519022998e-02
-1.726309436917598458e-02
-3.848815114281441130e-02
-7.140359466170356773e-02
-7.990581074602501332e-02
-5.873566743968534898e-02
-4.825867207531787939e-03
3.339466311600079729e-02
6.080891222604489083e-02
1.260018423130761511e-01
1.497088398751644234e-01
1.008190796599460481e-01
9.624625916743094478e-02
1.276410305705565629e-01
1.032062111402052562e-01
5.978213853539685041e-02
5.843713851570733059e-02
8.016807742635433109e-02
6.890621841492841626e-02
-2.393102021401225660e-02
-1.719450843535255680e-01
-2.638616677321103943e-01
-2.408451479436458098e-01
-1.610155617254229732e-01
-7.379301639818491854e-02
1.711415690350068589e-02
8.682367941076167550e-02
1.311850364672353109e-01
1.635845879099309119e-01
1.544643032731295162e-01
1.038538505620275748e-01
6.084590271189797839e-02
2.192127430863452173e-02
-3.447968589837342723e-02
-5.711401186927625440e-02
-2.386892740774826036e-02
-1.527617626671790366e-02
-3.451028487589672539e-02
1.535597414351415509e-02
9.736688919107372442e-02
1.104287665326905143e-01
9.281171151927369856e-02
7.993235856554575802e-02
1.129642477608279634e-02
-1.034852281236703503e-01
-1.711957532209433808e-01
-1.661272595197833546e-01
-1.365642088744906668e-01
-1.016502738173843678e-01
-4.960293120477791973e-02
1.306200323166913091e-02
7.079593147093263261e-02
9.966792950863717637e-02
6.896332485750819585e-02
1.474965712575160293e-03
-3.033500300466874036e-02
-1.276610424060309161e-02
4.709224275924385472e-03
8.307797810300200647e-03
9.801154299434082853e-04
-3.042934496704880615e-02
-4.350274068590943843e-02
9.727578842821736627e-03
5.889700955332064641e-02
1.725350015785770061e-02
-7.350310332077986120e-02
-1.512295125930544770e-01
-2.273500389900696139e-01
-2.782342634809077397e-01
-2.353609686593622075e-01
-1.055728960947228956e-01
2.899679687401689188e-02
9.694348046153702936e-02
8.908067822651960510e-02
5.797738944110058384e-02
5.152146017487806151e-02
6.607748123258151696e-02
9.265475101577144712e-02
1.435405368633255740e-01
2.076143053443613440e-01
2.402129988028285090e-01
2.179198253052343770e-01
1.568644619705570065e-01
7.627832485514221550e-02
1.905547580821902176e-02
4.453114991305654607e-02
1.100908976144157753e-01
1.007778353317182463e-01
2.082393911994450189e-02
-1.627523843476968990e-02
1.640557792070406612e-02
5.433710001043649124e-02
9.152097532593163332e-02
1.215718787516391342e-01
5.472148513854272617e-02
-7.453939072755355610e-02
-9.126040591312777062e-02
-4.318266852038069037e-02
-1.248518911977503920e-01
-2.442375571711843107e-01
-2.260041453193543659e-01
-1.496169478053404889e-01
-9.450399785809443509e-02
-8.154870959853768864e-02
-2.028448425260349075e-01
-3.393065262729979548e-01
-2.386356104714854320e-01
-1.546259896032152470e-02
3.381600344163696037e-02
-6.403809627436334029e-02
-1.145712595177179327e-01
-1.087692109803116286e-01
-1.214074006802084854e-01
-1.254152316224008412e-01
-8.928423110764198423e-02
-5.226740742996456579e-02
2.969158146526408582e-03
1.318171208864490351e-01
2.713642036875897334e-01
3.460526522445243058e-01
4.042010832925241881e-01
4.700291959942255460e-01
4.761502425551669693e-01
4.020982742603479987e-01
2.947057386857335204e-01
1.881098464151473859e-01
8.687191437263255822e-02
-1.667698304155253164e-02
-9.741064094004150964e-02
-1.150052888575162635e-01
-1.142406463060657712e-01
-1.597149773422057994e-01
-2.055926671747067280e-01
-2.035418094662325150e-01
-2.046696029387857774e-01
-2.362407681152990935e-01
-2.515300698843229710e-01
-2.366981454271625818e-01
-2.264569858972733385e-01
-2.334490041955599171e-01
-2.338179725942392262e-01
-2.093162035555128919e-01
-1.583611775826123669e-01
-4.979994192359059324e-02
1.200473261808697178e-01
2.483708460766235748e-01
2.747077304987742274e-01
2.566019736634823079e-01
2.206364625994227946e-01
1.712192213627221626e-01
1.404634551079506632e-01
1.025157325712615503e-01
3.814332126238874354e-02
-4.104191712804398928e-04
-6.364165802356783197e-03
-1.101990716506588003e-02
-1.344676576593639705e-02
-2.884107782544879581e-02
-6.135941600083129333e-02
-6.279115519697298087e-02
-2.869481308208056414e-02
-1.996213835011859464e-02
-4.300545262755647857e-02
-3.736788228847129356e-02
7.353859608577664742e-03
5.073840666535833072e-02
8.975354931724240093e-02
1.277846677361160754e-01
1.355642113559059614e-01
1.378876534775256013e-01
1.844140316413381830e-01
1.741315566637074985e-01
-2.194094208366907228e-03
-1.747927225779580540e-01
-1.676931830454175265e-01
-1.244740466351110242e-01
-1.875097620088477524e-01
-2.772035119696779071e-01
-3.175938191039059943e-01
-2.942846333758892818e-01
-2.032906961294176917e-01
-8.616397037568432338e-02
3.311123067067050368e-02
1.578953570861994782e-01
2.355060343408822421e-01
2.210680103849624878e-01
1.616842403419246899e-01
1.304997974352339329e-01
1.407743767842052351e-01
1.388465047061982205e-01
8.354731619884092630e-02
1.892869520048590451e-02
-1.301731279646487285e-02
-5.503186370598991961e-02
-1.088124922134822703e-01
-7.960946469951213356e-02
5.547422844234619482e-02
1.854027952241842636e-01
2.105521602254485924e-01
1.485752152806096016e-01
7.294273330357463336e-02
8.908249728566304537e-04
-8.352651667710464523e-02
-1.546870527689377939e-01
-1.890335428232004511e-01
-1.902371205146109190e-01
-1.554645957175530835e-01
-1.126822548161593301e-01
-1.104168900353804106e-01
-1.430264497795964429e-01
-1.680360962093203625e-01
-1.418477431688391910e-01
-4.929501615347779697e-02
3.740882707909614496e-02
4.012470154927827437e-02
9.935059500105480890e-03
3.301658594804223607e-02
8.957740516658256602e-02
1.237813961901127746e-01
1.382594972914477638e-01
1.602661082518405666e-01
1.900005150762666128e-01
1.983097136325201737e-01
1.612959446421249332e-01
9.878782194552096496e-02
5.439943284827409437e-02
3.623976112150819467e-02
1.681793135196590211e-02
-1.694572943644209739e-02
-6.260128589408560373e-02
-1.240619837008549997e-01
-1.879476869164772856e-01
-2.261607317898640113e-01
-2.193969091254763804e-01
-1.464495406034101999e-01
-2.418917685785688249e-02
8.100104046128990543e-02
1.321911970769126254e-01
1.262205332038791594e-01
9.327533010481589559e-02
9.443601693393524621e-02
7.486126527339832804e-02
-5.430092857977635717e-02
-1.488256717621783964e-01
-8.090959492786231610e-02
-1.858584786725851062e-02
-6.307098489750213866e-02
-8.509274173784545092e-02
-2.492301088157602984e-02
8.691384208907280973e-02
2.177657730227081090e-01
2.604961501512650934e-01
1.609254297952224799e-01
3.941175041352056041e-02
-1.112322955180597428e-02
-3.642796829314089851e-02
-8.427974796753481823e-02
-1.451686129683427140e-01
-1.828260349380857186e-01
-1.644868225426867059e-01
-1.139609512640932243e-01
-8.467313949490887226e-02
-6.907059003542118103e-02
-4.496370621390471944e-02
-5.536273818145724668e-02
-7.017466196503117926e-02
1.691865451665870712e-02
9.961967188247147775e-02
2.527110861942789832e-02
-4.138900362669581390e-02
4.374737148114977991e-02
1.337687490889648556e-01
1.527924526976054687e-01
1.876705817651063424e-01
2.287621288707526457e-01
1.949524689761115703e-01
1.047843356880355237e-01
3.902123123986599856e-02
1.586418434190162846e-02
7.355334845894415108e-04
-3.076712776378541514e-02
-8.441408513245615697e-02
-1.429325532807413646e-01
-1.847971543624781221e-01
-2.117675741865660821e-01
-2.275064034903712951e-01
-2.241015004474230243e-01
-1.850982351415553506e-01
-9.349297531007703943e-02
2.658089521626741739e-02
1.130209925573059104e-01
1.330045478906961565e-01
1.123914746023397110e-01
1.044116716280069357e-01
1.251649510576570978e-01
1.387691150916758598e-01
1.186492285692273552e-01
5.951903040248585769e-02
-2.551640693210883992e-02
-7.453295085238949291e-02
-4.249074656406007233e-02
4.081319948100047001e-02
1.335264278497179380e-01
1.903676951136347717e-01
1.641356051024270846e-01
8.982454306611663275e-02
3.255745750577601627e-02
-2.143491023385605751e-02
-9.184459988620391480e-02
-1.437737487189998387e-01
-1.577651909415290210e-01
-1.526816117449396049e-01
-1.434550185113133147e-01
-1.261032428760754664e-01
-1.117657605432562234e-01
-1.284504178735416668e-01
-1.366733397263503180e-01
-6.164163952715326356e-02
4.247076586506069729e-02
6.936044198140708938e-02
6.700259686868420550e-02
1.033316069343809124e-01
1.129059929727466438e-01
1.278105992215628761e-01
2.676077800969570708e-01
3.909397369848143788e-01
3.011894818947045138e-01
1.234990117255697767e-01
1.623361838989677286e-02
-8.057706285582352801e-02
-2.150218531383931986e-01
-3.143048101432856511e-01
-3.189865324865796548e-01
-2.810161711635825177e-01
-3.016510703275651073e-01
-3.622749498490837050e-01
-3.285852705092727200e-01
-1.753173247542037794e-01
-4.855870772539532670e-02
-3.447053041674222329e-02
-3.544198842367560220e-02
3.678859138258774863e-02
1.296020649876842290e-01
1.888545567153065985e-01
2.317232882844048325e-01
2.539376230665988943e-01
2.315632133203338883e-01
1.895026979840934156e-01
1.705162694814850999e-01
1.635619915138570024e-01
1.182309099171968136e-01
4.163938169484714125e-02
1.897925445033413205e-02
9.420729482841973257e-02
2.144554888562990036e-01
3.239671188858652684e-01
3.814909445004479038e-01
3.053805205346113438e-01
9.833952949464777604e-02
-7.466021980297707361e-02
-1.192441965444096114e-01
-1.033064769244417258e-01
-5.676653967231330006e-02
7.339637867386460818e-03
-2.544956418276784343e-02
-1.756450735324262824e-01
-2.806492726413032379e-01
-3.027514456762755990e-01
-3.835030712695620125e-01
-4.663401525144436066e-01
-3.618348688749456477e-01
-1.798781275342368202e-01
-1.441890125412765566e-01
-2.039085859900631181e-01
-2.067902519637036529e-01
-1.239088488002799138e-01
-7.094144079024977678e-03
5.694162481622336291e-02
2.841901506800369875e-02
-2.466693124079036292e-02
-4.524880145560776501e-02
-5.789717925910441154e-02
-6.421392810361217784e-02
-8.843161264928078164e-03
1.221465173534374837e-01
2.704895499895653699e-01
3.814789566923391106e-01
4.408657558529406328e-01
4.454439875367233737e-01
3.994168273335942376e-01
3.310320111788880859e-01
2.722083427684093282e-01
2.254114193714120140e-01
1.908104709047195591e-01
2.062635814660389311e-01
2.610284976222628783e-01
2.466879760780642250e-01
1.459655380724306506e-01
6.157893254633388380e-02
-5.964846965417704150e-02
-3.197633144850159925e-01
-5.429669336898622634e-01
-5.831889729528904054e-01
-6.059141388160357300e-01
-6.854903826227354280e-01
-6.661873383310392693e-01
-4.855639471697141829e-01
-2.255190405663207720e-01
1.139007285048374007e-02
1.466322195930451489e-01
1.815681760887316587e-01
1.831197223516189132e-01
1.950902327295370164e-01
2.164476566817740977e-01
2.165511837858034028e-01
1.618372606838601457e-01
8.132027390602761252e-02
3.987385131474316391e-02
2.265183277312569216e-02
-3.592116157136536481e-02
-1.049087863845220431e-01
-7.883302017488477698e-02
1.655230571982340207e-02
3.832436500565083309e-02
2.362128096295404434e-02
1.215351362617203695e-01
2.236976150314329281e-01
1.625083965507882200e-01
7.315155249269873761e-02
1.131876687043280594e-01
1.942330755402193188e-01
2.129270171367140529e-01
2.078587403439845216e-01
2.100637143597924306e-01
1.610063755167593369e-01
5.097045056565677884e-02
-4.551339152771402552e-02
-1.051554229564916065e-01
-1.597223721096036331e-01
-2.246199376454350305e-01
-2.973067517496785217e-01
-3.590205257741100331e-01
-3.894230836605919177e-01
-3.615714069994114821e-01
-2.442627234159287786e-01
-8.331846038565232648e-02
2.982064412394948294e-02
1.015072173482658019e-01
1.816446771954227657e-01
2.179192964316791215e-01
1.618061258217342591e-01
1.035036266036862829e-01
1.085098845304447446e-01
1.070204478286657102e-01
6.110767667191137342e-02
8.872014836180927566e-03
-4.565455972678135466e-02
-9.780453962983103045e-02
-9.190670470578912732e-02
2.054933069014993480e-03
1.316276852930313990e-01
2.087027001728038456e-01
1.957213627909764886e-01
1.274989051084196023e-01
6.269006627525265662e-02
2.795437787334528398e-02
-1.070091677215909837e-02
-8.056326338786479191e-02
-1.326342709807488141e-01
-1.405557807626305056e-01
-1.591884672212634799e-01
-2.005928737252396787e-01
-2.070201162624722424e-01
-1.630265126114525953e-01
-1.091546322361219706e-01
-6.861343703560453255e-02
-3.542832237407822493e-02
-8.507218238252713116e-03
1.114571487998959956e-02
3.237188853779909836e-02
5.729292765854318570e-02
8.356044310482776960e-02
1.307737325776761605e-01
2.059770057442534552e-01
2.455255088585332757e-01
2.229565943980054143e-01
2.236024120631468770e-01
2.092454439971492830e-01
4.270935729644641243e-02
-1.264096649026532349e-01
-8.063048754338555946e-02
2.289321695527837819e-02
-2.092580563809314648e-02
-1.345049280907057165e-01
-2.020643039924119033e-01
-2.206647560032955202e-01
-2.137027441079153434e-01
-1.838103097440769440e-01
-1.196770420114591504e-01
-3.060323996884413075e-02
4.991988968142380828e-02
8.801183314567456728e-02
7.527611147176682671e-02
6.094804799286380331e-02
8.392176703998872889e-02
1.004438276116907253e-01
8.686976667854769130e-02
7.620173164062105098e-02
4.734700890773489018e-02
-2.069499596490336976e-02
-6.482157402155040715e-02
-4.735985049656599166e-02
2.603333481615818096e-02
1.508464449039593203e-01
2.240343870815550698e-01
1.409242713518164825e-01
7.027551168004717713e-03
-4.480979144044594520e-02
-6.047760423051005280e-02
-9.861206332408095632e-02
-1.319155012472728872e-01
-1.346782138292274555e-01
-1.090743019781375833e-01
-8.436727042555353107e-02
-8.020152111110728788e-02
-7.802450141286232377e-02
-7.973973054031106844e-02
-8.457955836608149758e-02
-5.809314166685555780e-02
-1.950117543947880311e-02
-1.051560769452419830e-02
1.428584398205635236e-03
4.248371542879021689e-02
6.274162873055039169e-02
4.735195407807657464e-02
6.925602728295288113e-02
1.550511996553496363e-01
2.297886153481583649e-01
2.314106819778938839e-01
1.694536708732123920e-01
9.632244695991298844e-02
6.105479166373735389e-02
4.883327614254917570e-02
1.049565576034021397e-02
-5.167471721222713366e-02
-1.173869143259659020e-01
-1.964246033710107808e-01
-2.718130534718919966e-01
-2.988025346190891773e-01
-2.658160271970765320e-01
-1.853253140203028893e-01
-7.038505214000709276e-02
5.391590227204761526e-02
1.477241545308957682e-01
1.877215868643918040e-01
1.893360619632571407e-01
1.663042340399344954e-01
1.213275653150182876e-01
8.325716765897572813e-02
5.855458373637787567e-02
8.754237059165972251e-03
-5.484767568076678868e-02
-8.148131603667349565e-02
-7.618790421327029105e-02
-4.982752703562590146e-02
3.241696584729084063e-02
1.275168717546733832e-01
1.170954971194884398e-01
6.083496207841065234e-02
1.221533856026488091e-01
1.912717089805475446e-01
7.003731005635840945e-02
-1.244729999129895875e-01
-1.930077186930035937e-01
-1.653193786578216751e-01
-1.516018018710449111e-01
-1.582586648640035842e-01
-1.350650784922158842e-01
-1.002341814497146322e-01
-1.102473192917352990e-01
-1.352484522418249402e-01
-1.151254270073826802e-01
-7.118099740917752105e-02
-4.885051560718961516e-02
-4.012459212774729250e-02
-7.719681699039578765e-03
5.113483267039843627e-02
1.041301119711785239e-01
1.575035407738330506e-01
2.320447231447795855e-01
2.829334057826012883e-01
2.582507512319715537e-01
1.804237421424517707e-01
1.159236443144252421e-01
8.693960341975691397e-02
3.894105964171461209e-02
-4.273256284283551837e-02
-8.396182726584694445e-02
-8.769646493582343438e-02
-1.352156045233036119e-01
-1.905893379878566829e-01
-1.781983374409503718e-01
-1.508327655985667870e-01
-1.424114679379760162e-01
-6.871063645183017599e-02
8.902774573755631304e-02
2.232928500096400537e-01
2.752876229473075753e-01
2.964221360557766083e-01
2.849199867558012134e-01
1.711076993159617865e-01
2.530241051486122397e-02
-2.861020566056585862e-02
-5.275357467621068913e-02
-1.416872780582067726e-01
-2.505594361618603272e-01
-3.203522335885415906e-01
-3.167184128336525961e-01
-2.023216945309604387e-01
-4.204816793155308208e-02
2.376259395012692011e-02
-3.116728793171820444e-02
-1.051636128858464136e-01
-1.050161775012764531e-01
-2.971145078250694155e-02
2.175468939927203971e-02
-1.415770783011818107e-02
-4.835517378427055257e-02
-7.433039284987360759e-03
3.650529080418066230e-02
3.993429281492440197e-02
6.087079110456597442e-02
1.121392110468289460e-01
1.567509078728453742e-01
1.924255697601164605e-01
1.969246469262591059e-01
1.345837256203518684e-01
7.219694830449457923e-02
8.607698329340152110e-02
1.033877622680453301e-01
2.979716433175312942e-02
-9.886331537985772189e-02
-1.910569316360052894e-01
-2.058355892793307662e-01
-1.982398275675541499e-01
-2.232544255381242460e-01
-1.699280941759854502e-01
3.192162783585745373e-02
1.662326211773648144e-01
1.113530593244130562e-01
6.516503719333252564e-02
1.088519752452814376e-01
1.278918432505486980e-01
1.144796603386667305e-01
9.801318232841747802e-02
6.192164407825982014e-02
5.166353228898556971e-02
8.879456024039009132e-02
9.357920153150249554e-02
3.600176625660161250e-02
-2.397114748983504920e-02
-7.677084991157945293e-02
-1.454193079678598732e-01
-1.643983019257102829e-01
-7.450793826658660968e-02
3.955034438403668556e-02
6.685708537947372687e-02
2.170858313184252306e-02
-2.371329396908197079e-02
-5.976938350540836331e-02
-1.201958121230626980e-01
-1.793462329423508861e-01
-1.593028979570750014e-01
-7.055196779586983546e-02
-4.954695877520263331e-03
2.992017818020799302e-02
1.007004713968959742e-01
2.045061347527984130e-01
2.687610301115914702e-01
2.765488203738697415e-01
2.616010179391338175e-01
1.542760449669281775e-01
-9.227533425829465008e-02
-2.694110151754562366e-01
-2.344359625737732489e-01
-1.786380854783596595e-01
-2.236100350980762264e-01
-2.552343474948943203e-01
-2.366858348050258076e-01
-2.203187445279985723e-01
-1.899021550257660729e-01
-1.152191907411132948e-01
-9.914670951659279585e-03
9.822923518972231927e-02
1.950237745282095980e-01
2.634008157964651264e-01
2.945284459388235465e-01
3.287176313964639829e-01
3.230558607713456820e-01
1.626538010607854745e-01
-2.710064161819180154e-02
-5.219163274160348864e-02
-4.586562778812304508e-02
-1.667781520795047767e-01
-3.043040287105277519e-01
-3.506249243105690194e-01
-3.118456993916498554e-01
-1.963212215328814791e-01
-4.631792281206402462e-02
8.491033665800978847e-02
2.027833310789071142e-01
3.061912720453994763e-01
3.581477160945980009e-01
3.434954953922116916e-01
2.728769019412370378e-01
1.758655073516004197e-01
9.895263816365443277e-02
3.979367184525831741e-02
-5.409497742879223331e-02
-1.720354365990016121e-01
-2.447086848662106684e-01
-2.444747892319927562e-01
-1.571186643232048707e-01
1.775734368454898182e-02
1.628310105515189954e-01
1.547352662660159139e-01
6.174994208153647413e-02
8.779976610868156506e-03
-1.881679557401558581e-02
-6.076544539553585533e-02
-7.772953592420982216e-02
-6.794197371544664910e-02
-8.989326364770945654e-02
-1.382907218449602182e-01
-1.631987019625817936e-01
-1.755401684743820856e-01
-1.870392305475572503e-01
-1.508747905643210707e-01
-7.259585728077015687e-02
-2.276429070975507368e-02
-1.705915230851542952e-02
-1.008644839372238589e-02
4.538817999073926912e-02
1.305788187966061831e-01
1.542087941617679425e-01
1.146231284571616188e-01
1.050947770829323002e-01
1.284722039846394881e-01
1.437279383921958031e-01
1.547347508095973934e-01
1.355571951510329554e-01
8.298365535910676161e-02
6.237297446435637049e-02
6.810510777330924803e-02
2.368167349528624288e-02
-6.367481037375893882e-02
-1.172761992548725929e-01
-1.371142025850075330e-01
-1.939174003291038728e-01
-2.659345325673654337e-01
-2.366023815380838557e-01
-9.403804623164495335e-02
3.670147389171993235e-02
8.777406006763566193e-02
1.076231327074337885e-01
1.230608893121506453e-01
1.184938241565474254e-01
1.137220454144527437e-01
1.128125548215032775e-01
8.168379267512884678e-02
3.387937756719459903e-02
1.595244477064512029e-03
-3.320568926053880932e-02
-7.215974743233251332e-02
-6.377231790961243596e-02
1.368641425643272319e-02
1.146893132830109213e-01
1.721845525433369217e-01
1.482490591263667390e-01
6.815768574893085741e-02
8.092987082767514467e-04
-3.353803062252081607e-02
-8.910143664717701251e-02
-1.761300036754805953e-01
-2.241762657836325334e-01
-1.965115707363895015e-01
-1.249240082554507053e-01
-6.063986994840542960e-02
-4.483929933903489651e-02
-7.344093224130077147e-02
-1.098201918565028246e-01
-1.326731580297013102e-01
-1.118553058772267933e-01
-2.798097085747497728e-02
4.332939175387665737e-02
4.226962118234186411e-02
5.528356650366907099e-02
1.291604931568609838e-01
1.701248892175940552e-01
1.545776079126736924e-01
1.475092270071703682e-01
1.482282101494765414e-01
1.344969124846293607e-01
1.102147166530611927e-01
6.646803942092971429e-02
2.846192551805218351e-02
3.804804414153382941e-02
5.621418479243180111e-02
3.402101609062903320e-02
-1.071395306506067041e-02
-8.357127358933456873e-02
-1.983847568732564626e-01
-2.870763818047019078e-01
-2.775055124534902551e-01
-1.728879020186410154e-01
-3.303443815679664441e-02
6.363352875640826412e-02
1.002824403200353320e-01
1.265820970465685313e-01
1.613614890043727212e-01
1.753656812869454629e-01
1.369040080720325403e-01
5.093748393455728440e-02
-2.432022454059708239e-02
-5.703234868391313106e-02
-9.529054950730486695e-02
-1.492462575519138135e-01
-1.262658291514457687e-01
9.954384478522792720e-03
1.461272192189725649e-01
1.813381748063546128e-01
1.462377568354719104e-01
9.794973457395375616e-02
2.900946448532371047e-02
-6.796897317817593431e-02
-1.486700280067673463e-01
-1.836732045619808573e-01
-1.949156374313329998e-01
-1.943270206722012283e-01
-1.656508801486822613e-01
-1.047030239756194109e-01
-3.724533984804494213e-02
-3.614153053209841204e-03
-1.945637812633987940e-03
1.602897676725882972e-02
5.316836304295244342e-02
5.877736416497009175e-02
3.338546116909925365e-02
4.933616436011693113e-02
1.302727269682155131e-01
1.826815286012184736e-01
1.411993809118110010e-01
9.382581423748047322e-02
1.189321151138129640e-01
1.493496621613700504e-01
1.230503885843294287e-01
7.711479604413558342e-02
5.670123874284671572e-02
6.662968333041610625e-02
8.272603676448517240e-02
8.373383135623616025e-02
7.746324823195795128e-02
5.009097911686959115e-02
-3.786441336771796673e-02
-1.628450694270904830e-01
-2.711099630034873309e-01
-3.430317944047343581e-01
-3.322047448298118266e-01
-2.224178326891055324e-01
-1.129526185239384806e-01
-7.936965611875576587e-02
-1.016160204823927243e-01
-1.327254150127542276e-01
-1.286246595497121115e-01
-1.129060299928807687e-01
-1.108736301813509212e-01
-4.907147819312769610e-02
4.524357928672093077e-02
4.315123965244854753e-02
8.429814533499141449e-03
7.837765069896145131e-02
1.895625891868236712e-01
2.138389301629305128e-01
1.559773343035346649e-01
9.566974335417278985e-02
9.652625259520286605e-02
1.889803522087699084e-01
3.176041008104203422e-01
3.775035288049345961e-01
3.530587654616375026e-01
2.850294938692896074e-01
1.822663789204847229e-01
5.914342382702794665e-02
-7.127323030077176158e-02
-2.035802480102570644e-01
-2.846373168061919756e-01
-2.725602403231642268e-01
-2.044403830848613990e-01
-1.260925049203567294e-01
-6.128996534724830136e-02
-4.745295641703425882e-02
-9.295121176352047487e-02
-1.498788069816389956e-01
-1.773726106070206698e-01
-1.449668125806613250e-01
-2.274674303833669128e-02
1.260221286692978504e-01
1.802636575036635491e-01
1.376966927926172313e-01
7.250488514720973554e-02
-1.750343227793938958e-02
-1.329597242402399127e-01
-1.928419866036004404e-01
-1.735726351191548278e-01
-1.494526559182412784e-01
-1.577513187344874446e-01
-1.940330733122409002e-01
-2.608792101618142567e-01
-3.006913744851572035e-01
-2.531257575255770886e-01
-1.828611532711952314e-01
-1.112247496451042456e-01
6.618486963553332769e-02
2.528475031844366616e-01
2.454111685843789470e-01
2.131996954058067995e-01
3.828913016218518650e-01
5.518068410087373366e-01
5.230898559112766577e-01
4.485662636434742390e-01
4.661017934821262143e-01
5.164160545468238217e-01
5.163186309944041152e-01
4.512386150287149844e-01
3.753608863885302127e-01
3.220249442142825713e-01
1.586390628574556039e-01
-1.976881206708838434e-01
-4.770126492950453323e-01
-4.761517394466746600e-01
-4.418176774597120104e-01
-5.625673372806209160e-01
-6.895269505703448543e-01
-7.121086277466778247e-01
-6.607105677483978701e-01
-5.765228681589286142e-01
-4.911605977273389989e-01
-3.877471981793856881e-01
-2.517478524710681231e-01
-1.419474737307225010e-01
-8.929681954795712362e-02
-4.460722422917751118e-02
4.003730497913410291e-02
1.482385926409023891e-01
2.173933948565154317e-01
2.507173694948435783e-01
3.059522299103095699e-01
3.533278549698752879e-01
3.664419768980763381e-01
4.198728761262996434e-01
5.014280443386291974e-01
4.931069933569227626e-01
3.824354047143618818e-01
2.568362115385499078e-01
1.736425591937876267e-01
1.290846489507407324e-01
6.870217685131739527e-02
-4.759992106980748261e-02
-1.855965901656767558e-01
-2.748044352950046454e-01
-2.688474644066357055e-01
-2.086100819824163177e-01
-1.824566662919689386e-01
-1.350962273168809513e-01
3.593977439261437923e-02
1.910119699177690589e-01
1.682914692188665629e-01
6.399743768836847757e-02
-1.854195901400120666e-02
-8.499346257626454182e-02
-1.286600389113051746e-01
-1.834372110439491665e-01
-2.274321436157115128e-01
-1.592727300562537252e-01
-7.414219714394407190e-02
-7.445441026204373258e-02
-3.046244108162642072e-03
1.557008963950349267e-01
1.955398356806971050e-01
1.263265694152829743e-01
9.021513506837380847e-02
7.234002404726425084e-02
1.744011261596199389e-02
-4.776761449883047683e-02
-7.899903331033579501e-02
-9.300321790492346863e-02
-1.484354977402378983e-01
-1.833481612484477163e-01
-9.478707500231320360e-02
-2.519420788364124669e-02
-1.117055178069533972e-01
-1.732611748445649080e-01
-9.772519471974000504e-02
-2.531734933045166197e-02
5.353507380544686445e-03
5.807811969982927536e-02
1.097958002657782733e-01
1.380475858714901027e-01
1.416849265775561584e-01
9.961844477718659330e-02
6.028948578276985271e-02
1.013911554181834429e-01
1.819970350805177328e-01
1.920471879854080410e-01
1.307479132404144317e-01
9.948105842797180798e-02
1.041432986422768797e-01
6.150038806692492005e-02
-7.436372949099549073e-03
-5.188108774701116754e-02
-1.304027605379266541e-01
-2.490956445920836093e-01
-2.978527674031461459e-01
-2.424827836751714261e-01
-1.481782061448007615e-01
-5.591082800006905162e-02
1.773583541013313766e-02
5.431910681115782735e-02
6.385041932784649155e-02
7.153638487830270287e-02
8.371621594504768948e-02
1.042625955685781564e-01
1.365777636849285215e-01
1.478787504323431368e-01
9.891981771487128039e-02
6.036682668163513912e-03
-7.551472415181077757e-02
-8.388702401184283675e-02
1.325826226474526720e-02
1.414871734358401356e-01
1.728370959820224873e-01
1.040445088393436301e-01
3.713912715265358516e-02
3.557896359005606121e-03
-2.244323816883884298e-02
-4.432248576747131047e-02
-9.014391344948041729e-02
-1.663573835866962169e-01
-1.991369800789488109e-01
-1.638258783473011126e-01
-1.270910924096987360e-01
-1.256861037517439383e-01
-1.375019900672633244e-01
-1.381267872775190919e-01
-1.269892832766487678e-01
-1.104384546513040855e-01
-9.256166954196384800e-02
-1.097240758531527333e-01
-1.547418142107762351e-01
-8.215737389085309150e-02
1.331302961501238391e-01
2.529677172864469026e-01
2.417363734606469694e-01
3.313446786070445294e-01
4.444512983885317015e-01
3.245917288586434024e-01
8.852386263797923371e-02
1.228067075275973696e-02
8.322764636650681336e-02
8.500994641142164965e-02
-3.117032271822259976e-02
