-4.057605291795273600e-02
-8.502211399261348779e-02
-5.125362483328143454e-02
2.880506385364332844e-02
9.347115000972119891e-02
1.255688006462177542e-01
1.090974293280378149e-01
2.699231282380477881e-02
-7.613703004343412573e-02
-1.279037137279780689e-01
-1.399982977918257099e-01
-1.852654352993130249e-01
-2.467912829550925613e-01
-2.386456542612750698e-01
-1.866249936982372626e-01
-1.662104152596312057e-01
-1.275840655273906277e-01
-1.911869353890019094e-02
1.125336640794420279e-01
2.606787181376118423e-01
4.211702693848315415e-01
5.036590289577040913e-01
4.816633392787426637e-01
4.099994294434471942e-01
3.045835430257284315e-01
1.968494641287971414e-01
1.166771966809392047e-01
1.701003654042990143e-02
-1.045315152584925106e-01
-1.935402546989569705e-01
-2.542249113598522570e-01
-2.871075419744859580e-01
-2.706451993725433880e-01
-2.484094230427299488e-01
-2.633541119017406840e-01
-2.778916538380374335e-01
-2.381480848915973059e-01
-1.552566400687531989e-01
-9.238716439690577986e-02
-6.898327539127785402e-02
-4.593284842334256768e-02
-7.505691754829138529e-03
4.361955678417588078e-02
1.040435480879878527e-01
1.351381517685237288e-01
1.203440240309734954e-01
1.014444452734668684e-01
9.646249321537504751e-02
8.502116207720859797e-02
5.584011447899978053e-02
1.176238086347175353e-02
-1.820861799119545196e-02
-6.823281574372511843e-03
1.654525753605952387e-03
-5.863794357089105458e-02
-1.745625972573970897e-01
-2.720906783257185935e-01
-2.750845146216712722e-01
-1.385944256320530699e-01
1.003072023981334965e-01
3.191790309089314603e-01
4.237120126407092902e-01
4.526315136801521977e-01
4.979997921999410604e-01
5.462631710937501106e-01
5.068767909177170905e-01
3.677817425437858723e-01
2.060091888948133720e-01
7.734450683602797638e-02
-3.216834220808686973e-02
-1.686482039033677938e-01
-3.353227764299747671e-01
-4.760837224951453006e-01
-5.494346182084219876e-01
-5.695970840963806570e-01
-5.790329427823663888e-01
-5.894206229862756219e-01
-5.438816205872016862e-01
-3.992938316463431336e-01
-2.143705050082905239e-01
-7.963395231609977920e-02
-1.303509973156195823e-02
4.852259847091143496e-02
1.617153242668286084e-01
2.780063420790025441e-01
3.261073840785553291e-01
3.492029487186040781e-01
4.048998271867345067e-01
4.482166698624504564e-01
4.308345740686433389e-01
3.758685306310269314e-01
2.999316857372076872e-01
1.729773221324076848e-01
6.775290078117474080e-04
-1.424796991174299698e-01
-2.069485672042207791e-01
-2.128202027083024583e-01
-1.863826429045715716e-01
-1.301161373535086319e-01
-6.431250283637371390e-02
-3.145161574206008226e-02
-3.803405468031117315e-02
-4.980264055735783568e-02
-4.839083681542952209e-02
-4.313427542493088879e-02
-4.780228502669657542e-02
-6.008081590193631999e-02
-4.862648193030302129e-02
-1.648574637266062709e-03
2.669069544351874990e-02
-2.780652299743505834e-03
-4.316322469297440012e-02
-4.750545909721459042e-02
-7.268454405175652291e-03
1.019141204637581261e-01
2.296162782392467683e-01
2.360016880853357812e-01
1.258743736812151515e-01
4.785601965480201780e-02
3.314303877991927466e-02
-8.043263632852336656e-03
-1.064877202867748895e-01
-2.062616324634582443e-01
-2.487228503166870053e-01
-2.406628312933715708e-01
-2.271199855188690830e-01
-2.048915820852232339e-01
-1.454237177284194993e-01
-5.726907263801941927e-02
4.066617945695037012e-02
1.204297409328166646e-01
1.591122508105060063e-01
1.902505999303028550e-01
2.093077383294730254e-01
1.583588563486170442e-01
1.004714180357780956e-01
1.055630600020404097e-01
7.888070872967269109e-02
3.161076143553799567e-02
9.722617749185877289e-02
1.557018845274427132e-01
5.588432959523401133e-02
-4.466514644839102155e-02
-4.519741672907321567e-02
-6.885871784028671505e-02
-1.363228819725689489e-01
-1.587290191749139712e-01
-1.383305296560648767e-01
-1.261617893095764720e-01
-1.148100250046991677e-01
-8.640499150782837701e-02
-6.861352573034419644e-02
-5.152187408471858854e-02
8.748463734908978884e-03
6.801761649938049825e-02
7.634527676024410736e-02
8.948085209995991496e-02
1.304576590209924059e-01
1.343930014335573409e-01
9.417030844892096408e-02
6.211637497176362294e-02
3.629747747099602850e-02
-5.022661956097159222e-03
-3.262983460862596552e-02
-2.556341913528577953e-02
-2.030199452034256447e-02
-4.930864878125194167e-02
-8.026997388757799168e-02
-7.067934321566013423e-02
-3.510909385922852954e-02
4.545751899528282375e-02
2.044050458547444771e-01
2.638451886892427822e-01
5.813897873618658479e-02
-1.571765033465353234e-01
-1.331061653787385946e-01
-6.830718408584462997e-02
-1.232190506699241267e-01
-1.828562768668614003e-01
-1.912344045367779521e-01
-1.485204873944118986e-01
-9.017391973207011802e-02
-1.267903098217042224e-01
-1.584819274148324408e-01
-1.302593454371632833e-02
1.526790974363756437e-01
1.732263705351672067e-01
1.692261449787346439e-01
2.200828326656284473e-01
2.450265615964954402e-01
1.975338770577459990e-01
1.082231751042501688e-01
4.394776732134954289e-02
4.710762610458206490e-02
5.865608561423606149e-02
-8.853372646575524002e-03
-1.132995931825698244e-01
-1.255104071660091969e-01
-4.627094410532185675e-02
-1.863559388476416362e-02
-9.142540009441944837e-02
-1.534459404844726316e-01
-1.220052483848040603e-01
-6.754773116878855233e-02
-1.055920220253685343e-01
-1.620267167016101462e-01
-5.645635117511503542e-02
1.118247308755497410e-01
1.093495856686803880e-01
1.480935675531235701e-02
1.850634960904341819e-02
1.049470561099017929e-01
1.888719680282161251e-01
2.081763597272357214e-01
1.515138389519308793e-01
1.009527447752078533e-01
5.325696207241940872e-02
-6.591626748031376160e-02
-1.479677264871127329e-01
-8.859537211782773924e-02
-2.164553496587535986e-02
-3.915482161075836687e-02
-6.592350459162821252e-02
-7.760288151583760730e-02
-1.057174231547957366e-01
-1.111153504287454019e-01
-2.466201975544065478e-02
1.311290304525885575e-01
2.222320144838527411e-01
1.561030878701719637e-01
1.251545325719962201e-02
-7.207082146941695688e-02
-8.251114011389015790e-02
-1.059424722214206693e-01
-1.874666129923295288e-01
-2.540747398946801017e-01
-2.132180941358371995e-01
-9.274010994987846868e-02
1.290197986596551549e-02
7.228604789146533816e-02
1.074366908661741060e-01
1.421495867918338984e-01
1.797037606807184995e-01
1.838216468759358568e-01
1.291812763130638919e-01
5.017704952952598690e-02
-3.628368449532234224e-03
-9.248024802177186310e-04
4.953792040736265667e-02
7.404116153094260355e-02
2.201851497426080342e-02
-4.375779675920841993e-02
-2.876707471277381925e-02
5.168588880686712794e-02
7.190730005632334221e-02
-1.831949912091832347e-02
-9.897889177056556909e-02
-9.485567731965607874e-02
-9.667529500280047650e-02
-1.462097637420488594e-01
-1.578332350145047469e-01
-9.257772321614810007e-02
-1.584330758407272166e-02
5.224132184882566976e-03
-2.104171883073699401e-03
2.241172905868111034e-02
5.984110291410150995e-02
8.908577688891272661e-02
1.235293661571334745e-01
1.203609935444723278e-01
5.716926228364481444e-02
2.855928324883404666e-03
-8.825849152282584306e-03
-2.942788339299808043e-02
-7.893890148872187429e-02
-9.232784245938777112e-02
-4.192399961275503073e-02
-8.409982596542669303e-03
-3.988243804581885488e-02
-7.792589303199706774e-02
-6.778359489311101826e-02
9.847190861766313280e-03
1.595902107424210514e-01
2.985630759907316190e-01
3.043629299982764103e-01
1.941788295433917177e-01
8.065326614960091622e-02
1.828417111136373258e-03
-4.694452397241585112e-02
-6.719381806125740431e-02
-1.090967978281049827e-01
-1.903980674927010230e-01
-2.309959926086798676e-01
-1.912678642573100718e-01
-1.395637749814188644e-01
-1.262390502521351932e-01
-1.117355147190621789e-01
-4.792848669540087508e-02
5.131629245368642123e-02
1.348402922831902773e-01
1.609980484944919243e-01
1.323202496819294027e-01
9.584486045658832665e-02
8.305818861098858419e-02
7.256494479253826346e-02
2.840039567191487979e-02
-5.053251270983426247e-02
-1.170206306423205861e-01
-1.247652835403421367e-01
-1.016160452796127794e-01
-1.088440079098174085e-01
-1.329049480510694770e-01
-1.187728521818946364e-01
-7.574508420373102235e-02
-5.618607875950409891e-02
-8.076374914620937373e-02
-1.172968361357124428e-01
-1.065364162292788408e-01
-4.627103360229545270e-02
-9.010278285062076412e-03
-9.392574643369479975e-03
2.936631294985233773e-02
1.207829063700587846e-01
1.989103301396236700e-01
2.547964752671034172e-01
3.074194956671881807e-01
3.529548848803382155e-01
4.224879491765695660e-01
5.043524024943376594e-01
5.307316840038757144e-01
5.252086203296845168e-01
5.126572238428049877e-01
4.044733498841202590e-01
1.639872182804784084e-01
-1.252330836989725138e-01
-3.815356800775330237e-01
-5.504310814731210311e-01
-5.869301087085887492e-01
-5.315427047842701258e-01
-5.215653581551745743e-01
-6.217035072756383896e-01
-7.119756958615740539e-01
-6.530286070895874317e-01
-4.978034148280058302e-01
-4.074066950093570005e-01
-3.951341512913973397e-01
-3.226426709469939480e-01
-1.428505131751791890e-01
5.219696537097920364e-02
1.985119639024544580e-01
3.041229956879902829e-01
3.960620096640350418e-01
4.914957436157344484e-01
5.654186199232608123e-01
5.812314449917734827e-01
5.497585719595742271e-01
5.083512466156248077e-01
4.749727702792411188e-01
4.323055189622670991e-01
3.475015802200513426e-01
2.115880018121920614e-01
5.353205033393138024e-02
-7.416866868093655030e-02
-1.550131771224977084e-01
-2.360269240289228354e-01
-3.287722746673802376e-01
-3.754252072887954705e-01
-3.558095680695753105e-01
-3.147147762570078888e-01
-2.881920692113791316e-01
-2.659802373562548672e-01
-2.246769755801108770e-01
-1.633050244057752676e-01
-8.764836521437310846e-02
-1.676254922519500312e-02
1.172605806310934862e-02
2.386637548133453690e-02
1.042683224927831720e-01
2.318040786711861867e-01
2.839744015683529077e-01
2.439680840118089167e-01
2.003753552954865846e-01
1.769906087004712858e-01
1.381521080662708179e-01
6.888405849384693358e-02
-1.945136059073162768e-02
-8.293509279404515100e-02
-8.643007493751263259e-02
-6.805649238194813599e-02
-8.296600949536694913e-02
-1.276872803285115099e-01
-1.662407701603728638e-01
-1.494707428829448459e-01
-3.565895124031072394e-02
1.142565619357280571e-01
1.587838801466804062e-01
7.545711144911826374e-02
-2.694324683977306761e-03
-1.165785440558202157e-02
-3.155932430986763820e-02
-1.049236387394998637e-01
-1.806006780179315041e-01
-2.108609558921712424e-01
-1.824435232813362562e-01
-1.257558622959557837e-01
-8.088296053680571474e-02
-3.063160077252374824e-02
4.225050706009968182e-02
1.122319473054792238e-01
1.669224039831379569e-01
1.976076334994435191e-01
2.062453259163335439e-01
2.227094718436430643e-01
2.100124218470303672e-01
1.171468888160136501e-01
3.307598234553640187e-02
3.824333469012963088e-02
4.573641780139164892e-02
-9.481148190180862384e-03
-5.910532284757379767e-02
-5.579860893081937251e-02
-3.275646029952340721e-02
-3.546024149866001951e-02
-8.178137604360111168e-02
-1.388333974554169792e-01
-1.527831382268814153e-01
-1.321018582722708889e-01
-1.358494347710914041e-01
-1.478663487984934466e-01
-9.170062770643050420e-02
-2.679094462379849606e-03
2.288083346040616084e-02
1.833551154036296149e-02
5.969231541484454340e-02
1.134122696577053030e-01
1.363883062433337290e-01
1.579452334181743189e-01
1.801006058137552546e-01
1.525629618926269970e-01
7.529434863223591345e-02
9.623173790346354825e-03
-1.705208757116873433e-02
-2.801372626612835121e-02
-3.816785855038741515e-02
-6.237512583140124994e-02
-1.155104016079446516e-01
-1.560524014187134045e-01
-1.417116996546634589e-01
-9.874493563630082349e-02
-2.528682914646293231e-02
1.119477552999439129e-01
2.129961240089210395e-01
1.517057475988160820e-01
2.289953854234377806e-02
-3.425741060659184128e-02
-6.810183844427661337e-02
-1.355972757583014110e-01
-1.891305743217599755e-01
-2.047119185768354610e-01
-1.880890044592260779e-01
-1.270914928178482617e-01
-3.827572223069213020e-02
3.823949009075353067e-02
9.340940575378670063e-02
1.306937431272530703e-01
1.494234657457844118e-01
1.713141539732568608e-01
1.989154780876049855e-01
1.951774853830875733e-01
1.567685776929017005e-01
1.167878431734980516e-01
9.305460059347708812e-02
8.121989781509340867e-02
5.577274767528909993e-02
-7.090531936083169923e-03
-8.507482201596186511e-02
-1.152939510856945404e-01
-9.005473156646753852e-02
-1.032821544784396361e-01
-1.822367590899683087e-01
-2.148740396632177752e-01
-1.746979638645490829e-01
-1.516732978932177622e-01
-1.450595824446501980e-01
-1.059744418604068872e-01
-5.603510156982345614e-02
-6.565912319171376965e-03
6.019737381305150653e-02
1.084735836123902064e-01
1.085569878421677181e-01
1.282092915721676218e-01
2.034683232093165428e-01
2.367081208985737373e-01
1.771117702194807131e-01
1.010965474592684793e-01
4.557005337378047111e-02
-1.523691204480896386e-02
-6.693193297147223553e-02
-8.040013101693521680e-02
-6.075802641008358485e-02
-3.906021594140502567e-02
-6.129881785893401269e-02
-1.152741105075670430e-01
-1.205310778022559703e-01
-7.529310160434483923e-02
-2.553199211574172511e-02
6.486425863301970018e-02
1.656277468203745384e-01
1.508391592289899386e-01
4.887510171387398489e-02
-7.468152762054547540e-03
-8.290548470396105762e-03
-2.844319184598352937e-02
-1.058628209889949795e-01
-1.996685408520549876e-01
-2.305226890739535406e-01
-1.908357295361129413e-01
-1.351336390733745008e-01
-7.919743887288996365e-02
-6.032570753304562078e-03
9.036776519191536128e-02
1.837925319439371596e-01
2.159161187912002622e-01
1.922869822013463514e-01
1.889699638617593214e-01
1.919457630103733603e-01
1.350707807303203056e-01
7.397075431339933393e-02
7.973702320139636202e-02
8.935660334074321809e-02
4.672507488910399021e-02
2.849389843042938325e-03
-1.622854369841519873e-02
-5.555380751740483791e-02
-1.348890555852687856e-01
-2.176043813533321547e-01
-2.450677906452160826e-01
-2.090862316337577242e-01
-1.822846072420233055e-01
-1.916450033923673135e-01
-1.712877510571705619e-01
-1.013146844290026133e-01
-3.542662587419254799e-02
-8.132935746057265436e-03
-2.070447894223857721e-03
2.950942121105704086e-02
8.808287087960221806e-02
1.089612644335790914e-01
7.445896432386683861e-02
4.960070482527413616e-02
6.203048005000274395e-02
5.700667901838319535e-02
1.380675985371771462e-02
-1.007762311976582656e-02
1.355136046744100792e-02
6.344930612143248605e-02
1.159348904528195168e-01
1.339573663066547238e-01
1.448743289773111731e-01
2.370749426305749363e-01
3.484372427920048865e-01
3.806842248618906854e-01
4.600141781890136339e-01
6.135568721489049748e-01
5.741238935589165759e-01
2.725604414505090056e-01
-3.508802158282542383e-02
-2.152744107962699383e-01
-4.168165550592993762e-01
-7.446289263289438409e-01
-9.710904951429096821e-01
-9.060748047987752241e-01
-7.750708744598231448e-01
-7.166499350685121561e-01
-5.441081119713840897e-01
-2.919722361316253179e-01
-1.623454419610184107e-01
-8.319830934843197578e-02
7.301996701430135683e-02
2.599133152021958493e-01
4.105860979292258461e-01
4.851206420918523499e-01
5.046746406146637165e-01
5.433488895815707931e-01
5.188846866734690977e-01
3.307401847250131532e-01
1.782316947634499937e-01
2.222041901032628664e-01
2.676226456750729898e-01
1.886493553082587982e-01
1.119648678360029292e-01
7.603628845823191817e-02
1.470258808915746174e-02
-8.125305776691754689e-02
-2.143149373316821649e-01
-3.069712454207396135e-01
-2.360191829061299984e-01
-1.452947919457363013e-01
-2.181312484364360260e-01
-2.818080703718112145e-01
-2.055830690260997407e-01
-1.381424509721702887e-01
-7.095631004169455913e-02
1.035676387770897156e-01
2.041498958190125501e-01
1.001477794452198811e-01
2.415698268243216679e-02
8.689449502746576792e-02
1.110069174499323380e-01
6.840520306593737832e-02
5.394594502634705857e-02
3.961849989076824535e-02
3.562947470250489058e-03
-4.947218434525030989e-02
-1.439431779323253335e-01
-1.600892873708145703e-01
2.457181846152013335e-02
2.278216847447691040e-01
2.390440371648262785e-01
1.183734742895012904e-01
-8.094813977343989775e-03
-7.532600185759677491e-02
-8.670784932033384629e-02
-1.474820589668356385e-01
-2.426444785996844933e-01
-2.202432453871017715e-01
-1.419303549272947773e-01
-1.515561342130337108e-01
-1.583082145495174897e-01
-8.446599460119784408e-02
-1.140373788881502912e-02
4.836124956688128695e-02
1.317372592821856037e-01
1.902309002567597052e-01
1.875115872164723752e-01
1.801217803324086375e-01
1.893774837416973000e-01
1.492950247145859166e-01
7.633672308106198567e-02
7.281798379280660094e-02
9.833268807618873730e-02
2.734381229246204970e-02
-4.733934604833388293e-02
4.012318980204131885e-02
1.335951906278946277e-01
1.730124877115745211e-02
-1.487523521462305043e-01
-1.512821069944582653e-01
-8.812482416797751128e-02
-1.165315292505010869e-01
-2.057627708147729551e-01
-2.324908280397243177e-01
-1.510308827701054013e-01
-4.897009839699933281e-02
-3.084466434833199253e-02
-6.138969830560064844e-02
-1.488466298495394816e-02
1.169709668453704915e-01
2.091172523223500668e-01
2.082862833809211722e-01
1.762825932685257446e-01
1.461176782298223564e-01
1.036994139398387665e-01
5.032540892029677138e-02
-1.203645729994160668e-02
-6.721831548335130413e-02
-6.716213335272554208e-02
-2.329472289750889047e-02
-2.272165566958244190e-02
-8.152734407630037039e-02
-1.096070084473899919e-01
-6.751718011786514428e-02
-1.107623532165397974e-02
6.540696469749093800e-02
1.895783089047618497e-01
1.962755555253819506e-01
-1.894504302740873669e-02
-1.806758854467470088e-01
-1.059917735101264663e-01
-3.973810971851510221e-02
-1.330727034111761353e-01
-2.284445958258266851e-01
-2.247906623404526683e-01
-1.609872969445353963e-01
-8.703699153416595558e-02
-3.676900256307023829e-02
2.286540248431091771e-03
6.893277240371756265e-02
1.529199014599150752e-01
2.096550498954966868e-01
2.268102291216846089e-01
2.250016988662706940e-01
2.114034436021839380e-01
1.672739129677683623e-01
8.837061007207057395e-02
2.127530470162132883e-02
1.060112108509444345e-02
1.361662474394476074e-02
-3.621507551411539544e-02
-9.709430450152968517e-02
-9.052627635861806854e-02
-6.045237807801150109e-02
-8.552287715496309506e-02
-1.215850674501909590e-01
-1.112041598661618058e-01
-9.931747160397141894e-02
-1.137805395041908696e-01
-1.082689500199292831e-01
-6.408583890259240967e-02
-1.417018107444744171e-02
1.765736316644231016e-02
3.631817745777973089e-02
6.292528348093609503e-02
1.051101656422371300e-01
1.335968718970853564e-01
1.569633575297904871e-01
2.235806184539711750e-01
2.316796165663727314e-01
5.716688592178297001e-02
-1.090662182785671758e-01
-7.051895870259292098e-02
6.641279742198219482e-03
-2.236854511089334668e-02
-7.724244492588948352e-02
-1.323236435127600197e-01
-1.936286676259600659e-01
-1.977466094668243191e-01
-1.506494202541031613e-01
-9.075417437652606722e-02
2.965670573355797326e-02
1.888609037041084904e-01
2.313517548818722347e-01
1.310565261329754705e-01
3.385094856501762173e-02
-1.437959375632902499e-02
-6.587121150854466367e-02
-9.914243367866230894e-02
-1.123232846193933099e-01
-1.603949427215472789e-01
-1.928105309324207872e-01
-1.392699188933848586e-01
-7.358602832445194919e-02
-4.710635840755099391e-02
1.107972075216068567e-02
1.004166317172038303e-01
1.423993679379183530e-01
1.585076523581952501e-01
2.093947248417789564e-01
2.488892019442855152e-01
2.057501211266773156e-01
1.248324360676935779e-01
9.426963874830085466e-02
8.128424686373787733e-02
1.078152892642441490e-03
-9.030669715684772059e-02
-9.059326969543504693e-02
-7.350005416781836554e-02
-1.326591487378898371e-01
-1.587099687065223197e-01
-8.865027537965178284e-02
-6.573888695828987438e-02
-1.142062528564528889e-01
-1.013766618724266655e-01
-5.440769435254855235e-02
-5.561422958258074867e-02
-3.082045457835945815e-02
4.118732902827750009e-02
7.232206667137704159e-02
8.651492999235063652e-02
1.379254054940812491e-01
1.686183595673066971e-01
1.557263774739544582e-01
1.504531912734433652e-01
1.359120360145043283e-01
6.295543864127245426e-02
-1.717881636613965979e-02
-2.406057553096030421e-02
8.002159932478662002e-03
-7.560161583893361750e-03
-8.596641762730267144e-02
-1.799080588519827439e-01
-2.246463148948538990e-01
-1.967294080325884542e-01
-1.513783132263659403e-01
-1.088103478489024084e-01
4.143122964476303460e-04
1.337271450010085461e-01
1.187884067348579376e-01
-2.241967621197502036e-02
-8.735920670337656013e-02
-4.989573409678514648e-02
-4.911420667558916847e-02
-1.377106497388895512e-01
-2.473195926017823787e-01
-2.930434248473569592e-01
-2.452095831945073079e-01
-1.241225974740284427e-01
-2.330627440378752607e-03
2.777124945013696028e-02
3.693670620950749439e-02
1.776682396033379407e-01
3.382848802771881158e-01
3.366681454145512564e-01
2.827183788730340819e-01
3.212998754044279481e-01
4.241984805993253560e-01
5.362278537777342979e-01
5.806224054949333802e-01
5.034299579084043907e-01
3.746056984369242060e-01
2.633642368843975290e-01
1.456739334838716426e-01
-2.344017317642616005e-02
-2.441673083802671784e-01
-4.483237398833527232e-01
-5.681781598269601830e-01
-6.274564152921136007e-01
-6.976266757097255855e-01
-7.873393415474536638e-01
-7.712663559545174241e-01
-5.576493882379984779e-01
-3.472135918757325301e-01
-3.227027856175362919e-01
-2.886521553560010278e-01
-9.882274257738102308e-02
9.392635872632915106e-02
2.282987973551769412e-01
3.736919805657271665e-01
4.967793362754407971e-01
5.480465211559542027e-01
5.516592988125008645e-01
5.264118260148651363e-01
4.739410718312543347e-01
3.991135632344084416e-01
3.005848666075615627e-01
1.928289153182247140e-01
9.268815855777341739e-02
-6.151620777130384354e-03
-8.635296512648574230e-02
-1.207396795517464011e-01
-1.178738594855898436e-01
-8.347220288366904994e-02
-5.508781699784247310e-02
-1.140821718824413245e-01
-2.265675759729421368e-01
-2.637068082749437492e-01
-2.297074197525626749e-01
-2.399567499194012743e-01
-3.081805144549039088e-01
-3.457068502702113078e-01
-2.980267174701280997e-01
-1.735565667473682738e-01
-3.569897768792992115e-02
3.121955303843862439e-02
4.415900979152583006e-02
1.110549719690980403e-01
2.361466591121413605e-01
3.042294170142838539e-01
2.904077815710580657e-01
2.681291921293409986e-01
2.398690551745055188e-01
1.887297734443210695e-01
1.574310587508291615e-01
1.333632068375202040e-01
5.774329845125579508e-02
-4.207771959778713877e-02
-9.224909258184565974e-02
-9.150594119029792362e-02
-9.130819203394879846e-02
-1.074355085516054686e-01
-1.212434802038748483e-01
-1.214060342336737708e-01
-1.135526170885590158e-01
-1.216572841104270469e-01
-1.518327938283557110e-01
-1.583161400234881500e-01
-1.049122838149716824e-01
-3.127274953829448784e-02
6.777385794104064110e-03
2.801083607775249618e-02
7.893839946111387562e-02
1.437186067025454095e-01
1.774317854670466876e-01
1.627238053420261288e-01
1.135362441667888966e-01
7.621997173587566343e-02
7.122741055487832873e-02
5.150140472627442317e-02
1.784019052383527607e-03
-2.641758455725857005e-02
-2.579682991411679990e-02
-3.962181562105126370e-02
-7.332390929208203179e-02
-1.033370589345945778e-01
-1.200517665736929446e-01
-1.037072964526193908e-01
-9.933692942357496766e-03
1.344867303813678805e-01
1.879678388035035952e-01
1.019587187280436708e-01
8.792762026313113988e-03
-2.968519044904353171e-02
-8.258584828494079655e-02
-1.608828027907533431e-01
-2.235758196525069186e-01
-2.539278418420785055e-01
-2.220713297829786936e-01
-1.211741085254022937e-01
-2.450942219443551576e-02
1.998257555435670879e-02
6.455728696368516484e-02
1.330638439124014472e-01
1.658723974872566564e-01
1.532593256780573898e-01
1.487680174537669708e-01
1.641787613087967168e-01
1.787044695206032319e-01
1.502383234894941744e-01
4.650262635194112038e-02
-3.676868531731117273e-03
1.102193454759088642e-01
1.631134794093644647e-01
-9.346560218732265224e-03
-1.518221199130804222e-01
-1.119587558629829976e-01
-7.239396943165617160e-02
-1.107929468064043355e-01
-1.434374518484740069e-01
-1.474477580739659011e-01
-1.332830996527291645e-01
-1.254959360063785945e-01
-1.484504562869677913e-01
-1.062770736469828003e-01
5.561474467144142397e-02
1.397055153060924870e-01
5.155351826487133970e-02
1.920162285370845615e-02
1.246946105481627903e-01
1.773248780960582915e-01
1.340967617066548545e-01
1.156478959725232292e-01
1.218502986461513643e-01
7.138039705047226346e-02
-1.353438545198179001e-02
-5.668372367737509188e-02
-5.477609681052686419e-02
-4.196194512266482324e-02
-4.805336424034158116e-02
-9.083230476121276209e-02
-1.127544076975188214e-01
-6.707186740172448036e-02
-2.755877357645007686e-02
4.807113321482280044e-03
1.351013697928926671e-01
2.344503400046522301e-01
8.141992322380275926e-02
-1.402487264193571226e-01
-1.374626120777213967e-01
-4.199307746116771878e-02
-8.044159855838911577e-02
-1.840773118375022555e-01
-2.221202331582642076e-01
-1.881242101543644518e-01
-1.182130687667935498e-01
-5.043293760054896185e-02
-3.487159815307578486e-03
5.585774353283807364e-02
1.465453119401312065e-01
2.090642046473698834e-01
2.078707700102102873e-01
2.042143962432697579e-01
2.177273485940433018e-01
1.729258440482450698e-01
7.226261053344079643e-02
1.779033341420680620e-02
1.783970788903990745e-02
-1.392992272806078957e-02
-8.487076972650962892e-02
-1.233370369254008503e-01
-9.856519372764382947e-02
-4.525388983368536233e-02
-1.279422972520715546e-02
-1.659574992197142967e-02
-3.421959847685991651e-02
-5.208266395380515418e-02
-7.852104170881940570e-02
-9.775426175801679718e-02
-7.982266637004295506e-02
-5.208518731516841027e-02
-5.519943872311303817e-02
-3.952739109180065241e-02
3.717118204917250340e-02
9.449522011781708031e-02
8.147539594107730543e-02
7.328988765249218329e-02
1.078533773476547941e-01
1.195406106531641671e-01
7.293760625931333674e-02
1.895899927101168253e-02
2.622175988150584822e-03
1.834929924438372106e-03
-2.143590925300142142e-02
-6.452254627379189200e-02
-9.922511174920274624e-02
-1.181968693807170234e-01
-1.405651912361475520e-01
-1.638953882037069154e-01
-1.398857254044129916e-01
-2.221478239672335792e-02
1.525042810670130256e-01
2.628700586691093966e-01
2.390086060710369942e-01
1.445778352634234654e-01
7.698097757914039441e-02
5.107431327774566987e-02
-3.797344407877122074e-03
-1.197746882327761636e-01
-2.114935043896876143e-01
-2.195764959912679948e-01
-1.826394710026016388e-01
-1.076261819795987229e-01
-9.392481465408445557e-03
2.048599917500024126e-02
2.382594819873522229e-02
1.454168602394564358e-01
2.776365160343113869e-01
2.223634072174958676e-01
8.721410006655930247e-02
5.033958252398283706e-02
7.149402312416627825e-02
7.038164392404955283e-02
4.142506113442315230e-02
-7.605070523625804407e-03
-6.192732012699933564e-02
-1.024328091831333831e-01
-1.189725374177046380e-01
-1.239912545692930246e-01
-1.493896158263675611e-01
-1.921015693671702662e-01
-2.127553770633316133e-01
-2.026759622571480401e-01
-1.832420516016773082e-01
-1.580008684184146805e-01
-1.203781626738542887e-01
-6.804285968369747084e-02
-1.597479303909845813e-02
-2.396287481435645239e-03
3.056910641432132592e-02
1.834507209649336723e-01
3.155861082207528923e-01
2.523155442359530376e-01
1.410286108905619007e-01
1.245544762624581359e-01
1.072943768096510236e-01
6.115188927577423772e-02
6.647415607564090279e-02
1.294363658459017630e-01
2.269903345543364537e-01
3.408857895042403108e-01
4.073921808557811608e-01
3.832060217819264758e-01
3.108008641295580410e-01
2.320101943800442212e-01
1.419101882573330087e-01
8.930200551576314427e-02
1.134613366439980175e-01
6.038208757515461239e-02
-2.164889627747282053e-01
-5.496045729735719032e-01
-7.031644719997101056e-01
-7.254530072151619269e-01
-7.722619874926800465e-01
-8.339452144476515727e-01
-8.116454110763037244e-01
-6.645431589244700232e-01
-4.268680941491712622e-01
-2.103089161444645361e-01
-1.046966755493720369e-01
1.432462109131601991e-02
3.015567568452985348e-01
5.836241292574151363e-01
6.297261323889267182e-01
5.551792558229590169e-01
5.480449630803535532e-01
5.872209065381392978e-01
6.031510189651092535e-01
5.695625453787208636e-01
4.675978614235624109e-01
3.197554846350295632e-01
1.896429781422502570e-01
1.012237001031917050e-01
5.234327406982486330e-03
-1.231588033854290332e-01
-2.303654239372614765e-01
-2.775478862478908404e-01
-2.880224858912054375e-01
-3.129374927954856056e-01
-3.745283689886086398e-01
-3.980240787861512031e-01
-3.179112859436296068e-01
-2.298736886406436419e-01
-2.176624021340518023e-01
-1.868886331822852132e-01
-7.408463144713887949e-02
4.136571721112041605e-02
1.177789735753350525e-01
1.802432410416027198e-01
2.213078358730773409e-01
2.342410694460953513e-01
2.261721714231866298e-01
1.860969962150123003e-01
1.346911753280696789e-01
1.043860971951155042e-01
6.194368505179526779e-02
-1.882041446962753883e-02
-8.785474037548585136e-02
-1.126615080104077793e-01
-1.201998472632280490e-01
-1.137085506424204140e-01
-5.425902114249189084e-02
6.421868293774336822e-02
1.646199061457429558e-01
1.385553781523044536e-01
-1.473908894752618340e-02
-1.455228103213077051e-01
-1.388267992940211693e-01
-8.106329061101461009e-02
-1.187742957765530322e-01
-2.224355282316883842e-01
-2.438149967836483745e-01
-1.522901667339441600e-01
-5.072707247111465922e-02
-5.376162234253724359e-03
5.768343829738800665e-03
4.119913992825939564e-02
1.357857368030581657e-01
2.289846871012815310e-01
2.392736809403946951e-01
2.078785885502886510e-01
1.983471087100903696e-01
1.713759573899500677e-01
1.153764467301022362e-01
8.370244155144566933e-02
4.717837885175087814e-02
-3.881041205129039107e-02
-9.552190864893900235e-02
-6.287549794276306447e-02
-2.254773050707296889e-02
-4.486362517098783920e-02
-8.897676501393581017e-02
-1.177417094799948494e-01
-1.373720503858338049e-01
-1.374291865108128174e-01
-1.353014228513550743e-01
-1.588705021621696356e-01
-1.497095318197237956e-01
-6.809866722532910421e-02
1.479552476446935674e-02
5.607333696073463908e-02
9.108010103667439628e-02
1.328092672031214172e-01
1.593053745982197789e-01
1.625579017487716604e-01
1.577196815987278733e-01
1.472700880333391860e-01
1.039191720505461131e-01
3.140455677300606208e-02
-2.044610158732865224e-02
-3.814952331898144311e-02
-5.228251272844099129e-02
-7.068540196312078638e-02
-9.139290153303196440e-02
-1.249283242827062129e-01
-1.508065942498179046e-01
-1.356159849725764310e-01
-6.614542890156599464e-02
7.311817581599389104e-02
2.183975931151587724e-01
2.171294073581314099e-01
7.624131481457499526e-02
-2.328318046130483515e-02
-3.773424104109375510e-02
-8.081806440129178648e-02
-1.872350543607931017e-01
-2.734060127691408937e-01
-2.480099449311555238e-01
-1.213789373067837574e-01
-1.761926644798429351e-02
1.180132226680841168e-03
1.826357411343430132e-02
8.812590570171695281e-02
1.615902082881018331e-01
1.961259192001360008e-01
1.850576914721000221e-01
1.443969927702631884e-01
1.221477157071963748e-01
1.284576422838445420e-01
1.116695929281544541e-01
5.422396696024740087e-02
-6.878516034478643348e-03
-4.757834008238197299e-02
-7.025804197888622926e-02
-7.519943965693978716e-02
-6.254353418746369520e-02
-5.978776064990102418e-02
-8.820021177515782740e-02
-1.003407265862378411e-01
-5.860378592519836782e-02
-3.122686721932321080e-02
-6.834015988378222550e-02
-9.534892913655429458e-02
-5.746498230122801254e-02
-1.096863441099157031e-02
2.805230804115214222e-03
1.967337261130297152e-02
6.653198772071028388e-02
1.067896304220152248e-01
1.032658899149966891e-01
1.048827209426402562e-01
1.518540592309196025e-01
1.498651890388481289e-01
4.251579441075016563e-02
-6.002331501865330182e-02
-8.169586088836058857e-02
-5.936134415962637800e-02
-3.471741934709814126e-02
-4.653607082614370782e-02
-9.146246247012299047e-02
-1.068719866242486272e-01
-9.376994832119837919e-02
-8.913495933201819044e-02
-4.621607591280572913e-02
6.900162182120612997e-02
1.624724079032589807e-01
1.371665795269264021e-01
4.811635950604975509e-02
7.101574672911852362e-03
6.115694900654282569e-03
-2.933559756925586265e-02
-9.323270718903653442e-02
-1.351767925382452162e-01
-1.578033124675978505e-01
-1.696829671925655370e-01
-1.379728748131925087e-01
-6.898478006607966506e-02
-1.567845539750695183e-02
2.614813202796763270e-02
9.362497105209516279e-02
1.596916575916583203e-01
1.769024210771236449e-01
1.553282197333513415e-01
1.282854241530831940e-01
1.000209363439291260e-01
7.006338395372149752e-02
5.676551776546919642e-02
5.327877004830451624e-02
3.140912726790822534e-02
1.001291757192741133e-02
1.649610907424175349e-02
1.799840008917548070e-02
-3.919018481997011555e-03
-1.373102451401982810e-02
-1.948618722730123889e-02
-7.035576897869615098e-02
-1.455180363665876109e-01
-1.723470273262434349e-01
-1.484020664058947059e-01
-1.308074350751560477e-01
-1.111518929644267628e-01
-5.187046962243646586e-02
3.036282603211700598e-03
2.870236363168274241e-02
8.640974201165645130e-02
1.690280978297570846e-01
1.902809478270430232e-01
1.532845153689523510e-01
1.167085450576026001e-01
6.417802023040272696e-02
-7.538184341176669238e-03
-2.521020050633464640e-02
1.117055639505876510e-02
7.323293162129684494e-03
-6.928424413080276623e-02
-1.650395164495793709e-01
-2.189710659963727268e-01
-2.028206413149334919e-01
-1.419664839030129189e-01
-6.378760871819086353e-02
6.443393551912056372e-02
2.186058443959154884e-01
2.477889783778589317e-01
1.224065891358661201e-01
2.695320088326042668e-02
-8.014340258865590427e-03
-1.556259181361590027e-01
-3.503970526248610384e-01
-3.823741110519526254e-01
-3.107540530556460734e-01
-2.452656002529615409e-01
-1.380553112685954931e-01
-2.579974890819432612e-02
1.623837653266677755e-02
6.092464683537237441e-02
1.708778383162344316e-01
2.943937455469395892e-01
3.986041531739066834e-01
5.022255742338320728e-01
5.930461696245948877e-01
6.416209697291247460e-01
6.456726223899491579e-01
5.865671851152051142e-01
4.316612559789082537e-01
2.088644464202609463e-01
-1.460076836706916681e-02
-2.117750909914077329e-01
-3.959173791255525265e-01
-5.582466840839287459e-01
-6.508358118302570716e-01
-6.644099472562913222e-01
-6.624280808732454506e-01
-6.838371076386667857e-01
-6.831826605684920839e-01
-6.053820310483642997e-01
-4.674659434094556865e-01
-3.170059224634945161e-01
-1.478668478638585360e-01
5.278145402182041201e-02
2.363378361086107271e-01
3.678337241004390190e-01
4.696282366743229075e-01
5.484422290726045368e-01
5.955137939603417641e-01
6.112940804820066187e-01
5.365441393879188947e-01
3.474172588548780638e-01
2.103371799908176354e-01
2.241739436692536946e-01
2.219576098329936742e-01
9.702304718901268166e-02
-5.372285839200544033e-02
-1.569659532506563204e-01
-2.161050412644949514e-01
-2.455628644816370276e-01
-2.429258227225932765e-01
-1.764678653385047258e-01
-8.121668265466802650e-02
-7.381552041198614911e-02
-1.609730214841511575e-01
-2.076871078950350280e-01
-1.633098675299396174e-01
-1.351877184613798355e-01
-1.955277772345888898e-01
-2.659722393073106761e-01
-2.374503951678712532e-01
-1.150724267248470212e-01
2.409288149134991563e-03
6.340577500919605813e-02
1.149334950682440737e-01
1.885891393204977284e-01
2.475472397836624427e-01
2.730141222044366045e-01
2.757142398531997052e-01
2.469264468053630757e-01
1.915079892069556089e-01
1.464930148825535072e-01
1.234178878089267489e-01
8.629168726427666192e-02
6.967027742582301841e-03
-8.046767039246514874e-02
-1.082423278064301858e-01
-7.829668090700520056e-02
-7.996861868579749344e-02
-1.468194075895692952e-01
-1.969082898827050621e-01
-1.738763679351723601e-01
-1.264126231934538380e-01
-1.156927212632242880e-01
-1.273780065643935477e-01
-1.044734929462939055e-01
-4.420340878515753580e-02
5.372040592947730647e-03
3.187924053858975926e-02
5.487422754477971898e-02
8.995072698665185218e-02
1.454883616916356481e-01
1.912394780182818943e-01
2.031456569007464852e-01
2.114967986508278774e-01
1.695255303365076627e-01
1.250548694123933963e-02
-1.000305355120101602e-01
-5.039066055736062671e-02
-2.422952979667535034e-02
-9.038435120990208349e-02
-9.588522001005214679e-02
-6.530083558400594235e-02
-1.031242808257284566e-01
-1.509747641383226702e-01
-1.333929506969320222e-01
-3.224466389136180361e-02
1.235628122695349995e-01
2.051144055820842693e-01
1.280145960133713956e-01
6.517241293330089391e-06
-4.596339005758658114e-02
-4.048408220450209344e-02
-7.617748138351387865e-02
-1.437615222346672328e-01
-1.871040401513718032e-01
-1.874947171202631102e-01
-1.289402729230187117e-01
-3.481733374506740947e-02
1.781616175768369059e-02
3.413553977381662830e-02
9.119075044376391548e-02
1.809258218297820631e-01
2.316459641712850515e-01
2.311749018178220760e-01
2.096406632470446674e-01
1.550198988094076413e-01
7.451869279407463686e-02
5.179307913744490843e-02
5.185201583083817040e-02
-6.888174156649465307e-02
-2.085943095605568010e-01
-1.641561762840099969e-01
-4.413615790260286276e-02
-2.878211167089754843e-02
-6.236066283311572644e-02
-6.426788702600304271e-02
-6.389290493602492460e-02
-9.842424283482990865e-02
-1.609763913027673354e-01
-1.582085716691623845e-01
-1.470251070236387562e-02
1.178359100982380586e-01
7.621430394189557256e-02
-8.920145554807717980e-03
1.619523075270455637e-02
8.253628531522415324e-02
1.139683964071873945e-01
1.364461146339863429e-01
1.628265495973762189e-01
1.592457559994761018e-01
1.077950871576431324e-01
4.508248223538759147e-02
4.702345158772391204e-03
-2.737993315397435623e-02
-6.183085964950309210e-02
-8.912328368242961041e-02
-1.076574089220193181e-01
-1.143517534641896316e-01
-1.198650555084942865e-01
-1.592186447634516278e-01
-1.866158081201589325e-01
-7.182063788709498742e-02
1.543116853878923611e-01
2.635484572524740554e-01
1.682353375123607497e-01
3.201495392245416738e-02
-1.975824040064777867e-02
-4.998738158490149963e-02
-1.393248794713081440e-01
-2.475452403048212513e-01
-2.926079964714208836e-01
-2.536621630262940741e-01
-1.265520771232361008e-01
6.363571727240509290e-02
1.717086887388639127e-01
1.316798786160124357e-01
1.034031464367274611e-01
1.597490824704654311e-01
1.834308330504681728e-01
1.523979441671993174e-01
1.591343015235474889e-01
2.014734719388197870e-01
1.903335666079836175e-01
1.231757859014932233e-01
7.557812582197741269e-02
4.892091113849135475e-02
-1.031019126067701103e-02
-1.027118840367439723e-01
-1.749291611994617801e-01
-1.854499648318565508e-01
-1.560822967214198775e-01
-1.371681556196096274e-01
-1.428751288239914208e-01
-1.424630097663007744e-01
-1.087798295719968750e-01
-7.107099569352468005e-02
-5.575644544853213674e-02
-3.749379889893657974e-02
-1.765796423757737960e-02
-1.072411843350970506e-02
1.792704672213046857e-02
7.496051693751251688e-02
1.162324660204619164e-01
1.339030620315672659e-01
1.481806238174681600e-01
1.504114550962571406e-01
1.212498267515131900e-01
6.668831553834859982e-02
2.093713763011316800e-02
4.604731469220697815e-03
-8.684396363176707934e-04
-5.511910281459364569e-04
-1.829379520738808745e-03
-6.305810375319605143e-02
-1.732375437871553903e-01
-2.143067105901051983e-01
-1.514255447854780945e-01
-5.499364016266308081e-02
4.397211646534103513e-02
1.236028352023399446e-01
1.355865382058422108e-01
9.841903108509936215e-02
6.580537201859985863e-02
3.207244420200242724e-02
-2.962910267797402505e-02
-1.085849557953735833e-01
-1.624945180818666846e-01
-1.614577903619899002e-01
-1.318738734949126967e-01
-1.085039911489034531e-01
-6.271519444818222933e-02
3.048761433175114360e-02
1.165073204278515295e-01
1.497758468216135175e-01
1.680654286465341762e-01
1.958879049550687479e-01
1.844504173283490478e-01
1.220813010966282641e-01
8.046087089794830283e-02
8.826473351416709578e-02
8.588899396562663102e-02
4.439991112436811327e-02
4.286917455175835723e-04
-3.302114183755155280e-02
-7.496847500859676883e-02
-1.275505622993982069e-01
-1.663951745280466410e-01
-1.596875290397406222e-01
-1.426986610768199160e-01
-1.879788613567845434e-01
-2.456180490411609685e-01
-2.109571687257949524e-01
-1.111200495192051635e-01
-3.780054082990583209e-02
-1.209606668770624172e-02
4.169017290095188011e-03
3.564158533675787499e-02
5.185517132676037422e-02
4.011600329070914850e-02
5.094401281584161334e-02
7.962325431214863081e-02
6.920861333683191174e-02
4.906054152486678116e-02
6.486617114123381655e-02
8.190782806531957116e-02
8.650337096104525336e-02
1.054625060744105863e-01
1.289281191711250107e-01
1.372944312579391368e-01
1.272866081370593039e-01
1.126203789552584489e-01
1.438781606526625401e-01
2.622012091005903600e-01
4.540528674077703442e-01
6.277894406682619222e-01
6.187072083912791287e-01
3.750031807207999668e-01
5.496715171236614406e-02
-1.902616108649986537e-01
-3.581836516784738245e-01
-5.265113464705325486e-01
-7.288451427629547563e-01
-8.667822351229697020e-01
-8.649036578334298175e-01
-8.011703341897955521e-01
-6.898166934381498860e-01
-4.725380103400976806e-01
-2.796097589418337637e-01
-2.153328086684083986e-01
-1.090299659251312836e-01
1.180685360414755469e-01
3.084016249775650698e-01
4.151613973127816215e-01
5.198553828876348870e-01
6.099361110036750633e-01
6.183779290423517816e-01
5.610637113142932231e-01
5.064334658262771294e-01
4.547244682530368620e-01
3.594415038781714200e-01
2.364363293771900576e-01
1.365482993328063221e-01
7.029894087628232868e-02
1.876849820982452732e-02
-4.235524566172074734e-02
-1.321596967128615130e-01
-2.454218097415198363e-01
-3.480918032136296469e-01
-3.983391684066462934e-01
-3.885735804233732549e-01
-3.495623645903681576e-01
-2.900130578868139741e-01
-1.980584828475637493e-01
-9.687771550158276457e-02
-1.203817354198864764e-02
5.281622498494505102e-02
8.306350443578984499e-02
9.142623281860871864e-02
1.121664846323053855e-01
1.245610577288287918e-01
1.188717512066256865e-01
1.347883953106305821e-01
1.433391355723795113e-01
9.328454238305003421e-02
2.964505696470891294e-02
-5.765842143003524142e-03
-3.881531170504737283e-02
-7.607207498769136267e-02
-7.918511184200169306e-02
-4.925173634809792977e-04
1.376104394477977999e-01
1.841617217820150365e-01
5.292858852780514545e-02
-8.667227891413990803e-02
-9.529976955094987545e-02
-1.192863530227378788e-01
-2.197553824365499064e-01
-2.184126264968677400e-01
-1.421315395181634855e-01
-1.520788530687945950e-01
-1.531040796734690623e-01
-5.803256321091195685e-02
2.038640130491403343e-02
5.868750458154136512e-02
1.235772686972741174e-01
1.952272166784661533e-01
2.223485329233184649e-01
1.946301669847894378e-01
1.528331905844671490e-01
1.438021976761543474e-01
1.394947965957139546e-01
1.038476552433368061e-01
6.842957101797056407e-02
4.268480090002175348e-02
-3.424839285630018604e-04
-3.865589856089875903e-02
-4.754831606505176278e-02
-6.147558655141449613e-02
-1.025145855147547302e-01
-1.402481039034174926e-01
-1.465439889054215850e-01
-1.323024600395742711e-01
-1.339660394645100228e-01
-1.348653010456559442e-01
-7.200326484848253161e-02
-2.592524232297810718e-02
-1.112946615446836346e-01
-1.620727516124763068e-01
-2.259042954934540118e-02
1.285115382989446275e-01
1.653988506265452463e-01
1.927196235003469926e-01
2.277991582169353324e-01
1.954577513046685810e-01
1.200032212468941512e-01
6.601986249460997658e-02
4.008501768737052218e-02
1.925953994652902443e-02
-2.078696283765424022e-02
-7.372063593411662397e-02
-8.819848472326531630e-02
-7.204387074696751159e-02
-1.010029289605651748e-01
-1.538651977767139800e-01
-1.223223094776997033e-01
1.876612699211238286e-02
1.706964864821735595e-01
1.979623552976889078e-01
7.487368416937674465e-02
-6.231411567008661445e-02
-1.026807219471655014e-01
-9.748081688816531698e-02
-1.288891780339255499e-01
-1.856635748588502666e-01
-2.072667540878845305e-01
-1.655452573863728238e-01
-9.239624387537133388e-02
-3.506970281127713696e-02
-1.943825318664625657e-03
4.261923313664114921e-02
1.281481528210395016e-01
2.081201050795266905e-01
2.215971898335803436e-01
2.027663345452662691e-01
2.012499909129497333e-01
1.895175618767588333e-01
1.277279392131072666e-01
3.509007445881819065e-02
-2.194637659003775831e-02
-2.196735066099189670e-02
-2.298342090702045620e-02
-5.219327334874691859e-02
-6.873460675551130994e-02
-5.899895071978765448e-02
-6.648507806557524269e-02
-1.062460664364337087e-01
-1.258428807371816671e-01
-1.084192392033821450e-01
-1.055384473011007074e-01
-1.164072587500439571e-01
-8.777917688042084776e-02
-3.351351891287489976e-02
-7.836077752089349452e-03
1.009765750686865068e-02
6.946544594819831220e-02
1.253728649517674154e-01
1.248056707039451596e-01
1.231001250664925523e-01
1.500899112818199488e-01
1.414797330000270026e-01
9.109483050483341282e-02
5.731692692305433157e-02
4.093248525247888264e-02
7.290829458987303432e-03
-4.421434668568725856e-02
-9.336339207090457726e-02
-1.311238826358997189e-01
-1.628841001928503784e-01
-1.897167352237493776e-01
-1.922838582767212590e-01
-1.314756688565472953e-01
1.099560065279283488e-02
1.617619777303200002e-01
2.022039211444330298e-01
1.299959983003415864e-01
6.110539502963260872e-02
4.567597714453812408e-02
8.601727800126527518e-03
-9.037839209020995246e-02
-1.700354226354894860e-01
-1.669851284007357051e-01
-1.369529619965962342e-01
-1.516793643590655938e-01
-1.593841276953351094e-01
-6.076355982189412391e-02
7.457479774376690740e-02
1.225866263823813251e-01
1.501717145037373691e-01
2.132129435348073532e-01
2.133707020605483395e-01
1.506922164688097587e-01
1.166933712379111115e-01
9.864540002433799804e-02
6.688801076928674316e-02
4.699744524989304950e-02
2.859226491453520022e-02
-1.629578583214524173e-02
-6.099372115683441425e-02
-6.846701672054161802e-02
-6.281207369315144895e-02
-9.523614292849963414e-02
-1.523291947621855658e-01
-1.685856428422377873e-01
-1.422520604292844271e-01
-1.363082414148830135e-01
-1.371404463623988323e-01
-6.663049326864403654e-02
4.649699294973748398e-02
1.070487388549489771e-01
1.279292255822808699e-01
1.653128835959200016e-01
1.829000362644840894e-01
1.345054421686582846e-01
7.277354583153772261e-02
6.757558337284202965e-02
8.345877236460007287e-02
4.748764287707488152e-02
-7.199737070855322801e-03
-1.255228680886827722e-02
-1.156578320844900074e-02
-5.305897442948794701e-02
-6.882540708047277245e-02
-4.165572693250568087e-02
-7.751211330067077354e-02
-1.693434168728039924e-01
-1.840735495934216481e-01
-1.089470822997656158e-01
-1.050873450919422546e-02
1.073160622134710640e-01
1.803094894142974747e-01
1.087632438104506466e-01
-1.540635641111325060e-02
-4.367849462549314166e-02
-4.496416270622717593e-02
-1.483048321291909888e-01
-2.844192767396051535e-01
-3.045439663160107169e-01
-2.175059749087174532e-01
-1.469366980112838394e-01
-1.221977089204626249e-01
-6.537339647687492872e-02
3.664993545752115445e-02
1.154868644064316052e-01
1.562445994166337115e-01
1.946467335157452405e-01
2.320334156955429772e-01
2.560996599932751638e-01
2.796777123525478470e-01
3.167231426988788012e-01
3.591358646767166540e-01
3.917824422214314373e-01
4.127154136243860738e-01
4.050610732188165142e-01
3.340431172415091465e-01
2.172981563022267637e-01
1.020692514105665943e-01
-2.348094154768222419e-02
-1.901966142195615217e-01
-3.759506988993074339e-01
-5.267754569123407338e-01
-6.085542783853061799e-01
-6.404769106258209055e-01
-6.639392506250799686e-01
-6.660691314932388751e-01
-5.892762813651872822e-01
-4.275607120273841599e-01
-2.488905587972191358e-01
-1.013405210867133199e-01
1.536521668037435506e-02
1.020461271499415179e-01
2.285063434515889613e-01
4.587735132703693042e-01
6.111405346699183561e-01
5.220997559690859768e-01
3.884789610274433924e-01
3.832967737158092247e-01
3.811754849193941252e-01
2.897381504730337509e-01
1.731587131945064861e-01
8.514160856535435418e-02
3.298687719351911518e-02
-7.556760010577534548e-03
-3.873572697442520529e-02
5.916290232752086098e-03
9.131953372501785959e-02
4.248674847990364239e-02
-1.380417092844212767e-01
-2.552491658854662004e-01
-2.701255639093705918e-01
-2.863988084259049827e-01
-3.304148478436237379e-01
-3.671940093370287816e-01
-3.472360636911165366e-01
-2.509168298939681296e-01
-1.457147383268982965e-01
-7.326304427513868900e-02
5.269303888331598740e-03
9.275172734472617031e-02
1.690920799979583888e-01
2.446393986782486318e-01
2.947435679911930562e-01
2.864327857879150896e-01
2.495589232981933470e-01
2.193486212681016734e-01
1.895405433923690042e-01
1.433569691519988865e-01
7.436901939296278186e-02
-5.557566170825152529e-03
-6.730226045953582870e-02
-9.048482565183217641e-02
-8.759361598856016395e-02
-9.607675757154365836e-02
-1.260769090067586362e-01
-1.358157455445317685e-01
-1.155898639785359616e-01
-1.162259796096699188e-01
-1.403440253760331324e-01
-1.572791665720963683e-01
-1.732740645422320425e-01
-1.208975552467104198e-01
6.216427803664771601e-02
1.958760310699149132e-01
1.378923884534749567e-01
7.682999489392366987e-02
1.421372445552472052e-01
1.945103881655756428e-01
1.548990836757474510e-01
8.450872518341000228e-02
2.711903482622399220e-02
4.885635480979325096e-03
2.078213786657966827e-02
2.607001038358022077e-02
-8.492102015395878653e-03
-4.351209988280516083e-02
-5.940503674171494081e-02
-9.093791690397061422e-02
-1.406169103436275269e-01
-1.631008621902529931e-01
-1.109286387596794821e-01
3.133877636800408428e-02
1.645990669616834157e-01
1.441867305846315228e-01
2.424930259120791631e-02
-2.442193965349128901e-02
-1.978171939459612283e-02
-8.479211140228108678e-02
-1.991098199065484409e-01
-2.584730633302472214e-01
-2.223786656834356723e-01
-1.308162993504334848e-01
-6.082408824050065943e-02
-2.962585120843872974e-02
2.149271830543997633e-02
1.080727148996334236e-01
1.917320719907452675e-01
2.426130174360107694e-01
2.334169585663624924e-01
1.808510367192517343e-01
1.510609844625674103e-01
1.498716410347367689e-01
1.269582303048441552e-01
8.053298288036440933e-02
3.722079977532688488e-02
-4.361999322444791438e-03
-4.746807425592489138e-02
-8.670208255585852564e-02
-1.062922850026821742e-01
-9.460867593419562682e-02
-9.350702170464626761e-02
-1.266230182306897212e-01
-1.317978436968197942e-01
-9.422842878262512045e-02
-9.070133136759955805e-02
-1.223454365070611866e-01
-1.040991526944461953e-01
-3.700281528200065340e-02
5.638544250288028692e-03
1.321285846360688646e-02
2.003865601986901807e-02
5.196292751634032370e-02
1.191773126051191845e-01
1.900146220686966814e-01
2.112142707531326491e-01
1.590605000754768683e-01
6.800398623260400788e-02
9.141837557639634002e-03
-2.372856872032536035e-03
-2.192980771594009795e-02
-7.656702795792857952e-02
-1.204267118634733541e-01
-1.065553114153265091e-01
-7.776623178455514818e-02
-9.355562235385024572e-02
-1.028078962689394638e-01
-2.904884662829915892e-02
1.076786164661329148e-01
2.107640505033629152e-01
1.861321411872351450e-01
5.532888935783301931e-02
-5.184415689073171296e-02
-7.336537762082509517e-02
-8.005419625595806832e-02
-1.435453345818032689e-01
-2.178071731508119391e-01
-2.056573661886378912e-01
-1.140088192665205391e-01
-4.161370314921287311e-02
-2.553365140535698158e-02
-1.169276372764770783e-03
9.083919475479294847e-02
2.114239634141420743e-01
2.607037261984431198e-01
2.179288877844841044e-01
1.688801457076405943e-01
1.557582018784267608e-01
1.170923002277327180e-01
1.558332996656593486e-02
-7.425459024979341738e-02
-7.197517915893875129e-02
-2.906581813480058063e-02
-3.323172482196080912e-02
-4.962376535984261428e-02
-2.399818717328321832e-02
-6.308708873938839376e-03
-3.978012838011437541e-02
-8.645477327873787865e-02
-1.137059789645408353e-01
-1.398412495463959848e-01
-1.828058249637841692e-01
-1.988295759479644098e-01
-1.316359347725931384e-01
-3.316457170373094537e-02
1.233122800069933606e-02
4.708312988374048491e-02
1.274761147672568429e-01
1.854973453335936329e-01
1.689123966755944062e-01
1.382467452091726279e-01
1.281166164649721328e-01
9.192198711691029755e-02
2.483527095517301664e-02
-2.790582060681197005e-02
-6.746897918372976588e-02
-9.504813886127980171e-02
-7.558039279046940839e-02
-3.554486117910647669e-02
-3.959435130665472924e-02
-8.757161360510598569e-02
-1.362590582198264511e-01
-1.414292424660233694e-01
-7.037358272923030511e-02
5.837030975835653945e-02
1.505978413602632182e-01
1.302284981135558573e-01
6.845732149997231508e-02
6.781104283881989048e-02
1.006213267831227581e-01
1.091785521458507602e-01
8.366062205857505152e-02
3.563990857050668148e-02
6.406187520235671201e-03
7.782229687672843899e-03
2.970807510194892198e-03
-9.946470917357931596e-03
-3.036442247302279657e-04
2.798323773692582700e-02
2.846448995726467979e-02
-1.326532164055499625e-02
-4.636470534783369846e-02
-5.757655235861209447e-02
-8.932673578863019326e-02
-1.206331952675756547e-01
-9.390921008784114399e-02
-3.932912670643792102e-02
-2.661003073914931100e-02
-4.652121638253751273e-02
-5.065677388998079955e-02
-3.504238532555610519e-02
-1.930091861351784788e-02
-2.374681744542916917e-02
-5.635381175795917130e-02
-7.632357574760115226e-02
-5.577135590569333445e-02
-4.427120944656978002e-02
-6.700985764671499312e-02
-7.202252222989113939e-02
-4.204689275550262811e-02
-2.168224019066349734e-02
-1.455372522603748039e-02
2.737971940149766525e-02
8.958757412864164216e-02
1.104469635895744262e-01
1.158858908110703134e-01
1.268454089144392394e-01
6.896845438379443916e-02
-1.032615403580701939e-02
2.354289279648864169e-02
9.391650691372936677e-02
8.742933441340597356e-02
1.038114800473325522e-01
1.953792711710241603e-01
2.632782698830690160e-01
2.931464142463234834e-01
3.073509742917431842e-01
2.599975834127470908e-01
2.074604506044396002e-01
2.790670758634885007e-01
3.732408710365601734e-01
2.468326877590364399e-01
-3.784337060119925822e-02
-2.221671754946537569e-01
-3.263829379168968203e-01
-4.996591243375682057e-01
-6.849173857956719624e-01
-8.072371725487500482e-01
-8.932715127507599995e-01
-8.644831233139844695e-01
-6.494799955428077753e-01
-4.038423331210898026e-01
-2.310309593077693735e-01
-6.141350401170148077e-02
7.869237923592498074e-02
1.704766565943023615e-01
3.144646317353779197e-01
4.895335171658583562e-01
5.824143482970781660e-01
5.894980213697758042e-01
5.683154333731463836e-01
5.406284423208989054e-01
5.019146258153264206e-01
4.402602649816729219e-01
3.382938673010504882e-01
2.101315858469364195e-01
1.072967053731397336e-01
3.052002573253960460e-02
-6.380657481895511685e-02
-1.564211777864200625e-01
-2.164145494564897465e-01
-2.736397430524137864e-01
-3.234980445141665273e-01
-3.315998457333048655e-01
-3.279313753560243461e-01
-3.223161495803094634e-01
-2.671236919792880360e-01
-1.765962673227234325e-01
-9.936140603758431000e-02
-3.088947708494561850e-02
4.604662762831769618e-02
1.278282838807501820e-01
1.904883885971977997e-01
2.149837082514050313e-01
2.222683990371666918e-01
2.213674742053759192e-01
1.769279658142114409e-01
5.758154813446967474e-02
-1.092919013604903150e-01
-2.274728667881454058e-01
-2.456301165847034618e-01
-2.058208102407994011e-01
-1.347053818783282286e-01
-5.074338316334492394e-02
1.442388353154313782e-02
1.055405801916894371e-01
2.521653316414100843e-01
3.295433329490862207e-01
2.372979682913129995e-01
8.508367833284813386e-02
9.392499824392060159e-03
-2.297040155980245579e-02
-9.379954357470840498e-02
-1.949186656555500219e-01
-2.701256429680047866e-01
-2.755373607065875197e-01
-2.168816044243062624e-01
-1.444517258136101545e-01
-8.937662844138306861e-02
-5.448119914537875863e-02
-1.834835900998892794e-02
6.285900206886346764e-02
1.701600116090099257e-01
2.287960694175128207e-01
2.296675144390218359e-01
2.097588049931726761e-01
1.717471647226566367e-01
1.246103724106871341e-01
1.038954751706918783e-01
8.921553472657905992e-02
1.993713460636285101e-02
-6.712123856759363849e-02
-7.139846363295698772e-02
-7.852110354939920156e-03
9.845672568091063531e-03
-6.308245844959309290e-02
-1.465345986664689515e-01
-1.421437741492767026e-01
-8.928673327036722174e-02
-1.048907896531011963e-01
-1.592268274132851436e-01
-1.375979341928955102e-01
-5.406541096081544234e-02
1.344575153579937940e-02
4.604480077289643120e-02
6.522658720143718891e-02
1.100718601563861476e-01
1.671031103614695479e-01
1.793991914204515203e-01
1.655079012105891978e-01
1.088942389130856114e-01
-4.654952339816037510e-02
-1.368179997303193840e-01
-3.431291225924312099e-02
4.021792288662779519e-02
-2.968292096198599586e-02
-6.806464648249986593e-02
-4.046310259344082505e-02
-5.970726034390904519e-02
-1.115506450438268488e-01
-1.139788911201264632e-01
-2.089948272689666833e-02
1.411715845990568485e-01
2.193636705666984488e-01
1.223687580256344332e-01
1.080934238816610993e-03
-1.546852043283924137e-02
-2.958123480312231310e-02
-1.269139494154971071e-01
-2.244265817997832257e-01
-2.645613966686155560e-01
-2.714240239378140629e-01
-1.853998343317780351e-01
2.356303746337807745e-02
1.507600030033112437e-01
9.074691214598251676e-02
6.423869289242997715e-02
1.648677659328056933e-01
2.214810736408587555e-01
1.777935494492836610e-01
1.294674351571353521e-01
1.177170880047134355e-01
1.014415976882181575e-01
5.249349218686756580e-02
1.195571692597118679e-02
9.149985678894224927e-03
7.185888674629006823e-03
-2.060720014318656243e-02
-5.414617899794958722e-02
-6.720816741174052977e-02
-6.754043163380109294e-02
-8.247850022229802347e-02
-9.374367551592513448e-02
-6.653416661776132002e-02
-4.563678974971520363e-02
-9.036402070170707068e-02
-1.237427540888137029e-01
-3.650787677191603964e-02
4.617863965740604676e-02
-5.370160585466622616e-02
-1.617181585501945573e-01
-6.138400402173750658e-02
8.765882935963191513e-02
1.365935835322683034e-01
1.706368898506303300e-01
1.852786129763647205e-01
1.231119964765969854e-01
6.386693254220572602e-02
5.468373933526418651e-02
1.782047407888704901e-02
-6.393395330176629421e-02
-8.730153604724706640e-02
-3.291246660031728333e-02
-2.513049619303126675e-02
-8.360490246834603734e-02
-9.451409929358070561e-02
-5.169868903929723813e-02
5.676800435913571807e-03
1.159113154491279440e-01
2.055146778778193239e-01
1.344355378163718251e-01
-1.215862009345509628e-02
-5.297316307862405538e-02
-1.816385393675825147e-02
-5.627774803629712747e-02
-1.766919179606187551e-01
-2.478859309752712292e-01
-1.960311892871170469e-01
-9.412567802016015561e-02
-3.514665919623355395e-02
-1.482098883512201343e-02
2.010378088378962300e-02
7.718681120026341103e-02
1.166835708364429430e-01
1.216248296959811792e-01
1.194494591181148729e-01
1.240366872145611254e-01
1.048374526852386135e-01
4.421425126977854281e-02
-6.171067426844681694e-03
9.069415286514261043e-03
3.564347649633823473e-02
-1.012049265393378909e-02
-6.008454771535065575e-02
-5.144559476630575223e-03
5.577422160087947001e-02
-1.830501167591282174e-02
-8.169843776888725817e-02
3.086133407677219345e-02
1.079629204988177965e-01
-3.534769453315071697e-02
-1.777536195504297867e-01
-1.564280322357497754e-01
-1.109296139624370292e-01
-1.103368734409122809e-01
-8.090473233153361310e-02
-1.324599071271185223e-02
5.108531600778655479e-02
1.057554070085941766e-01
1.591183119794862266e-01
1.869996674549932458e-01
1.618901749514048694e-01
1.020595102502452056e-01
3.258295409859972291e-02
-2.860677302214056569e-02
-4.978480781592356519e-02
-4.445827084850643984e-02
-5.890722932372108311e-02
-8.451385787110329839e-02
-1.000511645549531647e-01
-1.139680826609038855e-01
-1.095992379460486443e-01
-6.708242864942109973e-02
4.258316102801115548e-03
1.065370684872799373e-01
2.104943406367332792e-01
2.339039096664270456e-01
1.674632224338840625e-01
8.556625827316738375e-02
2.236464510226594121e-02
-3.752045467227156650e-02
-1.126986816713192452e-01
-2.009963342290979060e-01
-2.505897639684822042e-01
-2.131909056462875374e-01
-1.168162616997424907e-01
-3.380944004498467881e-02
-8.120381216425186233e-03
-8.699245842198926465e-03
3.017974352065892762e-02
1.007695296745463320e-01
1.438585339675746144e-01
1.575868682422684186e-01
1.557402815283986941e-01
1.138702014029297632e-01
6.119584995654333420e-02
6.571536449517587086e-02
8.735430028797502855e-02
1.788898498276018934e-02
-1.186074300159177947e-01
-1.686262609551561209e-01
-1.101178658221185630e-01
-1.029807935214816367e-01
-1.929778187304027059e-01
-2.386786595003199396e-01
-1.785734212391190956e-01
-1.036396744823619848e-01
-8.008710610515923367e-02
-8.552126181234180613e-02
-7.189043210879685064e-02
-2.315555230143333254e-02
1.904922004081239725e-02
3.585634995543134085e-02
8.528743895550418286e-02
1.682719285219388683e-01
1.945585171323404305e-01
1.672195260441145803e-01
1.833234306487873666e-01
2.434955119182471150e-01
2.871167592391492551e-01
3.340218089068832663e-01
4.133497185663850826e-01
4.748947586356331851e-01
4.584029354820588487e-01
3.559801336603599653e-01
1.957851908847844380e-01
1.516668004616954224e-02
-1.535266126662045982e-01
-2.832418396475057110e-01
-3.558775289075600812e-01
-3.981074505242041539e-01
-4.750593750886110134e-01
-5.879481131175574582e-01
-6.533119020524181808e-01
-6.237585723690527439e-01
-5.387631858835505438e-01
-4.631917934878850285e-01
-4.139458650937368200e-01
-3.412111964431894240e-01
-2.077583661775421198e-01
-4.217200468302638450e-02
1.153464390363280190e-01
2.529161811650412206e-01
3.707552711584020111e-01
4.638446990048255003e-01
5.275284253286288694e-01
5.758005443071373408e-01
6.023624456405733962e-01
5.479337116739249058e-01
4.378111354354194962e-01
3.957423653413534304e-01
3.430511626641770118e-01
1.085104560281335007e-01
-1.171625856571768959e-01
-1.072350953639560067e-01
-6.893473765776614304e-02
-1.784903547632109011e-01
-2.786639976119948958e-01
-2.871756483703606366e-01
-2.973088665832607780e-01
-3.287864359583867468e-01
-3.147730553936088360e-01
-2.452041305768116741e-01
-1.822946798941946500e-01
-1.433970773945697497e-01
-7.802860205886469336e-02
1.066401892537812562e-02
5.053327480483064960e-02
4.343668699161328667e-02
7.980537600230511175e-02
1.699354137322940106e-01
2.159723019608283112e-01
1.847060789990286889e-01
1.524651490370897977e-01
1.531858134616514988e-01
1.381537149303978251e-01
9.008443876141240814e-02
3.634747977773823691e-02
-1.011127296564030484e-02
-4.999258166164910477e-02
-8.857616865839279541e-02
-1.221791856286060796e-01
-1.382733532654291664e-01
-1.428527882773995561e-01
-1.220811106160776816e-01
-2.176147136014237524e-02
1.298459644407990721e-01
1.820239873135687803e-01
8.035027583015053043e-02
-3.387649036085363385e-02
-6.915902515425603747e-02
-9.065700837810551638e-02
-1.407998927652284737e-01
-1.933159187537361878e-01
-2.134737901670828442e-01
-1.816619580371916232e-01
-1.305604524159778013e-01
-5.630916734478402796e-02
8.248587482002267546e-02
1.795171510050543595e-01
1.468829492530131231e-01
1.242258226523558218e-01
1.870384490122117827e-01
2.266666557848754926e-01
2.015615009728115026e-01
1.496750964539479700e-01
9.190252663082965068e-02
5.985794017051446203e-02
4.529356337528106513e-02
-1.199561838330642782e-02
-8.588833082034007249e-02
-8.950996300710162279e-02
-5.044997080097072401e-02
-5.674269311232377905e-02
-1.016055240170702784e-01
-1.279868829059653268e-01
-1.193105952568269956e-01
-1.030660183609130587e-01
-1.132632357276898843e-01
-1.284210072576602579e-01
-9.303882052582877760e-02
-2.017964820649395877e-02
2.335124589386038466e-02
3.131151567795982527e-02
5.501357663992204050e-02
1.040735370184343589e-01
1.523908470692303396e-01
1.911857957549309428e-01
1.879749453714781859e-01
1.299878658974805423e-01
9.654250294014832257e-02
7.463316003150216593e-02
-4.861575839874951455e-02
-1.743910953158525345e-01
-1.359183229593391440e-01
-3.113337240771722747e-02
-9.089718553979083196e-03
-5.796692332799705666e-02
-1.282016045593669940e-01
-1.693780937819644172e-01
-1.241480761794369891e-01
1.379599473383178810e-03
1.417655142669898005e-01
2.148098715690560934e-01
1.594487713901575898e-01
2.689466154910219453e-02
-4.173887506922063784e-02
-2.918541363491882618e-02
-6.974101926817599661e-02
-1.959847011129795535e-01
-2.785080819741562741e-01
-2.356213474115471940e-01
-1.174584717896308417e-01
-1.199072512353628606e-02
3.318490531236117924e-02
4.426201124886269822e-02
9.573672452609542638e-02
1.951486492831008002e-01
2.424527810425818886e-01
1.909627869134729039e-01
1.371446227862168632e-01
1.435452813781285808e-01
1.413017704559316745e-01
9.300296413717715205e-02
5.075538242631803115e-02
1.893078852907653653e-02
-3.870592717716812847e-02
-8.222011996266284650e-02
-6.664358384401893043e-02
-4.495417036425550933e-02
-6.815466512325348003e-02
-9.782984359848238831e-02
-8.987590970209985430e-02
-6.862718497618131019e-02
-7.865515576386424013e-02
-1.186477047027775927e-01
-1.486172230810355599e-01
-1.347299561913765376e-01
-8.583719933479391773e-02
-3.924903014883913965e-02
-3.982247859265177631e-03
3.316182849415884315e-02
8.093242852508246432e-02
1.498022025055419648e-01
2.053388945603678573e-01
1.867400511367557359e-01
1.204389965178976896e-01
7.206821776179819783e-02
2.865568779786244191e-02
-3.113166106658838903e-02
-6.069724190352020210e-02
-4.734977524495546930e-02
-5.911768593774848618e-02
-1.119679537388670321e-01
-1.308921874182565059e-01
-9.633337711455601526e-02
-6.046892544905368982e-02
5.805626534264519273e-03
1.454999770232195677e-01
2.362372560491248774e-01
1.684861646434396010e-01
5.249219957750102250e-02
6.419350135477281186e-03
-1.676054584486463481e-02
-6.554982545798745952e-02
-1.107525633724084496e-01
-1.548562272349312541e-01
-2.081788383687742383e-01
-2.169281508856865381e-01
-1.576492148205530242e-01
-7.432639927165662908e-02
5.306170439133624239e-03
5.991045808149492863e-02
6.598400191853225072e-02
5.588531800028546936e-02
7.578626016556527789e-02
1.111490741882435601e-01
1.263293376005694135e-01
1.346578028694343510e-01
1.696485240344104695e-01
1.941479928926319320e-01
1.362192691431800551e-01
3.224192156134234044e-02
-6.595101148240183064e-03
2.903594711521048644e-02
4.985491788945903280e-02
2.490035339219891231e-02
-6.737528893850104617e-03
-5.244446014394028854e-02
-1.377152883978510212e-01
-2.003309923761648625e-01
-1.801037034060549158e-01
-1.407715823846726610e-01
-1.452586535822770475e-01
-1.336839005791949364e-01
-5.684504119456490479e-02
2.858799092635832054e-02
6.642124957865500057e-02
6.368144094693226065e-02
4.868570687859179180e-02
3.055349093844441852e-02
1.278379650465549626e-02
2.708216398597472485e-02
7.007295484227520077e-02
7.071453506564072400e-02
9.827519722399180244e-03
-5.085274600684875496e-02
-7.850233705130624240e-02
-9.815879329375230833e-02
-1.367074152020243405e-01
-1.795306414924706939e-01
-1.735855086149371840e-01
-9.347980583506755592e-02
2.553387628822915284e-02
1.447607123562276998e-01
2.348101266566945677e-01
2.466855485622893029e-01
1.626633089189122028e-01
5.288669870225404940e-02
3.665096598411774625e-02
1.232663327749950744e-01
1.445386837520629686e-01
5.945507017975269759e-02
7.320297777481576951e-02
1.934643940246464078e-01
2.026984558980795270e-01
1.409258635170284879e-01
1.766291354424986693e-01
2.343778931987376968e-01
2.092815777421783985e-01
1.433988144511217366e-01
3.519294847469924686e-02
-1.630182834513743684e-01
-3.776806593217210128e-01
-4.826545120705314496e-01
-4.942481948367948297e-01
-5.147593718764789106e-01
-5.441142801856483358e-01
-5.245570944059489982e-01
-4.528258627491445476e-01
-3.359172370229014382e-01
-1.800362195420591171e-01
-1.884309937460844353e-02
1.257261445870008765e-01
2.339972637148475532e-01
2.826479698280793817e-01
2.936078076812856930e-01
2.982715923203848041e-01
2.952426688856672476e-01
2.904837924741756616e-01
3.066819377842426864e-01
3.375392505291158196e-01
3.376397234302444539e-01
2.891934748881012096e-01
2.342546912232990053e-01
1.939634641343752075e-01
1.264485793358637311e-01
1.996828185710280978e-02
-6.251839425129433747e-02
-1.103287134013618970e-01
-1.852847267790262986e-01
-2.502016962314985160e-01
-2.492940534379905204e-01
-2.748043689331288175e-01
-3.161359227630828328e-01
-2.171412609979845310e-01
-7.902648499436133733e-02
-9.829937207841477065e-02
-1.391768583653471281e-01
-1.563515854092531465e-02
1.826677320842438612e-01
2.803262965562644538e-01
2.157892061940860640e-01
8.306566351009657401e-02
2.918077043829506861e-02
3.589131285792880599e-02
-3.163272442154235059e-02
-1.514946961771309053e-01
-1.878559953457617504e-01
-1.500203246260918555e-01
-1.264710523721405411e-01
-9.474059736550706490e-02
-2.740059483197508985e-02
2.005838646289255164e-02
4.915076966270048864e-02
1.171320115021461938e-01
1.807688204619807837e-01
1.565061471730425091e-01
9.164464894363046066e-02
7.272337388720086226e-02
6.816994437020734710e-02
4.514199449311614293e-02
4.039544590849208916e-02
1.931541527298448122e-02
-5.193690527544872482e-02
-7.216846875355942270e-02
-9.927642944035672962e-03
3.795412526186980884e-03
-6.510181941709415609e-02
-1.026367077987165866e-01
-6.883728350696663445e-02
-3.789824094055251058e-02
-5.781647895820666433e-02
-8.933448893849814387e-02
-9.111854343510052134e-02
-9.058941960730357290e-02
-5.668808723965591823e-02
8.918403339531605356e-02
1.997710369478660208e-01
1.088800846184543314e-01
2.411605048589382516e-02
1.163649599757757280e-01
1.747259141059957499e-01
9.298232730998683138e-02
3.824208584567805047e-02
4.247226232913126065e-02
5.814013307967800387e-03
-4.500352316527662933e-02
-5.860979848206673837e-02
-8.251002013976413418e-02
-1.284107420977378400e-01
-1.300902477504359556e-01
-7.969015740803399306e-02
-4.476251888353623837e-02
-3.428638382883830715e-02
3.427005678734434263e-02
1.756059317238636841e-01
2.404815757575952395e-01
1.221411286360846588e-01
-4.779172445281361370e-02
-1.014683347956119031e-01
-8.386651166626117593e-02
-1.212353197657754234e-01
-1.996254265802532568e-01
-2.200405687186295922e-01
-1.643224531948956624e-01
-9.683720397883720243e-02
-5.887705257347237986e-02
-3.200855575368208306e-02
1.186694085166880089e-02
7.634100406551391771e-02
1.553948149686037172e-01
2.117610824909850753e-01
1.963429822527216206e-01
1.574432395835418386e-01
1.704848832478249865e-01
1.830955321673013170e-01
1.233054803183125381e-01
2.492545995381983265e-02
-4.749110026610814383e-02
-6.663252532642574555e-02
-6.166284793697676681e-02
-7.147728970214027588e-02
-6.798813625176779174e-02
-4.566648205791626336e-02
-6.437973578221599380e-02
-9.405593322806432566e-02
-7.070555553496443713e-02
-7.005446051080573000e-02
-1.329399904492429840e-01
-1.361030737326973661e-01
-4.868221334125982791e-02
5.578735491092967971e-03
1.029098626413524342e-04
1.272064915005392816e-02
5.722549105773346023e-02
1.059431080995777708e-01
1.461296531288996392e-01
1.510597390964126263e-01
1.189072103686287935e-01
8.694238204092535893e-02
4.614162181247724592e-02
-1.115490822198696511e-02
-1.373322441651210826e-02
2.761872552867993685e-02
-8.857659795030586869e-03
-1.006287153634964765e-01
-1.240738039252532315e-01
-1.098321799475077271e-01
-1.297532457059740740e-01
-1.171971710624467589e-01
9.503676384808234720e-04
1.706991652241926227e-01
2.455896909612380885e-01
1.435842861542043214e-01
-1.072186906071483092e-02
-6.280468866805245798e-02
-7.363394152033149453e-02
-1.534779511920781048e-01
-2.313975741194632674e-01
-2.079431420682477105e-01
-1.207662238928745163e-01
-3.561106298294687555e-02
2.006663960521147885e-02
4.055003350748676710e-02
7.450613630420566125e-02
1.427259542585613827e-01
1.741822970033590490e-01
1.394051680809004767e-01
9.703047462693320524e-02
8.844441225474593271e-02
9.676220918654755698e-02
7.638828074314935046e-02
2.958710072456438231e-02
1.430864005226201163e-02
2.071849022875520488e-02
2.408981035931822764e-02
6.461953473714382445e-02
9.165376922330868703e-02
3.178600446470675883e-02
-6.959453357844394561e-02
-1.819573967459615360e-01
-2.563361055574959746e-01
-2.188800037573286061e-01
-1.384391646510659546e-01
-9.488685109832124820e-02
-8.028401274101858165e-02
-8.851487360800877613e-02
-7.218462294537968116e-02
-1.793222019797519398e-02
-6.363096813082877445e-03
-2.012391362537453363e-02
1.066409733820862862e-02
4.143724892352865230e-02
5.395170552468575575e-02
9.051310660689719512e-02
1.153810541430447256e-01
9.942123795053148250e-02
6.688855385160584477e-02
7.913712668294468205e-03
-5.267251092870287033e-02
-4.352906514014658751e-02
3.464417659759788659e-02
1.284150028645916486e-01
1.882247268660641737e-01
1.836312417229012395e-01
1.573041305112794497e-01
1.929319276604051780e-01
2.771156283496855055e-01
2.844752930745138020e-01
1.566044252057160191e-01
-1.535900883021801278e-02
-1.348014189131940543e-01
-1.936503493718136903e-01
-2.456020118865820390e-01
-3.385153439495862115e-01
-4.104702225516082548e-01
-3.728781652437200833e-01
-2.818788450868363604e-01
-2.208522297881485019e-01
-1.627062690415494450e-01
-7.158412709231734561e-02
3.966783682732248628e-02
1.391948431336140213e-01
1.972089800825479466e-01
2.233983842093674455e-01
2.242791380937132761e-01
1.761349178883513944e-01
1.144960229292545789e-01
9.668017658587321761e-02
8.790938248361623852e-02
4.384170305174521498e-02
-8.893387670368194109e-04
-2.263171164005453248e-02
-4.852376982629974522e-02
-7.614837048986242141e-02
-8.627493304540170826e-02
-1.141610522796409483e-01
-1.694738108737725846e-01
-1.843883325333951495e-01
-1.601625689303463329e-01
-1.682716069460594155e-01
-1.842525340259752731e-01
-1.422079546909268133e-01
-6.941190332581065325e-02
-2.134922037938521283e-02
1.198238731060485146e-02
6.445135379226182848e-02
1.292153688904041642e-01
1.850856574525862053e-01
2.414410370127487715e-01
3.241766391081412069e-01
4.360911007909233916e-01
5.445464521168894567e-01
6.159329768098141811e-01
6.359215700930124227e-01
5.843551876391761546e-01
4.390734295376831353e-01
2.126001213471678530e-01
-3.932943196993037016e-02
-2.469441234702315080e-01
-3.909999436312568410e-01
-5.062189231466219796e-01
-5.770891665080548627e-01
-5.685423405295559895e-01
-5.609739721390977207e-01
-6.263225569541247539e-01
-6.607262307550682001e-01
-5.651619757801461530e-01
-4.297828784362111021e-01
-3.737091351686820939e-01
-3.584540430084142693e-01
-2.727864268893653299e-01
-1.004703670517337888e-01
8.048823724660986167e-02
2.056982741012350069e-01
2.787350624637102703e-01
3.562311307624456691e-01
4.709896159808661387e-01
5.663451309149452051e-01
5.832436573612398423e-01
5.648347986095273443e-01
5.616289824139221176e-01
5.293400561265559912e-01
4.322715782606314505e-01
3.005135112746835091e-01
1.382062067142806328e-01
-3.481436894132958204e-02
-1.405383596726121065e-01
-1.930962379939700491e-01
-2.765997335961970505e-01
-3.534762204067330993e-01
-3.409859074172646443e-01
-2.832972488342427875e-01
-2.623881668805765899e-01
-2.743226611406405224e-01
-2.798276049931647802e-01
-2.549834762024672519e-01
-1.916238740163442311e-01
-1.155826981146177712e-01
-5.447706671338220508e-02
1.719655937316112021e-02
1.226346920580131394e-01
2.081114258043052501e-01
2.238410632322841431e-01
2.202560935163971889e-01
2.482714535567017711e-01
2.277859563831843293e-01
8.933695428050660026e-02
1.018792986473832443e-03
1.140980079278620107e-01
1.977567307631973303e-01
4.526401191263156737e-02
-1.270378234859931843e-01
-1.443427007429194664e-01
-1.241364602682026030e-01
-1.360302085431503438e-01
-1.462554686122887193e-01
-1.245162082152774241e-01
-1.619402190849075773e-02
1.370847443750040084e-01
1.652327782681477231e-01
3.646390658552626368e-02
-7.889144908890925734e-02
-8.108325639609104130e-02
-6.019817402993735134e-02
-1.191599044910039568e-01
-2.140672840034462399e-01
-2.321420215319500435e-01
-1.609262384345548358e-01
-7.548570713206306793e-02
-1.748618441496729847e-02
1.719454513550303792e-02
5.448190598559171649e-02
1.356480779446385676e-01
2.424937746091998803e-01
2.888544661452124851e-01
2.426828588763825512e-01
1.541599669306509823e-01
8.240781606739150389e-02
5.991949769795128222e-02
6.878814321895822259e-02
6.087546808847810187e-02
1.711299956986997439e-02
-4.712738467912418183e-02
-7.997492051500855459e-02
-4.667507750514610088e-02
-3.133207107098207045e-02
-1.061964621851028134e-01
-1.715521236107448722e-01
-1.409367767434073770e-01
-9.418736554149322038e-02
-1.085362897499553975e-01
-1.393506672066533725e-01
-1.250952914260594351e-01
-7.318209444198517377e-02
-1.525450285414819279e-02
3.132912254222609827e-02
5.647345285315271551e-02
7.975221975034169075e-02
1.353345218483938406e-01
1.997495596125892781e-01
2.141634865896010487e-01
1.726795929992185341e-01
1.079323124366925596e-01
4.133997021833177993e-02
-8.769779546480803434e-04
-1.039477904383790188e-02
-3.448483403986818407e-02
-9.269639026632928158e-02
-1.202869094244236603e-01
-9.567805308643395623e-02
-9.679108405895398004e-02
-1.393356436343406446e-01
-1.183797791592466064e-01
3.049408219005429743e-02
2.066202689368374923e-01
2.299664295221420240e-01
8.098102429396472624e-02
-5.715648811408499674e-02
-7.381908708359344318e-02
-5.755426524980368497e-02
-1.093464291166080793e-01
-2.019714861129918437e-01
-2.338892863095370644e-01
-1.599897944883342527e-01
-5.658657113083718354e-02
-2.628848222332945753e-02
-5.094759356775664660e-02
-1.410665687026545906e-02
1.179681564016586692e-01
2.317320141010634216e-01
2.338003299829236048e-01
1.834660973838222742e-01
1.740748166566295219e-01
1.845007797857064202e-01
1.426232645669351928e-01
5.047809315813039238e-02
-2.077670815293794493e-02
-3.663883255104594117e-02
-4.865187172967583296e-02
-8.119101389651345313e-02
-7.852756991029991029e-02
-4.538507635850860811e-02
-5.419055263769032710e-02
-9.868672568643951926e-02
-1.237052899645925547e-01
-1.267720658400718348e-01
-1.258862740854251594e-01
