-1.560532301992899329e-02
5.806751500117710713e-02
1.690849426524538290e-01
2.651399359263859612e-01
3.102612365670427419e-01
3.448534283974615811e-01
3.846658616871999614e-01
3.648872270688001684e-01
2.431056456463602522e-01
9.036682528877426623e-02
-2.325444673762674941e-02
-1.202355393523239363e-01
-1.917097879795743309e-01
-1.812526717551679878e-01
-9.541370073716640143e-02
2.158856828236148384e-02
1.101774070298952302e-01
1.258184022069105124e-01
1.322007003272109016e-01
1.852366129912963455e-01
2.104681955722030318e-01
1.619222272433782084e-01
9.492642489903704850e-02
3.188786651404126871e-02
-4.759486352973214818e-02
-1.134240617549198971e-01
-1.317706082320928562e-01
-1.435711728229912276e-01
-1.708561334625290085e-01
-1.715602584575498524e-01
-1.501516997454440672e-01
-1.462615618956544794e-01
-1.510231216821602829e-01
-1.257418598356718209e-01
-5.414203127360937146e-02
9.681388939159582541e-03
2.699819159392852219e-05
-4.040196732219760584e-02
-3.128488622074618308e-02
3.055004967638872554e-02
1.098247323681230264e-01
1.674165291887547702e-01
1.736227804961399945e-01
1.427861568906786394e-01
1.012825601285261418e-01
4.519587233856264125e-02
-3.424933946054080358e-02
-1.179216701608582912e-01
-1.746928956404965594e-01
-1.960613654810265116e-01
-1.920252566645438419e-01
-1.676393523456211343e-01
-1.213571318544931915e-01
-5.010649135472942939e-02
3.621724440641596598e-02
1.051876911822724053e-01
1.424580682645097407e-01
1.712894471878701752e-01
1.892113103541107622e-01
1.545228767228550293e-01
7.968405845963380529e-02
2.896824641515916704e-02
-1.585555857969066923e-02
-1.232769216317798761e-01
-2.435390362398169306e-01
-2.675290249571197210e-01
-1.934806345199616695e-01
-8.980862368723921407e-02
9.312092514554285577e-03
1.013930333362603603e-01
1.810555854837709866e-01
2.377815454871461953e-01
2.677803291418731080e-01
2.732574126084596489e-01
2.461621292767420255e-01
1.822928503766495234e-01
1.114716907283558461e-01
5.873824181666582878e-02
1.970755023634011838e-02
6.828402296123622928e-03
2.224518777200387709e-02
2.733883856407079080e-02
6.595704412833205965e-03
-3.500013526595074226e-02
-9.888124913562185148e-02
-1.646835235275342924e-01
-2.262881184470022788e-01
-2.879329754071304204e-01
-3.072746327880107042e-01
-2.769487387653906119e-01
-2.462083832893337543e-01
-1.927705481923039088e-01
-7.599887311581021709e-02
4.120256935671793436e-02
1.008510797784767238e-01
1.290355728722091255e-01
1.360815705168465783e-01
9.816351219607111211e-02
2.733337177041043897e-02
-2.566688386565961488e-02
-3.300082864836697411e-02
-3.925102706968268407e-02
-8.069602936500021306e-02
-9.643043146918926778e-02
-4.446058672348385254e-02
3.027146753048981162e-02
1.118910303789270727e-01
2.030623867013856831e-01
2.584192679494173861e-01
2.570794212651456023e-01
2.107128559582669147e-01
1.297138494156515054e-01
6.273115136184752305e-02
1.484598920773884390e-03
-1.443967420334230922e-01
-2.677790438374793580e-01
-1.657121344971551613e-01
9.822995612748172678e-03
2.968384286485845763e-02
3.496070600319964999e-02
1.457731528022280232e-01
2.086342277516746169e-01
1.619855443697938158e-01
9.855118565610129777e-02
5.290901182183661150e-02
5.104101684177585890e-03
-6.119543537647718912e-02
-1.372904552171140269e-01
-1.817069054809232753e-01
-1.822978585813030961e-01
-1.718167181403590371e-01
-1.604462563853435719e-01
-1.217886698625064990e-01
-5.849170251882738342e-02
-3.353784487684106919e-02
-7.280663653110250322e-02
-1.067264216044841590e-01
-1.040302804044274387e-01
-1.124587613390981289e-01
-1.180709576742419720e-01
-5.994360073569511560e-02
4.150045215436524992e-02
1.166822414466582164e-01
1.551829247682933177e-01
1.919675842854060843e-01
2.286234929261988513e-01
2.442063360109701931e-01
2.268579195521870928e-01
1.670373541174112186e-01
8.932633347265489521e-02
3.726442362772734024e-02
5.020951215911395593e-03
-2.787474711421537160e-02
-3.844845176899279460e-02
-1.201881894232095793e-02
1.057100341472085384e-02
9.243476771708357409e-04
-8.820914534375296628e-03
3.824290256535686078e-03
2.280228919305553326e-02
4.180627657080891041e-02
4.592031730548528506e-02
-4.472529775695929626e-03
-9.659987425509786174e-02
-1.762127489210095210e-01
-2.620861855167709864e-01
-3.775550830000896640e-01
-4.178517403471955216e-01
-2.997800322890280533e-01
-1.238837448406245462e-01
-1.518592806499833442e-02
4.316762305159434210e-02
1.140255897000292257e-01
1.901969538535412396e-01
2.355008132583952529e-01
2.470410944527437758e-01
2.477464688662175951e-01
2.240058712950801778e-01
1.247648757306369371e-01
2.516792962852083815e-02
6.176068387964762235e-02
1.018112700605915549e-01
-2.343450483841098483e-02
-1.164758428172630728e-01
-4.272909775344996275e-02
-1.511065379282990756e-02
-9.484087664486591518e-02
-1.172530869325205116e-01
-8.007774053910546308e-02
-6.917390880294604916e-02
-6.292628161121707753e-02
-3.086764697137247410e-02
1.980560395589842440e-02
8.501007008166476531e-02
1.463181626060690577e-01
1.781614006788490578e-01
1.677473211228259486e-01
1.133420144308228822e-01
3.265817890421906372e-02
-3.983113362655436862e-02
-8.089085169910545381e-02
-1.116455080896942148e-01
-1.708644371265284900e-01
-2.260290706099130909e-01
-2.038269344070267330e-01
-1.343943981260611320e-01
-1.014311222991731709e-01
-7.328851924633453252e-02
1.200368866144140012e-02
9.805052335809812114e-02
1.312899169824000567e-01
1.644299476001635785e-01
2.129607905383213151e-01
1.973406543185894646e-01
1.113625884027109880e-01
4.955485474723995976e-02
5.357178260970384825e-03
-1.084276797198792108e-01
-2.234686512613322795e-01
-2.090148205773840751e-01
-9.785990694437673998e-02
3.062919862282547853e-02
1.539390307463626706e-01
2.199153186868944843e-01
2.035136284012828145e-01
1.641763207304390848e-01
1.266115891023676943e-01
5.520176718899696966e-02
-3.678280690971680311e-02
-9.319307266183957106e-02
-1.131770294655818077e-01
-1.391140837876830849e-01
-1.780555386193354572e-01
-2.028978844383777513e-01
-1.997991397841084871e-01
-1.904493916776412721e-01
-2.013981053319225389e-01
-2.105167533962915005e-01
-1.865543298087180835e-01
-1.403087436161920276e-01
-8.224634773119324227e-02
-2.949561240272772361e-02
-2.645439379692082760e-03
4.222254974435110664e-02
1.406002870766069890e-01
2.466042743613122978e-01
3.241516139863245827e-01
3.791799070949412598e-01
4.122417804605795211e-01
4.196591349467500009e-01
3.937927180209140343e-01
3.234638833822293114e-01
2.224509976178476178e-01
1.187701484214452596e-01
1.344917899577321996e-02
-1.053773504983269299e-01
-2.209725782198938004e-01
-2.920738684772276050e-01
-2.906987663514297715e-01
-2.506379913068519927e-01
-2.326662479588215149e-01
-1.831924325957006161e-01
-3.091287450799858061e-02
7.003211782860685464e-02
-2.176456860603576127e-02
-1.615759033208052364e-01
-2.230173843506273457e-01
-2.566783885040748170e-01
-2.888000952795322651e-01
-3.133806022926629020e-01
-3.169425548351395006e-01
-2.349490944325130781e-01
-5.296010473127222423e-02
1.413510169361696933e-01
2.651956352309121079e-01
3.187557394733774863e-01
3.495517576037296958e-01
3.521731982848628206e-01
2.840365663709482069e-01
1.869994653335909640e-01
1.215425039510457383e-01
5.724634268441006202e-02
-4.359907953020714100e-03
6.211951697368420233e-03
5.741522355162528152e-02
5.677191149602896225e-02
3.017902746479446049e-02
4.107512422374374333e-02
5.018436267618489599e-02
3.730442407100076352e-03
-6.919115709778014822e-02
-1.101706424967261039e-01
-1.006944191601255034e-01
-6.778703972779322184e-02
-5.364674704596698179e-02
-5.971391573580039219e-02
-3.706198840159605212e-02
2.056953799841594599e-02
4.477311079840698427e-02
4.315035849985219413e-03
-4.938126817675739938e-02
-8.331290173123025167e-02
-1.251294868990154019e-01
-1.814091489180245931e-01
-2.200028753291413397e-01
-2.261518572361504442e-01
-1.872388315573663420e-01
-8.261559728261906599e-02
6.635158483211478497e-02
1.982742363832584731e-01
2.659832467850574145e-01
2.764592763732991454e-01
2.623526694990301888e-01
2.229240462050277316e-01
1.582320803237263762e-01
8.821995690161135717e-02
-1.398612408274539989e-02
-1.598700185709167887e-01
-2.642175167245289225e-01
-3.058080815187024237e-01
-3.889760758748267433e-01
-4.787247595302496217e-01
-3.879003903375088935e-01
-1.476786170929657027e-01
3.740057719989827584e-02
2.132105132475350384e-01
5.054391664129048722e-01
7.052974792278104976e-01
6.319427514076454422e-01
4.908985580563246520e-01
4.431868780579389377e-01
3.956173053501449433e-01
2.902471533873716703e-01
1.300510917605123273e-01
-7.576819545244460608e-02
-2.428940890380680839e-01
-3.312653690475127477e-01
-4.006272379352825985e-01
-4.579731475677107366e-01
-4.698406272078078372e-01
-4.630934048341809883e-01
-4.543911707987560722e-01
-3.841135762575355050e-01
-2.304836830422812843e-01
-9.945655692334241793e-02
-4.619166134305736915e-02
3.901764229069144829e-02
1.538419983017203230e-01
1.470320546980742604e-01
9.546995922287308811e-02
1.671136459731888957e-01
2.371979036493465920e-01
1.673320970467390978e-01
6.802719195234038785e-02
2.008154545763368715e-02
-3.101402313053642709e-02
-9.834403584277161270e-02
-1.296813714845020393e-01
-7.839780926026020114e-02
4.435658036974779450e-02
1.396041775559148657e-01
1.471814049426212467e-01
1.467989472447426835e-01
1.812351967759031068e-01
1.778330075454195858e-01
1.406868062927608409e-01
1.458909862846961281e-01
1.605738501931828766e-01
1.015217830321133025e-01
-3.907925388105908115e-03
-7.287207277992974186e-02
-1.143923994386991660e-01
-1.808987125084606518e-01
-2.206303296472389708e-01
-1.467785023780256437e-01
5.322277630463577436e-03
1.320307057924655914e-01
1.800443248198667079e-01
1.617033484611145600e-01
1.306093047041930189e-01
1.057699743979585855e-01
5.191929862506871468e-02
-1.529824366505154985e-02
-6.013118029208868592e-02
-1.166767220938595140e-01
-1.863913101913588222e-01
-2.151105613266336980e-01
-2.071598208043515243e-01
-1.858614788955423869e-01
-1.471739816566753623e-01
-1.115483660112676079e-01
-9.120945675138117381e-02
-6.500841445813952679e-02
-2.716364960593527916e-02
1.103070278304869867e-02
2.532901512735828004e-02
-4.634880847585891306e-03
-3.892534752317923508e-02
-2.016033212321477128e-02
4.047967313925125710e-02
9.034225792120760545e-02
1.059985119171697882e-01
1.118751109238637076e-01
1.200816446125327897e-01
9.012721796907433025e-02
1.805790060079753498e-02
-4.593093545286157375e-02
-1.016090954971362037e-01
-1.603149460904784718e-01
-1.701096081442230734e-01
-1.112276082575722191e-01
-4.054048836823421348e-02
1.664030103081612713e-02
8.346348934079191040e-02
1.597379912629533771e-01
2.338725720960434518e-01
2.903575461953553094e-01
3.079243057291931041e-01
3.064774363561311721e-01
2.898984062695747488e-01
2.164845398846573232e-01
1.228337880660640563e-01
6.409696705507431091e-02
-1.500640116978096267e-02
-1.303662779675946459e-01
-2.151469073313790892e-01
-2.627234803675486674e-01
-2.282762451387781166e-01
-6.084275287395229936e-02
5.018017873180116023e-02
-4.431004463789806058e-02
-1.463482667570179807e-01
-1.116313585667522978e-01
-7.514075251324302263e-02
-1.217275629974000906e-01
-1.841192855854555110e-01
-2.111336018011194249e-01
-1.998479719191101622e-01
-1.745890783647783828e-01
-1.736036523231697659e-01
-1.650109060652695803e-01
-8.554708328031518372e-02
3.547838778893329381e-03
1.852077987132468712e-02
3.379242942067733901e-02
1.005636694580281515e-01
1.136621778142048456e-01
8.977018012997203811e-02
1.737235057054360154e-01
2.639931360908965852e-01
1.888986424367667949e-01
1.028339644448276746e-01
1.711130926772465588e-01
2.616978415746641917e-01
2.438305584043534147e-01
1.652964907951597617e-01
9.384538030834760347e-02
4.329784049323583128e-02
1.025612209784467627e-02
-1.721732793668429712e-02
-5.834611752730722162e-02
-1.105102380854673938e-01
-1.489201095646381368e-01
-1.681143765877170793e-01
-1.701806494846086482e-01
-1.421429650293107305e-01
-1.028945585781620153e-01
-8.740915785295792773e-02
-6.953613520967404094e-02
-7.278433349819693129e-03
6.119537648529206619e-02
5.512186487397906925e-02
-2.671489079216330179e-02
-1.003099591613940689e-01
-1.350904290540262676e-01
-1.826510497237959219e-01
-2.328407414861436431e-01
-1.976161083876183111e-01
-6.910288110564415109e-02
6.488336948862041820e-02
1.596123315864343972e-01
2.275251773358039631e-01
2.655380020335523783e-01
2.655195554054539664e-01
2.424658812721404155e-01
2.168307370451543759e-01
1.839603752260266234e-01
1.163491132124756938e-01
2.604563107391891577e-02
-1.535562553242134087e-02
1.358664440120957440e-02
3.467752956332600250e-02
5.784418636289381799e-03
-2.522952314747752695e-02
-3.379942204900846653e-02
-5.156896530255638406e-02
-1.044905276795427274e-01
-1.726569612272486343e-01
-2.153984308792087354e-01
-2.362753594819927416e-01
-2.644888058389369689e-01
-2.881930231662898634e-01
-2.275191456974328119e-01
-3.489152785607380763e-02
1.324841003558689945e-01
1.193501912288330996e-01
5.605708276878107466e-02
6.526781350775658075e-02
6.518381782137905311e-02
2.230949941119595922e-02
-2.144267574371714474e-02
-2.486567832151386284e-02
4.733455461074898007e-02
9.046973543267373963e-02
5.377364505890769308e-03
-7.620355083859171874e-02
-4.672563539346096667e-02
2.117283340102995084e-02
7.064409207775396160e-02
1.096571251503503930e-01
1.543203913581197018e-01
1.954333937922260733e-01
1.981732226880157655e-01
1.841762353039686495e-01
1.461768237530450543e-01
-2.083553816097172273e-02
-2.431558139754400327e-01
-2.913354304651337157e-01
-1.844496274341808351e-01
-9.212855433257297055e-02
-1.795649137120560596e-02
7.665523469203236462e-02
1.412958722170392090e-01
1.614078273168190469e-01
1.842517681972423715e-01
1.991737902047130693e-01
1.470295157934391472e-01
4.855463127018070507e-02
-2.232056809569970060e-02
-5.940327211170860766e-02
-9.238401618521817349e-02
-1.284103548989844468e-01
-1.658077501995403880e-01
-1.704294167144567163e-01
-1.173352151690641998e-01
-6.998882867863491508e-02
-9.542894900251479295e-02
-1.500477186570184085e-01
-1.362362358883161539e-01
-5.259372415811418983e-02
-3.336685544473326492e-03
-2.525212164856992930e-02
-4.496934337244017088e-02
-2.154860638920097840e-02
3.802939595085777502e-02
1.319516077711157531e-01
2.103348643351999614e-01
2.123911073961160523e-01
1.632899618438334866e-01
1.030932381465595044e-01
3.132889364337232418e-02
-3.107756757603627462e-02
-7.389139092835592115e-02
-1.342364754289565032e-01
-2.040160052260030499e-01
-2.253537635740678891e-01
-1.925846279387030680e-01
-1.400396778037133749e-01
-8.430547452367548322e-02
-3.558343864554684710e-02
3.571632528648397559e-03
4.976623837255513688e-02
1.264373189699642408e-01
2.231707064151077502e-01
2.576896978707253760e-01
2.049176067888406894e-01
1.726764376455100225e-01
1.247587172788563042e-01
-9.039581893442158456e-02
-2.933726544304174344e-01
-2.157549542815912769e-01
2.386512500284869442e-03
1.605670640957989892e-01
3.025663311398475441e-01
4.278165008869181940e-01
4.586183967975870912e-01
4.122556264118055758e-01
3.193964483651970387e-01
1.741504188977723022e-01
3.115717846857338214e-03
-1.521353088009500532e-01
-2.633247386529533607e-01
-3.361309048969752244e-01
-4.095318546250695246e-01
-4.588299643526237981e-01
-4.368113131609479005e-01
-3.942144828542990531e-01
-3.664834358237852308e-01
-3.156376607597320971e-01
-2.553471125843773115e-01
-2.043239335963090708e-01
-1.235607830916117811e-01
-3.181074496417082842e-02
1.928318403279548343e-02
6.376755464891203928e-02
1.375145230558194043e-01
2.000357248991953274e-01
2.304779089094957656e-01
2.598943615203298529e-01
2.921151490603569600e-01
3.011974420089963411e-01
2.836439990891407303e-01
2.449259750918035827e-01
1.839537749746975037e-01
1.158818725373229885e-01
5.078758143004743347e-02
-1.862509694631735158e-02
-7.472541755419619125e-02
-8.807859891924073314e-02
-6.102392861616502684e-02
-1.460699786848494025e-02
2.855687083676910348e-02
5.936238263596378684e-02
1.050242961792025309e-01
1.693842401829317446e-01
1.746977632368369449e-01
7.211251767025321502e-02
-6.524100137655067244e-02
-1.525767900602326144e-01
-2.088443380300410990e-01
-2.993275351798573292e-01
-3.842263541730933096e-01
-3.311243689867987561e-01
-1.478355500995114924e-01
-6.040752953370497058e-03
4.901095160114361804e-02
1.294835605755635388e-01
1.939792870147514781e-01
1.042456666704518198e-01
-1.156717379364676640e-02
2.595144547877952998e-02
7.198754969639389878e-02
-7.800254438707684285e-03
-7.582524581862314095e-02
-4.830930119617019014e-02
-1.269874608891741197e-02
-2.289613103430620036e-02
-4.866694729253320806e-02
-5.478607153567656429e-02
-4.100985145276347249e-02
-3.102022901428739404e-02
-3.551679784628779257e-02
-3.386378346756360735e-02
-1.000710684685607137e-02
2.074642928430994737e-02
3.756194497540870508e-02
3.571709755360037014e-02
4.908577611377389072e-02
1.197541123120740708e-01
2.025729589553874055e-01
2.206419604334360629e-01
1.914259114100962389e-01
1.624170589660557107e-01
1.333377113036414430e-01
1.044314617905615361e-01
7.096736713668180818e-02
5.142063210524960848e-03
-7.930222532124539536e-02
-1.406838369570437008e-01
-1.800002744737198013e-01
-1.999532165909628789e-01
-1.748852028359108579e-01
-1.185703156168276678e-01
-6.896250603496119347e-02
-2.341284567018674795e-02
1.255681447711342463e-02
1.053982509334516413e-02
-7.216378675749555993e-03
-5.235687118343889529e-03
-1.301146252831458447e-02
-7.719399400458444582e-02
-1.877682316096822290e-01
-2.781489604134067539e-01
-2.772364388509174771e-01
-1.762184651648452949e-01
-3.525405900968475725e-02
8.365253565196809071e-02
1.590175292999149170e-01
2.071920805437015844e-01
2.553695138569163081e-01
2.896700965600392808e-01
2.847648584955444484e-01
2.652290120339062529e-01
2.364297984329321312e-01
1.605914983034703869e-01
5.673329745866474705e-02
-2.349790597321125413e-02
-8.368053704037968499e-02
-1.383389597084871969e-01
-1.715762407161871561e-01
-1.819472514034116972e-01
-1.925867802556459063e-01
-2.016849538845512657e-01
-1.659091320809180092e-01
-7.868896804163980074e-02
-1.647929207374185245e-02
-2.656392585490296998e-02
-3.921902543321267864e-02
2.408613680718285632e-02
1.252554347856053851e-01
1.812506465594347915e-01
1.892179057301958678e-01
1.829421639297979241e-01
1.551146814083421699e-01
9.396421655986418597e-02
1.206053092358666187e-02
-6.875652825367144227e-02
-1.203087386602312292e-01
-1.430306776957489812e-01
-1.811239418515684652e-01
-2.375549806220899063e-01
-2.342442450243990282e-01
-1.385108035901327084e-01
-3.422141614478511895e-02
5.065850993921761081e-02
1.825486014339509078e-01
2.703240033379991081e-01
1.893798947531806220e-01
1.060499989992268743e-01
1.463887796684263110e-01
1.527243376950704334e-01
8.494305534690643755e-02
1.256441507180218811e-02
-1.210763575579969359e-01
-2.538083005458994235e-01
-2.286762601949966500e-01
-1.013294223730076271e-01
-7.504712428700013177e-03
3.418794608839813287e-02
5.752090034346721281e-02
9.130798819200783289e-02
1.337042666433272964e-01
1.455718416162455897e-01
9.669099002056304182e-02
3.580039038769129104e-03
-7.390872605218259950e-02
-1.112907479178272263e-01
-1.617830488405337663e-01
-2.508957931970142718e-01
-3.103645732085761888e-01
-2.862028483203813423e-01
-2.287656238868424341e-01
-1.881563222629139831e-01
-1.336773432838246622e-01
-5.844991838986960536e-02
1.852642973636779017e-02
1.177662529050842177e-01
2.014208846992078250e-01
2.116074295770846991e-01
2.242194084671982890e-01
3.114619410854116421e-01
3.936279513551182441e-01
4.116742515460271035e-01
4.302814678909019364e-01
4.610466592867973890e-01
4.071878177165937363e-01
2.553489772332212526e-01
1.117291730588638871e-01
1.207699774550284599e-02
-1.012334229102529182e-01
-2.279835763566696039e-01
-3.259607804969081313e-01
-4.026627081420833809e-01
-4.522382096455775380e-01
-4.372746782909339158e-01
-3.852126536933706547e-01
-3.412675597516385828e-01
-2.767099637401083667e-01
-1.758717050763695666e-01
-8.454152139620790818e-02
-2.223009624592285627e-02
1.502967750102547628e-02
9.099367169436559100e-03
-4.129378877644721002e-02
-1.027355868051032795e-01
-1.394390732019115120e-01
-1.284393993420364644e-01
-5.808066187662782459e-02
5.697995708585088664e-02
1.757611103438778133e-01
2.749109357104170814e-01
3.492226962685182068e-01
3.810903987159945938e-01
3.657515399468045381e-01
3.239818736799550125e-01
2.706291178850421808e-01
2.005476720679923996e-01
1.078520201159988423e-01
1.981644422621536838e-02
-2.640167899094092441e-02
-4.688368268297456176e-02
-7.041765990430987054e-02
-6.848545852404612500e-02
-2.889359934040610506e-02
-1.915796026825582199e-02
-7.714204691926740409e-02
-1.416920338014068526e-01
-1.631796128283349856e-01
-1.632627262297678961e-01
-1.603917780900586953e-01
-1.521066502722256963e-01
-1.289720199477236151e-01
-6.530184579894462993e-02
2.186364630757467453e-02
7.441522714054482623e-02
8.557568310439625514e-02
8.260781337135450486e-02
6.217657441622857079e-02
1.088724670911330947e-02
-5.351615922615841209e-02
-1.003276631684855563e-01
-1.285581037652687997e-01
-1.483263872320987053e-01
-1.542562114738770529e-01
-1.359884734917628790e-01
-8.792037021723649037e-02
-3.362410387797255817e-02
4.017576269405388756e-03
5.375306237760722750e-02
1.259652954203274722e-01
1.811431906648478807e-01
2.100579543136237570e-01
2.134831082554467241e-01
1.618898677690012167e-01
7.104544222399356013e-02
-5.960026410187370394e-03
-7.118893293018277446e-02
-1.350463818767703439e-01
-1.277652031689354151e-01
3.629663329927576565e-03
1.588888760797824429e-01
2.311912486230134345e-01
2.757253471387461352e-01
2.914163878657276552e-01
1.765611464975375966e-01
5.821428541648599603e-02
9.707970948921160192e-02
1.153563913527882318e-01
-3.615581938818732827e-02
-1.940588040107578127e-01
-2.505960438258472700e-01
-3.063877018653110573e-01
-3.716219505799054357e-01
-3.219540787210583010e-01
-1.949210687251919372e-01
-1.501737967821564212e-01
-1.855627308346892157e-01
-2.077146531162042120e-01
-1.771646131278271086e-01
-9.165465973122671750e-02
-1.455656769560863956e-02
4.989970193929632591e-03
3.370319994583317186e-02
1.117821953723513451e-01
1.862766083733757294e-01
2.486079676570563113e-01
3.060614777377540507e-01
3.037133277265399722e-01
2.429010985143491841e-01
1.791615964132206307e-01
1.045435584803127843e-01
2.319416679436012152e-02
-2.769803520500731947e-02
-8.113913499669593576e-02
-1.529333351524480578e-01
-1.823938225856859829e-01
-1.587434463943916962e-01
-1.095095504952089682e-01
-3.398578920298234163e-02
4.237204699116019907e-02
9.982416949895379921e-02
1.658095442702730016e-01
2.223490391953402978e-01
2.132440834598060553e-01
1.471609589903757620e-01
6.989752058169133864e-02
-1.731605435385168840e-02
-1.437023531746163263e-01
-2.839015137327999816e-01
-3.412782950141585725e-01
-2.684257246869585778e-01
-1.282915912994264662e-01
2.167996741979583836e-03
9.169413753219030072e-02
1.387676068158274489e-01
1.659927196820337458e-01
1.865777775823669327e-01
1.778630473926740285e-01
1.316081933688653671e-01
7.505893941979016604e-02
1.630931818510183290e-02
-4.856776524102206921e-02
-9.463684170178500443e-02
-1.107516960955149399e-01
-1.186081833915500483e-01
-1.238631634804105153e-01
-1.201705611616112335e-01
-1.241194815593875539e-01
-1.394076631435109404e-01
-1.178411063792116631e-01
-4.657822571787722382e-02
-1.105470122546262091e-02
-5.345379791939855463e-02
-8.818692867385063971e-02
-5.152332831023603843e-02
1.418069731618604862e-02
5.720472739725760564e-02
7.395997253957142803e-02
7.982188801180543913e-02
8.498525402108308979e-02
8.259556148349914140e-02
5.991247046278422306e-02
2.713649042118287599e-02
1.209426267247116354e-03
-1.692155898208197798e-02
-2.227160855359655578e-02
-1.515913417387534934e-02
-2.098194310933365267e-02
-4.497720810937531899e-02
-3.939730466718616153e-02
4.289541243920316771e-02
1.828748665956676789e-01
3.190338635374651011e-01
4.218799387956296276e-01
4.819297095281840915e-01
4.527398699647816049e-01
3.179348837176957931e-01
1.548591397467287689e-01
1.983786488598537900e-04
-1.957104203578247104e-01
-3.919710733683665627e-01
-4.763140406312624253e-01
-4.414140990623929284e-01
-3.569905525374546529e-01
-2.832199937146962498e-01
-2.438564656734645009e-01
-2.008599913666692383e-01
-1.245386284900432960e-01
-5.926888746181330908e-02
-4.032305705422969955e-02
-3.921262344529984067e-02
-3.451763854529037168e-02
-3.501514667234113809e-02
-2.639060778671072083e-02
7.012928396208754911e-03
2.928020370053439903e-02
1.218546443889449368e-02
7.750550058132632536e-04
4.216779206660205281e-02
1.048887679547307467e-01
1.355624321048100045e-01
1.417320913090389656e-01
1.501023879702597930e-01
1.466937597850606623e-01
1.246273351814788516e-01
1.115208366791666933e-01
1.179609337600000113e-01
1.344924798318111736e-01
1.619734384658394200e-01
1.904395029215376900e-01
1.836904710403058083e-01
1.271217902110495235e-01
6.109247371741032689e-02
1.523169903246402584e-02
-3.555674512177345314e-02
-9.266736596854513452e-02
-1.277781337003652262e-01
-1.651355408517800605e-01
-2.190789821602540932e-01
-2.405316025873705243e-01
-2.199454337193484099e-01
-1.805084964790169555e-01
-1.106789135753485920e-01
-2.524541886695413212e-02
4.367920959102071510e-02
1.044817987807610260e-01
1.388313903492358614e-01
9.686550923098924404e-02
5.904480706897724529e-03
-5.978843736430719535e-02
-1.168390071112875711e-01
-2.153160537936638919e-01
-2.778153963033889728e-01
-2.137949323419164882e-01
-8.937617976540973563e-02
1.773628340089408034e-02
1.183022950791641492e-01
1.997029699336926867e-01
2.465481618619042303e-01
2.751681868208795123e-01
2.563609276117460589e-01
1.755739559016161189e-01
9.521831170356211127e-02
5.125670032798194942e-02
2.461970395100914616e-02
1.610505684699892193e-04
-3.874597723139873440e-02
-9.173382410886055105e-02
-1.135033365740393124e-01
-8.171528721594591149e-02
-3.880074418238142753e-02
-3.868148824840646205e-02
-8.854556699861140801e-02
-1.281037960190954117e-01
-1.084167469788869242e-01
-7.856544626150643862e-02
-8.642092998055594943e-02
-8.120228225872902494e-02
-1.217639773030150183e-02
8.890507627713180316e-02
1.668744660493615695e-01
2.020287757606247792e-01
2.006996910549502244e-01
1.727840570315619384e-01
1.195839413097151277e-01
6.892368013692524997e-02
7.735256303425466773e-02
7.256369454356985382e-02
-7.647628743987845701e-02
-2.257197265837433686e-01
-1.663713575673931577e-01
-4.447182434359776143e-02
-6.139859298671872245e-02
-1.342325821273639697e-01
-1.387588878186925001e-01
-8.642152728125210293e-02
-1.042336955132193432e-02
6.854994260639610260e-02
1.106981741103206240e-01
9.922889197928788652e-02
2.712981781423389610e-02
-1.117395786792225593e-01
-2.341040722760546200e-01
-2.559902516485622614e-01
-2.123771816861323991e-01
-1.341088863481955940e-01
-2.232127456685558536e-02
8.099727188068041317e-02
1.513903964562258175e-01
1.915091131759423804e-01
2.109667959271173676e-01
2.319642961453942942e-01
2.468322315267477973e-01
2.256196519796141442e-01
1.583091502252943483e-01
7.141544986685439966e-02
2.047716369679293547e-02
3.512169435657644390e-03
-3.832700039868146280e-02
-8.198563330117690506e-02
-7.093862305392850676e-02
-5.476975899200523662e-02
-9.412429802550965896e-02
-1.550845488145516926e-01
-1.778801163966212684e-01
-1.474640896909188703e-01
-1.115749620842811790e-01
-1.210650320360194682e-01
-1.358714222253078752e-01
-8.225559633571168094e-02
3.109881551828657872e-02
1.288716329962538709e-01
1.685007853948156109e-01
1.948704847885970315e-01
2.339135444084633475e-01
2.092697766191605746e-01
1.080058836382649656e-01
2.876508388016093404e-02
-2.282256437503326144e-02
-1.143732215981559525e-01
-2.101101717517345757e-01
-2.392962579919988286e-01
-2.116573842221873836e-01
-1.548230735098249933e-01
-7.444843033753052730e-02
9.654331192458613653e-03
8.592151756054727807e-02
1.638679643803813701e-01
2.262303450297652729e-01
2.400571423341940624e-01
2.073263572563210921e-01
1.580379483625032055e-01
1.110186356455793305e-01
3.278989473001804600e-02
-1.244982122763103050e-01
-3.018145829381182477e-01
-3.719073033958175123e-01
-3.050580236488448227e-01
-1.733463285208110827e-01
-5.182556867796580397e-02
3.191983077830343879e-02
9.238112371183143656e-02
1.340944959689246430e-01
1.556656388264636426e-01
1.803631244231713726e-01
1.832996661045990794e-01
9.211581724279506445e-02
-5.834107015464881640e-02
-1.515381040023011661e-01
-1.802085096880556847e-01
-2.022165717621520198e-01
-1.901153608806255835e-01
-1.095866677293214075e-01
-1.302564075277732464e-02
4.799212407327974744e-02
7.575064774179784965e-02
8.949425910670288919e-02
1.057090702535026655e-01
1.075071512408829338e-01
8.145028922316824294e-02
9.033466055867064859e-02
1.673065196554996414e-01
2.416293646963278974e-01
2.796913678467738418e-01
3.149381960557932070e-01
3.303599572232271964e-01
2.817168783473334992e-01
1.822009565282612931e-01
5.899627898639570739e-02
-8.962344645023620493e-02
-2.363140724511861857e-01
-3.365459038139001491e-01
-4.091940216945962883e-01
-4.815643125889443876e-01
-5.172278583043724565e-01
-4.933953172056612657e-01
-4.269460174266764274e-01
-3.164152930634356875e-01
-1.737667642699878556e-01
-3.342743386631062685e-02
9.703988481947080358e-02
2.092939065108013197e-01
2.679434958706556902e-01
2.567796960718479737e-01
2.201304291057037954e-01
1.943618880526133408e-01
1.033464595143215592e-01
-8.473240562514740282e-02
-1.543168967330660057e-01
3.806874155386284070e-02
2.416187347398491003e-01
2.426292878482945170e-01
1.910086338870372324e-01
2.285113572250514757e-01
2.992302770681646851e-01
2.730429444455029220e-01
8.509143926969110761e-02
-6.659574422129360682e-02
-1.465035911576914596e-03
7.715952897441170910e-02
-1.138484058293889184e-03
-9.028958504034823029e-02
-1.057877088120706133e-01
-1.235354786066893973e-01
-1.541862836395647696e-01
-1.621761023465280727e-01
-1.654302494176107530e-01
-1.826201435766434400e-01
-1.993143312002006451e-01
-2.064699357703513594e-01
-1.798004262949287058e-01
-1.122990238454055628e-01
-7.367344490154410785e-02
-3.262536316416213278e-02
1.328094915672018983e-01
2.823764581657182138e-01
2.130176393438515670e-01
8.389361453876995056e-02
7.320141163995814992e-02
7.276111773355155299e-02
9.732768220554192246e-03
-4.289154715999900225e-02
-7.019318398757926070e-02
-1.128516390352433535e-01
-1.521991798813461805e-01
-1.404107742084974575e-01
-9.163620368568053953e-02
-5.426913968413486777e-02
-2.836043096830790505e-02
1.784421552925707921e-02
9.101381694325062777e-02
1.720225150756364840e-01
2.361676901707225329e-01
2.518198117026362870e-01
1.933174241636710089e-01
9.272762424752550858e-02
1.287561483571199317e-02
-5.468559819029860519e-02
-1.361613009831247334e-01
-1.634012378806622701e-01
-7.389553550890105849e-02
6.604553875562203802e-02
1.457294279535425174e-01
1.428448305539620211e-01
1.230935534155684630e-01
1.418695142248113106e-01
1.773869075837375409e-01
1.595680413798490627e-01
6.481588951853366198e-02
-5.180727558075522154e-02
-1.451295900443990705e-01
-2.121281085478593786e-01
-2.508338731809015010e-01
-2.747040756472708400e-01
-2.864796078369445387e-01
-2.544629869321552995e-01
-1.942569688319037147e-01
-1.590556374066961487e-01
-1.447279708008737675e-01
-1.200849836419447259e-01
-8.324498077152499287e-02
-3.234569782153640799e-02
1.193789846169263785e-02
7.300730428371732250e-03
3.877844577948844768e-02
2.093245550919812237e-01
3.459131524709017080e-01
2.813344887365761826e-01
1.900394862957937858e-01
2.014107733746223761e-01
1.961674288391397902e-01
1.392610120555763109e-01
9.609733763438935150e-02
5.144758811093040618e-02
-2.175633380820008594e-02
-1.100927200079675206e-01
-1.862592706931772979e-01
-2.082247280339267204e-01
-1.715362902969288506e-01
-1.025232355677141022e-01
-7.813956457665562072e-03
7.074190129369349600e-02
9.782887985329585812e-02
1.351042288694705995e-01
2.044724372483417707e-01
2.153016993965356507e-01
1.420252465724558266e-01
6.129756837300084915e-02
-1.486683660226422593e-02
-1.420443579194273775e-01
-2.841575728922242083e-01
-3.267715451621772127e-01
-2.461977007430957154e-01
-1.288498338477647720e-01
-3.830494785329296992e-02
3.456142482876361360e-02
1.146536487144177441e-01
1.966786570920607824e-01
2.348327309162725474e-01
1.976779671112849635e-01
1.336006418808050045e-01
9.296890149416003890e-02
4.184453871371510841e-02
-5.055721467693374133e-02
-1.293838367424199054e-01
-1.367037208821005601e-01
-1.366090254355682432e-01
-2.230990458811089039e-01
-2.936758991587474221e-01
-1.962809252013141270e-01
-3.049384834952254333e-02
3.425594532000591358e-02
1.889998469306620674e-02
8.223091873039295452e-03
4.306813875797670110e-03
-2.147241346815694646e-02
-4.218703584077851398e-02
-1.556306205411057443e-02
2.798060715981987370e-02
4.633878964566447156e-02
5.526400918260009065e-02
7.224920086679688380e-02
9.141552868787607145e-02
1.022957383879533888e-01
8.808243749211110141e-02
3.691951204981023388e-02
-2.977436996389252674e-02
-5.620379791662633018e-02
-3.107730827589381961e-02
-1.214343662705978308e-02
-7.206069115844683515e-03
3.845603417068716584e-02
1.261118117332661048e-01
2.189611837538096850e-01
3.191535530490859918e-01
4.198337029218477401e-01
4.513727074842284193e-01
3.674449754911313093e-01
2.212515525219118373e-01
7.589774997234882692e-02
-8.094865587298287479e-02
-2.642181061802765796e-01
-4.281715828647933431e-01
-5.241872541260121920e-01
-5.323313007963752508e-01
-4.445341059270028206e-01
-2.994139766154149118e-01
-1.701418381656405188e-01
-9.432792520539638736e-02
-7.107680205050297129e-02
-6.264214194558213877e-02
-2.724142360065970325e-02
2.849661368986448895e-03
-2.766138607742343880e-03
5.946612438896194119e-03
2.035433592060745950e-02
-3.467170300649097953e-02
-5.977046949960549554e-02
9.844529061338715137e-02
2.457578596437727803e-01
1.283664541154598271e-01
-1.374724049553318131e-02
1.078818237175762224e-01
2.415557738263077181e-01
1.404865866537950425e-01
3.663849616981577212e-02
9.320419994959866505e-02
1.437101621274341212e-01
1.313285204868744060e-01
1.612488521944405728e-01
2.120325572601193809e-01
1.885861714753984675e-01
1.046274169894294559e-01
4.260068411893945528e-02
2.331549801943163386e-02
-1.911422637938670066e-04
-4.506607798779897756e-02
-1.136016140959850151e-01
-2.299809347403998783e-01
-3.005822200660324128e-01
-2.071868879052108647e-01
-9.373455417745864271e-02
-1.158853399083101532e-01
-1.494292999783246034e-01
-1.072338758460710806e-01
-5.812980535213214950e-02
7.612367337800539369e-03
1.065049794534709549e-01
1.457586176305011305e-01
6.554816309543125274e-02
-3.709737768041428130e-02
-3.927767879891208569e-02
-5.428142641518024503e-02
-2.438884991879540221e-01
-4.004133782873195435e-01
-2.781860135732759365e-01
-5.596835695484313894e-02
5.672465622264635104e-02
1.395222959145441255e-01
2.500810448261943653e-01
3.121261035878038492e-01
3.016907229839313476e-01
2.624543710518836837e-01
2.278886470248583096e-01
2.077351289227238329e-01
1.773962653967761371e-01
1.009063529292792832e-01
4.542517782299047846e-03
-4.800999359316737020e-02
-4.344124884063355063e-02
-4.299856238979847534e-03
2.817644624701893738e-02
-1.298116507301623479e-02
-1.186664346964949601e-01
-1.764401276805554475e-01
-1.435549218134722360e-01
-1.133457792380823115e-01
-1.523370975834269780e-01
-2.040367570116090878e-01
-1.952500026389089871e-01
-1.314606400982091805e-01
-5.918492025402094514e-02
4.084700063261212377e-04
5.909920435562367180e-02
1.113533726005564439e-01
1.234990477070904424e-01
8.752361144140874405e-02
1.948308668576539254e-02
-5.415666014454924293e-02
-9.069638085099243630e-02
-9.609236634001727673e-02
-1.132149499335341897e-01
-1.217686516506839567e-01
-8.852631771926591786e-02
-3.879753324190611530e-02
1.232601061147958407e-02
7.014982494091795417e-02
1.227517151796536227e-01
1.885849353775370107e-01
2.698656674521470733e-01
2.779476204606324274e-01
1.884817387768132069e-01
1.051078227526767300e-01
4.410668917955878898e-02
-7.919311956660135543e-02
-2.358119854278532823e-01
-2.930530707905905641e-01
-1.970041023427459570e-01
-4.943619112550983602e-02
1.538062645133362639e-02
5.972332106357154669e-02
2.220629430383306846e-01
3.641622056620268943e-01
2.940926083005113711e-01
1.393389678758215067e-01
6.014732197660832558e-02
7.392765740052105461e-03
-6.093500183225331046e-02
-1.102983922279300172e-01
-1.371151695279218541e-01
-1.683407269928387240e-01
-1.969515685972690888e-01
-1.715019860339123958e-01
-9.534763648654982771e-02
-6.375335186990323255e-02
-1.106379952389275473e-01
-1.410151751238503115e-01
-1.004588777607078598e-01
-6.102820040919162969e-02
-7.445134462272942621e-02
-8.416130596485926763e-02
-2.773142130505546962e-02
7.903519891791077612e-02
1.826373512247728426e-01
2.449430126775982430e-01
2.558272760456895001e-01
2.334579531599730029e-01
1.866595986428098985e-01
1.016196454317078585e-01
1.949163324941216580e-03
-6.904479858628306821e-02
-1.205950796893096727e-01
-1.743845746763864057e-01
-2.165205054294684350e-01
-2.338213091425943302e-01
-2.247926408413807309e-01
-1.831085698172072729e-01
-1.135959021230216470e-01
-3.344701870575408909e-02
4.761013061733455898e-02
1.242199405078817098e-01
1.898104922968198438e-01
2.226562491155071877e-01
1.938009449959946784e-01
1.302825698026727208e-01
6.811011335749482531e-02
-3.919325213722499313e-02
-1.933615194765971879e-01
-2.693044057722512319e-01
-1.920861454936961255e-01
-2.592651414985200006e-02
1.258305656951956286e-01
2.224981877462487434e-01
3.023284172690143268e-01
3.680056973464598258e-01
3.516388976116968101e-01
2.690070838118434060e-01
1.975355180374133157e-01
1.120595044102566384e-01
-1.503389908550818721e-02
-1.100809365168952947e-01
-1.561223089604034664e-01
-2.056709252892938988e-01
-2.348213534575150918e-01
-2.118332566249641891e-01
-1.840051090273948364e-01
-1.812546556718389601e-01
-1.874317160364127044e-01
-2.041887183312981746e-01
-2.247625791514214766e-01
-2.069848685261220789e-01
-1.580243076811091996e-01
-1.390030320288993537e-01
-1.244683217551766224e-01
-3.693821440259954791e-02
7.840526625192517640e-02
1.376765680626154120e-01
1.697299647797118061e-01
2.075742575187535244e-01
2.212397532973896797e-01
2.113804704329679818e-01
1.897894755859884930e-01
1.342136351960541707e-01
4.754563962645496494e-02
-3.521356339387632373e-02
-8.891543106162380639e-02
-1.092661334771370396e-01
-1.103985458459706415e-01
-8.339547752353144994e-02
-1.465445826544925501e-06
9.886907569004148300e-02
1.514654503735395896e-01
2.023723749018826179e-01
2.805561411758140111e-01
2.666586323463797648e-01
1.139203637445767442e-01
-4.069715368803274863e-02
-1.470417148311183864e-01
-2.738212039558854949e-01
-3.653258489619419791e-01
-3.115668595129189589e-01
-1.486853469636726099e-01
1.782771198384715608e-03
7.470956783450530270e-02
1.177241615491072257e-01
1.947613853255685257e-01
2.049102398972036110e-01
4.758288559414541180e-02
-8.711898932333504708e-02
-3.326022757633387283e-02
2.864758616205509770e-02
-2.949976141705452914e-02
-7.520250908250693256e-02
-6.968608858138328199e-02
-9.151266862925852563e-02
-9.546066935725883162e-02
-3.044294138590514925e-02
8.000914584756107714e-03
-4.675034862107681211e-02
-1.028027281976159474e-01
-6.927222813826944270e-02
5.735054017015515579e-04
3.976510599586466355e-02
8.705992840142835754e-02
1.170743710285912093e-01
4.778752287641016561e-02
1.203092900525072791e-02
1.396096919217764687e-01
2.379098075108353472e-01
1.785613953580155178e-01
1.352096093018218259e-01
1.760900490112655425e-01
1.629944141252416545e-01
5.031713988418969746e-02
-9.219853798389543442e-02
-2.162894770046834558e-01
-2.900686004139800822e-01
-2.985754354337831207e-01
-2.719164677383263395e-01
-2.231502844558253262e-01
-1.334379302912761800e-01
-3.748580081163074146e-02
8.408914296051922532e-03
3.363008934936084771e-02
8.790173043720476975e-02
1.296554591633573561e-01
1.099508634575231403e-01
6.528789255082462217e-02
1.993714953138858020e-02
-5.781288071923768035e-02
-1.358770367690378400e-01
-1.355313150742418482e-01
-6.586549030478490441e-02
2.181475107295243257e-02
1.136626167011652311e-01
1.721370146895291886e-01
1.621191991562082046e-01
1.541837778669518100e-01
2.116435443107143599e-01
2.254138889775348098e-01
1.073587300953674634e-01
3.601788470695022754e-03
2.078751192231487188e-02
4.156326862853350346e-02
1.927740528112502350e-03
-3.780802052046740303e-02
-7.009944840091471285e-02
-1.168731482649733588e-01
-1.637246841297026467e-01
-1.960583634644807449e-01
-2.113670836361939420e-01
-1.915887787348611315e-01
-1.260652606147841803e-01
-6.255028384304091305e-02
-3.473154477177151089e-02
6.116373509106189099e-03
6.936178587258365336e-02
9.141859911530986205e-02
9.772105860004126621e-02
1.578065968907742811e-01
2.068520594414073044e-01
1.743201538828922093e-01
1.307309730348705790e-01
1.124713271205008969e-01
4.830261191102955959e-02
-6.287710660330565748e-02
-1.416324903710424743e-01
-1.731952572488267839e-01
-1.874469725797240915e-01
-1.834115164152870792e-01
-1.600555667568574758e-01
-1.040066680313872227e-01
-1.499895017419795862e-03
7.224144509174590389e-02
8.600850400513926353e-02
1.552880610298665309e-01
2.352787099473403198e-01
1.281846119785246818e-01
-3.443140481773035444e-02
5.340516411757260246e-03
7.846483954276423090e-02
-5.481287975269494295e-02
-2.348273700122694430e-01
-2.575838099754541588e-01
-1.858245060458262043e-01
-1.290719487356702944e-01
-9.046080598199168765e-02
-5.194558882986748810e-02
-5.981945305593733275e-03
6.136688116706226492e-02
1.315547839752339021e-01
1.641079866997500747e-01
1.609917493447191039e-01
1.527072503302589201e-01
1.502587009631599357e-01
1.442263879315006936e-01
1.109542621022857334e-01
5.188082559508287728e-02
3.195145195129829585e-02
8.362915112066068857e-02
1.305831923062820976e-01
1.092754497585599199e-01
5.965448799520011586e-02
3.038824461361474411e-02
1.894436826657436290e-03
-5.788461864288147601e-02
-1.308462229185919368e-01
-1.746451988647221287e-01
-1.752718439059036681e-01
-1.429829764994748342e-01
-8.646094282858438063e-02
-3.183850300635897301e-02
-2.035653985823814363e-02
-3.845090824417118913e-02
-3.877345143443691744e-02
-4.336307338336981704e-02
-8.918079363335149057e-02
-1.326522555262334979e-01
-1.428955069229805863e-01
-1.635328848652835843e-01
-1.981100048011675552e-01
-1.840548509901444862e-01
-1.159479181014434895e-01
-4.333869197678849594e-02
4.658002887942664511e-02
1.729153142824966516e-01
2.658470559778972619e-01
2.966997114168392069e-01
3.169710009011369456e-01
3.033774599011971329e-01
2.158528562699120468e-01
1.092786508785074662e-01
2.061231233679699376e-02
-6.953723756080668061e-02
-1.500775928501355549e-01
-1.751301525524968650e-01
-1.123133880763886039e-01
-7.740575443554789659e-04
6.895860820050576934e-02
7.862387464452637309e-02
9.116418073195758920e-02
1.261084106470497790e-01
1.255855611602344768e-01
6.780601581710787862e-02
1.977873643003857929e-02
-3.886177648436409809e-03
-6.849073595276733428e-02
-1.453580143613181774e-01
-1.563708263584526470e-01
-1.299422263949522038e-01
-1.319302909604944396e-01
-1.651198899853866808e-01
-1.542385560892087226e-01
-5.872453866174875969e-02
-1.008107174141263315e-02
-8.515040691307584897e-02
-1.426689526009000120e-01
-1.177220159383636361e-01
-7.352500811016207671e-02
-9.534818452321590365e-03
5.662737288224482107e-02
8.351716385535004616e-02
1.242143808907089086e-01
2.060058055858318693e-01
2.485224307211793549e-01
2.156957301900715995e-01
1.644771842916122606e-01
1.272945076214419269e-01
9.219626471267013124e-02
6.403292950629027591e-02
4.011433958082707973e-02
-1.158291487045810808e-02
-7.966166405055866151e-02
-1.046446318499741346e-01
-7.572274271504081389e-02
-3.303304150607214162e-02
-1.737649358527464799e-02
-4.855766872059422840e-02
-5.987460548458807541e-02
3.420883836448806482e-03
2.576969531572340100e-02
-2.970474979111233441e-02
-1.737444190627189175e-02
-1.290280021464016574e-02
-1.916479503959179487e-01
-3.682123036891955525e-01
-3.276156170917828847e-01
-1.979851505216047025e-01
-1.153481682390443269e-01
-2.801153958959758800e-02
9.321174464535833537e-02
1.924167821873720707e-01
2.443734183182419417e-01
2.800350815479843436e-01
3.039428443804352287e-01
2.796121100667876558e-01
2.143274276720280036e-01
1.455039547660595955e-01
6.266147454997669786e-02
-2.252394312696902323e-02
-5.070670148965671087e-02
-7.827603014270501092e-02
-1.885729938868708488e-01
-2.496382524543585002e-01
-1.660707942870904008e-01
-9.966801432970463781e-02
-1.142951317816193191e-01
-9.214022062339680130e-02
-4.268629230729509977e-02
-3.494371612516199155e-02
-2.197475294396119758e-02
3.083100575346934408e-02
1.108994826329137290e-01
2.329190369727313359e-01
2.972216122875986355e-01
1.615531894519522393e-01
5.336640346322429201e-03
6.442658250256924624e-02
1.132439828018128036e-01
-8.309818437152531601e-02
-2.572643399531746033e-01
-2.057721393211770222e-01
-1.495478280464622722e-01
-1.906108348388593221e-01
-1.811588340287817456e-01
-1.167462543214755066e-01
-7.644862879790118027e-02
-1.731021755624589584e-02
9.285745024170033446e-02
1.875326864042718422e-01
2.225116926462142319e-01
2.284023465565862554e-01
2.189456623647342559e-01
1.824379811891603531e-01
1.455427999058637178e-01
8.990799054376767685e-02
-4.741347395147214178e-02
-1.994656115376970129e-01
-2.475465692356435543e-01
-1.891531561637074810e-01
-6.478783443465395420e-02
3.258850707583159367e-02
-3.112202603998859285e-03
-4.154549435317364536e-02
7.928163476335163551e-02
2.024221369264846693e-01
1.619560509455154618e-01
5.024894977480758029e-02
-3.415631406603416437e-02
-1.000603337920053792e-01
-1.742551683735372725e-01
-2.691842538920357075e-01
-3.006193240047991266e-01
-1.835684081628008724e-01
-7.550183431454159100e-02
-1.288776107913096325e-01
-1.838539605586189118e-01
-1.109046459205346585e-01
-1.477058728205069699e-02
3.841815614592326844e-02
6.245760268852379449e-02
6.382049177604928736e-02
9.218324290066765014e-02
1.853639727867148757e-01
3.045556140065087680e-01
3.973657385536710218e-01
4.306813858013542329e-01
3.990115220706602073e-01
3.423152031160209829e-01
2.938699158968411940e-01
2.329910512230821684e-01
1.306901239326984654e-01
1.374344276292963074e-02
-6.918228765628346710e-02
-1.389501402819581788e-01
-2.390325811210453066e-01
-3.323647353915499258e-01
-3.741943800857235325e-01
-3.841798714888053912e-01
-3.709185997691344383e-01
-3.140141128501864332e-01
-2.116223997130301793e-01
-8.736806234724694975e-02
6.027115324604592761e-03
3.089272184539401667e-02
1.918141442436645250e-02
2.576912165595975079e-03
-5.670446267899024312e-02
-1.705251228299007882e-01
-2.502558775838341631e-01
-2.225888702901352434e-01
-1.080495790942309076e-01
4.217899293421142198e-02
1.735742836173677361e-01
2.720455430491428572e-01
3.778674554184773271e-01
4.186506266108462881e-01
2.872791246696438372e-01
1.488846299184126976e-01
1.871767854004123544e-01
2.281347670188029475e-01
1.111564348162940030e-01
-1.493997400532479092e-03
2.038950258776636715e-03
-3.949221099456723394e-03
-7.952484656878239244e-02
-1.260326866915572330e-01
-1.106067153662356750e-01
-1.005390161878985944e-01
-1.204386677816682849e-01
-1.457918788475209559e-01
-1.469632954994058438e-01
-1.174103921221127250e-01
-9.959614906969337100e-02
-6.224594019418094870e-02
7.911337721502742504e-02
1.973330905956041381e-01
1.343988324849966776e-01
3.654589847413095699e-02
4.456522142303308981e-02
5.310583463305715290e-02
3.540201483587241196e-03
-4.080885384829847917e-02
-6.745236904510786002e-02
-9.625824000538978076e-02
-1.258276925421614456e-01
-1.578349811547933579e-01
-1.778958471664251750e-01
-1.619108012805075547e-01
-1.238907701587367016e-01
-7.936258871723839148e-02
-1.324752553891106813e-02
6.668517665607429090e-02
1.431474621299322902e-01
2.264029104972481998e-01
2.750106051587538070e-01
2.198755076324956648e-01
1.201175191544282539e-01
6.280194494091080604e-02
-1.097091931890543937e-02
-1.272120529831869684e-01
-1.620586391497507994e-01
-7.204464030058677082e-02
4.314570533944488140e-02
1.201925750231386952e-01
1.625361766681363562e-01
1.753259507325204414e-01
1.594969378633582235e-01
1.279758119008486961e-01
1.100846475028449400e-01
1.049717419608847124e-01
7.467956280911128286e-02
7.687873376813272874e-03
-7.785854781752837850e-02
-1.483221973991025178e-01
-1.887230786047177644e-01
-2.572299282199887460e-01
-3.637796557113064377e-01
-4.079325675814567953e-01
-3.748323972498663892e-01
-3.045354677408000366e-01
-1.524101549519390197e-01
7.559267371381919731e-03
2.176849673113474132e-02
-1.929528600673506566e-02
3.245686447481229558e-02
1.132767066264567524e-01
1.532330969787917274e-01
2.033488420926927720e-01
2.877098193830431860e-01
3.408890760774119788e-01
3.053708040372852817e-01
2.185907523746736525e-01
1.417417295134608402e-01
6.741443956327210218e-02
-9.891396346368416803e-03
-6.140310632804772684e-02
-1.128876413348456065e-01
-1.881251184471168514e-01
-2.136754353194104117e-01
-1.471202069914960275e-01
-6.522274020426067909e-02
-2.178951978979326923e-02
2.584725303388926698e-02
1.044304513623902642e-01
1.718896642800317454e-01
1.938162944635324347e-01
1.745963239991452642e-01
1.259732610804406572e-01
6.963474311452071130e-02
1.058231891254820048e-02
-9.674651685042064131e-02
-2.375176892111584559e-01
-2.867228644669312931e-01
-2.035191887609907879e-01
-9.575381878382693834e-02
-3.688669831237580132e-02
-1.123663837533598470e-03
5.034185220117211312e-02
1.184761211911450896e-01
1.656956533326160164e-01
1.606636245210722458e-01
1.278907054344206595e-01
9.451478440905530798e-02
3.719903896647633323e-02
-2.492987597487406753e-02
-4.458315259623846921e-02
-7.569446037301240382e-02
-1.366383414675115537e-01
-1.348817458858281859e-01
-1.048608509730497018e-01
-1.430255667601812164e-01
-1.719333924691284765e-01
-1.280813935002422244e-01
-9.177821987386823588e-02
-8.358220539083283107e-02
-7.321760638175707492e-02
-9.039784401981178219e-02
-1.122440247519770201e-01
-6.788572366200538999e-02
1.356171430615367088e-02
6.083227990050704692e-02
7.945587570163326063e-02
1.129005440272964622e-01
1.741905160591584178e-01
2.270748427095742594e-01
2.291716018521297027e-01
2.057304305003957723e-01
1.950983257616661914e-01
1.572275970209677243e-01
5.463251643975003402e-02
-5.988100154107551393e-02
-1.135676958896383454e-01
-9.236156990257149424e-02
-3.111715486955304172e-02
3.911165657045843902e-02
1.289775644295043100e-01
2.420669895186235709e-01
3.275506653756385944e-01
3.482479801763073701e-01
2.812897262338895366e-01
9.920402500299593807e-02
-9.292430883349901694e-02
-1.726962099600793388e-01
-2.472898989027786931e-01
-3.973976606208016737e-01
-4.741813812328636302e-01
-4.147059080011551435e-01
-3.292357057361845474e-01
-2.572729034141063020e-01
-1.724923948159741705e-01
-9.432961508338255641e-02
-3.641542830522867535e-02
7.813242743633971865e-03
3.099607226123519965e-02
4.729104006529598336e-02
7.078008871531479840e-02
7.402682600662684187e-02
5.759826104470293362e-02
5.907565627279712933e-02
6.556130906620234733e-02
5.758791336683205531e-02
7.351814199816059103e-02
9.963115489470886210e-02
6.906616612168474389e-02
2.120829008690083492e-02
2.507394843680160745e-02
4.220893127667482703e-02
5.183708732262694296e-02
8.646208330245920559e-02
1.102274757511142317e-01
9.994603031783969027e-02
1.230010644539778347e-01
1.877434907320739976e-01
2.148955205604983210e-01
1.842731506946611864e-01
1.333249678070624333e-01
6.459977051391016523e-02
-2.703224870238402772e-02
-1.000035507894790066e-01
-1.381015592465644204e-01
-1.999529747311088179e-01
-2.612063903030009682e-01
-2.106875832553073147e-01
-1.232473671666513976e-01
-1.476948377547927793e-01
-1.851161013953619427e-01
-1.037300519584784392e-01
1.325098938368490450e-02
8.215326853862645051e-02
1.263720028403447770e-01
1.275214324485121065e-01
5.530226874811554338e-02
-2.819015238520594657e-02
-9.559333775003379940e-02
-2.016316808908750480e-01
-2.901078260356207417e-01
-2.404467049703448711e-01
-9.373538776232386016e-02
3.273805767281800366e-02
1.164218187428558149e-01
1.883321015068641913e-01
2.620941681397607748e-01
2.982582712605880149e-01
2.669016956599327139e-01
2.422922945266068884e-01
2.227368612248186719e-01
8.703056159501522393e-02
-6.040816972487104280e-02
-1.027142946095860321e-02
1.198778282147854868e-01
1.221395146394133741e-01
5.031988301320996365e-02
7.148812611265605022e-03
-2.875114619578890418e-02
-8.477744264373013316e-02
-1.556175996881964951e-01
-2.219160223701533985e-01
-2.498116107122387297e-01
-2.380886580296994737e-01
-2.085376403713223858e-01
-1.712358173643746817e-01
-1.389434192040741034e-01
-1.064513841792577437e-01
-5.915146471086649843e-02
-7.956702155777581331e-03
4.237614610004379612e-02
8.672866597404628453e-02
9.791176498309500653e-02
7.885965929738578128e-02
5.725416623203015420e-02
3.153200280879436823e-02
-5.321750859040779574e-03
-3.783785889569849653e-02
-5.065626649511404539e-02
-6.321120645488541301e-02
-1.061379801660085054e-01
-9.292546382643891711e-02
8.167937583808418389e-02
2.446940400574443009e-01
2.033043836982439956e-01
1.382046717891634580e-01
2.119195040576808686e-01
2.655396979145765446e-01
1.995159599606967094e-01
9.409002841979177689e-02
-2.575418971121188477e-02
-1.568760330579415385e-01
-2.180175256736994194e-01
-1.729515461477162674e-01
-1.005900563100771417e-01
-3.998439202276266730e-02
5.727049002299295505e-02
1.181612842699347327e-01
3.781992587043009335e-02
-1.719808749518690616e-02
8.572062231424255885e-02
1.456636376805301170e-01
6.605470547512048984e-02
2.197491226997484379e-03
-5.326042302866556069e-03
-2.707902875473145940e-02
-7.753840615163355710e-02
-1.356236659057156457e-01
-1.566614775209386745e-01
-1.347490482518246546e-01
-1.317903654698754368e-01
-1.497161260490963153e-01
-1.373772595090533011e-01
-1.070201643824856830e-01
-8.326777913661470576e-02
-5.454898191460115509e-02
-2.816264777660109145e-02
-3.527072988003816800e-03
5.268422594606945314e-02
1.367139757241209175e-01
2.023233107528196184e-01
2.243554967008423995e-01
2.088380892792157384e-01
1.732392931043154338e-01
1.377068615984741451e-01
9.623294907630151884e-02
2.260955569160530421e-02
-6.948689493770907055e-02
-1.468670094103671497e-01
-2.072571705732936254e-01
-2.419106806614912397e-01
-2.357127334533656027e-01
-2.060235340264958692e-01
-1.595602181925845353e-01
-7.263441858866530321e-02
3.653692201050411092e-02
1.031806781194861411e-01
1.304217700942342795e-01
1.827724744502063348e-01
2.262418835227291425e-01
1.780747628071635280e-01
8.354591426182059188e-02
1.288430173724805158e-02
-6.997025908064358202e-02
-1.697516187931596421e-01
-1.987966494967177145e-01
-1.248304404414593560e-01
-1.113159197378268961e-02
8.726060751327162357e-02
1.665417302837666202e-01
2.374699192162710859e-01
2.907486267884188402e-01
2.995462233282037978e-01
2.524879299976483527e-01
1.775950030924303702e-01
1.164979277814070374e-01
6.129776262509805534e-02
-8.005437441831485257e-03
-4.733927431555324389e-02
-8.728828640664190730e-02
-2.302335987111290283e-01
-3.509263942863845576e-01
-2.802601501265858941e-01
-1.801440327909314965e-01
-2.126152622234262213e-01
-2.650627467084932798e-01
-2.600974587346948641e-01
-2.403243976231880241e-01
-2.005340584116633296e-01
-1.352137606696072192e-01
-7.355105153909721749e-02
-3.817590635140921673e-03
9.324657630401519959e-02
1.881016674585830328e-01
2.401595709161720715e-01
2.392805480371805182e-01
2.098900050506033732e-01
1.861725444088751513e-01
1.708678614731038992e-01
1.408948521946628840e-01
8.712072385565156063e-02
1.570393674962003439e-02
-5.537366242385319270e-02
-9.470292630198923201e-02
-9.183667588467232801e-02
-5.880345740847763014e-02
-7.112204922515134170e-03
4.626578356017061605e-02
1.027141830952458534e-01
1.672760576271626054e-01
1.925712114164940258e-01
1.471318821248082109e-01
7.843977859521054918e-02
1.241127948669726658e-02
-9.459764293742362051e-02
-2.381460382516977781e-01
-3.180293992997462738e-01
-2.732217880877617633e-01
-1.663088553833661498e-01
-7.570144624504110409e-02
-2.713910929026074753e-03
7.369060077739071624e-02
1.404199594346833835e-01
1.670155405526103920e-01
1.468845842653331568e-01
1.196177298353441193e-01
1.071510292314586943e-01
6.654323459959735065e-02
-7.427633593609157814e-03
-4.827695170017618637e-02
-5.831160984316095114e-02
-1.084813656716387825e-01
-1.676150852028313598e-01
-1.425857220091020783e-01
-7.229912283988897126e-02
-5.975169045475421659e-02
-9.090163413826515826e-02
-9.455763219984524015e-02
-6.416778474537461474e-02
-3.621428487220104686e-02
-2.302343843022755174e-02
1.541013686573132480e-04
4.869456088691086898e-02
1.106081980808120702e-01
1.729752791301157888e-01
2.142142297053414857e-01
2.121154988279856657e-01
1.844005050441114846e-01
1.548687013903420617e-01
1.084424693982501686e-01
4.170995705540883614e-02
-1.261918304125655976e-02
-4.623879487046532455e-02
-8.344003185732883077e-02
-1.234652960264020494e-01
-1.380202432646656097e-01
-1.186079297513377290e-01
-7.004104376750754091e-02
3.791554936463544228e-04
4.603727483986660984e-02
3.563121790175111797e-02
1.773852480626178507e-02
2.595318830221660100e-02
3.004910434950717329e-02
5.812307574775436511e-03
-5.582673733480819633e-02
-1.651162703746013316e-01
-2.980413164991540520e-01
-3.423037325181048085e-01
-2.043216093693474289e-01
-2.690267970656626956e-02
9.723395891350891662e-03
-8.383108388359053476e-04
5.386309814272924323e-02
1.188414629867145522e-01
1.774178503442126742e-01
2.335109064969173309e-01
2.475571331974915079e-01
2.377874402076765592e-01
2.188771968139482660e-01
1.587918081321517960e-01
8.519338965329767421e-02
3.762254022326010083e-02
-1.481481149072780279e-02
-7.494931139306926227e-02
-9.781053720325312562e-02
-1.046667889854455691e-01
-1.388965845535083954e-01
-1.648185724030318822e-01
-1.542856268647045948e-01
-1.454814327015769015e-01
-1.457345687024096115e-01
-1.186772330742380810e-01
-5.673501748665080863e-02
1.857995851849899432e-02
8.797445542481949210e-02
1.489574599627947749e-01
2.014348615085233829e-01
2.226868963678656499e-01
1.992411902549182656e-01
1.502962338598831382e-01
8.242159345703124751e-02
-1.765248980059201667e-02
-1.373478146860498406e-01
-2.361495828328293578e-01
-2.828718136889212809e-01
-2.680653021731733698e-01
-1.966823360039401392e-01
-1.228300207616526418e-01
-1.067436770973597127e-01
-5.295249793217755852e-02
1.434792211372553083e-01
3.105565409935366339e-01
2.906631078050909145e-01
2.244648513977086368e-01
2.050966296663484512e-01
1.688677215120396591e-01
1.215312815988885825e-01
3.973888711905562698e-02
-1.250458141675626633e-01
-2.494110880267509933e-01
-2.336618225802603588e-01
-1.738048128129118242e-01
-1.187729130656718923e-01
-2.224441152600536639e-02
7.146098914738932550e-02
1.124726754734494683e-01
1.456046527578115091e-01
1.848124934892820537e-01
1.924299096337360737e-01
1.560770150861476024e-01
7.552363734280312380e-02
-1.571062426546999957e-02
-5.835677145894288542e-02
-1.209141405054549728e-01
-3.023026184930400762e-01
-4.387706657690607082e-01
-3.578994006539767958e-01
-2.356487270417981505e-01
-2.318842194563577874e-01
-2.244604792249745295e-01
-1.363931854924835818e-01
-3.681623435578779135e-02
4.163251000752701825e-02
1.079081460245184532e-01
1.686663381149979546e-01
2.320316527402180862e-01
2.878715021983166977e-01
3.228847128468583794e-01
3.515236346290231406e-01
3.906042387734146581e-01
4.125779808288372319e-01
3.730323777770442328e-01
2.881117957611144531e-01
2.023018565612214048e-01
1.046072052489549487e-01
-2.478259511311736718e-02
-1.564358163069384244e-01
-2.553991987418733900e-01
-3.100938840121017503e-01
-3.363068576474587124e-01
-3.569468760874876523e-01
-3.390755991805457503e-01
-2.482206726463394020e-01
-1.456271167855821003e-01
-8.718364372478210056e-02
-4.285666679587339656e-02
-3.272280424274853772e-03
1.017228752620101540e-02
3.816003134625434168e-04
-6.264886322841224653e-02
-1.900477896271541289e-01
-2.641985004266364512e-01
-1.881216380715709235e-01
-5.766919173276814636e-02
1.971935923727297091e-03
5.817741673635830335e-02
2.197087134493833083e-01
3.485751787542011870e-01
2.668548589007459504e-01
1.505596624506818082e-01
2.093859784630569265e-01
2.748787689790470612e-01
2.019602265511244443e-01
1.260102023490131118e-01
9.432386914394820521e-02
2.872797010410212126e-02
-3.216619016325484443e-02
-3.831900080218288845e-02
-4.065273802976619028e-02
-7.173734734677367220e-02
-1.187251535088777316e-01
-1.592292912182164955e-01
-1.534055288107926684e-01
-1.045999227230717393e-01
-6.766932285465361574e-02
-5.429327231323789749e-02
-2.879327807259008873e-02
2.142938084312132063e-02
7.252240655827829618e-02
9.970641784130540586e-02
9.446004214570481727e-02
5.878266341822220575e-02
1.524649886890039330e-02
-1.549059643241892936e-02
-4.696155048456313041e-02
-7.683447605535093095e-02
-8.371341346013397300e-02
-9.942842968629082845e-02
-1.582003787882079737e-01
-2.113648404985729590e-01
-2.008305866412405938e-01
-1.401851799579106328e-01
-6.255093548071345710e-02
2.031628868491293718e-02
9.708542386516617884e-02
1.689996694548823730e-01
2.380412045420469691e-01
2.643460884405560707e-01
2.186144682619704238e-01
1.392770798492311557e-01
5.662523659463120779e-02
-4.979823547122240457e-02
-1.447582352394314320e-01
-1.312952962738021534e-01
-1.908589948800856750e-02
7.963030289089037539e-02
1.282964442089518098e-01
1.449775703212224376e-01
1.172061030845047980e-01
8.743684170587461002e-02
1.132553756470841416e-01
1.340369968164118464e-01
8.128107874411495681e-02
-4.981498691757809891e-03
-7.656427914683158753e-02
-1.383215253950423884e-01
-1.887540250458170643e-01
-2.127422510725224813e-01
-2.201952761092909328e-01
-2.174607685710957250e-01
-1.885456509374893730e-01
-1.522479687738495513e-01
-1.448983866429687239e-01
-1.421151365681893874e-01
-1.010326467663866523e-01
-3.989463669985627431e-02
6.009333668807459450e-04
1.891065909109816701e-02
3.533901570321345414e-02
7.079834399800129241e-02
1.419913791869138464e-01
2.246725353010635973e-01
2.674282961678309811e-01
2.639024309391979628e-01
2.379891565991257285e-01
1.854154890337160466e-01
9.987930042529230557e-02
3.623390517401209321e-03
-7.644747726306962143e-02
-1.342380981652229188e-01
-1.897035457169929940e-01
-2.334847586768770411e-01
-2.214138927285353442e-01
-1.692079624587693454e-01
-8.269724011874639291e-02
8.271883079355678292e-02
2.232951035960581698e-01
2.164557348495646516e-01
1.820345036155107954e-01
2.100232662890871571e-01
1.996448653727014855e-01
1.264144844682739965e-01
2.926217767078707205e-02
-1.116917870481272668e-01
-2.331770011466082759e-01
-2.347736643454997885e-01
-1.698841719730545263e-01
-1.254662904598948248e-01
-8.100293161835978029e-02
-1.766843166047888519e-02
3.270561855555319947e-02
6.278319069947466136e-02
9.250055262344408780e-02
1.188825861629266289e-01
1.169417609439840910e-01
8.962715258770122262e-02
6.752958748220845575e-02
4.528518360865813053e-02
-1.070839527706245187e-02
-8.224067966292744614e-02
-1.181827262944178669e-01
-1.245423645562870468e-01
-1.405044179619250322e-01
-1.733198061725776395e-01
-2.033102222907348378e-01
-1.926973136915552109e-01
-1.355366393651262769e-01
-9.302061155745840193e-02
-9.564883469386414871e-02
-1.017575562211531781e-01
-8.301267940549419966e-02
-4.102114255684394251e-02
3.540826048136776205e-02
1.465363291651860800e-01
2.529328537644121022e-01
3.293794031208570061e-01
3.827871235492043001e-01
3.910734264907806401e-01
3.297220582687476753e-01
2.255295374241844120e-01
9.827881396449937579e-02
-5.205837074832088407e-02
-1.793831464081085403e-01
-2.264138122808844744e-01
-1.958872569608752223e-01
-1.271854059559061612e-01
-4.371069525646741061e-02
5.435265062887224830e-02
1.518044760086786626e-01
2.085135123023117987e-01
2.039039586192100129e-01
1.512876884816137524e-01
8.114038747888140113e-02
2.137382992704144058e-02
-4.535574786232014072e-02
-1.680202482499470740e-01
-3.226620338300663082e-01
-4.108382222878210199e-01
-4.031857065833365228e-01
-3.571969603588061037e-01
-3.062538959829719798e-01
-2.384906909286749754e-01
-1.332309262050912768e-01
-7.481203908519577783e-03
7.791765225188267141e-02
1.127786197705892279e-01
1.437576338698092204e-01
1.819578370436239767e-01
2.073622487245714019e-01
2.017894709390725405e-01
1.537151717328997524e-01
9.392629786050979424e-02
7.939953287286710681e-02
1.073626564340838530e-01
1.151930134230802899e-01
8.432150212112114740e-02
5.362406102658726775e-02
2.548609221451834245e-02
-1.914888312583930968e-02
-4.967974854449876826e-02
-4.993781992285961646e-02
-4.953846593470617038e-02
-3.470459264190765836e-02
2.672460150351031391e-02
1.032777314751430475e-01
1.456661906691298081e-01
1.399632781269060655e-01
1.114956477967834481e-01
9.384356054014025839e-02
5.736339117979736418e-02
-3.042335901323049707e-02
-1.064368495340211745e-01
-1.339615006667776997e-01
-1.726514977624173941e-01
-2.216820143638376650e-01
-2.227512960600682157e-01
-2.105362869583203289e-01
-2.272207312276559588e-01
-2.085243761400567830e-01
-1.193863165517266983e-01
-2.342542444985295375e-02
4.208375716938508176e-02
9.963087884356529311e-02
1.559408950392546789e-01
1.836311599183401977e-01
1.561541692416404392e-01
8.228568465012087163e-02
-1.477643065478709272e-02
-1.137796066617118018e-01
-1.167755839696183601e-01
3.808974602723065594e-02
1.652724200911849795e-01
1.225070446517624589e-01
7.660159789435590227e-02
1.331704262874305322e-01
1.851264886727233827e-01
1.975198528121868968e-01
2.105301550188720672e-01
2.145506344113094210e-01
1.854908320634750529e-01
1.349290133854063600e-01
1.079562534889307313e-01
4.418358994663826311e-02
-1.745224694367185081e-01
-3.874297664745396386e-01
-3.592810328769547867e-01
-2.428836197982220391e-01
-2.625110727802333899e-01
-3.318407022378365712e-01
-3.172057964643962280e-01
-2.442055041317544584e-01
-1.922812232910466879e-01
-1.830859212343014519e-01
-1.607100600178214267e-01
-7.492979247695338851e-02
6.502784244610887443e-02
2.132482448773207473e-01
3.166882534322147946e-01
3.606369098249084248e-01
3.653742273723455947e-01
3.434163990367690156e-01
2.913593170675829458e-01
1.934341368822688756e-01
6.600759327818174482e-02
-3.079890267760870826e-02
-9.047003770856411331e-02
-1.570124184702283709e-01
-2.066443843251415391e-01
-1.875805452950070618e-01
-1.409353089411241045e-01
-1.270724075506330375e-01
-9.683998535472441993e-02
1.610115267747637413e-02
1.469769151167117927e-01
1.887963959951409199e-01
1.681056060587826362e-01
1.825162488715864340e-01
2.092045688904017875e-01
1.449280729655468836e-01
-5.497650663448488614e-03
-1.378795456549567200e-01
-1.847087052445736399e-01
-1.522644639670061861e-01
-9.432723579676255410e-02
-6.485555226495411107e-02
-5.024041880175977859e-02
5.656215519781909382e-03
9.040344874045883050e-02
1.320187560731305998e-01
1.203712390167492735e-01
1.020733922538028249e-01
8.129212710618291537e-02
3.194869853275883465e-02
-3.200385379844326861e-02
-7.755289745549089064e-02
-1.112664581879043574e-01
-1.462249016833331028e-01
-1.580830799802858955e-01
-1.459068090747593915e-01
-1.543919617237295983e-01
-1.868881052946058385e-01
-1.927888719778823867e-01
-1.668147160983123878e-01
-1.584311492257338971e-01
-1.679796137882037521e-01
-1.549091368542844238e-01
-1.199268547793078121e-01
-6.590734391258805391e-02
1.603741776762645371e-02
8.355973982510701836e-02
1.068657624648301080e-01
1.212653761322823043e-01
1.371383336897022132e-01
1.453843853182533175e-01
1.680597443576703487e-01
1.847749515234054507e-01
1.693497619638779650e-01
1.733366404436005037e-01
1.571978223482669024e-01
4.786822071166513259e-03
-1.449114577204667353e-01
-8.376160963835511952e-02
4.938916801177051230e-02
8.119743272563448300e-02
1.279255402394696983e-01
2.815734864245643121e-01
4.455753301787859777e-01
5.299037600364506773e-01
5.461004020972523021e-01
5.790636027736824065e-01
6.092742342802011102e-01
4.566213790702433051e-01
2.355554203925770140e-01
2.865905847273035323e-01
3.646237309075359700e-01
1.088756412155240244e-03
-5.586833841197565986e-01
-8.436398687036041899e-01
-8.093004257628160225e-01
-6.662596960241403687e-01
-7.350260823367487095e-01
-9.272071783692754643e-01
-7.074323232154378083e-01
-5.744884538837473631e-01
-1.369332277329236458e+00
-1.907176265967437390e+00
-1.078614799788581990e+00
-1.749432777010142270e-01
-2.137229217307345941e-02
1.873115645774647287e-01
6.670005503636443622e-01
1.014554108383502129e+00
1.168043127697242944e+00
1.179044391312572326e+00
1.084483889836013848e+00
9.352253643305286079e-01
7.378974364591497359e-01
5.452762148609909820e-01
3.844118298305186920e-01
2.033435190864530950e-01
6.790263577114419302e-02
6.469490041149533743e-02
5.877064722354799486e-02
-5.634918508684830241e-02
-1.465467125933416215e-01
-1.489492118961349421e-01
-1.870369157372729352e-01
-2.902699865936743673e-01
-3.718142275801971097e-01
-4.230438125892780343e-01
-4.919190378932289942e-01
-5.467477150854940238e-01
-5.092262331809725984e-01
-3.932954443533736577e-01
-2.717068342086198518e-01
-1.582529148265688079e-01
-4.389067889338861550e-02
7.722761637105253485e-02
2.295217351275573581e-01
3.816300577140050443e-01
4.508421471744532005e-01
4.096457272424350315e-01
2.983588231171040994e-01
1.800881425178639805e-01
9.780226778252675002e-02
4.310213826433235973e-02
-8.169688441274781943e-03
-5.544466077967068196e-02
-1.020556212786198486e-01
-1.631201228621053101e-01
-2.181388810800570510e-01
-2.136376834659744484e-01
-9.948943777413481182e-02
1.197417347489640460e-01
3.075195609498050375e-01
3.153146057418932391e-01
1.994326691692637488e-01
1.094453847105632954e-01
7.252435372470197872e-02
4.773611352031835453e-02
2.177544859852692180e-02
-1.669321693959539485e-02
-6.790047204888184640e-02
-8.931367263001238621e-02
-7.086483332237170085e-02
-6.130792130922968486e-02
-4.654315654573520922e-02
4.547854974982695753e-03
1.823966117948263438e-02
-2.244638846264693927e-02
-2.932959559226211432e-02
-2.215118244173791204e-02
-6.138480341992992584e-02
-9.204080935322322965e-02
-8.212682145753778806e-02
-7.937970273331979021e-02
-9.415222661464126008e-02
-1.109136600024705765e-01
-1.246146728331204295e-01
-1.049910729011246657e-01
-4.893909361813908454e-02
-2.142395784177694718e-02
-3.880448146880945831e-02
-2.864376118067290394e-02
3.192252854966858011e-02
8.791594467066540797e-02
1.221948031568384774e-01
1.420550905096688576e-01
1.120023522536510441e-01
3.511621124210995148e-02
-2.316637442828511223e-02
-3.127213406869840812e-02
4.452522037619833020e-03
4.125114070590019805e-02
1.217250009294319237e-02
-4.739715579864509087e-02
-3.953512511257616796e-02
1.140482247059589060e-02
2.097268572550681567e-02
1.709283707773505759e-02
5.742762879417336042e-02
5.361976400755368022e-02
-7.156230235099761416e-02
-1.416599214171339882e-01
-2.642521101113865650e-02
8.018343084980948665e-02
5.384040590980816721e-02
1.832281420628473906e-02
3.009390825174856551e-02
4.282666106551543533e-02
2.575855970676924414e-02
-2.117690792850226295e-02
-4.140916542193714273e-02
-5.158674887001863524e-02
-1.525318202831582870e-01
-2.530256996012562598e-01
-1.941066050424903322e-01
-6.297567558829093859e-02
4.053468752253178153e-02
1.444453963219085590e-01
2.107158972162938293e-01
2.575509015270152635e-01
3.916644374435884202e-01
5.405685813745485513e-01
5.341772586401269951e-01
3.901965096011482670e-01
2.555924328788368727e-01
1.600086200948689363e-01
2.827013492202089251e-02
-1.514484212058294088e-01
-3.350255807310550948e-01
-4.770196303303796959e-01
-5.514365017943194669e-01
-6.067996839848818214e-01
-6.838827973405979810e-01
-7.062807464438609628e-01
-6.086968321138677140e-01
-4.614581139193185688e-01
-3.679965894922380687e-01
-3.337057090719475205e-01
-2.770930810363663732e-01
-1.692627397359846020e-01
-8.801974563923488371e-02
-4.826443717999522043e-02
1.577925285903510055e-02
4.377971097798719763e-02
2.217915728476044235e-03
1.095122110072583449e-01
3.775128638948206938e-01
3.317568071500279769e-01
-2.436888374445644323e-01
-8.855049093473794652e-01
-1.120334356128116937e+00
-8.667830311091034856e-01
-1.229223821647802833e-01
1.118422570016401885e+00
2.482310614029308304e+00
3.243927005950433262e+00
3.536561339635178491e+00
4.449045243225089763e+00
5.280945008384955841e+00
3.504288612226309496e+00
-5.647796199652415083e-01
-3.448631377577688006e+00
-3.559055864860199314e+00
-2.201806443836321403e+00
-9.449571862583127091e-01
-6.386045831951776552e-01
-1.028184563058342160e+00
-1.068606427381365132e+00
-5.849112565783300965e-01
-3.723240959350345713e-01
-6.964835248678777901e-01
-9.888695742725304161e-01
-9.353918334761215370e-01
-9.589384514571036577e-01
-1.150884666700451753e+00
-8.993175843933742808e-01
-3.317123228832775106e-01
-2.966351364566069404e-01
-7.442723204562570194e-01
-1.027956446445572158e+00
-1.089781223689869405e+00
-1.187589096059707527e+00
-1.305125715160491584e+00
-1.186152751648549719e+00
-8.077510535913603462e-01
-6.203191275283996831e-01
-7.127827138173794541e-01
-4.093439285737789923e-01
5.708593371921907300e-01
1.715417317345164117e+00
2.593316021662983140e+00
2.944877974146141497e+00
2.562869759070288911e+00
1.742476649668501354e+00
1.009479287678548332e+00
5.412674584460502869e-01
3.198658057343474193e-01
2.858152362088210996e-01
2.892180056076306682e-01
2.646269689226963262e-01
2.912750631741319318e-01
3.582109562454282026e-01
2.933682152994145365e-01
1.179327593276600639e-01
1.754391446961481305e-01
4.969024043363525767e-01
5.257050823275880580e-01
6.389040243040844391e-02
-2.916086730334364052e-01
-2.402033461113837753e-01
-2.064272362784932147e-01
-3.542977698493746663e-01
-3.869701751255714695e-01
-2.664819910474303111e-01
-1.341465511768330232e-01
1.215674909631948020e-01
5.199383026116317641e-01
6.673559457125304295e-01
3.750328823662256728e-01
1.093954039330782002e-01
2.034933305285660798e-01
2.286800507571051522e-01
-2.238149956031764143e-01
-8.194820801766644625e-01
-1.159665434641413251e+00
-1.440938041572029871e+00
-1.776129877419540648e+00
-1.824007688903469093e+00
-1.667851948473220380e+00
-1.763711905645068967e+00
-1.844335891520872295e+00
-1.403004048736040232e+00
-7.925737391266807208e-01
-4.891406322214966185e-01
-2.798656060049881655e-01
9.390532303650811485e-02
5.417671125874161664e-01
9.375291925015809547e-01
1.201025134605286482e+00
1.321247497892476641e+00
1.434278503924925063e+00
1.578344486636440891e+00
1.558647305443814135e+00
1.298641418122949309e+00
1.010029550445237900e+00
8.712484444790979943e-01
8.032837263836742903e-01
6.524595950723413029e-01
4.514263368213469185e-01
3.338882068592401997e-01
2.678121374702960855e-01
1.583191989662212640e-01
7.849871221108878361e-02
7.850035084885648162e-02
2.479454049233947854e-02
-1.257953309662357966e-01
-2.162424648467471400e-01
-1.886874337624644127e-01
-1.845558256800656771e-01
-2.733207074350124666e-01
-3.543233057368373462e-01
-3.679215431822430160e-01
-3.680533464680080802e-01
-3.899000693858055699e-01
-4.033926274667373191e-01
-3.760254768849863316e-01
-3.362197142034440978e-01
-3.432758985742676017e-01
-3.813621772021881240e-01
-3.849452053932667095e-01
-3.521115396430504196e-01
-3.218481749750357057e-01
-3.030217836165431944e-01
-2.855154781488868920e-01
-2.651016091412032871e-01
-2.478360577001794962e-01
-2.360905757872547028e-01
-2.170719133018607361e-01
-1.845311897574041238e-01
-1.422030509269631704e-01
-9.209092313351932568e-02
-3.373770654400097546e-02
4.343144149193062242e-02
1.250897360599020902e-01
1.607656498666095723e-01
1.494284119268567135e-01
1.452974862133530332e-01
1.652451963421510683e-01
1.797931676610066698e-01
1.767574775447667279e-01
1.869172864623794839e-01
2.332054015498213340e-01
2.930612113761337234e-01
3.318471433251478087e-01
3.216098444339576812e-01
2.661509869620579671e-01
2.116359521468758054e-01
1.757448871626887676e-01
1.493540268551418748e-01
1.348978816853049767e-01
9.402735618771401738e-02
2.721934400359921069e-03
-5.583253627823669962e-02
-2.331904740934803710e-02
3.790800812527754526e-02
6.955772516511174453e-02
6.202994302822890937e-02
2.178294324288874984e-02
3.475267885418198421e-02
1.508809380644610953e-01
2.098194350613895864e-01
1.172934734009446756e-01
3.529925931008492945e-02
4.489395303734982495e-02
5.903889825804167768e-02
3.681746594870653755e-02
-3.858271788237765954e-02
-1.516874528774819209e-01
-2.101944306946080532e-01
-2.043762003087227774e-01
-2.149048044286133996e-01
-2.404883995358884086e-01
-2.306154239014193141e-01
-1.968632250417649554e-01
-1.671290835098830918e-01
-1.436479209945475399e-01
-1.343286460470107524e-01
-1.427683900990910915e-01
-1.551542085219319023e-01
-1.593380569390723256e-01
-1.431716277532618098e-01
-1.027070705031623010e-01
-4.914872238441919672e-02
1.317139980487024020e-02
6.331686595801659656e-02
6.066763633072923267e-02
3.289762793374961802e-02
4.966135316308880471e-02
8.421842618233835176e-02
7.168414884651848340e-02
5.531692162635691579e-02
