2.760012746706147491e-03
-9.731377452607677114e-02
-1.204185355924791145e-01
-6.319721284369456127e-02
1.199519950081049877e-02
8.502917504773220558e-02
1.821811761187768497e-01
2.770209796013974879e-01
3.213963853266199044e-01
3.157137292375541415e-01
2.833657019203833505e-01
2.509869219877595703e-01
2.246561078215084106e-01
1.711314182659426919e-01
8.829636771208891621e-02
2.916759545302023693e-02
1.085928701873742352e-02
-5.943595364148748783e-03
-3.945520125211211815e-02
-7.528129667525296220e-02
-1.084060809604104336e-01
-1.267804619883499684e-01
-1.094084181756928981e-01
-7.899426853375601798e-02
-7.123398227270549832e-02
-7.217235121664387909e-02
-6.820761028058872077e-02
-7.065044748032636712e-02
-5.768159210581445817e-02
-1.529163080582329748e-02
8.911135147021909120e-03
-6.768868332023475487e-03
-3.372584090985661365e-02
-7.643155630365593145e-02
-1.295471963347373801e-01
-1.357545243226998544e-01
-1.009051496168414386e-01
-8.733004456869927767e-02
-8.948623730102819862e-02
-8.460289297709724932e-02
-9.219876764786399947e-02
-1.132108439322713350e-01
-1.371262832046270808e-01
-1.559170079403100484e-01
-1.526534288193600875e-01
-1.334845847764544180e-01
-9.430371220354069606e-02
-9.898612127876477845e-03
9.935314162884076317e-02
1.907175121933413486e-01
2.409273492429176433e-01
2.421862611440313284e-01
2.156957973551430763e-01
1.870430709310126616e-01
1.607424396146031331e-01
1.349707653101921145e-01
1.068789152162146205e-01
1.014632470899967387e-01
1.441601378166439129e-01
1.768479708007499873e-01
1.559602553165272687e-01
1.565017316371570266e-01
2.043390423896926655e-01
2.055610898289973731e-01
1.413816842990548439e-01
8.566668513622135994e-02
3.466060029213440669e-02
-5.333435302591630484e-02
-1.269847150775028077e-01
-1.339528369966270227e-01
-1.207053848236677163e-01
-1.220852729250589269e-01
-1.246667792550538723e-01
-1.473401900819829580e-01
-1.582174151845023302e-01
-8.655794508836782419e-02
-3.740077170455352595e-02
-1.402238192420396656e-01
-2.705424862788579632e-01
-2.861235728791476363e-01
-2.538453616353360531e-01
-2.478237527246650307e-01
-2.418015205620691610e-01
-2.125395359647968552e-01
-1.538689941671413375e-01
-7.921959469596293046e-02
-3.531801539589370098e-02
-1.666106837688247078e-02
1.656390180304349175e-02
3.860480557638374527e-02
3.184613922839200223e-02
4.081856920615951900e-02
8.372633935191538257e-02
1.337376798744003559e-01
1.591649977235198299e-01
1.457429346002189763e-01
1.118440419107743916e-01
8.397596095179811482e-02
7.803449842098836298e-02
1.055725182631288284e-01
1.551493010627528202e-01
2.039399228241897954e-01
2.622753600622252934e-01
3.389783358998603169e-01
3.912512580259573935e-01
3.793583817310548501e-01
3.083944499582757515e-01
1.943483396235680116e-01
7.130268760743606327e-02
-9.776814891233151505e-03
-5.455689367686201996e-02
-1.125287559748571337e-01
-1.761807924569500083e-01
-1.994235961088543785e-01
-1.862962371829561536e-01
-1.619797897711827972e-01
-1.152650296643097649e-01
-5.232758792598742048e-02
-3.482787082774253806e-02
-9.302186969934582439e-02
-1.761116736433396834e-01
-2.352414022339779920e-01
-2.679515527697944322e-01
-2.634065109521378512e-01
-2.046559777652906809e-01
-1.320889161165592351e-01
-1.130130803986917343e-01
-1.450291823257818247e-01
-1.678537253697037768e-01
-1.622358705439413407e-01
-1.381791165570391833e-01
-7.024380679328753874e-02
1.755952002249020621e-02
3.744845760549447150e-02
2.609131390240297665e-02
8.965319555504555615e-02
1.576144186290069360e-01
1.147141220435967390e-01
3.551355196612469844e-02
2.359493751157769326e-02
5.747355092987220526e-02
1.128682756779959551e-01
1.843205200372194097e-01
2.163093618684721609e-01
2.001626035431108286e-01
2.065608226124362179e-01
2.454853720111745963e-01
2.607886319894294758e-01
2.380895937036334453e-01
1.936225448193197862e-01
1.289833743778898700e-01
5.504634458520969720e-02
3.781911001258492222e-03
-1.472259430540931446e-02
-3.262463551761311809e-02
-6.410149070568202379e-02
-8.429480286489615670e-02
-9.128666853863137698e-02
-9.142889995599828845e-02
-6.416956108488128252e-02
-2.659813217722383633e-02
-2.649424976416378530e-02
-5.071899165216396665e-02
-6.243466955820981684e-02
-8.336832422070869497e-02
-1.350040444102860726e-01
-1.825564384054437772e-01
-2.155171008456886195e-01
-2.615621630434962208e-01
-2.841092074859696837e-01
-2.279400917579529617e-01
-1.335749117513375661e-01
-5.744577411881125056e-02
1.916466096302249511e-02
1.160729113314516586e-01
1.946779002645015466e-01
1.945582472496356907e-01
8.925002875709986405e-02
-5.895999246451980036e-02
-1.226223007625754507e-01
-6.558344807048849257e-02
1.726306815713342033e-02
8.062074428657800551e-02
1.346845064942950032e-01
1.275630742907110093e-01
1.148472440456601573e-01
2.250055824326567255e-01
2.997768886204764116e-01
1.545213365895833635e-01
-1.474407142461908737e-02
-3.031443005250314404e-02
-3.202242193711637985e-03
-1.047144631250740421e-02
-1.820110054982118641e-02
-1.999196568627512050e-02
-1.499193521485973207e-02
-2.464887336246245064e-03
-1.318348883801119878e-02
-6.073338207807645051e-02
-9.713994278479767819e-02
-7.422112722925813810e-02
-3.410737971693527520e-02
-4.894174942369135944e-02
-9.085247185689984684e-02
-9.260938621242340019e-02
-7.310633501379218413e-02
-7.188695697492324121e-02
-6.391638816594413797e-02
-3.845550854066447088e-02
-5.060817713740037305e-02
-1.148845525224492653e-01
-1.716339380607945775e-01
-1.857856032590168849e-01
-1.091962642570551284e-01
9.345235625864065088e-02
2.515162487884740616e-01
2.232463077438467391e-01
1.908022770963023751e-01
2.657399821398437889e-01
2.658274023177032985e-01
1.428195760449901819e-01
6.055392678293176900e-02
5.443094030210729461e-02
3.691172120046743582e-02
7.948562309036677487e-04
5.386796898798881794e-03
6.384116741279559359e-02
1.194445501291038630e-01
1.220658517223967288e-01
7.175866365356345367e-02
-2.142414076845129342e-02
-1.356764284677640098e-01
-2.330291573225580226e-01
-2.942142259925719650e-01
-3.034389137196752406e-01
-2.549973257871077648e-01
-1.794094416706122908e-01
-1.018381076386991740e-01
-2.851128520868602412e-02
3.784224008330977496e-02
1.116811045376042977e-01
1.888949301568588202e-01
2.159243460668475167e-01
1.592790631128938039e-01
4.557505170568199038e-02
-8.223884447001877929e-02
-1.710399155550592909e-01
-1.660170433595472561e-01
-7.387370930354932030e-02
3.945663413635003280e-02
1.119462831521607499e-01
1.157509194898303645e-01
5.520590299259087869e-02
-4.592856509400716769e-02
-1.430113951793906824e-01
-2.066722657544307895e-01
-2.539183951487574697e-01
-2.352372280088213252e-01
-8.209488008192197817e-02
6.344955763104836999e-02
6.684080751819111710e-02
6.810921949118017849e-02
1.648599913283559093e-01
2.583887876032707753e-01
2.797935070267996704e-01
2.203177365671891430e-01
1.247668827943517605e-01
8.288122088990194924e-02
8.641967156867277899e-02
7.908477729653543009e-02
8.711076605891723834e-02
1.318033774081832921e-01
1.677013148381561736e-01
1.561662665489082225e-01
9.219729391360195758e-02
-4.944335277813668994e-03
-9.833904508732740912e-02
-1.731474204584362020e-01
-2.347112480278714663e-01
-2.675405824563777402e-01
-2.577022529045335242e-01
-2.180266290042141009e-01
-1.673906088095607203e-01
-1.163342815786687356e-01
-6.672769654718799237e-02
-3.274175437241708120e-02
-3.222581274572783316e-02
-4.228534169944176552e-02
-2.921292999645003913e-02
-3.803885753161428962e-03
7.002105719866893313e-03
4.939829014077027486e-03
2.234872332059403138e-03
3.636293901436108561e-03
2.893170217098910493e-02
7.932508250752223766e-02
1.106391439508305069e-01
1.166281363735821863e-01
1.161905692526274680e-01
7.473261624577799689e-02
2.714305063323365838e-03
-1.768930274730431615e-02
1.667754642442911134e-02
4.322366850579648784e-02
4.344476964124310836e-02
3.559825821499300325e-02
4.430970627233050962e-02
6.899607370995967937e-02
7.777637533498986400e-02
7.025550710112983543e-02
6.480299313048640264e-02
4.257084235485045220e-02
-3.445734661832219881e-03
-4.333045831220391775e-02
-5.968113927810587277e-02
-5.000048779931809406e-02
-3.238211066319747478e-02
-3.928582426458060439e-02
-5.846013579739642307e-02
-7.569293266473824111e-02
-1.214276550992215153e-01
-1.768802318917499228e-01
-1.805636645549447139e-01
-1.301784986327836069e-01
-5.694884179430226290e-02
1.033734754095912492e-02
8.498672993791941965e-02
2.399524412432719467e-01
3.908210619061547320e-01
3.351627793520317034e-01
1.544389408314567336e-01
4.803491981550109952e-02
-3.506939989784545880e-02
-1.514654563055965741e-01
-2.327416214657051230e-01
-2.792260959013838639e-01
-3.032261967515225698e-01
-2.652546232054019959e-01
-1.665068878802626051e-01
-4.997289525374796343e-02
5.221374863959575563e-02
1.364439309288432156e-01
1.971397651363213099e-01
2.024707828503525542e-01
1.604491485298198683e-01
1.285472448027472070e-01
1.145499564797227698e-01
8.982846691937944328e-02
5.581000595877173148e-02
8.859437670449981511e-03
-4.615656956109447095e-02
-7.051086701717354521e-02
-7.098178111445460625e-02
-8.451391104210367877e-02
-9.089851884716960984e-02
-6.109626235481756262e-02
-1.157760400234804019e-02
3.594483391479724732e-02
7.445413147992255287e-02
1.001251802963063903e-01
8.229865121870502676e-02
-2.354868338677269801e-02
-1.543354116521640229e-01
-1.833013352655010475e-01
-1.360358486987118809e-01
-1.122820861017899408e-01
-8.546177241950182746e-02
-1.051945793410521100e-02
6.174034742463822140e-02
8.956358262857054553e-02
9.721177123702655354e-02
1.175359413607357517e-01
1.411633613733130066e-01
1.276681002215633853e-01
8.533020424245037205e-02
6.674502736667731195e-02
5.344435586603851762e-02
-1.457367902996982954e-02
-1.021783604444653076e-01
-1.259508659194713831e-01
-7.998641108797729937e-02
-6.235150441196421478e-03
6.173654368155429006e-02
9.279643440919642383e-02
8.349550481155634807e-02
6.129498564543632566e-02
5.002814464958745683e-02
4.746154257922912539e-02
5.167633108949236387e-03
-9.407625655692433697e-02
-1.549316943289495985e-01
-1.191957877762451629e-01
-7.167507375028760175e-02
-6.375128785188012570e-02
-4.842380634973455361e-02
-1.513406710848062137e-02
1.327981485358673691e-02
2.738613464005501888e-02
7.240889342991878308e-04
-6.283949209245143219e-02
-1.104006652969986568e-01
-1.253751214696827154e-01
-1.246838752986970250e-01
-1.046028542595936056e-01
-6.009363762225153338e-02
3.033632709990029958e-03
7.240964723498988231e-02
1.172139619613659228e-01
1.218497787929370968e-01
1.186332470843352860e-01
1.280120472796998643e-01
1.075330725055967107e-01
6.903874858104505630e-02
1.277559894858119882e-01
2.277110991555038322e-01
1.544379683629774902e-01
-8.405617488762165065e-03
-2.582340648377666470e-02
1.691440842648849613e-02
-2.796855694979349938e-02
-1.024413157318175005e-01
-1.638917141764621721e-01
-2.048698184572367298e-01
-1.937815660309934462e-01
-1.698383644696428718e-01
-1.481698761235532846e-01
-5.288400963313284742e-02
1.086003468362001234e-01
2.227336214239357126e-01
2.469571970884837375e-01
2.458048741673877213e-01
2.561876648342505391e-01
2.184741946085125008e-01
8.600428310796502662e-02
-7.243482366113201953e-02
-1.691280434536363841e-01
-2.123401400110613291e-01
-2.277755317717861105e-01
-1.883614434794496084e-01
-1.063444445146904671e-01
-4.935063918023394752e-02
-3.597885700304827988e-02
-4.197688297003341479e-02
-6.672730437557364280e-02
-1.092942135786170860e-01
-1.356863420254076913e-01
-1.164785339202682735e-01
-6.797181452140776958e-02
-2.245776402741819430e-02
2.190937220741799238e-02
8.481384462210364572e-02
1.507320194319922146e-01
1.785100653859825193e-01
1.790321824012162943e-01
1.966449828521407150e-01
2.013618388954759586e-01
1.419678096618285645e-01
6.153464189946908358e-02
3.700678406881001414e-02
6.592464348905310856e-02
3.698196268414573329e-02
-1.109783603451603845e-01
-2.046328192158975434e-01
-1.021594172772898323e-01
2.702769460795460474e-02
2.427464028319677170e-02
-2.611184875594303387e-02
-4.455799636328131030e-02
-6.010899439504515523e-02
-8.243438284844381569e-02
-8.783603063149481027e-02
-8.266186391259992827e-02
-8.245563800817301559e-02
-5.991206696945639704e-02
-3.399454582322242180e-04
4.435417319605965136e-02
4.202198282791540229e-02
2.483923639863832786e-02
1.729682789151746475e-02
1.444150070148682817e-02
9.799920227992881677e-03
1.549200497880808339e-03
-1.832595754970550066e-03
1.790763179743820252e-02
5.599798461596076915e-02
6.641781848759947815e-02
2.750523907503066995e-02
-2.167893289008267915e-02
-6.001608149248426061e-02
-8.351646977264592930e-02
-5.700352863841152973e-02
3.620914832627504520e-03
5.118828889576264307e-02
1.135922708659978797e-01
1.849632619642301024e-01
1.869554800153113705e-01
1.337292135274761873e-01
8.221844076831724690e-02
-1.894784259480031263e-03
-1.152331149603589844e-01
-1.576905972756891539e-01
-1.271903563964122963e-01
-1.135345374867042789e-01
-1.003872375376769904e-01
-5.567227375158565611e-02
-4.167171166415153255e-02
-2.179323770837351959e-02
7.889509543442491113e-02
1.427552221070562122e-01
9.061943823693451028e-02
-3.391197083072519658e-04
-1.158218499513599953e-01
-1.935039246081742825e-01
-1.283984609416804479e-01
-2.442926910075694097e-02
8.387415811499151358e-03
2.829230507916026538e-02
5.462716974096309963e-02
4.639518846384395323e-02
2.747618915238949494e-02
4.939183124032195393e-02
9.193033379452139608e-02
8.553772512867580113e-02
3.045392885881357745e-02
-1.540037756218386351e-02
-4.032946089919178800e-02
-5.824984672294455934e-02
-6.318983006242701039e-02
-4.461252854945345347e-02
1.746063552637353716e-02
1.131848651709042308e-01
1.611770248348602386e-01
1.184491445977561286e-01
5.546725494553188945e-02
2.511934006762648816e-02
-2.101420370456200809e-02
-1.091780373194670001e-01
-1.564430497513844831e-01
-1.047845821400742172e-01
-3.342042366069712667e-02
-2.707687195086221077e-02
-5.168678699624107420e-02
-3.773045499905334360e-02
6.410411757197440573e-03
1.633849782208107032e-02
-9.423018481515400488e-03
-1.838586660266118208e-02
-3.015405280628504978e-02
-4.863839518462460820e-02
1.092554032569931569e-02
1.006504746409652429e-01
9.357652224313391109e-02
7.039532579998816764e-02
1.285094246461605250e-01
1.568562845480641343e-01
8.063518566631214246e-02
-2.095521187629009394e-02
-8.880149234172442230e-02
-1.168160946103655173e-01
-9.914948818170796208e-02
-6.150905010061639977e-02
-3.899090640493191318e-02
-1.914633056776894604e-02
1.238087133048135918e-02
3.013798655875124521e-02
9.448011188783890513e-03
-3.853245452398335047e-02
-7.235653324429769384e-02
-6.984142411239888104e-02
-4.054278738353322975e-02
2.437228620628043713e-02
1.001481785690095383e-01
1.012480636968730308e-01
3.599091664490727815e-02
3.004621445865527513e-03
1.125693639011275150e-02
1.189445565639662104e-02
3.058738548254899894e-03
-5.543820944432350552e-03
3.294267131508795202e-03
4.886340260210301351e-02
7.859407472837079411e-02
2.004638092316559511e-02
-9.753860627333986455e-02
-1.811050658797787039e-01
-1.816002062015853735e-01
-1.124888685516957365e-01
-1.849086098352756974e-02
6.140125221082221030e-02
1.161083889312807260e-01
1.349448775499027808e-01
9.942103684374080375e-02
3.490017433293793325e-02
5.243959403716116387e-03
2.598443360062455826e-02
4.194554163433147909e-02
2.387690289496530865e-02
2.725872227178069429e-02
8.058579685931446801e-02
8.952077363527252696e-02
-1.759736873446680894e-02
-1.428958949856470872e-01
-1.699970867530656848e-01
-1.283782740709724923e-01
-7.253268721816878706e-02
1.198166927372145384e-02
9.378593933159762308e-02
1.113144422080282747e-01
1.013916581823807173e-01
1.042673362481885690e-01
6.340476910144507428e-02
-3.509880929925123655e-02
-1.190037534147974779e-01
-1.598755005937291529e-01
-1.691768046974180817e-01
-1.371848756424760007e-01
-7.812426465435103051e-02
-2.572811079530838013e-02
2.392683590301173183e-02
7.695545944657000703e-02
1.105109906884058912e-01
1.088971330536579740e-01
7.869590131862957971e-02
4.272406531942529728e-02
7.972929721392629787e-03
-4.295483754956233580e-02
-8.610350276340285325e-02
-7.316555545442984809e-02
-1.896252191332530382e-02
2.714855166171010678e-02
5.775533279566587991e-02
9.927060268341125759e-02
1.355809646274930558e-01
1.000173614754918117e-01
2.325036881276380807e-03
-6.110614094456475603e-02
-7.170172453782211464e-02
-8.729908378057596452e-02
-1.064596213447627504e-01
-8.819939613832875058e-02
-3.610839129426748895e-02
1.807394695353329445e-02
6.217745255384941883e-02
9.873132085219138432e-02
1.209880806685026539e-01
1.319086828471534301e-01
1.327943281404137532e-01
7.649972413902154933e-02
-3.292600302377740595e-02
-6.900180738722311302e-02
1.759808338149743828e-02
1.153413539586165548e-01
1.399890178752896952e-01
9.344719316763064332e-02
-1.322480466272755008e-03
-1.161781082247461128e-01
-2.365463444836084783e-01
-3.336941185382088504e-01
-3.564315056070244681e-01
-3.044075415064698142e-01
-2.113497549573710166e-01
-8.890542895719519279e-02
4.532186085454349700e-02
1.512744579001779610e-01
1.859312100076052077e-01
1.450936709188354601e-01
9.259031098692049877e-02
7.556379265351084729e-02
6.496797691301481326e-02
4.556247332106802550e-02
4.237643433155557915e-02
5.373115262261367320e-02
7.354921385844330473e-02
1.087090836127738991e-01
1.243350270486184017e-01
8.130868720343695233e-02
1.741856210509706501e-02
-6.293093594403616209e-03
-3.612429294477203373e-03
-2.426122290071217047e-02
-5.758219728737356408e-02
-6.701502537251130542e-02
-6.276114437460529605e-02
-5.624515278783735750e-02
-3.159809816979182451e-02
2.703633251171870620e-03
2.277581895705697509e-02
3.221554275620434893e-02
3.665803497752109091e-02
9.404109661570656670e-03
-5.447920499906679093e-02
-8.762851246882671918e-02
-5.523262398541808893e-02
-2.591750587268202774e-02
-3.389593055215456979e-02
-4.426905043948833884e-02
-6.217465130421954977e-02
-4.856785681058025522e-02
6.828791070642677152e-02
1.559340237297786314e-01
6.294165713802471473e-02
-5.905672370389304648e-02
-4.416573365138481977e-02
8.130845909858037263e-03
-6.606874875180236001e-03
-2.872865772321816363e-02
-6.547703527632499527e-03
2.049183539686155048e-02
3.101772290954605757e-02
2.703065425080696318e-02
-3.438068219461607594e-02
-8.623815323136180266e-02
1.716127215776869219e-02
1.325649977636184640e-01
5.645999619797470448e-02
-2.149062975694671085e-02
7.125858242825514055e-02
1.609357016877735191e-01
1.402294378495162197e-01
8.544985455000814190e-02
1.392842653678500256e-02
-7.258355796396949444e-02
-1.198734458487809851e-01
-1.206820166982188886e-01
-1.098329330326627828e-01
-1.000593470485250935e-01
-8.977962910526106344e-02
-6.897731789439179306e-02
-2.587434253877416920e-02
2.577400837773009129e-02
5.081884235094730196e-02
2.867966783531099989e-02
-1.473441669821928812e-02
-3.120154761089538945e-02
-1.680748573833776294e-02
-1.076792612356322967e-02
-2.822486335556009460e-02
-3.720048758960227409e-02
-1.536337570979041424e-02
5.463148926122173010e-03
1.215698766622624188e-03
4.535085935119867288e-03
3.578481622294418796e-02
6.716589879499029747e-02
7.343731230073194394e-02
5.612735962776393278e-02
3.848534016813461023e-02
4.910995677255731995e-02
8.117241528349362911e-02
9.803835057021066668e-02
8.257810596737709397e-02
3.748781291764109735e-02
-1.722368699062441083e-02
-4.180080145113929113e-02
-3.917882501148366170e-02
-4.705802372029753433e-02
-5.438782497488910128e-02
-4.246520114276357977e-02
-3.307844775834866552e-02
-2.295299209703918070e-02
9.078711688534576302e-03
3.533080372520244761e-02
1.619089942940318133e-02
-3.635674695844895443e-02
-8.080649937542919159e-02
-1.027946137865889675e-01
-1.206445304228447174e-01
-1.386136600279669617e-01
-1.266768675374422559e-01
-6.224475766018748579e-02
3.686947484733888586e-02
1.281166581439361352e-01
1.705378573741665460e-01
1.605195406009232162e-01
1.355288678568560279e-01
1.058606458286652507e-01
5.431820553369067633e-02
4.847845728398698928e-03
-1.837572311753724041e-02
-3.749696282660712476e-02
-5.731443452062995325e-02
-6.383360811846566785e-02
-7.174399765101299731e-02
-7.738599189451224325e-02
-5.325384046848939679e-02
-1.587071418154413840e-02
7.181763849269615432e-03
2.786833755870627219e-02
4.667994185617380803e-02
3.264715844594384686e-02
-9.691528324195817362e-03
-2.682833430333350297e-02
3.564690187391106671e-03
3.434388357702404526e-02
1.874610990049606352e-02
-1.538648590606243524e-02
-1.514668276575004136e-02
1.712442974420224848e-03
-2.009733618214257223e-03
9.900595988759749305e-03
6.593056884775795601e-02
1.017080605067388899e-01
6.848798726506402645e-02
1.150201038427049044e-02
-2.942552116652781546e-02
-5.217943399741832577e-02
-3.749943249697242770e-02
-1.493976290511512921e-02
-4.500939636141827738e-02
-6.528923415303410083e-02
7.651727848298119777e-04
6.712866088229027528e-02
3.350219385830737612e-02
-7.403325423146343842e-02
-1.679759251824418931e-01
-1.662451698332125527e-01
-6.763874824458554480e-02
3.643949389820456963e-02
8.867836732713593739e-02
1.072523452966872848e-01
1.156612313617255139e-01
1.144213881992189458e-01
8.087159884100010576e-02
-6.258324360171970378e-03
-1.087703102645184577e-01
-1.392691438358328593e-01
-7.768045464211753570e-02
-6.479504787136818045e-03
3.019976817292087043e-02
7.010940417086397591e-02
1.128251146141351358e-01
1.214933351840487979e-01
1.023563988519942958e-01
7.008050899680655366e-02
9.882208091263404784e-03
-7.269539073674752272e-02
-1.225732117177331104e-01
-1.043529207148310156e-01
-5.143211504360352404e-02
8.240753678558957688e-04
4.499013300134643845e-02
6.272165165834908684e-02
4.740316930633038661e-02
1.492437369664826631e-02
-3.324859850545053980e-02
-9.276080667037099603e-02
-1.266020351567806457e-01
-9.774282852781057684e-02
-3.021668573706209199e-02
-8.664099346452156652e-04
-2.779051929703533347e-02
-3.563025198031902208e-02
2.213180645643391189e-02
1.017396670916935059e-01
1.399653768819189847e-01
1.210881834712647653e-01
8.074043171492356619e-02
5.699368108259032784e-02
4.833364698302070050e-02
1.970390507917827230e-02
-4.851019024163923804e-02
-1.169260435509434509e-01
-1.505864807788497295e-01
-1.763469597834615155e-01
-1.952553505054105409e-01
-1.601911114196278019e-01
-7.256507660904668033e-02
2.475655681699311453e-02
1.042158380231372472e-01
1.495601878301835441e-01
1.731907571026771175e-01
2.079584047277697190e-01
2.413058061380153885e-01
2.282036265874152203e-01
1.631066212463067044e-01
9.172894507797448027e-02
5.265212161299579613e-02
2.189108105769980300e-02
-4.006605564555217047e-02
-1.390204557386761908e-01
-2.733008405611394021e-01
-3.698313357687244562e-01
-2.999877282736543305e-01
-1.064736616237285383e-01
3.592113318729547866e-02
9.370094917720214744e-02
1.220645675155162674e-01
9.437655845531636722e-02
-2.535504451035196227e-03
-9.574447294256081820e-02
-1.352230389724833337e-01
-1.313499831367719306e-01
-9.923713704123782176e-02
-5.129700423482705385e-02
4.257281426065517849e-03
6.836351576474535008e-02
1.232961889174144648e-01
1.490435037935159968e-01
1.528167304428750817e-01
1.447031382767508256e-01
1.203311001281940351e-01
6.202854699772764047e-02
-2.317428068544243047e-02
-7.237168268753857436e-02
-6.270438845877002176e-02
-5.017060667095845500e-02
-4.801138990895761904e-02
-1.745696565008058795e-02
3.990380926922942884e-02
8.529391755217632931e-02
8.827896417237696136e-02
5.267764992943381464e-02
7.391368146215905426e-03
-2.538994866285006896e-02
-3.921666435205835299e-02
-4.461898236067535217e-02
-4.623425220605709152e-02
-3.692517207607953766e-02
-3.580505746889770663e-02
-4.487272730844271001e-02
-1.738992920705022260e-02
3.764086625887431981e-02
5.355712910338310956e-02
3.177614341586049163e-02
9.862323294437060767e-03
-1.999948724850199658e-02
-4.601969434269417153e-02
-3.821343669859667003e-02
-2.303703593239203942e-02
-6.896350409869514073e-03
4.151527642241926302e-02
4.292209152749199702e-02
-8.506498124492356538e-02
-1.997661909107033285e-01
-1.590095494533151355e-01
-6.413447874543298788e-02
-1.704348696041089323e-02
2.308813561559968155e-02
8.087878264097489445e-02
1.318071640788106014e-01
1.563478575344439958e-01
1.478029290415657782e-01
1.237617467657834702e-01
9.349439551428713469e-02
3.109386176938086152e-02
-5.161514225675549461e-02
-1.005484611049090732e-01
-1.245455025251362979e-01
-1.181462241236640037e-01
-1.232045721716168094e-02
1.006251673525282442e-01
6.871854027359117212e-02
-1.208055150256353953e-02
-2.409450702066858255e-03
5.507386903682463114e-02
5.597695214372694350e-02
-6.482229509871881290e-02
-2.075212402851394355e-01
-1.589741058025866682e-01
4.026941875935131226e-02
1.196453278167388945e-01
4.407070047575597366e-02
1.150322272199314627e-02
4.030622837640476797e-02
2.317899949241680746e-02
3.468778695575207294e-03
3.898942954216905177e-02
6.109341568107230086e-02
2.286739404873183723e-02
-3.279413897024022195e-02
-5.985941717419764052e-02
-4.600006654484686819e-02
9.098803407699156479e-03
1.023199544105646563e-01
1.938414021301661516e-01
1.573244227630994363e-01
-5.820306592784504907e-02
-2.242216460102770537e-01
-1.645891529705224843e-01
-6.824951858223621270e-02
-8.778847212908137687e-02
-1.096026291710020806e-01
-7.217764496863830759e-02
-2.603594267933561843e-02
1.881210130939479919e-02
4.797240898152414779e-02
3.915652051560623848e-02
3.834565897914837818e-02
7.358925842184782518e-02
7.650664081127710181e-02
8.706452878314721242e-03
-6.527477042409571273e-02
-9.512934500270954497e-02
-9.125537905954793361e-02
-5.434175061459910194e-02
1.905877518609686017e-02
1.017541604542006872e-01
1.709597897289364676e-01
2.218150379397994532e-01
2.277267795815346996e-01
1.580713715194505820e-01
4.368655988622678621e-02
-5.771479101555004876e-02
-1.307101671370891338e-01
-1.686363935327725994e-01
-1.590206176148868389e-01
-1.167048753792733762e-01
-5.944798806844182881e-02
7.033132384647597726e-04
3.962629326741260588e-02
4.703419581874368482e-02
3.286203793656514160e-02
8.289610125498027976e-04
-5.145276965442849987e-02
-1.011836400030931976e-01
-9.621820658336716070e-02
-3.175987835748636523e-02
2.176589959982567352e-02
2.606356094153972763e-02
2.301670321854642695e-02
4.747841877321509058e-02
7.544052904826469008e-02
8.144423835973416126e-02
8.158553066620033434e-02
6.842524572858083021e-02
6.161483137115160089e-03
-4.441291537113416232e-02
2.836746491395730763e-03
5.731255076017233163e-02
-2.527736977299470562e-03
-1.069026313891840579e-01
-1.499466454113052294e-01
-1.441255293448860109e-01
-1.276267458550895961e-01
-9.577484759401325154e-02
-2.259626649530778117e-02
8.318718833609312080e-02
1.536304511614350332e-01
1.489204200728426186e-01
1.067264483149987786e-01
6.712323975091323558e-02
4.164511489106428183e-02
4.871618848948071345e-02
7.848870183888462249e-02
6.450767873718832313e-02
-1.795953832615568985e-02
-1.057557263882889370e-01
-1.421327399254475599e-01
-1.269492845183123886e-01
-9.044394766348268222e-02
-4.611966131155131876e-02
2.855090623705532765e-02
1.059526350578800791e-01
1.146038222863889483e-01
8.409780623016328838e-02
8.123201559262500926e-02
7.687041783613635104e-02
3.633382627784938201e-02
-3.068991213872078461e-02
-1.150640712727303422e-01
-1.797204542466331878e-01
-1.828431179583047406e-01
-1.322667133977930287e-01
-5.442442364210905298e-02
2.740312680117902577e-02
8.029865634676232322e-02
8.635634708175279894e-02
6.944889859327292581e-02
5.425677156200182233e-02
2.844837324175025078e-02
-1.092988579869873418e-02
-3.574761482778173599e-02
-4.204965865554027848e-02
-4.550492744869946704e-02
-3.212797889946990976e-02
4.108460952842875324e-03
3.704806872605341528e-02
6.559599988461428666e-02
9.727219104200804378e-02
1.086099545328103738e-01
9.015355980632626387e-02
4.353368975312186390e-02
-1.125070283563402683e-02
-2.787435038524766276e-03
3.925116317976439645e-03
-1.640721376649119101e-01
-3.186208042049250566e-01
-1.453538195658409249e-01
9.918468629337746922e-02
6.344475986414813140e-02
-3.750623513773352485e-02
2.039868709296953700e-02
1.020868172902074100e-01
1.267332521921898936e-01
1.259313738164841157e-01
1.078063019185879767e-01
1.309771241428265842e-01
1.388010882234707033e-01
-2.959802075349144204e-02
-2.120832968456838608e-01
-1.317863303294964927e-01
6.082586495221926903e-02
9.700602843114579377e-02
1.705447400822992718e-02
-5.571082545649042733e-02
-1.071610676452266764e-01
-1.383611867640783810e-01
-1.351200725568595939e-01
-1.005023543231724770e-01
-5.574907140386093501e-02
-3.440525765706409222e-02
-4.880020454221982440e-02
-6.472940462108754678e-02
-5.898694332590077860e-02
-4.402725853702250947e-02
-1.080149343697323246e-02
5.252998302514497175e-02
1.106249166726128441e-01
1.331779622204478375e-01
1.356855626634414225e-01
1.308484266958246378e-01
1.096467307506745759e-01
8.519021927652620230e-02
8.532545263953374148e-02
8.734061031096056194e-02
4.496175467388556501e-02
-2.210341437498350090e-02
-6.645243669236608475e-02
-8.588079383297042568e-02
-8.749706089570701006e-02
-6.920348638321432988e-02
-3.820147405547323627e-02
4.266758521761046530e-03
4.216652490397878456e-02
2.778968258224413096e-02
-3.974135596006584531e-02
-8.954760353525414995e-02
-9.106643559503863061e-02
-8.535664293472029762e-02
-8.198568832368996473e-02
-4.676537576818141917e-02
8.874256609309162658e-03
3.999078866453248393e-02
4.919650859499137552e-02
6.356027995760711591e-02
7.625715919591301295e-02
6.797793056091550046e-02
4.232416806977416790e-02
1.885233336756517858e-02
1.017141383070772204e-02
1.426095497587517857e-02
1.985854158285001864e-02
3.282864029818927804e-02
6.660411660392884237e-02
4.443645535194412632e-02
-9.813858814497031235e-02
-1.972798363863245974e-01
-1.253876830636843076e-01
-4.239838047327402354e-02
-4.074642355929908311e-02
-1.230577526566746863e-02
6.787567227554411331e-02
1.378585520328258762e-01
1.642696631076493441e-01
1.352694127493643816e-01
8.038183423840059016e-02
2.620708068704339505e-02
-4.597052109204620429e-02
-1.083530992016191880e-01
-1.259476445270218958e-01
-1.644831280032585386e-01
-1.913453875079291766e-01
-5.877057095740417791e-02
1.023796917595728995e-01
6.327672206579390557e-02
-3.051248201468259938e-02
9.336515851914549413e-04
4.201359743310466993e-02
7.994851882033721102e-03
-4.317628934433000165e-02
-4.125321076421228916e-02
5.096266262836991051e-02
1.150679020072037234e-01
2.846230634694698822e-02
-8.255519885799682267e-02
-7.853225045117045999e-02
7.452261281550714989e-05
9.550612329879323847e-02
1.906343950636641693e-01
2.906336158954119231e-01
3.854359542312923437e-01
3.297874043157841273e-01
4.148906194837206907e-02
-2.195262761991518263e-01
-2.466344818232106273e-01
-2.345978304255684765e-01
-3.237431624560329069e-01
-3.751193446286741895e-01
-3.115713714775488752e-01
-1.803475488066273724e-01
-2.374695681951998968e-02
1.145698368929369687e-01
2.018289688080560085e-01
2.179426003080977559e-01
1.594501071689649885e-01
9.068322293038642845e-02
5.703739716389530368e-02
8.470880349071441967e-03
-2.729936978212711349e-02
3.603221733610206118e-02
8.463589655695670511e-02
-8.434714455650738768e-03
-1.165188403356953450e-01
-1.288788489122580649e-01
-1.126299447531473041e-01
-1.140712296229843409e-01
-9.318105878398032227e-02
4.075699926138807473e-03
1.495128703115182478e-01
2.185344650845612857e-01
1.697792484799790225e-01
9.947532275390874590e-02
6.526421461905937416e-02
3.481296714842211509e-02
-7.002618285534327469e-03
-3.872484095994713216e-02
-5.499108345680502746e-02
-5.642094335946405692e-02
-4.761558854054127876e-02
-5.648919878494458591e-02
-7.746179306583310387e-02
-5.545131543925176792e-02
2.150843256893233968e-02
7.593699174061005475e-02
3.900232149599089371e-02
-3.809833879899066078e-02
-8.193681930692038595e-02
-1.068215600519068359e-01
-1.039571276565365437e-01
-5.824570471833956375e-02
-4.361580579608264480e-02
-1.589523340944672819e-02
1.458343236470839577e-01
2.718410954645244515e-01
1.738922248103906554e-01
4.106440014656204118e-02
3.029209488447775697e-02
1.908318175585457799e-02
-3.952593389441860783e-02
-6.113621684280888535e-02
-3.205801823882908907e-02
4.750092238613655773e-03
1.030986065671439869e-02
-2.953218513167618631e-02
-6.829386833202069629e-02
-5.356996534149264383e-02
-1.792609619319585068e-02
-3.302182357028682347e-02
-8.779829392167484703e-02
-1.035624929597155769e-01
-7.752596318762086658e-02
-6.540634661369613967e-02
-2.745121642480324170e-02
5.719812730302418352e-02
6.369817916683358228e-02
2.021444559498360508e-02
1.223613734049882190e-01
2.613651265042373217e-01
1.758731341111758606e-01
-3.436299861893277185e-02
-1.289152046829760145e-01
-1.079652827421499206e-01
-6.713310702366676042e-02
-3.179456803830749134e-02
-1.584935578140740653e-02
-1.524945845535197013e-02
1.292093264228435893e-02
5.724356384185991936e-02
7.077555998243292845e-02
6.188907876721402856e-02
3.232951787547633932e-02
-3.312338507869989901e-02
-8.608564015156616733e-02
-8.325877737754383556e-02
-5.537617770070160650e-02
-3.212882237275001274e-02
-5.802077826927046905e-03
3.439126343738107411e-02
8.598756475938144905e-02
1.202821839268682080e-01
1.035710246486518105e-01
5.955037632136319509e-02
3.434347518613286437e-02
2.575693874111110310e-03
-7.624781248991921445e-02
-1.725345506566776654e-01
-2.334192122098895372e-01
-2.158096530276592817e-01
-1.183383097515657151e-01
-8.363922053061405293e-03
9.353172698551640019e-02
2.068576746770628416e-01
2.344613766517882336e-01
1.168709549822449234e-01
1.378055274013722381e-02
3.094368916042754269e-02
6.015132041925411177e-02
4.774286300590190740e-02
5.687453549885145704e-02
7.585007654948273947e-02
5.488952688821698706e-02
1.557467077488707691e-02
-1.241463133416001278e-02
-4.173721493729944110e-02
-8.461820935490003970e-02
-1.352887196743377540e-01
-1.889100539374664323e-01
-2.181643726306942699e-01
-1.833750966682572703e-01
-1.174838228871387530e-01
-7.863234080998554587e-02
-3.707290708495565579e-02
1.845584191780652930e-02
7.006961501082646648e-03
-3.031103007351151554e-02
4.203529028775220694e-02
1.290487572920968606e-01
8.790927756120661685e-02
5.806425003753239167e-02
1.512667377687775816e-01
2.401484338179898370e-01
2.486303036846716219e-01
2.198304762938728951e-01
1.608319336510859177e-01
6.260156742019384879e-02
-4.028858012319380677e-02
-1.073194786687933361e-01
-1.402382261594674606e-01
-1.600249556892446856e-01
-1.563631231600666471e-01
-1.208894739915534894e-01
-8.923643318120892676e-02
-8.262573870449112234e-02
-7.587868391897134579e-02
-4.590617768820441646e-02
-1.174727774317610440e-03
2.170029311203118538e-02
9.367499870337915938e-03
1.063094974925321567e-04
2.168129130403699534e-03
-9.126373269684561265e-03
-1.236555963976355629e-03
4.864090118581288619e-02
7.537796145471208076e-02
4.813162198292804395e-02
2.923312592398098417e-02
5.361261316185107068e-02
8.019470472302675512e-02
5.190496807644157107e-02
-3.462209167210234667e-02
-9.662802719537272322e-02
-7.369495292749703164e-02
-2.720417825900417821e-02
-2.162442704135125737e-02
-2.828734221655584968e-02
-5.759225511955801298e-03
3.993040453893260261e-02
6.409360790234033822e-02
4.618934626958119682e-02
3.890310976747712174e-02
5.589365651085195785e-02
3.124770750446314443e-02
-2.089503395680825798e-02
-3.020110784907973495e-02
-1.814032327323306104e-02
-1.295157465363729749e-02
1.192199953148661423e-02
2.687940660337678062e-02
-9.943194676032553539e-03
-5.671761035103677073e-02
-8.579708770899674430e-02
-1.126658643696769740e-01
-9.964575098829145383e-02
-1.948758828766388590e-02
6.895956780116624385e-02
1.224376519589005646e-01
1.524358097333986528e-01
1.518806016808781079e-01
1.004987148945954978e-01
2.243308899789308100e-02
-3.476042269875170843e-02
-7.358399125343069447e-02
-1.027718809924728915e-01
-7.816805597331566435e-02
-5.285279005494548932e-02
-1.375258141196166739e-01
-1.995151775354602475e-01
-7.328983343684454532e-02
7.496775897535640221e-02
7.215959802957956637e-02
2.033392591762894080e-02
2.578249916445059936e-02
3.714870702300122896e-02
-1.335203346263316888e-02
-4.708315628700088240e-02
4.489366068489305389e-02
1.315884133994309202e-01
6.973065449625033552e-02
6.945450179345851252e-03
4.358534895681577537e-02
5.395044935623027199e-02
1.218804565861433126e-02
1.205951783214480322e-02
4.691812991345620243e-02
5.718226841558386730e-02
4.175963822243249773e-02
1.602108811657802084e-02
-2.251688366981604433e-02
-5.127789498039728167e-02
-4.403289212826502763e-02
-6.111632512489909019e-02
-1.582317237311376690e-01
-2.098117511396733748e-01
-9.544210269484433573e-02
5.451120230589517196e-02
8.863203049046140813e-02
7.618442652425325146e-02
1.254936004886113010e-01
1.747909171877593537e-01
1.357688645425808860e-01
8.983838044469794060e-02
7.021902487382743197e-02
-5.144934248479340194e-02
-1.942315285848934259e-01
-1.657468055521749972e-01
-1.047168174455700845e-01
-1.738898366398777262e-01
-2.279075573264401355e-01
-1.618347513376896252e-01
-4.718423764452141234e-02
7.742996014018950490e-02
1.881898407825191022e-01
2.517638024639864969e-01
2.891821156244461788e-01
2.422715336848278167e-01
2.849420564718127546e-02
-1.774173944171725248e-01
-1.993626226434917492e-01
-1.396697019216351365e-01
-5.839411047069383021e-02
4.069423008073656117e-02
4.449020214090090158e-02
-5.672026448875086557e-03
3.142717189794418803e-02
9.920750576577293256e-02
8.286058545208523085e-02
-3.599447490882847801e-03
-9.457903065027847833e-02
-1.564021529489176277e-01
-1.453897671414765558e-01
-3.283225908920955893e-02
7.508466176884170951e-02
8.194873878522476729e-02
7.504631117636398341e-02
1.113557962764379627e-01
1.098654597823773421e-01
5.263332760953455536e-02
4.613988942659926970e-03
-1.451884708386983261e-02
-1.140556534300132298e-02
8.911580766070790680e-03
1.367320560472711638e-03
-4.202092175354746328e-02
-4.928341861122662038e-02
-2.628372297740511759e-02
-5.203075564387032309e-02
-9.008646474107522006e-02
-5.650200990508597032e-02
2.389753268637757107e-03
2.938344607915399295e-03
-2.756433499555915878e-02
-2.525420025170043228e-02
-1.563561674161457332e-03
4.025721012325206294e-03
4.219657066086396693e-03
3.170825351577085532e-02
7.533998945818391746e-02
9.795919549461393205e-02
8.789299841047529260e-02
5.969487441354134893e-02
2.467083949264028964e-02
-1.655708032443150776e-02
-5.638522592258569943e-02
-7.511601809130134810e-02
-7.720443133003816738e-02
-1.006999891366071875e-01
-1.408190499882933655e-01
-1.270696041877643900e-01
-3.432643396205362768e-02
7.984647689735063780e-02
1.686561903481140490e-01
2.081467896041609422e-01
1.660936220104383687e-01
6.429460140429214821e-02
-1.715455850247647393e-02
-4.568590964628031076e-02
-6.168534808600680680e-02
-8.753870045124789723e-02
-8.184903441659273360e-02
-2.508308817133002994e-02
1.732377901655362054e-02
5.506801826683950865e-03
-1.948749384254626869e-03
2.503605527441360792e-02
4.190743460852320440e-02
4.346315595396978843e-02
5.242131348216034353e-02
2.773108934442939863e-02
-6.406684942467510968e-02
-1.505613556858709512e-01
-1.583437551621121320e-01
-1.248902924903706191e-01
-8.983535890624429199e-02
-2.330024929400161676e-02
4.983360657276925815e-02
3.654729106243158332e-02
-4.576660501937936804e-02
-2.084719177905513046e-02
1.747498486720114319e-01
3.017308850876310733e-01
2.015739186183015397e-01
8.114860075660289274e-02
7.920150621066715524e-02
6.600951168942992275e-02
2.917448483971667866e-04
-4.120063672323885651e-02
-5.624622939913495601e-02
-6.410541382608735128e-02
-7.140431711541041226e-02
-9.041152811123162603e-02
-9.857481619087422875e-02
-9.252493424033235436e-02
-1.069902689518283656e-01
-1.266848569372078515e-01
-1.166436295178135407e-01
-7.917910671576067205e-02
-2.202778387725647102e-02
3.380121688256994966e-02
6.126204850799495116e-02
7.076171342238471440e-02
8.251163450480258899e-02
1.047894872256756177e-01
1.423508716871734192e-01
1.708067727422494242e-01
1.560235876306161340e-01
1.087117543745480808e-01
6.328123656899525828e-02
2.828660022778975089e-02
-1.771366300064850310e-02
-8.922285714620323271e-02
-1.472372868423562076e-01
-1.442068315018586733e-01
-1.104381450281151922e-01
-9.700633565882628429e-02
-9.258913806988923467e-02
-7.583344260490890165e-02
-7.787924466544492164e-02
-1.297781851194041436e-01
-1.401328797115860281e-01
-4.793711183523698821e-03
1.393242332101662928e-01
1.412718318300364984e-01
1.179735836789095604e-01
1.427187052197611550e-01
1.265791618732219348e-01
8.496723531104873051e-02
6.008316998596454489e-02
3.376909765792174972e-02
5.001746929223897797e-02
6.008837366623213938e-02
-6.563606078464992444e-02
-1.877333598118486324e-01
-1.185719249833066813e-01
-4.724645799034293131e-03
-1.972624074480566064e-02
-1.090552939564096158e-01
-1.245928654940281211e-01
1.365725524225404157e-02
1.330746855594964195e-01
5.460035653058561284e-02
-4.193380439948103666e-02
-1.816970443457820161e-03
2.965331591069095621e-02
-2.771555044600233428e-03
8.119041946207106175e-03
5.395358303621122092e-02
5.256855756506739752e-02
1.984203565799506214e-02
1.641063867676279681e-02
3.403717922725060796e-02
3.275070652060867865e-02
5.361499457288137517e-03
-4.230466883165878711e-02
-8.984337967189157115e-02
-1.030382654738675324e-01
-9.216118877652205998e-02
-7.677584257163767856e-02
-1.130655080136325555e-02
1.102889202694836146e-01
1.762919061455546776e-01
1.485113141116981006e-01
1.414996594725571044e-01
1.379681562873436018e-01
-1.249420755347104700e-02
-1.906377264671122729e-01
-1.646107695264774073e-01
-5.042414813150887520e-02
-5.209623269453238920e-02
-9.636939009463112160e-02
-6.389031134326235428e-02
-1.947974738457022847e-04
2.304414568839613028e-02
2.183573775718792784e-02
3.220430682151400464e-02
5.100510104984730397e-02
5.914566425562203106e-02
3.040830072785495955e-02
-4.119423267590034687e-02
-9.545952387866418754e-02
-7.591645881785845373e-02
-2.161793918608875126e-02
5.101984885452401884e-03
9.938247100518824914e-03
1.985090575693581466e-02
4.085649626029002474e-02
7.118051727751753543e-02
8.262213426489593837e-02
3.940815073653557155e-02
-2.470652509107593500e-02
-3.245626581762295348e-02
-5.540346066391864041e-03
-3.346681089964195777e-02
-4.716847361548218154e-02
6.036383782729514563e-02
1.290323302245786896e-01
3.205117834166060220e-02
-3.403424964810694564e-02
2.306567657879423153e-02
4.373507872049536838e-02
-6.439528821674672665e-04
-1.835572375845779744e-02
-1.647603343528371289e-02
-2.143433593696936201e-02
-1.389092224232142507e-02
-4.856510301650599978e-03
-1.681807862422563665e-02
-3.691069232617656681e-02
-5.984278934097652519e-02
-9.195215864137282202e-02
-1.133420932749915899e-01
-1.048019930209140443e-01
-7.266271940218335668e-02
-1.689539748175274830e-02
6.637785842146973203e-02
1.366772140457574169e-01
1.490432911080487866e-01
1.290066016452400266e-01
1.052755919171017018e-01
4.780733697817803052e-02
-3.397908635716553188e-02
-6.391815889274302109e-02
-2.898564853073925737e-02
9.547029526992075257e-03
2.666134631801247296e-02
2.322543468862417471e-02
-9.368524396349012240e-03
-4.896143998144673881e-02
-6.569365834446141972e-02
-6.063509742655763535e-02
-5.102545767343426297e-02
-3.093170559201465983e-02
3.430243590516165314e-02
6.521585926671050193e-02
-5.420188352535112997e-02
-1.690079239213381768e-01
-1.168870018028361490e-01
-2.322302364271730535e-02
4.423043771879223846e-02
9.933704675509205662e-02
7.495488560231453046e-02
4.663949373778177032e-02
1.053033824081716918e-01
1.448619987011107446e-01
1.102814592533427757e-01
6.392040269359722249e-02
2.686331662991421967e-02
-6.791956489213652262e-03
-4.168350321911290512e-02
-7.501268541335354145e-02
-6.981284254214790985e-02
-3.367052922335672660e-02
-3.872559929571921244e-02
-8.343444546789165195e-02
-9.770032171715151148e-02
-7.941711172574260347e-02
-6.086775972667572004e-02
-2.552426463464689196e-02
2.876432935765302693e-02
6.842771517931814373e-02
9.559476694991228540e-02
1.170645369142528924e-01
9.323685060032441130e-02
9.995583639425504457e-03
-7.535779140619205951e-02
-1.123566990778682440e-01
-1.178172115235474604e-01
-1.200271692932960155e-01
-1.015579656300601291e-01
-3.223101760824331752e-02
7.515096322103996529e-02
1.569627613558586821e-01
1.722035354801293716e-01
1.514909760266167638e-01
1.201995745965742379e-01
7.681653467341850727e-02
4.689812548160071648e-02
3.434060273471732649e-02
1.242029794455302288e-03
-5.676960142914471569e-02
-1.137066582538816123e-01
-1.512380851380759339e-01
-1.483519489686148662e-01
-9.987150419946526358e-02
-4.252245202720672523e-02
-1.657822781620283889e-02
-1.643920500961171954e-02
-4.342637584658469094e-03
2.620808730392247196e-02
3.226716981998152545e-02
3.317522192232434664e-03
-4.314769226803828739e-03
3.108943191729821726e-02
6.358911315798410069e-02
7.195566563752624212e-02
6.835260549235688821e-02
3.771375010384213355e-02
-7.665261110499650699e-03
1.610151840732292755e-02
1.071313254285405220e-01
1.117767373560038247e-01
-2.801415565542997310e-02
-1.634904494224525551e-01
-1.886327918328606912e-01
-1.555065112649054171e-01
-1.024571463842736951e-01
-1.888862992113575848e-02
4.468519503063880099e-02
3.988509777172485893e-02
2.485551288677186055e-02
6.382385624192640772e-02
1.148995428022932669e-01
1.066934467694335836e-01
4.703148093236284022e-02
4.817597684195120550e-03
7.757933380101791898e-03
1.054238629360566837e-02
7.160470661143501434e-04
2.272063956572685506e-02
6.467064242775437399e-02
7.145120776051852585e-02
2.116608382271837827e-02
-8.052501129472526553e-02
-1.676741868273753933e-01
-1.567054707644084943e-01
-8.725702175746469225e-02
-4.634054944973983042e-02
-1.405483411317542605e-02
4.531891685980658779e-02
7.880486880246671821e-02
4.720751794756862518e-02
1.210462337306145511e-03
-1.144454416083834185e-02
-1.496459141757408573e-02
-3.602904287473740474e-02
-4.923125673095774674e-02
-3.165515311242686480e-02
-2.846101734602560825e-03
2.145116546508958610e-02
6.069676727463078209e-02
1.129210954788713583e-01
1.265985024360424260e-01
9.220730978024739566e-02
6.636233185658074740e-02
6.284959139809094542e-02
4.563216303121257061e-02
3.168797112957071754e-03
-6.375542701861477979e-02
-1.405501026357401373e-01
-1.840993077937230216e-01
-1.877408709513055940e-01
-1.709765621680147674e-01
-1.131326519647130463e-01
-1.604196804846116584e-02
5.787091933749351214e-02
7.659647711128013403e-02
6.696138372566523556e-02
5.939589025545449763e-02
7.202801543915554605e-02
1.082113913549747064e-01
1.382580232737867232e-01
1.385213479781032819e-01
1.318507430319303675e-01
1.301398154012925468e-01
1.059276590415818842e-01
4.631434123814785059e-02
-2.900969092005042244e-02
-8.573876756257090004e-02
-1.136015759563751559e-01
-1.414533040478736237e-01
-1.752683773225574837e-01
-1.844104933306490446e-01
-1.524160562845687517e-01
-1.013221618287537679e-01
-8.677346158148542543e-02
-1.112336491022468399e-01
-8.799916242214381179e-02
7.490433487254685718e-03
9.296641972388988706e-02
1.192991815971636005e-01
1.108393984378179264e-01
1.080505196384636546e-01
1.165031502539042862e-01
1.017421597256070037e-01
7.877588948204494734e-02
1.063999663522377098e-01
1.380133136032548058e-01
7.656135805537103711e-02
-2.440742968040001196e-02
-5.051442919702486822e-02
-3.923080188210888858e-02
-8.357993889390617770e-02
-1.414711636735604128e-01
-1.231013761275110002e-01
-6.042600837358075294e-02
-4.139948157164079212e-02
-5.713692368628772722e-02
-3.887490199754561893e-02
1.097453682414464664e-02
3.555829997587464653e-02
2.458798868213885047e-02
9.723179933518549117e-03
1.486515599490385864e-02
3.319191244961391951e-02
2.820004191478678313e-02
2.858340762808620622e-02
9.932454824691042128e-02
1.683225854002993460e-01
1.491810170677410896e-01
6.444968249799487570e-02
-7.883987008721349277e-02
-1.926309413928024017e-01
-1.508623640320207182e-01
-6.260314370857658628e-02
-4.962526480697596748e-02
-3.877927335453721508e-02
-1.608610126906938331e-02
-2.954084346580897538e-02
-1.680353098679928173e-02
5.518791843548057074e-02
9.120049883880217145e-02
4.886849725515708676e-02
1.783990039889218199e-02
3.222947386006846937e-02
1.347736696397690455e-02
-2.907431593171256809e-02
-1.066531534846798003e-02
3.201469429378844128e-02
3.049445730406319735e-02
1.239925256335057749e-02
-1.123996929068721284e-02
-5.832998221393662780e-02
-9.367055650925662502e-02
-9.302756636219151887e-02
-7.930572064906132868e-02
-5.415888643791989809e-02
-2.555198235597840560e-03
5.820194599175863154e-02
1.047121031286520759e-01
1.355363584905229513e-01
1.407291077780519484e-01
9.874410786849871502e-02
1.881891156372814816e-02
-5.104900889763427235e-02
-7.636726785747871560e-02
-7.403792040208312386e-02
-7.600804618971268578e-02
-8.172378151715661843e-02
-6.717470030935812630e-02
-2.167511571204661439e-02
4.365263776564736603e-02
1.162498605329057855e-01
1.768109263321799851e-01
1.809840610908181047e-01
1.093695590688940067e-01
4.932063069418026434e-03
-9.973788545452397236e-02
-1.852726280384082991e-01
-1.881605625950802108e-01
-1.088407759758003301e-01
-4.937404624573894091e-02
-3.543680680901658414e-02
-1.506050691508476792e-02
-8.161710918471544451e-03
-4.000445207266876274e-02
-4.771180411427650842e-02
5.752586800306208961e-03
7.205849669485189790e-02
1.163314251099160229e-01
1.470478463741118347e-01
1.493479475113698163e-01
8.460190392382517521e-02
-2.488530749778752188e-02
-8.425945373223160673e-02
-5.610745597801198442e-02
-1.929022363603643403e-02
-2.696060449258997141e-02
-3.087705439875744473e-02
-1.689457654322033299e-03
2.194996355743936492e-02
2.334293598806847642e-02
3.264559560458155790e-02
5.979429209129094591e-02
7.024690728189819655e-02
3.674542300733893430e-02
-2.309391973228797773e-02
-5.262611932582980656e-02
-2.517684056448958596e-02
-4.636559935711934144e-02
-1.968052112698894796e-01
-2.954171112338378480e-01
-1.740185936814628020e-01
3.421735209183601051e-02
1.688457277652921640e-01
2.099922172641297546e-01
1.537538315768442188e-01
5.258797431110018294e-02
9.738714373968074267e-03
2.564655389329582175e-02
2.509388812203172670e-02
-9.404163075587276127e-03
-4.326148159801652959e-02
-5.587983710075340033e-02
-4.854920930309428173e-02
-2.685301427937569763e-02
7.802388629693032471e-03
3.958235422300260264e-02
3.825280434351720216e-02
1.074649312139264526e-02
1.267762581349018806e-03
2.901320137054196058e-02
6.165223962693397453e-02
4.792622203458291041e-02
-9.663845651038642168e-03
-4.213620017356211472e-02
-2.311839568334880107e-02
-8.275542772232476196e-03
-1.940689107613086800e-02
-1.419829451039437626e-02
8.974108959245014755e-03
2.116027442104742064e-03
-3.267539815943203835e-02
-3.991918810840825588e-02
-1.553598606607993135e-02
-6.659342702833153174e-03
-1.675519863608726165e-02
-1.032820863100421607e-02
3.088458415640293886e-02
7.430573865614920059e-02
5.937883903822162995e-02
5.127605774734398519e-03
-2.448292455237412180e-02
-4.903316562667262707e-02
-8.935204197099450019e-02
-9.468315366461518834e-02
-5.883686364677150060e-02
-3.757302423320829643e-02
-4.083807540028772803e-02
-2.058558229450154625e-02
4.069265137048166947e-02
8.951659099463088465e-02
8.649611590631682556e-02
6.600474999487010441e-02
5.734497278124536801e-02
3.734532271626569283e-02
6.220400343760756900e-04
-1.370971810219676068e-02
7.991751407058685433e-03
4.390120066981020863e-02
7.808390477832280463e-02
7.951094729974324260e-02
3.849897523055140214e-02
5.866444280242849932e-03
-2.707426737327401842e-02
-1.202679525645469483e-01
-2.143354116990859315e-01
-2.207461401671571566e-01
-1.896640549284775989e-01
-1.700933054041341430e-01
-9.208872465069153912e-02
8.007701088951156565e-02
2.529497799009770009e-01
3.261616173996247925e-01
3.096681688666102494e-01
2.791963923855871887e-01
2.561394074768557627e-01
1.774688028656226380e-01
1.323959861387384931e-02
-1.328524903744040531e-01
-1.669819225640741811e-01
-1.705379664388465832e-01
-2.069051291224814904e-01
-1.863935310137916912e-01
-1.443995011490162850e-01
-2.062263921874057104e-01
-2.402078873852460106e-01
-1.095841872920806648e-01
6.008876088560839018e-03
-2.697379507667973381e-02
-4.527475860606414854e-02
7.258619284663855864e-02
1.687783944733292907e-01
1.049040924142155273e-01
1.932930286327957589e-02
3.960566485041946971e-02
8.279205969767342022e-02
9.789096164750385465e-02
1.205136010265811519e-01
1.127561879887754165e-01
5.629525248588865965e-02
3.929208180231645586e-02
5.170587565779394962e-02
-2.414730655498605744e-02
-9.857692508365782647e-02
6.783253625632222616e-03
1.317723080215033316e-01
5.325332774476901343e-02
-7.230083194306262395e-02
-7.706773339609451767e-02
-8.290713684358824720e-02
-1.491463316537590400e-01
-1.597608305670048245e-01
-9.983014782311175339e-02
-5.332315059352787934e-02
-1.027454391750431788e-02
6.665047698701204171e-02
1.262170788836060042e-01
1.382103008616703543e-01
1.301948452647302690e-01
9.073627472382977954e-02
1.589296706309767035e-02
-4.883449815285476753e-02
-9.061446509563091112e-02
-1.167303031924142587e-01
-1.100947514890949636e-01
-7.872787583842520698e-02
-4.247919538347940532e-02
1.197976475532691945e-02
6.879579007608083163e-02
7.124846586866923071e-02
2.970609932920193277e-02
2.069904691112574996e-02
4.944256122424286332e-02
3.883767161045906940e-02
-1.980657113813443643e-02
-4.412522575064355135e-02
-7.531470383761217427e-03
3.333649365384395991e-02
4.277418617816130392e-02
3.466281273075512426e-02
3.502833206845886588e-02
5.301715915439151466e-02
7.630561444196015675e-02
8.363224332618379719e-02
5.097984568854355136e-02
-1.513910321079705093e-02
-6.629657702947752695e-02
-7.862718048427592976e-02
-7.757567777918279728e-02
-9.016319748908083187e-02
-1.133921087824776991e-01
-1.161536581526207285e-01
-7.788783212599263706e-02
-1.883301615143327667e-02
3.091796688897444426e-02
5.459337939557661057e-02
4.625975928535089321e-02
2.803099237030289709e-02
2.215051158957914712e-02
9.800943149594475157e-03
-1.407196304592067682e-02
-2.499369502313585761e-02
-2.615857422626553450e-02
-1.182846867361099681e-02
4.480699456342670563e-03
-6.270335173829402753e-02
-1.438754742648094553e-01
-5.085692945656845876e-02
9.013312694663370983e-02
5.408497015057538160e-02
-1.126335191580836795e-02
5.916968876845443703e-02
1.366463981192754529e-01
1.516699373464831524e-01
1.950730457336295187e-01
2.567746650022851851e-01
2.377046789618247336e-01
1.187767278010215116e-01
-3.643545952563349150e-02
-1.512026531161860810e-01
-1.971959036036352308e-01
-2.074607771585993687e-01
-1.726677437544146820e-01
-6.985568194693667077e-02
-2.123913922575256311e-02
-3.662464096372362171e-02
7.959562623926261238e-02
6.621947786236748179e-02
-3.667614638457907250e-01
-5.070884064358057719e-01
8.338315562847586904e-03
2.708824051766519636e-01
5.839537757141619045e-02
6.950512917875968644e-02
2.154347916515494399e-01
9.319548842892670659e-02
-5.636571975042270477e-02
-1.623815185332854946e-02
6.397188940981862748e-02
1.035844150105977163e-01
1.217648623753283255e-01
1.054354931110456778e-01
8.368962001402083239e-02
2.624695500257565386e-02
-1.470728549957439624e-01
-2.715851246224506021e-01
-1.577094902981844571e-01
1.242255767307335126e-02
3.408308292475597384e-02
-5.358331613344764766e-03
-9.869476887930057896e-03
1.145381701855124369e-03
1.861393969211727617e-02
3.796957784219412435e-02
5.583763321729807300e-02
8.238435378595150571e-02
8.618623975614084221e-02
4.093003477584161026e-02
-1.299504107788760146e-02
-3.759306119090644743e-02
-2.830763782205771018e-02
-6.841695175525708619e-03
-3.067804943377217680e-02
-1.161837552691687286e-01
-1.952925884779321830e-01
-2.032191422752050447e-01
-1.305162182333161891e-01
4.395088132253307384e-04
1.428894960773688383e-01
2.387969108281124408e-01
2.646001059698184221e-01
2.407030866399753055e-01
1.848591042883116764e-01
1.012107254140340584e-01
1.445206886268595239e-02
-5.150397233138704484e-02
-1.160111175509538628e-01
-1.923261282910048720e-01
-2.274088173005461289e-01
-1.773932691417679508e-01
-9.319298061810306344e-02
-3.296141001432641854e-02
2.294810624656602738e-02
8.445784862344227206e-02
1.041557027345121900e-01
7.602325383355490462e-02
5.058319674017505013e-02
3.133786961977493707e-02
-1.302226565396605654e-02
-5.288010765398361984e-02
-4.662847033826716253e-02
-2.507731932282231124e-02
-1.577075385813934971e-02
1.048446941044171594e-03
1.487376166285517970e-02
5.671646906757915954e-03
-3.563816720070818976e-03
-3.445753891215609741e-03
-8.078468737084901902e-03
-4.206438024744229946e-03
2.509019835552482591e-02
6.191990445878226001e-02
7.637666509348739474e-02
5.741738087493981207e-02
1.798829079406919287e-02
-2.728220742512261696e-02
-8.410759817742191613e-02
-1.381175579728696201e-01
-1.394681796986818045e-01
-8.363982334799074936e-02
-8.041944083309543814e-03
7.264619651056408722e-02
1.200211855448730519e-01
9.186824146681446535e-02
4.471451667219485115e-02
5.541027830933555748e-02
9.378959562012940954e-02
8.159962555953946539e-02
1.259147824995051658e-02
-4.782189418334582831e-02
-6.503941321639877815e-02
-7.001184572600407940e-02
-8.010432692442207014e-02
-7.417145874309848119e-02
-4.823904268711068366e-02
-1.841313902540221703e-02
4.754525682591803290e-03
4.902851984432765944e-03
-2.457033082416943542e-02
-4.911119195910089441e-02
-3.735718307681369643e-02
-1.044311124205859337e-02
4.612026080161075667e-03
1.351326152026703122e-02
3.026881652422083735e-02
8.506800679678189203e-02
1.949081023333433249e-01
2.884428510181469840e-01
2.856125710425244657e-01
2.043495123285503090e-01
9.254326082194061498e-02
-2.946335070938367259e-02
-1.453153893533341567e-01
-2.415820982786507642e-01
-3.049521706882838412e-01
-3.184406132268040035e-01
-2.677727250305741435e-01
-1.687420255257025825e-01
-8.586114455852598970e-02
-3.973835033407575185e-02
2.050010111038809424e-02
7.136759460741615158e-02
5.268961077901096468e-02
3.261088749649123514e-02
7.312655097615250455e-02
9.961855151328859181e-02
8.086655430349751206e-02
7.118469071385521985e-02
7.910254882547831934e-02
1.016703147433849486e-01
1.335042623878737178e-01
1.227962631114055680e-01
6.781611435430995316e-02
2.467359055793893682e-02
-5.110355104766334949e-03
-4.897105131600699990e-02
-8.882460862468252727e-02
-9.149542408703206786e-02
-6.381664451099421098e-02
-3.726300290434169521e-02
-1.717499207434815614e-02
-4.173600852381087987e-03
-2.707207088586940577e-02
-8.493854836486824933e-02
-1.215966421672462494e-01
-9.300087568888437684e-02
-1.175718173480141265e-02
7.259847312352343818e-02
1.230291352956115469e-01
1.426132133309548911e-01
1.441332158289947707e-01
1.208061891039277219e-01
7.563704524415774955e-02
2.310178494456173112e-02
-4.209750432804722914e-02
-9.845798791220161661e-02
-1.104798367386739810e-01
-1.106890510867487715e-01
-1.107983091848731283e-01
-6.035306719247355428e-02
8.017343377567515139e-03
2.255987082236065797e-02
1.535402124189532216e-02
3.061765246803267726e-02
3.445299381732993410e-02
7.317083878938986097e-03
-1.890026382330814783e-02
-3.505539514631398484e-02
-5.521206761741339480e-02
-6.149368266225827689e-02
-2.942467249901968562e-02
2.529255122988756377e-02
6.289472775991569731e-02
5.981697867583071759e-02
3.315273576714185266e-02
2.502281603108550898e-02
5.169365015552894460e-02
6.728651730658719021e-02
1.625018284861783763e-02
-6.136952073369809219e-02
-7.260666640888463474e-02
-4.224830454846999206e-02
-7.276426200312122172e-02
-1.004313790196772610e-01
1.068045962381605068e-02
1.398570694348859611e-01
1.180921102522007604e-01
5.596073277252305161e-02
5.894461317362805625e-02
5.595988952627509866e-02
3.626041085545580328e-02
3.150420732188647516e-02
9.858355266321987970e-03
-2.368477911053710680e-02
-9.326762991382514870e-03
4.854566590441583562e-02
2.572732731579714313e-02
-1.353140263111948793e-01
-2.490583472188047653e-01
-1.732348354040565419e-01
-5.886099114028077450e-02
-3.662337844547845778e-02
-9.928955676295557475e-03
8.209785157792738597e-02
1.504157034545638705e-01
1.716928110322776257e-01
2.011685979221738974e-01
1.510000178122025138e-01
-5.603966131872392675e-02
-2.120856746517597591e-01
-1.614114606041636146e-01
-7.518754838134053542e-02
-6.878127141404240252e-02
-5.608943814181246296e-02
-1.389140423576796894e-02
1.239033073143030322e-02
1.100816010158185698e-02
-5.594648898341587559e-03
-4.187672836392645169e-03
2.791707764982300985e-02
7.006704229222859848e-02
1.067900129992655212e-01
1.141629996934235558e-01
8.080411945119128636e-02
3.823584791563803403e-02
5.757682765752010490e-04
-3.869408062736851006e-02
-6.143649853938357164e-02
-6.889901404398353357e-02
-7.619170429104661635e-02
-5.825271235643124379e-02
-1.271638459908298879e-02
2.262646092564539468e-02
4.660819511259753356e-02
5.869486698757326454e-02
3.688172758486241154e-02
6.226924566174887356e-03
-1.360945828026670183e-02
-5.067302910984936015e-02
-8.517598048327973403e-02
-6.044506403464043609e-02
7.529405949699120859e-03
3.719127673576719251e-02
1.200226390086807024e-03
-1.947639873571611890e-02
2.557460141358850608e-02
6.498386765670767506e-02
5.439713688201265607e-02
4.211141518913812110e-02
4.509742802773798048e-02
3.928051041141251976e-02
3.069437521381192593e-02
2.051594648111564750e-02
-1.359694279466831628e-02
-6.896402871542674229e-02
-1.267172501716614941e-01
-1.686342409301913314e-01
-1.631283602403015842e-01
-9.930876070719718562e-02
-3.226268876249602409e-03
9.747398610694367471e-02
1.714874034059867269e-01
1.857620991671006250e-01
1.570744800928109419e-01
1.356078286537948652e-01
1.134789935527519972e-01
4.521912772135391889e-02
-5.525542678851758094e-02
-1.323681602355983589e-01
-1.526903576824619746e-01
-1.203703019237279542e-01
-7.418770218204442934e-02
-4.679989614738730430e-02
-3.508684144169077479e-02
-3.118045988772026600e-02
-2.625662822051421513e-02
-4.499051222233065722e-03
4.894310771933611456e-03
-3.663570939584000208e-02
-6.496276438382718454e-02
1.690956194147967637e-04
1.011509269174210440e-01
1.336680169299982179e-01
9.053231572861356047e-02
3.669688167862410894e-02
1.982902740591378429e-02
1.694111289329154613e-02
-6.805221242632903539e-03
-1.105905092125993375e-02
2.190274623310165675e-02
2.023929754230296973e-02
3.827947776723297606e-03
6.700025928108113704e-02
1.106928865429959025e-01
-1.595917869818197499e-02
-1.934744223337817592e-01
-2.374697182985580080e-01
-1.789884277453931416e-01
-1.067818885591369366e-01
-3.234272301272491518e-02
4.011267485901876678e-02
1.033265061295348397e-01
1.510990908338191163e-01
1.633141412297980932e-01
1.471779782675092241e-01
1.344001501667408394e-01
1.133781902306399969e-01
5.767673216854730250e-02
-2.043121584648002059e-04
-3.837050640258672651e-02
-9.964890102245410608e-02
-1.779079110184172974e-01
-1.943334924654019635e-01
-1.410102671947729980e-01
-8.783135598119576337e-02
-3.775113378534288716e-02
5.103337426593157478e-02
1.333634050035935048e-01
1.371883175701437141e-01
8.539552098410189973e-02
4.226365234891994727e-02
1.912755170983766392e-02
-8.698628754629195853e-03
-4.761215822777130346e-02
-7.806750359773137471e-02
-8.319439273246202748e-02
-6.471285186040820481e-02
-3.478840415385838630e-02
-9.777707275490873234e-03
4.592926671296284832e-03
2.030094900581938533e-02
3.643280131231009522e-02
3.049378433077705799e-02
4.919108794906826287e-03
5.853508853338677820e-03
4.144656651399816066e-02
4.498635189634159898e-02
4.242385056697387663e-03
-1.385245595861036433e-02
2.159736502917199846e-03
3.207256104437223448e-02
8.669707473588619817e-02
1.346454172590283993e-01
1.126837420285698443e-01
1.251654446650299693e-02
-1.129876702279460632e-01
-1.917975951034473769e-01
-1.912887704557476309e-01
-1.473246137451501292e-01
-1.003625891450646151e-01
-3.810950706692556311e-02
4.097522085925107971e-02
8.880304906877613258e-02
9.483419621408334388e-02
9.303585033839223417e-02
8.134910332283122603e-02
5.613294969477291424e-02
4.676340358644721223e-02
5.530362902673016667e-02
6.098158912511061902e-02
6.926006219399613584e-02
8.833593221486599201e-02
8.356491407986239850e-02
2.499690200158433823e-02
-3.884220403113397557e-02
-8.073128837895598986e-02
-1.656379298180798987e-01
-2.619555061386557027e-01
-2.263982446917154334e-01
-7.659662774592958245e-02
3.212666372862168357e-02
6.725194726060361450e-02
8.263839503673320319e-02
8.506973093610943615e-02
9.494733319157173945e-02
8.794191915262841719e-02
-3.481233868046896412e-02
-1.727402310426789378e-01
-1.239981023433589791e-01
8.467932149059463620e-03
2.674703663709551010e-02
-5.705632418880397794e-03
2.944275849316413743e-02
9.090589606719448601e-02
1.044772599763872933e-01
7.448249853866613368e-02
3.569449575478751691e-02
5.107558294905922489e-03
-1.359330993054429400e-02
-2.874665890079582120e-02
-4.306744730150877110e-02
-3.713824681649442044e-02
-1.137990905510742438e-02
2.748785591618419302e-03
3.858201851526793860e-03
1.952116033676885506e-02
4.546145539331611363e-02
6.330819547128535563e-02
8.027346328274610754e-02
7.838231350181196211e-02
1.120977487959866695e-02
-8.426613943876384849e-02
-1.081695653862149997e-01
-6.926451102557451556e-02
-6.536140399727734251e-02
-8.858938930956170021e-02
-5.465852535701200277e-02
4.510052031908566572e-03
3.029727518404598530e-02
8.286313648977300383e-02
9.900748191598110481e-02
-7.568169698571985959e-02
-2.062318654837066445e-01
-1.454532215037551701e-02
1.817364051378716205e-01
9.192847775076148920e-02
-1.517179735614007305e-02
2.440701166716497186e-02
3.801035544788721604e-02
-4.798176684635108505e-03
-1.268667047130336498e-02
-1.764746693476165057e-02
-6.478023624219535204e-02
-1.037177361141038701e-01
-7.566589715574120745e-02
4.563524285388980035e-03
7.352847663934491962e-02
1.075387211639717011e-01
1.284762297204322945e-01
1.244945889661431687e-01
7.781204734971070014e-02
2.957015222915732391e-02
-3.240755732256716745e-03
-6.084148656539137279e-02
-1.190123434391046064e-01
-1.167486266716811077e-01
-8.142675807544225153e-02
-4.443424867573228521e-02
1.245145128970587267e-02
4.389118755849195225e-02
3.050880265059284155e-02
6.275014813912213607e-02
8.355569260964548772e-02
-5.645780925389003169e-02
-1.943370860522644905e-01
-1.159198503152707588e-01
7.612757318986350732e-03
2.179683567612694661e-03
-1.325555437632195376e-02
3.403032763724953003e-02
6.447722675098641054e-02
5.182664624657286334e-02
3.436935966871165760e-02
2.922524395715521417e-02
4.159131002841164049e-02
7.228382558692750259e-02
5.985572832004223270e-02
-4.987554417744457375e-02
-1.106097037650102533e-01
2.300773490300539112e-02
1.310638526077373134e-01
8.241942833613787739e-03
-1.152165705838735926e-01
-5.872673827705375549e-02
1.553811701022603416e-02
1.675190912067705748e-02
2.281563555888845712e-02
3.811223900210276155e-02
2.019762164140509811e-02
-6.123481366425115140e-03
-1.303302203733388079e-02
-1.467083687156695709e-02
-8.124891092099328568e-03
6.534687646760880923e-03
-2.254913047663245629e-03
-2.960107308434712509e-02
-4.843695586518277640e-02
-7.023353556751617266e-02
-9.815102236575690142e-02
-9.793387755059208832e-02
-6.141469694887034814e-02
-1.892155138396148240e-02
3.135955516108525354e-02
9.999532124163799940e-02
1.376683092583484425e-01
1.299182296036741624e-01
1.382030075841151062e-01
1.528723252478907668e-01
1.114967202707857208e-01
3.943093976232382725e-02
-1.788712143030520701e-02
-6.498121764478245743e-02
-8.786802954776723462e-02
-9.011377538468216819e-02
-1.176950962466760398e-01
-1.473428356406693840e-01
-1.237112623295211766e-01
-7.805099297742858211e-02
-4.630461784083458182e-02
3.595300519600403560e-03
6.181772410624468417e-02
5.056740247866836624e-02
-2.178304134059732416e-02
-3.810712711129846803e-02
2.446248980566843173e-02
5.969323099716983966e-02
4.493046662936645008e-02
5.624293765409221768e-02
9.228745879403194019e-02
9.160750856883602411e-02
5.734460425489112945e-02
3.216400894626057771e-02
7.633101550676750502e-03
-4.220103186219295588e-02
-7.014038125144067548e-02
-3.229101585601099750e-02
2.767035017965427043e-03
-2.744132109448952847e-02
-6.763097930163419758e-02
-5.394728999836313071e-02
-1.344007050547407073e-02
1.200641961446106444e-03
6.887882571916846899e-03
4.149956533488905613e-02
6.846164109615493487e-02
4.698693895404620208e-02
1.927393916102535659e-02
2.722698943444288450e-02
3.724003084028882499e-02
1.095730216196019735e-02
-3.211158309003266098e-02
-6.541864723883331068e-02
-9.316072997230606667e-02
-1.244955589364668547e-01
-1.529557855294486068e-01
-1.422661313032991259e-01
-6.992103603086403940e-02
2.176825747446570897e-02
9.772542121811297888e-02
1.640544628169880170e-01
1.987475510366625842e-01
1.806197240321633091e-01
1.383296456566837362e-01
9.409904164383853242e-02
4.862200879945535736e-02
1.173748959569523298e-03
-6.332164131374409810e-02
-1.323994424614557130e-01
-1.596171659219696171e-01
-1.406934291808378812e-01
-9.553234672336267941e-02
-3.197842616542646843e-02
1.241835898666142531e-02
1.337905253927672983e-02
1.087837636141436581e-02
2.513468856453356104e-02
2.922043042109731537e-02
2.394672547885928759e-02
2.698672695504261698e-02
2.728498121353391259e-02
1.425402210379105722e-02
8.965341429554022495e-03
5.102658294633588554e-02
1.323643512545056578e-01
1.617656035200666087e-01
8.050166601001181033e-02
-6.124613633102451993e-02
-1.978225653587719624e-01
-2.816643601001099784e-01
-2.528609141178870257e-01
-1.211093394269965595e-01
3.966227215854434274e-04
5.309286619214294983e-02
1.072033733742462358e-01
1.899133741206956716e-01
2.091796853248811816e-01
1.238230207034686919e-01
1.913938592423130441e-02
-2.567173721945936737e-02
-3.292554013119083911e-02
-5.441773409029487113e-02
-7.188565472955023294e-02
-5.058887904819424353e-02
-1.070278771464080320e-02
3.340769224512981500e-02
7.717435743145259486e-02
8.325273513622868937e-02
5.237520363609501906e-02
1.028229469026202547e-02
-7.275447488107043836e-02
-1.727140531637682552e-01
-1.746660744701818702e-01
-6.972107364175654520e-02
2.421473369571908174e-02
4.566160417464291965e-02
3.093120213993780926e-02
4.143592335622202361e-02
8.844858733491872682e-02
1.006647256542393121e-01
4.253307417115588518e-02
-1.908330077736307764e-02
-5.004080855859319166e-02
-8.121363860219930897e-02
-9.926344995683904215e-02
-7.308280523763403813e-02
-3.322672110396606565e-02
-8.796731201866851702e-03
2.810416424780307065e-02
8.224121101390677313e-02
1.084774794086856009e-01
1.008644022203393220e-01
1.050987194836389832e-01
1.319192658553098030e-01
1.216549924089326412e-01
3.153604042026070253e-02
-8.130269443844861943e-02
-1.516558469954773780e-01
-1.968076906627836409e-01
-2.183355211744343882e-01
-1.677886478219274835e-01
-6.610402873337453689e-02
5.330176780536917056e-03
2.624451121144899535e-02
3.373228653775962177e-02
4.363348504415359708e-02
5.181253198333191090e-02
7.669448972556858202e-02
1.369007375833693474e-01
1.943113455105114629e-01
1.925450503773281086e-01
1.452029784765548615e-01
1.002543799538407748e-01
6.212840921480825007e-02
3.033520925021140208e-02
1.608553441580595419e-02
-2.426979107320348383e-02
-1.234868233454981257e-01
-2.051138024370214308e-01
-2.180316870317030586e-01
-2.235477627257754785e-01
-2.235214678861487947e-01
-1.450707715126395569e-01
-2.380306986551237666e-02
4.273760373315749900e-02
3.067783240187426513e-02
-4.223592236664100441e-02
-1.184434998423342517e-01
-1.110680040330551677e-01
-2.705140349326216540e-02
5.170094034863574606e-02
1.113882389858049937e-01
1.926034478712727871e-01
2.593046889335523519e-01
2.287498375479662671e-01
1.659854791139030727e-01
1.829288961143948344e-01
1.550347738857780489e-01
-2.506652990318831986e-02
-1.703531986105729368e-01
-1.702802326896666885e-01
-1.355668477689010443e-01
-9.699652935203623150e-02
-3.044549242264437544e-02
1.323672115320487577e-02
1.431630685701785165e-02
1.588599575085117982e-02
3.245425499635465338e-02
3.062883634603057181e-02
-9.947542970583939798e-05
-2.511597271738280276e-02
-2.849221880404121179e-02
-2.899393921975714980e-02
-3.684443167518856171e-02
-3.825021710247489271e-02
-1.578088580954684420e-02
2.710032291922787051e-02
6.480061416191655599e-02
6.786058675139552965e-02
2.858137671827513243e-02
-2.828044823028492277e-02
-6.551346679321221056e-02
-6.344274162267292405e-02
-4.493845184022179223e-02
-4.602909354686719745e-02
-5.544777116166081654e-02
-4.134426975173473295e-02
1.963808276905328574e-03
5.628316474078853826e-02
7.004894670205370766e-02
2.478323590566952617e-02
-5.843683821168067262e-03
-6.842806468892725751e-03
-4.646408898244406421e-02
-5.073806950058763754e-02
7.312673135498942711e-02
1.638001237224226692e-01
9.151438318287449802e-02
-8.546536169712796310e-03
-4.259671854614519027e-02
-5.616335260341335373e-02
-8.043914222650266899e-02
-1.278585436300569145e-01
-1.213912098750733470e-01
2.592320249359629861e-02
1.581786641223246193e-01
1.336295950556626588e-01
1.024492105242424400e-01
1.309240146111857739e-01
9.480695535727060030e-02
2.889722550507987930e-02
9.287873172603541144e-03
-4.120867006238429497e-02
-1.186838721070083702e-01
-1.336344620183396170e-01
-1.216708515706550753e-01
-1.127453554853195677e-01
-4.682894542089850731e-02
3.143667684499121956e-02
3.520263930105876210e-02
1.796575269044902931e-02
3.294030570097615518e-02
3.983820258357275573e-02
3.135294212636955541e-02
1.584246655888886524e-02
-3.551619859701320159e-02
-9.140852853568302849e-02
-7.886182811462527642e-02
-2.138521878772087562e-02
9.787802589432618994e-03
2.190378842606487478e-02
3.915764922209324927e-02
4.656430203813204105e-02
6.275437833867315851e-02
9.925929221090946941e-02
9.562002360152876967e-02
2.888066273378000343e-02
-4.384215721402263954e-02
-7.792882407453127769e-02
-6.495598254572572394e-02
-4.985020329721267379e-02
-9.302097622039058600e-02
-9.904263159534326677e-02
4.753308866265262833e-02
1.707853458430182991e-01
9.791688789472380305e-02
4.225696619029096351e-03
2.126876730551194306e-02
2.331919736992009440e-02
-2.363660845682663200e-02
-3.199538585129400176e-02
-3.024606968155823736e-03
1.766875082967859709e-02
1.071542189643096173e-02
-2.645083019926954687e-02
-6.826897791137295779e-02
-9.242966599775163938e-02
-1.051328246431472158e-01
-1.060573309739315934e-01
-8.406618951467582923e-02
-3.878634650815678681e-02
2.575534463466835206e-02
1.014040184769915004e-01
1.682608678631354326e-01
2.051330862426001544e-01
2.017168320533532788e-01
1.647314677182187548e-01
1.038424897689220611e-01
8.676775556346305249e-03
-1.047083826062144007e-01
-1.591082407270779653e-01
-1.373896316158282338e-01
-1.238295913512012791e-01
-1.265023687934128671e-01
-7.688176235206936604e-02
-1.174132657172651320e-02
-4.588832899536897381e-03
-2.480001706708937978e-02
-2.566400472759926277e-02
-1.241465303349323715e-02
4.977275553545497389e-03
1.839846376742130044e-02
2.902796988245665705e-02
4.582189668798879872e-02
3.938581318661828201e-02
-3.347534308268508910e-03
-1.088446381446692493e-02
4.650657245597299844e-02
8.280676777897347240e-02
7.008660929198225198e-02
8.371416575335144383e-02
1.062615548268223409e-01
4.755209067400958250e-02
-5.399466778000212852e-02
-1.004502697530313404e-01
-9.221045886833892369e-02
-7.123146775277813814e-02
-6.027954076859050325e-02
-6.364578025098314995e-02
-4.196838656492628272e-02
2.299264491638213989e-02
6.973688238079178703e-02
5.812889720509113733e-02
2.569167657489691836e-02
9.854256579342470304e-03
3.467259926564445708e-03
-9.711842181431153131e-03
-6.411731130452655129e-03
3.626042134098518555e-02
6.955398751213932862e-02
4.814351679185439881e-02
-3.764313813352689921e-03
-6.910420425553623347e-02
-1.387633270609522629e-01
-1.658093178049239447e-01
-1.309808811019451957e-01
-6.556926279240533895e-02
1.435760605148844564e-02
1.047596157069219658e-01
1.705838077588218704e-01
1.806148712930184808e-01
1.557256192994133648e-01
1.270931792442884789e-01
8.128939663998352438e-02
5.492659005571238345e-04
-8.293852210668335723e-02
-1.294295371914918613e-01
-1.399541536622208038e-01
-1.232414402418900434e-01
-8.268444493818935537e-02
-5.110342498570009939e-02
-5.672211293431157070e-02
-6.644634430791239443e-02
-3.432630744358323993e-02
3.506810476147829980e-02
1.036124853615296298e-01
1.298084214798455038e-01
9.963792215378368400e-02
4.994154793794707697e-02
1.526964773759068722e-02
-3.298015033856615055e-03
2.211689200690636001e-02
1.000590371335766532e-01
1.280189140603843201e-01
2.520747402569622000e-02
-1.277613181493172101e-01
-1.946745754413932161e-01
-1.446247830945018298e-01
-7.917300933521290163e-02
-5.477822893305549917e-02
2.820864045657704017e-02
1.406054755231016529e-01
9.474292162826560004e-02
-6.978436969834411752e-03
4.615491205901117722e-02
1.025912705916105505e-01
1.550418556865209088e-02
-6.676828800109999018e-02
-6.887279100844852231e-02
-6.381242526682799621e-02
-6.077139662284792437e-02
-2.780443744689829397e-02
2.673242913072386429e-02
5.835686904301490979e-02
4.819605634790461585e-02
3.510315443319765583e-02
2.550019903164605847e-02
-1.326755940278015813e-02
-6.392511658080389514e-02
-1.095819113666497979e-01
-1.520562243950872860e-01
-1.441714670424406597e-01
