2.100719485534873199e-01
2.312818217294254353e-01
2.192890284953034064e-01
1.586998150644610972e-01
6.857212137984050604e-02
1.407550504500159998e-02
3.029064023371687980e-03
-7.685494312317964205e-03
-1.581750023948358397e-02
-6.894289950204531003e-03
-1.755913010114452943e-02
-5.184911291818424667e-02
-2.957246818879232311e-02
6.489662920207131536e-02
1.156960867864365028e-01
5.459178643896488159e-02
-4.620685807299954734e-02
-1.125972590162214043e-01
-1.717978102025882747e-01
-2.553639359437486767e-01
-2.984559962059141758e-01
-2.590307841831854807e-01
-2.026615743933988523e-01
-1.477864035992494385e-01
-4.010021595735033251e-02
8.792220108630414976e-02
1.588817758826865933e-01
1.842492751722736299e-01
1.828305011202397412e-01
1.225854112544098179e-01
8.202455366613367604e-02
1.651128420784754025e-01
2.175622139583309189e-01
1.059015029431106952e-01
3.249376378308556357e-02
1.014761745075485333e-01
1.164151721876140327e-01
3.161765373103297971e-02
2.060219566725848828e-03
2.303144072956243849e-02
-2.717998541571318635e-02
-1.278166532340230255e-01
-1.701414934084377883e-01
-1.337813835913472527e-01
-8.149974434596507500e-02
-5.625709393254717250e-02
-3.675013936940695752e-02
-9.918333511589903784e-03
-1.309089863880962164e-02
-4.314086166762298724e-02
-5.856353097999804358e-02
-7.130451515606478496e-02
-9.362695904531312396e-02
-8.712681861895937852e-02
-3.659631896232626996e-02
3.067031487974827483e-02
8.656705510955430005e-02
1.185986912023476170e-01
1.381075949479327047e-01
1.598641941196704830e-01
1.683623797740062544e-01
1.366819694489351256e-01
6.889632404852025216e-02
-3.836957749709194246e-03
-5.957839922592804427e-02
-9.394088051645818616e-02
-1.031155294656907612e-01
-8.378121111785989672e-02
-4.714450239463918030e-02
-2.218715764855714104e-02
-8.337139947655825695e-03
5.070820324829151959e-02
1.192315634677950792e-01
6.743146184651777064e-02
-2.973716193618415604e-02
-7.772368695426225271e-03
1.820688087506406455e-02
-8.846453429171910465e-02
-1.930880007176631885e-01
-1.899421560901988215e-01
-1.487717328529710170e-01
-1.016404339701149073e-01
-3.964975575167491162e-02
2.052211359494819989e-02
9.890205813667107826e-02
1.356917285017215369e-01
2.353085149293877160e-02
-8.289074989543855632e-02
-1.786303765396781568e-02
4.007792696465445337e-02
3.056956394761991408e-02
1.392637858857918853e-01
2.401541010478011606e-01
1.369570012134732062e-01
3.418814352936801193e-02
6.560974610780029304e-02
6.846962983079327159e-02
1.181823372573262594e-02
-2.168797120286748703e-02
-5.217375793508834125e-02
-8.626730988816605494e-02
-8.941341262894458852e-02
-6.964650048723367015e-02
-4.239936396072981756e-02
-1.458948794026580439e-02
3.645716618023782125e-03
1.193192068895127314e-02
-2.540743525789430045e-03
-5.445917628020977008e-02
-1.097920448215176370e-01
-1.271795557763503726e-01
-1.286980806311019965e-01
-1.323730059322666963e-01
-8.189677866470176926e-02
3.509139160109463196e-02
1.306566045694618483e-01
1.764590110088381791e-01
2.109243079735607651e-01
2.022977504020312123e-01
1.385258852753052938e-01
8.436441318043770565e-02
3.515097345023531633e-02
-3.358398924477519476e-02
-6.106887141019575610e-02
-2.916667794271709038e-02
-8.530386906197454794e-03
-3.622213940910697094e-02
-7.147238853696367966e-02
-7.338419213540565977e-02
-7.291995222500440021e-02
-8.289611814724560934e-02
-2.668714873293846768e-02
8.447422422692675570e-02
1.157527502702883071e-01
5.574050476499458479e-02
3.138984558767966837e-03
-4.081164039522000575e-02
-1.075703035379031725e-01
-1.666204663417650278e-01
-2.025989739570865367e-01
-2.028533090312136244e-01
-1.465805653498364614e-01
-7.779053958770738852e-02
1.724942385614512685e-03
1.471606379227582140e-01
2.467414176451922514e-01
1.802775562327011416e-01
8.477102857881382847e-02
7.883416058653010261e-02
8.091446256231307754e-02
3.887896162662183436e-02
3.581712324902824179e-03
2.883923130419844758e-02
9.237331207429225199e-02
8.963609249589321593e-02
7.743755242615321666e-03
-2.434029298036320677e-02
1.821048098914136368e-02
1.712964243898619510e-02
-4.345168320846379967e-02
-7.881327441154918623e-02
-8.341868071315604316e-02
-8.342347705156125115e-02
-5.964932233108206916e-02
-2.298307254399692759e-02
-6.449262358003510394e-03
-2.843035171847356490e-03
-5.803195367912723432e-03
-2.795158292549693169e-02
-5.649861897592432097e-02
-5.679027468228329406e-02
-1.641273189154410922e-02
1.734751745246125229e-02
-7.527552194362073165e-03
-1.128293184134908887e-02
1.037573557672690772e-01
1.787899506912663528e-01
4.555397583698602565e-02
-8.123478141400872210e-02
-3.216592773876637140e-03
8.325651485368200377e-02
3.763275466305046613e-02
-1.224777444533323677e-02
-1.319828923924922827e-02
-2.086218483373770277e-02
-3.977758872178711186e-02
-6.002697012797259674e-02
-7.660714232571870508e-02
-6.612460100481371006e-02
-2.060558338673279186e-02
4.929258109021885520e-02
1.220185637360031300e-01
1.507604780792497490e-01
1.035393279853184106e-01
8.531954542767910057e-03
-8.547732778424221856e-02
-1.541372812405482629e-01
-1.860476549166251159e-01
-1.949967892305215500e-01
-1.993839983283755835e-01
-1.179683046449592904e-01
9.890109476857658621e-02
2.534021766790030550e-01
2.010917021819004780e-01
1.017018861125725121e-01
5.940402465389889308e-02
9.275329715113658086e-03
-2.662909739519472158e-02
-5.844468695806227104e-03
1.108284749690785498e-02
-1.017677394478781056e-02
1.458256638783780867e-03
9.105328990928038269e-02
1.538609886264051818e-01
9.850444198483440661e-02
2.531873343109821220e-02
2.071940021343877253e-02
7.717965351624125891e-05
-6.419795478724775462e-02
-9.419077720872279236e-02
-1.083331847220659894e-01
-1.429819251882518127e-01
-1.363829489839545606e-01
-7.191715820046890029e-02
-2.186759274100049180e-02
-2.952858365538477484e-02
-6.467961483444346904e-02
-7.550498074736416987e-02
-5.505353370737380708e-02
-2.845748241833597619e-02
-2.966363459150619941e-03
2.828194858409782686e-02
6.278482702760390666e-02
9.018077315797073945e-02
1.100031931452610245e-01
1.042862843439755632e-01
4.735086330127075138e-02
3.873164199159317197e-03
5.005496741018870821e-02
1.156311273763582087e-01
1.116117173954485620e-01
7.127729370452057234e-02
3.112274760029253365e-02
-1.847101304227196858e-02
-3.972078383993118966e-02
-2.386846846674153810e-02
-5.832486349069891662e-02
-1.086289573823138177e-01
-2.624992465425423499e-02
1.181752096519064765e-01
1.541329468882578768e-01
1.138482646161937534e-01
5.680989678163984868e-02
-3.366368076476928400e-02
-1.124957912712271219e-01
-1.459511835890846543e-01
-1.633303403201812332e-01
-1.698075360329458494e-01
-1.596400079318581744e-01
-1.400655348832647862e-01
-1.220843026456359115e-01
-1.178028965560633107e-01
-1.003406903897941793e-01
-3.784488442278619025e-02
3.912442500462107176e-02
1.000515317091019429e-01
1.504302443083366803e-01
1.732648682173887067e-01
1.548790192550789369e-01
1.316204457762447100e-01
1.319731378207734118e-01
1.390292478544382648e-01
1.418945909240141856e-01
1.369477776110340217e-01
7.747621232481041731e-02
-4.198651415384847818e-02
-1.097087849220550748e-01
-7.689756858557164620e-02
-4.721693414185834659e-02
-6.555563835063969724e-02
-8.036838351066322161e-02
-1.102963490106675937e-01
-1.738295267635136532e-01
-1.893228201717359893e-01
-1.348031120408357264e-01
-8.506054758629037760e-02
-5.421357125818386524e-02
-3.213466158841835063e-02
-4.210830286903232550e-02
-3.469230112446761161e-02
4.214110306734093758e-02
1.082267687478338097e-01
1.081981770072911186e-01
1.338523014104315567e-01
2.194987275892597012e-01
2.463896603929659479e-01
1.762540161690007712e-01
1.112592642315171632e-01
8.481153325682695698e-02
6.113470330568521183e-02
4.988201005381456138e-02
4.389749205843967994e-02
8.305791025214920298e-03
-4.809255582365454945e-02
-1.123525816714562309e-01
-1.787232539504429729e-01
-2.025949123598820845e-01
-1.491617663148507578e-01
-2.473808361645233114e-02
1.433278695540005365e-01
2.589828768157139138e-01
2.161841262155995702e-01
6.347730488247803338e-02
-7.581949110381606960e-02
-1.703780472262438339e-01
-2.186206471928816564e-01
-2.063038624608073135e-01
-1.663748481437030968e-01
-1.234492837513323921e-01
-7.740331738587488686e-02
-9.080325892997118120e-02
-1.706070269097931524e-01
-1.575076442469712512e-01
-4.878065935037749490e-03
1.107699488341133132e-01
1.153000711053587951e-01
8.757228399519283168e-02
4.809939854749645249e-02
-1.540372971473318031e-02
-5.992856918686494117e-02
-2.691039476887300760e-02
6.375750471326040170e-02
1.065133664694678656e-01
6.885820356599081649e-02
3.239811726166221678e-02
4.189607246391201245e-02
5.645829466007074721e-02
1.487097444030148485e-02
-7.564469623986141977e-02
-1.268304907073776189e-01
-1.121110039670862868e-01
-9.471041200411403627e-02
-9.720729682879923617e-02
-1.032291319585685457e-01
-1.141333572313889960e-01
-1.139339374956493400e-01
-7.396964129238273178e-02
3.552443710937711226e-03
1.056556385076463517e-01
2.344415865675948119e-01
3.992050305766540741e-01
5.910669237147705424e-01
7.537850180277354539e-01
8.200945957834940847e-01
7.723449271444771114e-01
6.305584815353033612e-01
4.200009271058861016e-01
1.675321180157569589e-01
-9.716324104678590590e-02
-3.381813485991946866e-01
-5.142236786326079834e-01
-6.185266528824785448e-01
-6.949913673869169140e-01
-7.559178662531380599e-01
-7.660375201258063926e-01
-7.331040614404151778e-01
-6.762522813652268594e-01
-5.564149660242273532e-01
-3.717363493256941043e-01
-2.148703955856403613e-01
-1.426399774258596542e-01
-1.056191716629316657e-01
-4.739516874382956879e-02
3.336598559524148189e-02
1.167786805200365929e-01
1.883220330435501078e-01
2.545098929008023925e-01
3.371674083322355742e-01
4.327669465603921073e-01
5.108188256178547437e-01
5.393510618038659388e-01
4.979334939513859748e-01
4.112520679422771996e-01
3.345722914871092080e-01
2.754406386911779636e-01
1.980935800806173097e-01
1.022101097296400640e-01
2.504386067510869229e-02
-2.273290300690954113e-02
-5.421635486995958486e-02
-6.922710936814124860e-02
-9.048277296093908129e-02
-1.619226580782464064e-01
-2.546400778913930352e-01
-2.846924925114275307e-01
-2.503364903635893479e-01
-2.267974058453250952e-01
-2.271153748900070213e-01
-1.949471347849901226e-01
-1.114157478479633617e-01
-1.834328443173854212e-02
3.449832922034983679e-02
4.005685587626656163e-02
2.414138401275029225e-02
-9.845713667145282455e-03
-5.374643395974228188e-02
-6.624768305875139429e-02
-3.838605475483620327e-02
1.539116352976709762e-02
9.671284896508930418e-02
1.756969609231729956e-01
2.186979769915097793e-01
2.392930092279703658e-01
2.294802029150135592e-01
1.639784302030511953e-01
8.031345229131639507e-02
1.313296336820393706e-02
-6.619992213530639935e-02
-1.511087825100867477e-01
-1.827313478061944330e-01
-1.479546635035234869e-01
-8.140686701708939321e-02
-3.456452589924639829e-02
-4.312251036289661832e-02
-5.795264472188174643e-02
-1.539342243932837959e-02
5.209215505918605993e-02
8.041675746050280793e-02
5.251771105743463508e-02
-1.343777504975037645e-02
-8.283513782757689903e-02
-1.223739600908887171e-01
-1.228141082681600826e-01
-1.030379799369534888e-01
-7.967995415213953436e-02
-4.857421982965229312e-02
-1.056552786117451181e-02
3.042669673679359102e-02
8.053076648798071502e-02
1.165149089363414076e-01
1.000384013984186304e-01
6.032857424454175777e-02
5.543417689668197340e-02
6.661823808308481309e-02
5.793772946889427788e-02
5.277903330266289078e-02
5.319942485561465068e-02
3.425084986727964381e-02
1.823534148346815653e-02
2.481553085380591023e-02
3.753993426129004218e-02
3.866542183442006619e-02
6.193501434881044931e-03
-4.369813103696637557e-02
-4.968651828739047843e-02
-1.983990013140470368e-02
-1.928863803311840069e-02
-4.638890300971552222e-02
-6.248676041698060513e-02
-5.671028196994008785e-02
-2.712201800648165323e-02
-6.323086549764658608e-03
-4.023360756115481468e-02
-9.911381066369760739e-02
-1.301585070387318299e-01
-1.402404040428274490e-01
-1.336929979566577886e-01
-7.598446162174699037e-02
2.684694688075068073e-02
1.143266275857740266e-01
1.670125142857961653e-01
2.067038316240681628e-01
2.115874093863146510e-01
1.574019775733792315e-01
8.581157396604090215e-02
4.514713507234227596e-02
2.805868146675446692e-02
-2.085902315077860225e-03
-4.121213283191911547e-02
-4.175341057367605579e-02
-1.728043900008307057e-02
-4.427794132483031664e-02
-1.118800570739612865e-01
-1.284743185097463880e-01
-7.606497748978836848e-02
-2.857084835379024822e-03
6.081917200656615508e-02
8.993989287130893517e-02
7.539556717526074703e-02
4.005156811245562387e-02
-1.906409909048504062e-02
-1.154380023780969128e-01
-1.985511123450717230e-01
-2.071947088162755524e-01
-1.600077053330523635e-01
-1.032824871676678163e-01
-3.335550389776869434e-02
5.033472262016704113e-02
1.061954285433738543e-01
1.182605671105030620e-01
1.000361562428859208e-01
5.654734595293527816e-02
2.086452978630049318e-02
3.371155776954057326e-02
5.981333141842431339e-02
5.033495859591795990e-02
6.036425782972498766e-02
1.292987604820331204e-01
1.486832137464123571e-01
6.885679935993363476e-02
2.124619944852756265e-02
4.559990804636646078e-02
1.855973593614503384e-02
-6.036954743308924065e-02
-7.979763431907743731e-02
-5.939682425616465977e-02
-6.306381285345427634e-02
-5.060530651628504517e-02
-1.125042580277610046e-02
-1.418259294823937151e-02
-6.471748346316000267e-02
-1.085676596380214659e-01
-1.392778328026149093e-01
-1.580424072989134177e-01
-1.368490664919781996e-01
-8.833800245760514702e-02
-3.927593644097090997e-02
2.066761256373263883e-02
8.411812212795446997e-02
1.252397861026119663e-01
1.377406611217997234e-01
1.220196721487342706e-01
1.077717512550920576e-01
1.282909421134252603e-01
1.275644147495257341e-01
7.032773204076826767e-02
4.891507514048031718e-02
4.299725038421536860e-02
-7.804291792055971511e-02
-1.972230341012139176e-01
-1.433563600572518026e-01
-3.858524772619463528e-02
-1.093426355312713920e-03
3.941491366719922923e-02
1.050405500564058764e-01
1.432695369716133760e-01
1.303016647353603952e-01
7.208917581881280068e-02
1.021669559532489141e-02
-1.220343385635787835e-02
-1.490905668456676304e-02
-5.987302347737209068e-02
-1.651619507463684133e-01
-2.618066957127870298e-01
-2.720328400940624780e-01
-2.107871896507989007e-01
-1.409532124019219901e-01
-8.018629099472429633e-02
-2.311007581161114363e-02
3.339527798629683686e-02
1.046012069082302154e-01
1.770929606955590208e-01
2.142346608678845077e-01
2.132123099675900524e-01
1.744474005494704993e-01
9.421505909019724234e-02
3.114310872605736275e-02
4.224939090013000997e-02
6.186514253506519845e-02
1.523236822100832756e-02
-2.564185054733420302e-02
-4.248986388327994496e-03
-1.344059768019296303e-02
-8.078032094254931905e-02
-1.102618044111109419e-01
-1.046711173547511531e-01
-1.176099572896275036e-01
-9.101760871245771767e-02
-1.012259319350559614e-02
2.007701756714062868e-02
-2.644417353089786177e-02
-8.562030186459106129e-02
-1.243735438860134046e-01
-1.173475291311694008e-01
-6.514362176026669560e-02
-1.355160294182089324e-02
2.780533826290011029e-02
7.394644645906466029e-02
1.387616975216982851e-01
2.353105781158276733e-01
2.990065733786431146e-01
2.513932585516731599e-01
1.457246293222011213e-01
7.400001604762285190e-02
2.960142411382869765e-02
-9.543188531561441756e-03
-1.653135053256402087e-02
-1.755338996818417430e-02
-7.093411999459875439e-02
-1.553420251333086921e-01
-2.342849241408820338e-01
-2.848042078492264428e-01
-2.333916443073807689e-01
-5.317830438365361845e-02
1.498014896026158560e-01
2.485147371611290401e-01
2.264684464903038430e-01
1.626579885218466526e-01
9.856033497650815156e-02
2.141501729486519623e-02
-3.236921799961050422e-02
-4.279986642904472921e-02
-7.194775551547243075e-02
-1.239391452270100918e-01
-1.498948295191420976e-01
-1.730282089102030962e-01
-1.959063959571202274e-01
-1.510952127722653138e-01
-5.522810280777714492e-02
1.234700294026551404e-03
1.252008867213145332e-02
2.866695407096903417e-02
4.512948707447397845e-02
3.431635142861617915e-02
1.157021621469230682e-02
2.304682622665526689e-02
6.995250404897161711e-02
8.084026885372248838e-02
3.708196839568953657e-02
1.326032813697778159e-02
2.916981609014630827e-02
3.487767134619283033e-02
-4.422834567599200767e-03
-1.027431979985712895e-01
-2.056882347232339148e-01
-2.280074536241765149e-01
-2.032237358260153837e-01
-2.112640514373913536e-01
-2.376422893924663160e-01
-2.508260152184075276e-01
-2.649675132474743067e-01
-2.765541286140635879e-01
-2.354267577930511113e-01
-8.701629964914628368e-02
1.664904641672424745e-01
4.745961149974254889e-01
7.934692339508050418e-01
1.075170966326238320e+00
1.236841991970110355e+00
1.208650675478699199e+00
1.026146711323506544e+00
7.892943624464066055e-01
5.206441433809868569e-01
2.037061255987955011e-01
-1.197491968080253710e-01
-4.035422334996867644e-01
-6.248502055381199849e-01
-7.868865164238150189e-01
-9.096129709368606653e-01
-9.268966771366554669e-01
-7.875510992225414064e-01
-6.341403629385630181e-01
-6.038640505636003741e-01
-6.456462020880087138e-01
-6.567150297193040664e-01
-5.876241000012351057e-01
-4.594831859563598964e-01
-3.302816649637184687e-01
-2.238493435662226028e-01
-1.339346231669439891e-01
8.959332084728932610e-03
2.609500385492141139e-01
4.647318534527179468e-01
4.865004274803112483e-01
5.067588200162345125e-01
6.520667676686284775e-01
7.074589242082425233e-01
5.322482297741626400e-01
3.602473149699418897e-01
3.649550354557759002e-01
3.571861282936452109e-01
2.294383285739180489e-01
1.279270837995100107e-01
8.366567536628108370e-02
4.167661633857823456e-02
3.614015884157324721e-02
3.461214266982312604e-02
-4.535423466047946994e-02
-1.616628049886115193e-01
-2.288658070545718237e-01
-2.623552634263177641e-01
-3.139117123896604800e-01
-3.194937182064554460e-01
-2.013021832176152548e-01
-8.891752281394735280e-02
-1.002110174098938267e-01
-1.047506971938710341e-01
-4.043579780572052751e-02
-3.108817701821366131e-02
-7.714290772940560204e-02
-9.202951892074974494e-02
-9.898636214685105350e-02
-1.144524383153719682e-01
-8.212479628707100576e-02
9.669621349642068542e-03
1.203243347433454874e-01
2.176876838397882596e-01
2.828234148330823761e-01
3.046472656853183025e-01
2.822336105665142481e-01
2.321876912705887475e-01
1.662161896765106395e-01
6.031831283628558138e-02
-7.831263013766284753e-02
-1.663524817476841333e-01
-1.627383259532650395e-01
-1.245003221375858560e-01
-9.667159486373799737e-02
-8.497208964411238907e-02
-1.013147527172440221e-01
-1.113394350059356969e-01
-4.605326009334224230e-02
6.161702497631321718e-02
1.024552191457025613e-01
5.894373210726051859e-02
-6.980988044837065087e-03
-6.982207520223207564e-02
-1.193954457431780497e-01
-1.299590491410293758e-01
-1.091916330370402005e-01
-7.649908889182260863e-02
-1.682506531869100430e-02
6.019131097627590521e-02
1.019306773568065122e-01
1.096209793835711543e-01
1.241263153951605303e-01
1.194694060975445282e-01
7.145773618310347075e-02
3.760444228296965646e-02
1.081348425268625554e-02
-7.616314110082882116e-02
-1.257866733301175599e-01
-2.921753636248442670e-02
7.780023660527311813e-02
7.143853206296058023e-02
1.742090164811035263e-02
-3.843840976388757102e-02
-1.019562025547698508e-01
-1.472128512535454681e-01
-1.648440081702772231e-01
-1.655174176611457770e-01
-1.499461218926032291e-01
-1.171821432797117146e-01
-6.863258785420418839e-02
-2.178080794566232548e-02
-5.874216568393750282e-03
-3.028607647221558119e-02
-7.604126263555160969e-02
-1.098598228500192453e-01
-1.065565019050543627e-01
-6.924736298753068897e-02
-2.492515822885471577e-02
1.283049077324588741e-02
6.560911230845463404e-02
1.443865102916155330e-01
2.250779171125525668e-01
2.873500672496474007e-01
3.110522629519605897e-01
2.853348582970578473e-01
2.561204318582385731e-01
2.569001105019148024e-01
2.517558090041112084e-01
2.469875904357007879e-01
3.070420158078725481e-01
3.977440107008913817e-01
4.155462129116652137e-01
4.180099163606719737e-01
5.489482703037095179e-01
6.586191094013992275e-01
4.372957454996415638e-01
8.621285268343062413e-03
-2.169967851594876984e-01
-2.366875322434828788e-01
-3.436190325335108375e-01
-4.982656530591047517e-01
-4.322858539140561618e-01
-2.408806229453224479e-01
-2.590766056105925363e-01
-4.731141846622994862e-01
-6.352314051792093963e-01
-6.159856392434591710e-01
-3.653877116114306323e-01
-3.946295802667801333e-02
9.833622599792535279e-02
1.243959650809054740e-01
2.069788933843356160e-01
2.123119925336306446e-01
2.421527011813751074e-03
-3.807261558268152934e-01
-8.900800773753102524e-01
-1.420761069052861369e+00
-1.773337287666783002e+00
-2.003705473947356985e+00
-2.280307881705325723e+00
-2.229392778631248184e+00
-1.926239401727153799e+00
-2.690641268285175691e+00
-4.000240710231659058e+00
-2.882666753157578476e+00
6.743728973595327636e-01
3.681814659773261944e+00
5.496354186764089711e+00
6.774972311751269238e+00
6.930596866919216836e+00
5.994309064252599129e+00
4.465090095370559453e+00
2.241346497984197494e+00
-1.176861023558305464e-01
-1.721662103564523871e+00
-2.445782160827956631e+00
-2.174181989197728093e+00
-9.928597462773702809e-01
-3.295933471676326665e-02
7.080592598882234912e-02
9.543716092357404368e-02
3.637651639483121535e-01
3.654875705951226017e-01
1.516799800562005363e-01
-1.212049176060150529e-01
-8.181511586823978499e-01
-1.789272771459155864e+00
-2.299483739395335569e+00
-2.051088290515767465e+00
-1.235887885073082781e+00
-3.162352015540494388e-01
1.371629013640959238e-01
8.819211595784581803e-02
7.081070525126215154e-02
5.227456277132646045e-01
1.219687778257720012e+00
1.366814753056241338e+00
7.627796482579697335e-01
7.637816915133494033e-02
-3.285759325524518770e-01
-3.791774964513556223e-01
1.181117091086884008e-01
6.791082846969263009e-01
3.330107817155790739e-01
-1.030804588993670556e+00
-2.441126201788241357e+00
-2.832717214026580166e+00
-2.219342759855751801e+00
-1.665589459025750063e+00
-1.595472471256304203e+00
-1.350070397443202452e+00
-8.585949167326900611e-01
-5.852628615298844927e-01
-1.746497334556020298e-01
5.411861708006053817e-01
7.643474814480286650e-01
3.332311292276817216e-01
3.426879483052813757e-03
1.747960504602387166e-01
6.409562908736285980e-01
9.170579128056743912e-01
8.436719959439739069e-01
8.523794341637275229e-01
1.005725648016394524e+00
9.570763507094235401e-01
9.549387628861611965e-01
1.349817855020286839e+00
1.837294565196291973e+00
1.982884538355846882e+00
1.641665945536771032e+00
1.046119382879868720e+00
7.603923744953178243e-01
1.019195746850511952e+00
1.476931010465078353e+00
1.784589521209033025e+00
1.726511773962287055e+00
1.182878076755717878e+00
4.864602324837605796e-01
4.030499289854416745e-02
-3.728577123956473005e-01
-1.035177282177395242e+00
-1.567070288705876946e+00
-1.562995588973581373e+00
-1.422262165542046652e+00
-1.649267553308306766e+00
-1.855257379199653167e+00
-1.646655176128946518e+00
-1.481562285030317172e+00
-1.623791187092484156e+00
-1.879006847731889307e+00
-2.207666023775450181e+00
-2.242114343497198625e+00
-1.620398822588211996e+00
-8.525754457972138933e-01
-5.046759964727085546e-01
-5.602202595149942121e-01
-7.856919521365313130e-01
-7.737967535111430761e-01
-2.177787551187983506e-01
5.840800971256543406e-01
1.080843604231971788e+00
1.248929835184764858e+00
1.525349768987232402e+00
2.021912171126492908e+00
2.428996855250073583e+00
2.578887841725439944e+00
2.533257365437451725e+00
2.394228269006603238e+00
2.176877296950872065e+00
1.691315869504528280e+00
9.557684282335507930e-01
3.722047679373947648e-01
-1.825805772415288741e-01
-1.085728200922888353e+00
-1.501095326445296863e+00
-9.028064669718989244e-01
-9.154353258680931749e-01
-2.062775176459340276e+00
-2.446028160165740761e+00
-2.158912093494360196e+00
-2.609128285116601997e+00
-1.961729732033806517e+00
1.497314389203471263e+00
4.775552876353738263e+00
4.786540350080015216e+00
2.693942880811553753e+00
3.603240730141192283e-01
-1.746799594588458904e+00
-2.797089519091047638e+00
-2.495056566407422682e+00
-1.515415537924800660e+00
-2.775722367729364648e-01
6.781371781112186525e-01
1.110352340423517603e+00
9.203370481223197563e-01
-4.646542094706415105e-01
-1.721879966210156931e+00
-9.395124318723404588e-01
-1.730966884410830575e-01
-1.678969118662175575e+00
-2.707483216723803210e+00
-7.580921118604393438e-01
1.929857790315882005e+00
2.825331288650176020e+00
2.004828679738595465e+00
4.812577898807574028e-01
-6.488566808764456573e-01
-7.707413341980993149e-01
-3.646742793447860231e-01
-3.447527536327710251e-02
3.321751221003953480e-01
7.233537770377229670e-01
4.704702145539350067e-01
-5.569513385562672170e-01
-1.351743184879728998e+00
-1.219244258288282090e+00
-5.524600723469055286e-01
2.584258591954308182e-01
1.125068110794670284e+00
1.641471076301350029e+00
1.617589636342287474e+00
1.501807635157290655e+00
1.519108886823198112e+00
1.381424636593523658e+00
8.917773623844066355e-01
1.471523654719820717e-01
-6.017611043209588617e-01
-1.122545396026269682e+00
-1.341095265313652085e+00
-1.250104005846582655e+00
-8.687880745407581262e-01
-3.943496487828644925e-01
-1.475642835752406512e-01
-1.867069068789782849e-01
-2.121360922517286363e-01
-1.219736729017206894e-01
-1.816432568371940670e-01
-4.314082127702469904e-01
-5.916662195019795067e-01
-4.941310699389616090e-01
-1.719013585663274890e-01
1.453010160596039102e-01
1.628522006155585511e-01
-1.888990976959795121e-02
-3.685924990563803350e-02
1.048403796249915837e-01
2.407887215383059942e-01
4.372169561817941252e-01
6.258820070099831989e-01
6.495370331864376290e-01
5.808936612655281051e-01
3.961861388641659265e-01
4.442410382564462162e-02
-2.447283581887146897e-01
-3.285738895144125760e-01
-2.704789467952877224e-01
-1.605664704979881674e-01
-1.763807687823526205e-01
-3.521591166314151922e-01
-4.698343429968098173e-01
-4.644131675056640818e-01
-4.687049025527885160e-01
-5.119957442366692701e-01
-5.229950553986911777e-01
-5.076725341506649336e-01
-5.544744384730736497e-01
-5.789352612238436446e-01
-3.509831207540479170e-01
-2.076051827028197599e-02
6.173875252808541658e-02
1.310109976518424313e-01
5.707539717101467458e-01
1.035944257054518758e+00
1.114475003482676474e+00
1.087330247354545643e+00
1.203074559458731096e+00
1.210918727291304009e+00
9.848662812569791702e-01
7.128006199912336749e-01
5.117441588399190833e-01
3.877490575509223159e-01
2.643147433678308955e-01
-3.620883854739367913e-02
-4.413102360684083569e-01
-6.699704532338544016e-01
-7.689600910068743467e-01
-8.363584574631790503e-01
-6.716043468691939022e-01
-3.493997284149858995e-01
-1.811746096197441869e-01
-6.198816484656843873e-02
1.197409078551935624e-01
6.474354547198596377e-02
-1.751903833670727939e-01
-1.679720768985523693e-01
6.853709034784341569e-03
1.063113741476092444e-01
1.517872290635629839e-01
-4.018049359742686955e-02
-4.102532053054466776e-01
-4.932251065721345307e-01
-3.714395200871958291e-01
-3.553796840730567563e-01
-2.394158889278657776e-01
8.148837272881020999e-02
2.586119643233041887e-01
1.264984105115360413e-01
-8.355285267638057345e-02
-2.231578835715575804e-01
-3.282522259981996982e-01
-3.324525275597456919e-01
-2.244449364829258220e-01
-1.680067525003440809e-01
-1.915864564251728297e-01
-2.549213507890440988e-01
-3.596502791362778950e-01
-2.618112669667356229e-01
1.392245725772748022e-01
3.440335441634772562e-01
9.724745629201815567e-02
-2.077460660744106236e-01
-4.260226270848341823e-01
-6.961264322741795851e-01
-7.702090869829618658e-01
-3.058605857131761474e-01
5.854423678939595366e-01
1.402997443127221189e+00
1.732095164056642878e+00
1.649527581888410310e+00
1.438805574702390455e+00
1.131667098657454185e+00
6.991526518795766476e-01
3.579526273034279171e-01
3.744569578180976244e-01
6.771024944654108202e-01
8.778230919023801704e-01
7.316526490545132155e-01
3.693148448600485634e-01
-3.214865430958999126e-02
-4.903984182726126018e-01
-8.980137268086699764e-01
-9.837973371071475626e-01
-8.127925928907830944e-01
-6.617669348953318931e-01
-5.504689240787330462e-01
-4.860483479646035554e-01
-6.046818544818113317e-01
-8.347648107447699362e-01
-1.046532352041493752e+00
-1.333718288494097681e+00
-1.808372094452901813e+00
-2.318323000926048927e+00
-2.429106272039270653e+00
-2.070239110072376043e+00
-1.980688571726417768e+00
-2.184864157594697431e+00
-4.909639471139513600e-01
4.412902594445645477e+00
8.473177323191283250e+00
6.480654222453718916e+00
2.972936116494678815e-01
-4.071673955408230405e+00
-4.643369055940306467e+00
-2.943192632057236580e+00
-4.408501428013655854e-01
1.378306184621014729e+00
1.505896364234553308e+00
7.542288591175182466e-01
6.816337018211073850e-01
1.620202294787311370e+00
2.687166992302379320e+00
3.051981150113158847e+00
2.591803680960859779e+00
1.781509022663934294e+00
1.116706596757580883e+00
6.657679388029495993e-01
2.856679008314186863e-01
-1.560017033235864270e-01
-7.111353631317405277e-01
-1.186365857818672653e+00
-1.361566284411058092e+00
-1.266083523406962064e+00
-1.059501306043743485e+00
-9.370932446656046189e-01
-1.007115413656980651e+00
-1.134467581607945696e+00
-1.123987761673478802e+00
-9.614034484305891137e-01
-7.855448270815608147e-01
-7.284845274109262858e-01
-7.725596719963655490e-01
-7.523246272373783627e-01
-5.234121822564806736e-01
-1.368821915544931045e-01
1.835585850081524750e-01
2.991641040049174416e-01
2.521946613412847649e-01
8.241987080671303589e-02
-1.656511793702580004e-01
-4.399047039608562359e-01
-8.191925600467154789e-01
-1.304838217172912707e+00
-1.845129178425904737e+00
-2.438456397848532742e+00
-2.244246696616371217e+00
1.721738482021105687e-01
4.099212010071230594e+00
6.110760404998751838e+00
4.217621479522049910e+00
3.865198325203786922e-01
-2.611519330659392235e+00
-3.871453890072505288e+00
-3.318229035129547810e+00
-1.083991213573987089e+00
2.233684982191546986e+00
5.361081494646584567e+00
5.991803217978024065e+00
3.075684773456232257e+00
-6.996976810960335857e-01
-2.003241866188209652e+00
-7.825501751090893077e-01
1.032837262799137346e+00
2.030180073202578317e+00
1.670055158976936793e+00
3.545976324886732090e-01
-8.142617883729060813e-01
-1.279436850257621217e+00
-1.481130387260238823e+00
-1.835448884243580103e+00
-2.094772839293773004e+00
-1.897310917803490371e+00
-1.337068996998420856e+00
-8.453339026061653660e-01
-7.343800780427398589e-01
-8.924746068795337273e-01
-9.550206335460047491e-01
-7.805272968884420237e-01
-5.469487412930748027e-01
-3.899242604316472960e-01
-2.692439665709247532e-01
-1.335841641658720991e-01
3.875282823232351070e-02
2.661235738124969052e-01
5.229708443379770255e-01
7.852825567807590890e-01
1.081329846541451145e+00
1.313009129231672789e+00
1.279333991121207603e+00
1.067057048095932492e+00
9.185724068809540954e-01
7.940506478016758907e-01
6.532444859767645440e-01
6.683892636068692328e-01
7.530071074072758330e-01
6.164314504717246512e-01
2.838516781787218113e-01
-8.599450934871383234e-03
-1.329058202595535254e-01
-1.980096378875740859e-01
-4.915529744513272847e-01
-9.448397863344808467e-01
-1.022564717582582494e+00
-6.405537474761934247e-01
-4.684868175287160152e-01
-7.661801388056137530e-01
-8.458681911177238222e-01
-4.028707790695175706e-01
-1.532810930663378313e-01
-4.659923379066037707e-01
-8.003700600765449868e-01
-7.590984994016919396e-01
-5.264578706648789241e-01
-3.768614858717958538e-01
-2.759892955033929063e-01
-7.149093631391961745e-03
3.527819884417578433e-01
5.419506626462597954e-01
5.818093850305690040e-01
5.519107955145529099e-01
3.931667655180746124e-01
2.342440506357652552e-01
2.756762172199789251e-01
4.032386713216536966e-01
3.846916036028804609e-01
2.491178310333505286e-01
1.532720104719632881e-01
1.023493284931263070e-01
7.660927454265395453e-02
1.526859076094815859e-01
3.057768722899291136e-01
3.914670024802991977e-01
3.768482757231709779e-01
3.488443475427978058e-01
3.521125873747181223e-01
3.993835835102471088e-01
5.235503887347175977e-01
6.532959726641750509e-01
6.035886449032191736e-01
3.085295476900599132e-01
-1.172758308215128831e-01
-5.166421015868406519e-01
-7.750333263629978209e-01
-8.780945676609335226e-01
-8.438962070915329017e-01
-6.742809400930552810e-01
-5.233531296658491261e-01
-5.616479429965474113e-01
-6.693500673441945548e-01
-6.612572872789231893e-01
-5.155010126120351810e-01
-2.498226941424000480e-01
5.871861268963668445e-02
2.978352965790492801e-01
4.266075134269939895e-01
3.976718721113255972e-01
2.395945302316532799e-01
1.181043282477410999e-01
8.643897442883287374e-02
7.087409129097224647e-02
6.912980015030703584e-02
8.794037331553543335e-02
5.994577293635272586e-02
6.905078719531741738e-03
8.260356597469800666e-02
2.617577227060116085e-01
2.747955739048918988e-01
9.222236831648158994e-02
5.902244905620571830e-02
3.024773045857377385e-01
4.526873889497485814e-01
1.988053530634514010e-01
-2.276419081275813383e-01
-3.695004790891314173e-01
-1.108866590697794308e-01
2.395609427303254102e-01
3.077039696283301873e-01
7.161899989464143301e-02
-1.409112237148629487e-01
-1.711627518313991458e-01
-2.383882023638382863e-01
-4.314608278327958235e-01
-4.719975294139290289e-01
-2.611696740422454477e-01
-1.054847386013850197e-01
-1.652427486020350555e-01
-2.321908183578267615e-01
-1.265118529842299000e-01
6.110018396494251713e-02
1.066353560738667883e-01
-4.224558156380617963e-02
-1.945505437635211554e-01
-2.317764896782871509e-01
-2.045979406036273485e-01
-1.005629412409764500e-01
1.091800411024094197e-01
2.732276933579290135e-01
2.600745242848462313e-01
2.646060979967825855e-01
5.389737411599004879e-01
9.035101693608741380e-01
9.868231681358365925e-01
7.830647039608514826e-01
5.156654434149888777e-01
2.556756746155350868e-01
4.838313396652416110e-03
-1.671548451949569636e-01
-2.307611668192130205e-01
-2.525092535684941852e-01
-2.901108040750437489e-01
-2.994961612855190358e-01
-2.063105082811012014e-01
-4.994844058957403909e-02
3.904957137857856253e-02
2.824898473077654473e-02
1.138383741455845088e-02
-3.561332397506869474e-02
-2.200482281506279947e-01
-4.037503775032166287e-01
-4.180935279590504705e-01
-4.069967539206610363e-01
-4.775504344284854930e-01
-5.098682584463730683e-01
-4.820432485855984384e-01
-4.479398761819500807e-01
-3.708970398561795001e-01
-2.689477061826997528e-01
-1.980989779149515129e-01
-1.200871262355866359e-01
-3.207438760525355148e-02
1.615056332500659775e-02
6.754245456897473021e-02
1.631746894415047611e-01
2.736558649771913543e-01
4.021417931199707252e-01
5.143673321382666863e-01
5.233836436119378988e-01
4.753553597942441478e-01
4.692921988569619951e-01
4.677344194640931097e-01
4.181153583357742343e-01
3.454115029665651426e-01
2.665829930364412292e-01
2.047710070137970240e-01
1.673554371752103420e-01
9.859745966427928276e-02
8.691444167776396501e-03
-7.109132803471829298e-02
-2.074659510781941552e-01
-3.410993385684337742e-01
-3.232780792800583058e-01
-2.571485149219526756e-01
-2.855632731283139769e-01
-3.054746400439070086e-01
-2.424784162781887242e-01
-1.703724672175747079e-01
-1.062366271195870765e-01
-4.226632732981605578e-02
-1.943995368222327380e-02
-2.635388039596164855e-02
-2.259519233305633951e-02
-1.287005294783091780e-02
-4.302209334569116750e-03
-4.219772260532647645e-03
-2.267741155198747111e-02
-2.433069997065794021e-02
1.006414692282704693e-02
2.845919271711134721e-02
1.494697424992451340e-02
5.454586828130738446e-03
4.386889297094017509e-03
4.359434478336307595e-02
1.563311048698551864e-01
2.526824170233552547e-01
2.594846049597734350e-01
2.292589135787757582e-01
1.641557091193998064e-01
2.004456922806789956e-02
-1.305438924482397733e-01
-2.012975284040749990e-01
-2.251409157309118003e-01
-2.371927517026565790e-01
-1.949893823071168764e-01
-9.151827928221631381e-02
5.520146886296255218e-04
3.464362150171380883e-02
3.105684420531865803e-02
2.414904528129381209e-02
3.180882064286247313e-02
4.160562591115743447e-02
2.975935188753671412e-02
2.050408774393123502e-03
-2.419857946828976245e-02
-2.634654465845205976e-02
2.468224791372118296e-02
9.006752630631820189e-02
1.000471254509641278e-01
8.138605154725377100e-02
8.504953762718352184e-02
7.942472688281759785e-02
4.307950786555200806e-02
1.825945097584517202e-02
4.043646729776959048e-03
-4.843595176322318396e-02
-9.856930773463221107e-02
-6.433042123492606346e-02
2.010704220811444093e-03
2.894911092354318649e-02
6.049465629754611357e-02
3.774304165357088292e-02
-1.443822180342855255e-01
-2.871363293885409451e-01
-1.936016879693611137e-01
-5.576098748936929306e-02
-2.595572812162002391e-02
2.152496581922178423e-02
1.158049297561729030e-01
1.547751164080678754e-01
1.400659343862978856e-01
1.261829527688676233e-01
1.090387124402607683e-01
6.271443989728286983e-02
8.761487720889474945e-03
-9.076812431987837937e-03
-1.320748147410007178e-02
-4.539909727944579920e-02
-7.779425995202536581e-02
-7.904963622143221236e-02
-6.263492606033441157e-02
-3.742527518473678927e-02
3.435778629958344179e-03
7.137599688301274337e-02
1.581799690871607544e-01
2.042555693733661415e-01
1.619733398936322177e-01
6.268366899061926512e-02
-4.802764041814738816e-02
-1.612753763461442225e-01
-2.539554682365874894e-01
-2.807371417120932411e-01
-2.352746264489187777e-01
-1.653126942430917234e-01
-1.073490709551964267e-01
-3.789720365996461504e-02
5.313300162013449152e-02
1.039714644706018487e-01
8.720759377077860752e-02
6.052286108144929594e-02
5.672213424859213343e-02
6.303313424500757434e-02
7.533687953338667753e-02
7.905426629545431183e-02
7.658660661399406544e-02
1.031507043230046883e-01
1.292247464976824245e-01
9.594896179825088134e-02
4.378960918392158647e-02
2.849761197452145220e-02
1.288452009418323760e-02
-2.977800336351314400e-02
-5.738493920192223180e-02
-5.140614967226339593e-02
-3.305786914604758042e-02
-1.518836320115072441e-02
-4.314149651657075285e-03
2.033676903187366797e-03
2.117563882268790401e-05
-4.601014343295522363e-02
-1.244664555082689861e-01
-1.486379522267615716e-01
-1.084112472577989372e-01
-8.041607108667762904e-02
-6.148638851080619194e-02
-1.039432729528477414e-02
4.268484221438791082e-02
7.285125139162657026e-02
8.298626121619626095e-02
7.509358482349717812e-02
8.141384663619040396e-02
9.143942790391275388e-02
4.833571687683244078e-02
-5.984579838729045705e-03
-2.826404951200383459e-03
1.115318148565215377e-02
-4.438363505614253447e-03
-1.662251120174098977e-03
2.095673849260423771e-02
4.831012144919238048e-03
-3.207430770323966424e-02
-2.145379166313637898e-02
4.509885450027844439e-02
1.302989341970181569e-01
1.696292455247446762e-01
1.056500621806704121e-01
-4.915417342749466012e-03
-6.625019654616154385e-02
-1.166519820346501313e-01
-2.125892920086367988e-01
-2.682117342038533581e-01
-2.218419467935680844e-01
-1.557603729079690691e-01
-1.161757816019562267e-01
-5.309118632908048363e-02
2.823063631365207299e-02
7.766303145630525095e-02
1.071287963602120946e-01
1.302534883187158044e-01
1.191387331283249584e-01
8.690680368758213481e-02
7.201537355118034500e-02
6.932123727966048310e-02
6.720448166208818630e-02
7.543281944670759964e-02
8.764361493659048041e-02
7.764985241513666647e-02
3.959181257207660537e-02
3.442457871385432022e-03
-6.360499136528485059e-03
-1.243054495068144499e-02
-3.673865278472213114e-02
-5.232864160826194988e-02
-5.436989586175659805e-02
-6.804185692280612097e-02
-6.703133988594237036e-02
-5.179499669327475991e-02
-8.651252474941738269e-02
-1.128888275782386486e-01
-2.119004954008425062e-02
6.764825480884505138e-02
9.026666727879870122e-03
-7.191206636443690792e-02
-6.153339891728387689e-02
-2.528441154868411866e-02
2.099341245942087236e-02
9.068726281482306084e-02
1.162961037364709238e-01
8.189387808728895712e-02
5.176544523170285156e-02
4.340446492362095426e-02
2.188365234508395443e-02
-1.875391682499873841e-02
-3.881154801389698206e-02
-1.727975285105986039e-02
1.506577585499760050e-02
3.103974248766279420e-02
1.889719494977483427e-02
-3.256585202229676096e-02
-7.659884136701411439e-02
-3.678118686372196938e-02
7.639765169593684679e-02
1.776699505022506231e-01
2.051357408619194356e-01
1.594611275121262384e-01
7.474080701690466455e-02
-2.755010533287020891e-02
-1.364921203603499111e-01
-2.270398132982603678e-01
-2.759726281104089018e-01
-2.787505267880630022e-01
-2.332186800364560997e-01
-1.493754815463875785e-01
-6.704926304421775229e-02
-5.069329508554466790e-03
5.540438892100139900e-02
1.056042020025954598e-01
1.243473256754266815e-01
1.247011054669527330e-01
1.114355492769479455e-01
8.041593433431892812e-02
5.472177314004614962e-02
5.802646478072467917e-02
9.559823571755604599e-02
1.320069245862703355e-01
1.084755632933939035e-01
5.322688338870672914e-02
4.059735972265914039e-02
3.994532478747996052e-02
-1.325579815907139067e-02
-8.791544353845089088e-02
-1.158870566328511209e-01
-8.266250238479228019e-02
-4.559051114758302936e-02
-6.170357180110306455e-02
-7.730688150812892179e-02
-2.258164981554139708e-02
2.601398924732209808e-02
-1.355167338487154455e-02
-6.776969720470131520e-02
-7.191980216338066112e-02
-7.478313102348635444e-02
-7.895664888424290540e-02
-3.251432064221194268e-02
2.543270667671964497e-02
4.430973175027133615e-02
7.551132833001868161e-02
1.366973964209942105e-01
1.454094357039436292e-01
8.876087125772766373e-02
5.081698127755028549e-02
4.350982164205403901e-02
1.286263095523272441e-02
-2.872824391751599427e-02
-3.599567077217177835e-02
-2.579768529585093825e-02
-3.247032868001814565e-02
-3.581206575133296516e-02
-2.129152309259793596e-02
-1.488928623623266174e-02
1.449745805218917265e-02
1.140223358266636428e-01
1.981609304155283191e-01
1.605384625409767563e-01
4.433427937174080902e-02
-7.080931211172517004e-02
-1.740759034174988729e-01
-2.517260394469864604e-01
-2.774233424189740949e-01
-2.466215640554619004e-01
-1.740762404299173727e-01
-1.010642930847449328e-01
-4.567378018821255381e-02
2.418922177130044399e-02
9.506802660145619033e-02
1.103491050056207567e-01
8.977651710157734388e-02
8.995930220963378743e-02
1.041384576747797219e-01
1.097343984715372645e-01
1.068291354840097407e-01
9.978098663724455086e-02
1.108652291252083394e-01
1.332424033708865252e-01
1.121380271568369474e-01
5.876162661385602587e-02
3.418488691755895703e-02
1.815620584939903193e-02
-3.064661443054021370e-02
-7.928694637132324696e-02
-9.414432685048973459e-02
-8.808285852592850906e-02
-7.478776878821390139e-02
-5.360888977289095941e-02
-2.861559686669639183e-02
-2.340817094213721791e-02
-4.597785906631808583e-02
-6.400150487305809877e-02
-1.087006159018418378e-01
-2.241502169565092739e-01
-2.662090039262625663e-01
-1.269788173635651163e-01
3.397230716201499884e-02
1.030205392414561827e-01
1.347403134679088510e-01
1.517327094623618366e-01
1.562928110538667759e-01
1.439036317483941285e-01
8.360420237081254979e-02
1.035242940543362397e-02
-1.682641974604364571e-02
-6.494983700052702619e-03
1.414711519947353148e-02
3.149354946234026592e-02
2.855859012463570282e-02
7.273221318122123982e-03
-2.055358202673798068e-04
1.704322097874449299e-02
2.342456181577357022e-02
2.864870622304227163e-02
1.027239333830796408e-01
2.167993977025171604e-01
2.553120128767542019e-01
2.036988368827526985e-01
1.328350634627920579e-01
4.900359898797441299e-02
-1.013505135290150849e-01
-2.437675866627436738e-01
-1.876167606508187258e-01
-3.229572069810842522e-02
-8.977864329447000913e-02
-2.352848840034466038e-01
-1.830675564743103056e-01
-1.602753706859512961e-01
-3.356181258057728267e-01
-4.047368756677497958e-01
-2.926025748705138874e-01
-1.950988656730244519e-01
-1.833372227662712073e-01
-4.153822969786541419e-01
-8.744501047441732844e-01
-9.437197933470746758e-01
-1.602403646847450069e-01
9.143650928105011566e-01
1.442067495292038704e+00
1.613324987093317953e+00
1.932583989554593540e+00
1.785520253690865644e+00
4.623958493259847091e-01
-1.197213563769889522e+00
-1.793326297088139176e+00
-1.195267015084805262e+00
-2.222728670734704925e-01
5.957756519090667835e-01
1.037438531871272662e+00
8.677228840504943586e-01
1.481697487054560725e-01
-6.497269334777441285e-01
-1.099033933756344839e+00
-1.128815373402762390e+00
-8.510967897322074815e-01
-3.859375460224355736e-01
8.144469588479741340e-02
3.690108566182060956e-01
4.593847354868872968e-01
3.986718247350599098e-01
1.636690284356083214e-01
-1.640134587884107820e-01
-3.302990384128038914e-01
-2.244165038648490706e-01
2.790618654919468401e-03
2.067387482304275659e-01
3.504017508601628972e-01
3.903477686118214662e-01
2.643636679452119331e-01
-4.705071084406278054e-02
-3.865978825423370679e-01
-4.280303129723673772e-01
-1.311539573704923189e-01
1.314156753867588567e-01
1.990219783053895908e-01
2.467721179340398030e-01
2.518783634167356955e-01
7.088669712014385171e-02
-1.894927195193287228e-01
-3.537204438431684750e-01
-3.707106769107257893e-01
-2.372483979590093717e-01
-3.127762594974543842e-02
1.145961596986241338e-01
2.058976265295665298e-01
3.114875039906572773e-01
3.484969394601261095e-01
2.560828950954238126e-01
1.779462834439620444e-01
2.161960052198268478e-01
3.076483312643079615e-01
3.857184496983983579e-01
4.128993015071640849e-01
4.065177386123035586e-01
4.460901660278252523e-01
4.301734139462998208e-01
1.066189922736936746e-01
-3.721151068221283387e-01
-4.502791774192581586e-01
-1.058340140907229471e-01
4.052098165486631154e-02
-1.299452946928115749e-01
-2.654623357782611714e-01
-5.550122626545321847e-01
-1.082533036703204221e+00
-1.202235626108161926e+00
-8.810571138352475407e-01
-8.740087407994215907e-01
-1.153925265789324639e+00
-1.077402496877516658e+00
-7.388780614609042896e-01
-6.162154027572581683e-01
-5.207715039528906242e-01
-7.714861133298675511e-02
4.896471477488970603e-01
8.423958866766236842e-01
1.036992421213655202e+00
1.213918403352857833e+00
1.368670041482300537e+00
1.479316102240849418e+00
1.550634225612607997e+00
1.517885832422377401e+00
1.266306954760246350e+00
7.534829917919441122e-01
1.400839819596409463e-01
-2.138086618233602243e-01
-1.797567750902053230e-01
-1.079190235640375972e-01
-2.161512114943484331e-01
-1.823063114097675519e-01
1.898927057361269322e-01
4.464627264671295892e-01
2.189773533397992578e-01
-1.115548914485945675e-01
-2.868026029876302729e-01
-7.452508051565144287e-01
-1.442906674762488572e+00
-1.643104841130343274e+00
-1.442624389626690817e+00
-1.526820114987405219e+00
-1.555605271110530818e+00
-8.457426369953673362e-01
1.252218356346883055e-01
5.172834110712920541e-01
3.886443346045997393e-01
1.882761200787818334e-01
-1.972032757073516329e-02
-2.199133966990646227e-01
-1.477233790922365397e-01
2.225018193994239835e-01
6.037055993494444550e-01
9.448932950102392203e-01
1.302140825778639543e+00
1.482081270047372890e+00
1.445521809384304524e+00
1.400925548101689788e+00
1.313130080339228067e+00
1.079812119783631452e+00
9.959564900909612106e-01
1.259232044889890600e+00
1.168128734471677976e+00
-8.711278692948182245e-02
-1.842760317606928711e+00
-2.708650415717261950e+00
-2.608344522268034815e+00
-2.554124365922917139e+00
-3.042502349405143303e+00
-3.534107715101522551e+00
-3.097145409052731058e+00
-1.700610070427254872e+00
-6.008647726356743934e-01
-5.119448666904851120e-01
-4.117948436811639246e-01
5.910427446314663325e-01
1.797288531930211430e+00
2.548590055056222603e+00
3.427404119312060793e+00
4.612923502988611979e+00
5.275639347734994544e+00
5.539484991841054473e+00
5.579139723182286126e+00
3.090303528344720441e+00
-2.867734024758693767e+00
-7.645816590710182936e+00
-6.681205104561739994e+00
-1.892627476726734148e+00
1.975299264422964995e+00
3.156545823486951896e+00
2.378472474936183190e+00
5.662686851987465131e-01
-1.363666383029270124e+00
-2.883191431022936957e+00
-4.101745963156730568e+00
-4.784507977836216064e+00
-4.317932564501253623e+00
-2.792396284989950850e+00
-1.062989001763251729e+00
2.982990545355185263e-01
1.558051335428979112e+00
3.006066998185051631e+00
4.178979295048676157e+00
4.518676070875497608e+00
4.074139381182827258e+00
3.223222258211648761e+00
2.228263957677699469e+00
1.026945973807910750e+00
-4.031859048939644974e-01
-1.501405751000509881e+00
-1.771174640597663608e+00
-1.604394271758500912e+00
-1.429497742654526338e+00
-9.951790838178404819e-01
-4.403082452156240612e-01
-5.669220850994856065e-01
-1.431159619434194896e+00
-2.285407436685659821e+00
-2.826038355786539391e+00
-2.976419264292057498e+00
-2.264039417618971317e+00
-7.371361968399755549e-01
7.113598169511770042e-01
1.649179532985323604e+00
2.261216004461028106e+00
2.330300945256719825e+00
1.743961562542561516e+00
1.155262580061325206e+00
8.875290493023275662e-01
6.827687404781281888e-01
5.696621635434062636e-01
5.273967699791992647e-01
4.484433883434082446e-01
6.484979108187917118e-01
1.046360560058625433e+00
9.979233423824873661e-01
5.036599192637333244e-01
9.090455692526280829e-02
-2.106307935543064724e-01
-6.758944831061017844e-01
-1.167514235928521771e+00
-1.334359688977841962e+00
-1.216797043030261705e+00
-1.155671482047988974e+00
-1.271167511819360829e+00
-1.409395887959121518e+00
-1.405026468301089571e+00
-1.131205999563485554e+00
-6.065244204197662858e-01
-1.565290777756484508e-01
-1.099294210005048456e-01
-1.304894402684356747e-01
5.596897313838958832e-01
1.538240403043050097e+00
1.261209607529141907e+00
-2.173423367588681321e-01
-1.089204831275696339e+00
-5.611487164997668309e-01
6.147835206177573175e-01
1.531737333069389528e+00
1.796205671435606943e+00
1.669617789789501039e+00
1.560441754689312122e+00
1.524958406120940468e+00
1.671262920853417100e+00
1.934019626232568179e+00
1.789362554315414355e+00
1.272373643820138955e+00
7.455293282548167699e-01
1.028457071119703858e-01
4.396391707844060637e-03
6.213553896790349196e-01
-8.466754992548584102e-01
-5.332847759847409108e+00
-8.178662872006912110e+00
-6.338323051815082820e+00
-2.476619410790291465e+00
5.606618416714664876e-01
2.022403221330355549e+00
1.702699242046429973e+00
6.337057735603350839e-01
1.414152454270689030e-01
-7.832836295176925923e-02
-3.636310176514414572e-01
1.620478933286559342e-01
1.746580104740599992e+00
3.200521201636828295e+00
3.490921639665062415e+00
2.671752393302447626e+00
1.188303987464063960e+00
-5.156922235995777815e-01
-1.640450213029211124e+00
-1.472793913814998579e+00
-3.798504610547538962e-01
4.967970943504651515e-01
5.342050421074624467e-01
-5.225520160861833394e-03
-6.287322098766058298e-01
-9.784083725892165351e-01
-8.268287355569565733e-01
-3.146191234012802873e-01
1.088813266300662635e-01
3.475670793918201884e-01
6.512994240271187119e-01
8.053490346312601744e-01
3.541595590614700084e-01
-4.159884565884690577e-01
-9.270285067882049201e-01
-1.316701981629140317e+00
-1.847166338484856229e+00
-2.159954522975763513e+00
-2.019516423846767772e+00
-1.761639257473362141e+00
-1.547798401872553686e+00
-1.140806891649567945e+00
-4.539599845737772865e-01
3.534720614040198772e-01
1.138131835120894220e+00
1.875828019880181552e+00
2.570957908328567409e+00
2.893772063913333525e+00
2.368851994328434962e+00
1.351220431932347532e+00
7.981317000031863396e-01
9.642650381707693619e-01
1.574752288052935434e+00
2.539186959642428576e+00
3.289565684041921401e+00
2.813268979895455324e+00
1.189085608311347242e+00
-4.157324420296489853e-01
-1.419546472134616710e+00
-2.073573696215214035e+00
-2.432447179415598182e+00
-2.270464795199184316e+00
-1.662591954987027165e+00
-1.094803467356945337e+00
-1.131556821461348727e+00
-1.865227455574354654e+00
-2.722779333262647761e+00
-3.065579787259057998e+00
-2.772302739813531147e+00
-2.188024544276258698e+00
-1.688506635514953169e+00
-1.200504970626798729e+00
-4.706075769153705846e-01
1.050821074733808702e-01
9.655907119469542277e-02
3.027471033915313248e-01
1.545841484683571521e+00
3.120318723247288872e+00
4.342298346202699832e+00
5.544096426273919853e+00
5.903878525431242252e+00
3.665553801156881786e+00
-3.951812089233666669e-02
-1.728671990402562697e+00
-6.732483599659049300e-01
7.009194875801618707e-01
9.740326321862569081e-01
5.813377404398853976e-01
-1.857098047363653359e-01
-1.306747150033238825e+00
-2.319243488973649292e+00
-2.633098059747480679e+00
-1.993879545050545543e+00
-9.611775677393371575e-01
-5.556851442258007312e-01
-6.785667738978579111e-01
-5.008152264499523554e-01
-3.570715990129849082e-01
-7.592361860966257980e-01
-9.550761958763693826e-01
-6.842961845256548825e-01
-8.611456296504041985e-01
-1.500286556620210821e+00
-1.661176255734718943e+00
-1.291998711885650852e+00
-9.586630707732873846e-01
-4.284859942659326459e-01
6.739329097029822524e-01
1.593228430274501228e+00
1.624183048193827084e+00
1.421340895999904319e+00
1.565569959305907366e+00
1.568472822754678475e+00
1.206746426075345768e+00
9.594225893805270466e-01
9.300152030605417508e-01
8.169721986060189955e-01
6.832692044177764989e-01
7.554815865357324967e-01
9.127162313834299434e-01
7.858141788786540127e-01
1.649100192607839133e-01
-4.181074033832960501e-01
-2.678591710906832457e-01
1.078886954657409802e-03
-5.118920075607354958e-01
-1.103686631250620387e+00
-8.998200462870917793e-01
-5.016993573759190861e-01
-4.942447563164263924e-01
-4.630060383741823049e-01
-2.710409184295637930e-01
-2.383956700530284190e-01
-2.180574137402352952e-01
-6.253077506073326242e-02
-3.618265166565140523e-02
-8.057834251037176987e-02
1.008524569400436055e-01
3.611480713390478048e-01
3.385723308157124745e-01
-6.569662549733251700e-02
-6.599654359014648364e-01
-1.023810480771973674e+00
-8.475674062734164238e-01
-4.103277688161036663e-01
-1.838496147275675563e-01
-1.416109136856890938e-01
-5.085829917516787591e-02
-4.456429913571827162e-02
-3.523704824817971426e-01
-6.735739468952662845e-01
-6.072455415681285995e-01
-5.596902056000591097e-01
-8.263222629903453909e-01
-5.650675475933940595e-01
5.601732951573047403e-01
1.542742580959049370e+00
1.865613877987708502e+00
1.651398772129191839e+00
6.321376775525637814e-01
-5.999591208930107333e-01
-4.655836518721472306e-01
9.821135260600390993e-01
1.912829828947376409e+00
1.425925572277435993e+00
3.992176677044726452e-01
-1.353092583822529393e-02
2.592685981667537942e-01
4.809369914183593830e-01
4.399762333559912308e-01
5.328869534349123249e-01
5.594140348676771568e-01
-1.415841561828125317e-01
-1.277921807695469703e+00
-1.734611432586911306e+00
-1.003161985785010923e+00
4.570190765115265674e-01
1.548038623833909888e+00
1.279942826097777653e+00
-1.003985799188912842e-01
-1.750606807858245739e+00
-3.292728519563677736e+00
-4.075574013201447521e+00
-3.401045220396376578e+00
-1.709032995381335907e+00
1.825436315642210983e-01
1.832812316832431954e+00
2.598635163002680049e+00
2.215287498893348417e+00
1.442953604299485937e+00
6.740160717156516990e-01
-4.545372974493012697e-01
-1.499429490919289565e+00
-1.441926121185142406e+00
-3.863127523656905149e-01
5.869125402208308362e-01
9.731926887165606166e-01
1.099925155764219786e+00
9.665492146405137985e-01
3.687146482119979529e-01
-1.671432661510909856e-01
-2.521510563376053726e-01
-2.362600499416749877e-01
-1.986624492444785117e-01
3.599573315149318109e-02
2.374302292830731409e-01
2.607722882265166020e-01
3.962316596385088707e-01
5.357869663712998554e-01
1.527739615375610371e-01
-3.436155626017819986e-01
-2.004269444556981139e-01
1.100438443620666840e-01
2.581750817232342232e-01
7.910808109422493573e-01
1.281900627245613711e+00
1.068387532545664653e+00
7.324583635695678385e-01
5.461562431988667976e-01
2.750624400925809621e-01
2.385261697418269433e-01
2.808677091617920452e-01
-1.492255715214287071e-02
-2.461885876583916610e-01
-4.610435091836564414e-01
-1.136596697620306351e+00
-1.647768536411663653e+00
-1.487707204966296048e+00
-1.306975580016002558e+00
-1.333375216213387837e+00
-1.252267267196858880e+00
-1.151885660420303159e+00
-8.179856466567344553e-01
-1.514164133854986050e-01
-4.815035829387859234e-03
-2.942171645206619890e-01
6.749336035822295354e-02
6.089592533635173055e-01
3.761365588273822835e-01
1.266580887098795183e-01
5.590215626776418034e-01
7.998065327550917258e-01
3.615752796734755803e-01
3.259588159643194150e-01
1.053696676325372561e+00
1.204977082450986670e+00
6.198244107264647695e-01
5.827127508553526791e-01
7.400816543486535837e-01
1.069318528985146316e-01
-3.452021906647704252e-01
1.691086842175310023e-02
-1.333522358894215776e-01
-8.542090758793141614e-01
-6.150795407124980407e-01
1.546775789713381033e-01
1.112317885879954976e-01
-1.918658184314585013e-01
-1.341030674505852560e-01
-1.422969221426703956e-01
-1.621543535140227699e-01
-1.569950704421252119e-01
-3.067040562282366545e-01
1.045667615168961902e-02
6.998824709677858857e-01
5.659555082159503092e-01
-7.658750220403617859e-03
2.176262704756436461e-01
6.761298230405032861e-01
5.028394916146188276e-01
1.124536605246293924e-01
-1.784658265827168688e-01
-2.825307076181097221e-01
-2.496759509489084039e-02
-2.950724695083031812e-02
-7.423623177274679685e-01
-1.237918096180658400e+00
-7.710383954091146741e-01
1.158612031279063620e-01
7.658216059092445294e-01
1.146413728643820296e+00
1.321674347043541697e+00
1.298650549285986777e+00
1.105949158795349163e+00
5.953824968828910214e-01
-1.857067004418253564e-01
-8.483376956575685579e-01
-1.244767580970040921e+00
-1.308110159584295662e+00
-8.850101641426939558e-01
-3.374400333368757776e-01
-2.085382023306491805e-01
-4.501746318573519590e-01
-7.684304433233838383e-01
-1.029336521763296597e+00
-1.363940061710907869e+00
-2.302454823223217595e+00
-3.563225969830353890e+00
-3.753643448958565276e+00
-3.402905847087021041e+00
-4.618725757275302435e+00
-5.963158879325908934e+00
-1.684247725754404623e+00
1.199597783216252900e+01
2.676860189448245819e+01
2.505699890904914184e+01
5.006594627081783599e+00
-1.368319991557554083e+01
-1.847391735152360681e+01
-1.389015631216383184e+01
-5.495683663437198163e+00
2.780807595696431100e+00
5.735857086436263685e+00
3.636377260350061036e+00
1.764160365036500089e+00
1.758049558421721725e+00
1.450862233090500775e+00
3.899204150594602347e-01
-3.780079195265891867e-01
-8.546570987714174894e-01
-1.303915519020452107e+00
-1.412152215497902930e+00
-1.112463180182136302e+00
-7.439084556982904495e-01
-5.774236432902669636e-01
-6.012257220185015516e-01
-4.194831280168930254e-01
2.731661264317986060e-01
1.049214555168289431e+00
1.191633325373385510e+00
5.733430597544513230e-01
-3.160481458480002281e-01
-9.978964439182543833e-01
-1.352860761463456019e+00
-1.350222042869861250e+00
-9.514796487004659742e-01
-4.181225069964314978e-01
-7.764376824637006513e-02
1.426141919104819134e-01
4.793151322729036767e-01
8.694971953846633017e-01
9.900664117527691044e-01
7.244238118994945630e-01
3.466630783463176546e-01
1.052344523202821125e-01
-2.703067359993597402e-02
-7.294661908318385291e-02
3.089917336864501929e-02
1.238939836251433391e-01
5.677482555431836997e-04
-1.215565352949933564e-01
-3.284544343974529768e-02
1.119997402818359578e-02
-1.099168047630962042e-01
-1.639342584142435555e-01
-1.225274662284225741e-01
-6.220067039292826588e-02
1.034265160242027748e-01
2.969211078976914941e-01
3.791879543249416784e-01
4.364497186266110829e-01
4.380549361247688678e-01
2.418995299452345871e-01
-3.332874986927490679e-03
-5.396057967594808380e-02
6.805854960151157262e-02
1.493569380215566955e-01
6.465776234780436227e-02
-1.099805604850937757e-01
-2.744818842897619460e-01
-4.002935266190236763e-01
-4.465456785917267246e-01
-4.228637121905340357e-01
-3.901920259085071008e-01
-3.218646671945935012e-01
-2.314556169696913579e-01
-2.264432099100426310e-01
-2.442295518414462074e-01
-1.627650986989612192e-01
-9.597397060425641446e-02
-1.443037265696203997e-01
-1.511272436219607274e-01
-1.855637119183480704e-02
7.810110650248687503e-02
2.833363601412532129e-02
3.133600681137283656e-02
2.640546165846529014e-01
5.736090636768895745e-01
7.307471918650417786e-01
7.702108714763526987e-01
8.597321262210263493e-01
9.827664632166400738e-01
9.446559693558636006e-01
6.422674402316851383e-01
2.699363461747092408e-01
1.284702918975183239e-01
1.616250408906130531e-01
6.906764922802242912e-02
-1.699592039353355066e-01
-4.407668265900350768e-01
-7.878992340267410022e-01
-1.106136810626495492e+00
-1.148497447147218686e+00
-9.691381035461045235e-01
-7.863911558973615268e-01
-6.481952391134175873e-01
-5.556350355169304978e-01
-5.115067995364527276e-01
-4.170656590362521454e-01
-2.348752802123795780e-01
-4.244640264833629550e-02
1.391076252707448280e-01
1.862119710749416679e-01
-9.350121452530366084e-02
-3.561413652049236767e-01
-3.687593106536249388e-02
6.005242755787612019e-01
8.483323788909908902e-01
6.923826618386538234e-01
6.170259866270240146e-01
6.565738027371956775e-01
4.782325365403767292e-01
2.175010746909009640e-01
2.852987609304633576e-01
5.360798297180702221e-01
5.070868341994717587e-01
1.490365270229768724e-01
-2.101076582424082351e-01
-3.071089573230768588e-01
-1.400418257846536840e-01
1.127485661713221732e-01
2.063880336592757714e-01
2.739713962518991464e-02
-1.076033715042072625e-01
2.661848515572727558e-02
-1.106275661128768711e-02
-2.768149901945518021e-01
-2.333048508689108125e-01
-1.862507869352846290e-01
-5.541887714799872411e-01
-6.574919810190277270e-01
-2.489032958301194143e-01
-8.003254231376646932e-02
-3.111005026702182152e-01
-4.066235716188573157e-01
-2.252085209736792992e-01
-3.569729413267851148e-02
3.954200836625099136e-02
3.854229558106805897e-02
1.226435849339639617e-02
1.186234532182113555e-01
3.736585677391763838e-01
4.554470854512537303e-01
3.295940478303528987e-01
3.346775920487474187e-01
4.213653625420847870e-01
3.836970538704504996e-01
2.835754184972933412e-01
7.614885482499997305e-02
-1.892533083347406331e-01
-2.350627653810863915e-01
-1.315690190371791024e-01
-1.388669804105547301e-01
-2.086861623644496178e-01
-1.888912992305184502e-01
-9.769863198599873511e-02
-4.804179512697827337e-02
-9.207592601245430386e-02
-1.533011142470877275e-01
-1.430652792592765621e-01
-1.092708313469474141e-01
-1.435656664196926779e-01
-2.162373101806311926e-01
-1.823163835444154834e-01
7.008766762197475575e-02
3.609060196449586089e-01
3.496464069081139936e-01
1.282647208130855421e-01
1.046646300064181662e-01
2.677646157114844105e-01
2.388987624657418762e-01
-3.803333608533071564e-02
-1.988051250138487269e-01
-8.316871783381422911e-02
3.125944551304189745e-02
-1.424125608391474613e-03
1.028421875073542296e-02
5.751570479732119601e-02
-9.966866261920032111e-02
-3.303062685243411400e-01
-2.723971639352008034e-01
-4.806401187205601444e-02
3.823130461236615846e-03
-7.349123197503908134e-03
5.931730986899522162e-02
2.492105892244889445e-02
-6.047485467195280739e-02
1.430407088913567687e-02
6.529193167590585656e-02
-9.021687791037563686e-02
-1.828373124794721583e-01
-1.607595593838558046e-03
2.870655058178089858e-01
4.543066770422247158e-01
3.917425486762942111e-01
2.093196609716016787e-01
1.700364661306317804e-01
2.381706872215394732e-01
1.130138057478781433e-01
-1.936642460917943342e-01
-4.130883521083234533e-01
-4.387371295672928273e-01
-3.068747906865913477e-01
-1.720709570689445689e-01
-1.894627890208401833e-01
-1.872668183806919240e-01
1.585589059167470671e-02
2.030733189986501097e-01
1.851298488582484025e-01
1.033968825213950615e-01
1.151791068713552552e-01
1.996228967767986751e-01
2.417083960563707890e-01
1.741189508900068406e-01
8.229324978821422887e-02
4.006630993687271963e-02
-6.501165600110747622e-02
-2.207520760915524516e-01
-1.756040271461805635e-01
5.014522543628684853e-02
9.170301507822378739e-02
-2.017807783550993050e-01
-4.977361995492484148e-01
-3.663023301958262534e-01
1.615546238322144307e-02
5.619251408042547774e-02
-1.768093398262604588e-01
-1.354278279451334444e-01
1.186160786343110618e-01
2.194507702483130818e-01
2.085919533797157277e-01
1.878835513251277956e-01
6.107674872463736415e-02
-1.223421869645462540e-01
-1.498714648596508325e-01
-4.942655202933817632e-02
-2.731410140509892004e-02
-4.439092353782275041e-02
2.273815857614197924e-02
1.103553651576483219e-01
1.993423012759629187e-01
3.210287724792217912e-01
3.698521378013852612e-01
2.925365995755573323e-01
1.946751335653424120e-01
1.106262548102110999e-01
-1.935609071936567060e-02
-1.444189561318954262e-01
-1.761050542667585983e-01
-1.735193219646013474e-01
-2.218916748435978692e-01
-2.571762384097832088e-01
-1.715387814938048594e-01
-9.575971666933365267e-03
9.289406609934890147e-02
1.087452170888990044e-01
8.917125932831115875e-02
3.723142757710733164e-02
-5.320478246524664584e-02
-1.444770696181301162e-01
-1.951690644183900480e-01
-1.896303592353904277e-01
-1.412305106740557314e-01
-9.758716208939102743e-02
-8.736819044374466436e-02
-6.236625383796046140e-02
1.946999175762317846e-02
1.018786111636277858e-01
1.130571205858466738e-01
7.486738491481939595e-02
5.408809571353949408e-02
5.487091967711010126e-02
3.917820232279005388e-02
9.983091238526599007e-03
-1.316932736619430729e-02
-3.290638553875707001e-02
-3.515334659095821490e-02
-1.906074032961823511e-02
-3.939773070064861438e-02
-1.010824114717118749e-01
-1.270519386902364267e-01
-9.679581086476354845e-02
-5.282235787743537470e-02
-2.220001896926761253e-03
5.451439508261183425e-02
1.040090811961579265e-01
1.679256837090241095e-01
2.555889257425669192e-01
3.009601532294312043e-01
2.486727407359682340e-01
1.962772481126243418e-01
2.973324928628240937e-01
4.812413761767915243e-01
5.376349591047937526e-01
4.464293578401112850e-01
3.294149483410492851e-01
2.904607383013860789e-01
3.720139743949403832e-01
3.511578705027172398e-01
-4.078666785678425333e-02
-5.137479545459229247e-01
-6.054369543046799196e-01
-5.015624642837622771e-01
-6.663179299097006236e-01
-1.089915455525843235e+00
-1.437425389370861284e+00
-1.548918558622062847e+00
-1.416743950370292993e+00
-9.931008256776070464e-01
-4.430621560546814108e-01
-8.388224567082502858e-02
1.467565421346744281e-01
4.311855606344301983e-01
6.632861372476239747e-01
9.066553085034391168e-01
1.295077091160668603e+00
1.416274675774781500e+00
1.007571848878202170e+00
6.468903569051731584e-01
6.868966294542192541e-01
6.683532517726289424e-01
4.199284029635892979e-01
3.206605655670713984e-01
3.921483114403599979e-01
4.042094118614174003e-01
4.146665811188471329e-01
3.522873699997580155e-01
-7.139099704433135574e-02
-6.622130632938314498e-01
-9.223670213650416727e-01
-9.112091323455835390e-01
-1.052479274064473724e+00
-1.283499841839049083e+00
-1.216661213351456938e+00
-8.831595366769167121e-01
-5.351376239964558135e-01
-1.530162496907741254e-01
2.510918491617306070e-01
4.637365645659260460e-01
4.376644851291500715e-01
2.987234663035137627e-01
1.254428858389262658e-01
-2.120843942687286598e-03
7.055353969907078582e-03
1.263870763128533692e-01
2.325886975719951288e-01
2.691442202106624770e-01
3.009123204830227993e-01
3.927983848868124572e-01
5.199977478590326330e-01
5.919189796496896472e-01
5.231298288557587606e-01
3.277294343126290199e-01
9.667748673501223855e-02
-1.131738673312747273e-01
-2.733387183031757983e-01
-3.568118378222707721e-01
-3.452568025893322234e-01
-2.482920178017430091e-01
-2.040037293463768386e-01
-2.907535514509127506e-01
-2.007224401097049971e-01
2.215117855412706838e-01
3.944721515197339157e-01
-7.487666220919189652e-03
-2.092064896131568263e-01
2.338483113118195456e-01
4.113921038541051289e-01
-6.455386170710832039e-02
-1.621861553254859423e-01
2.445996215388606121e-01
1.022112859419310460e-01
-2.818288902342797608e-01
1.129587582429455450e-01
5.887733338327088006e-01
3.243065767750274997e-02
-7.327325359263344717e-01
-3.895563334618175055e-01
3.141528471303254300e-01
1.489708703190731343e-02
-6.156129194659144543e-01
-4.999120627033067366e-01
-2.494100040372634886e-01
-4.045986894123351774e-01
-4.306965079861201917e-01
-3.020106808110221697e-01
-4.378602037270624692e-01
-5.729834292920148453e-01
-4.529391314670017099e-01
-2.667617348911557884e-01
7.693704253973913942e-02
5.441334412595505432e-01
6.502607031485484468e-01
4.322217479661438766e-01
4.482388555001336483e-01
7.231040549211656954e-01
7.319993389304293441e-01
4.428760341463554573e-01
4.182153356056178550e-01
6.426716110607326726e-01
5.877611530235484771e-01
3.363884512178589858e-01
2.413600630302512873e-01
2.604779157967616054e-01
2.931674589931810848e-01
2.149474727839966182e-01
-4.557431004333169222e-02
-1.588321989854701577e-01
6.904072594731941459e-03
3.671139469710822667e-02
-1.838906404394947403e-01
-2.732699202558080409e-01
-2.262676283693216273e-01
-4.730863143165739415e-01
-8.885343709027218040e-01
-9.297580820125704859e-01
-7.954684359280342898e-01
-9.598860017945620715e-01
-1.067385873624262738e+00
-6.732596255608925828e-01
-9.091489256787924078e-02
2.048650377683806090e-01
1.471582124694241211e-01
3.816664397224850402e-02
1.528845659956789838e-01
2.797949158568536210e-01
1.475057602090900644e-01
8.841985589695802727e-03
9.603716856876409746e-02
2.008360979571288396e-01
1.554525300772265639e-01
1.312214202290795939e-01
3.756818880412998718e-01
7.186153773682905088e-01
7.427952275410062422e-01
5.571118658229402554e-01
5.145735168800006365e-01
4.620038161369579011e-01
1.743168164580420343e-01
-6.088535516006247927e-02
1.253458129164164436e-02
5.757382322431917054e-02
-1.592784313448675770e-01
-2.509713413580366703e-01
-5.786814808461462900e-02
7.267178680372958499e-02
2.827862920887371304e-02
-5.020657740423246918e-02
-1.006848576590218258e-01
-7.740422650780334757e-02
-5.510387122819529471e-02
-1.701948738451695697e-01
-2.901410486950772860e-01
-2.315555678476933776e-01
-8.663689635227656005e-02
-1.944863691174047310e-02
-2.964275032662655462e-02
-1.087293482557439434e-02
-2.287851859051587278e-02
-2.315227643424024873e-01
-4.316568419825412284e-01
-3.326691375218903124e-01
-1.327589039835900819e-01
-3.875584030633695554e-02
-5.212562456854627491e-03
-1.265103706881404166e-01
-3.132014920102860200e-01
-2.211074703979002964e-01
7.112960930646827773e-02
2.497042273936283807e-01
3.026154505642318915e-01
3.002300481083490791e-01
2.218699952920953622e-01
1.030851856130983457e-01
1.639798224508608876e-02
-2.246941904592884495e-02
-4.533176416200398323e-02
-6.243508597092741613e-02
-4.434705226958038371e-02
7.880258482833232825e-04
2.489879764500975423e-02
3.754858728242083110e-02
1.075270627053908357e-01
2.393150414375927182e-01
2.865366272528835911e-01
1.582208578007053279e-01
5.777131313564667220e-02
1.479627139508329359e-01
2.388155441733639528e-01
1.736049976037624676e-01
6.035662332345281822e-02
2.349866635244994562e-03
9.406834226510368824e-04
2.207020125133105776e-02
1.045014022251644636e-02
-3.450997733853427424e-02
-4.797677222737678493e-02
-2.075389616896711892e-02
-2.058915044502861169e-02
-8.327904758006950126e-02
-1.560826546641796431e-01
-1.798297248115490465e-01
-2.275901647473295986e-01
-3.739179359048881435e-01
-4.238650838666532250e-01
-2.392181645984552130e-01
-1.154188526395714121e-01
-2.187491278723708854e-01
-2.597515336772296957e-01
-1.295339011681431729e-01
-3.332464476451838659e-02
-8.570428601273605285e-04
7.047905131138303136e-02
1.457190697342110597e-01
1.627212568787969049e-01
1.521828092919770559e-01
1.425888538405126749e-01
1.325316777908169263e-01
1.606888333181075712e-01
2.463233087008505073e-01
3.045847851410631857e-01
2.608528191968650378e-01
1.532681673543100642e-01
4.474014020476776987e-02
-1.968379954548981486e-02
1.000592582853257473e-02
1.223992079695490759e-01
2.305280736198770664e-01
2.644258041900344192e-01
2.267813563876209526e-01
1.687116790479006589e-01
9.753734879929906731e-02
-3.763657542588223770e-02
-1.933990100120906164e-01
-2.548135275663157007e-01
-2.843614919793742146e-01
-4.055989138127906735e-01
-4.714868064880363141e-01
-3.095153215960854687e-01
-7.963473227938243360e-02
3.930597392275014812e-02
1.198702478917414022e-01
2.038153536602522742e-01
2.060780915749989006e-01
1.100977003821618505e-01
-7.885474314446172528e-02
-3.344354738136436356e-01
-4.594078259422200716e-01
-3.520218307543490077e-01
-2.097318519682434546e-01
-1.499916547596589766e-01
-9.815844686268923591e-02
-6.006089845204325151e-02
-7.496963188544096546e-02
-9.651315603068037763e-02
-8.110669331707109908e-02
-2.969087176931855393e-02
3.219576878365171257e-02
8.154934630437113419e-02
1.332638679548128202e-01
2.104340161499463902e-01
2.979121928423346111e-01
3.615619276405358518e-01
3.933706241895639777e-01
4.169271646889511351e-01
4.478692885258755418e-01
4.735929426647468854e-01
4.696734972421197640e-01
4.131828231847609056e-01
3.212308518663679613e-01
2.632988938530148593e-01
2.525695944934125969e-01
2.173191221362208714e-01
1.615597118673338939e-01
1.606124725234086281e-01
1.684939723414021484e-01
8.038168042876282782e-02
-8.880937419441556346e-02
-3.059490333986950028e-01
-5.907844017684993343e-01
-8.923726153410054263e-01
-1.110098166841609446e+00
-1.167856407197402691e+00
-1.060443533179006526e+00
-9.025511902196622360e-01
-7.556794857786833797e-01
-5.541348083935528912e-01
-3.052576812292150388e-01
-7.659640126233593915e-02
1.135119605873182169e-01
2.477678125824433475e-01
3.388384428590086039e-01
4.359046760027621148e-01
5.106748270454397609e-01
5.178840118768445189e-01
5.190117897807795533e-01
5.679893720894574338e-01
6.106512097797112126e-01
5.938518905983336538e-01
5.324758789280321647e-01
4.649857612913597116e-01
4.067110614493124610e-01
3.269703159560720662e-01
2.222817796581519900e-01
1.398266517693754485e-01
2.581452704783268604e-02
-1.885517200720042419e-01
-3.355883432913441267e-01
-2.684274822460146481e-01
-1.677159416818776172e-01
-2.020007834727203799e-01
-2.763444608495344013e-01
-2.928175958127765544e-01
-2.865910293604327364e-01
-3.003940708710410856e-01
-3.071189459081714590e-01
-2.645906325051066710e-01
-1.904308648234314671e-01
-1.077006757746424848e-01
-1.950575373748084096e-03
1.030087778672477694e-01
1.619169544528804572e-01
1.801521973669395482e-01
1.714995440764690016e-01
1.268810774529081642e-01
5.524817030656298256e-02
-8.197472727085160227e-03
-3.873678948715687798e-02
-4.344015530551088855e-02
-3.551802418951855583e-02
-1.001401190785165471e-02
3.311328073875821620e-02
7.488681216997479517e-02
1.125820962738872111e-01
1.646996135633375657e-01
2.090247982069419752e-01
1.843682676159917599e-01
8.392316320032991439e-02
-4.017394578129003524e-02
-1.531567893544309444e-01
-2.382152363619511048e-01
-2.770459837161360350e-01
-2.704097916378032651e-01
-2.310624784641141238e-01
-1.651511217795555986e-01
-8.261223994930144698e-02
-9.895100612105842131e-04
6.820243504362044629e-02
1.142998462508878071e-01
1.236744693999901890e-01
1.084652466562020523e-01
9.837096652604709890e-02
9.192674034423513330e-02
7.732102571862471685e-02
7.256042410910129581e-02
8.542760484712542957e-02
9.113136629929585730e-02
8.276148028253541011e-02
8.609216525082163951e-02
1.011757468383934766e-01
7.993553944903512842e-02
1.063108428154496340e-02
-3.108871106821790159e-02
-2.939400503542775184e-03
9.128643707624565368e-03
-5.747537287615249457e-02
-1.122844688135598290e-01
-8.501910075342880568e-02
-5.726897554675083879e-02
-6.957228037537536991e-02
-5.123727669215068226e-02
-6.453221202983988602e-02
-2.115499939340921010e-01
-3.089695823817211751e-01
-1.940342609605806290e-01
-4.740043436919759434e-02
4.860659935384363528e-03
5.711577660858449534e-02
1.299819544662927095e-01
1.755998994440036709e-01
1.949455550105971824e-01
1.922575810112617245e-01
1.689097629172962300e-01
1.321490185499878678e-01
8.126276808929285000e-02
2.782540148324351426e-02
-5.588189251786595396e-03
-2.308053138280690558e-02
-4.660217021968325601e-02
-6.964992157937890949e-02
-6.867587707780317685e-02
-3.696740172376598854e-02
2.009137872107908535e-02
8.793924963437743658e-02
1.508073856154152625e-01
1.892074252271960244e-01
1.647383925854974951e-01
7.142389101575492838e-02
-4.622309623323010014e-02
-1.614953040778884796e-01
-2.634717499471064261e-01
-3.338957109924490241e-01
-3.633363480120773703e-01
-3.313549586521160606e-01
-2.392715700483404317e-01
-1.381619315621404054e-01
-3.857343977233731319e-02
8.294997766733919198e-02
1.825456679207258792e-01
2.060483768675944183e-01
1.813711734974922940e-01
1.470033893919481527e-01
9.175063519740528362e-02
2.937958277551636771e-02
6.328089937902719314e-03
1.225602767263633125e-02
1.844003290915832011e-02
5.767188002430907734e-02
1.365976837375013631e-01
1.834601738648480584e-01
1.859351624617444909e-01
2.044297192608482416e-01
1.783069861554597846e-01
6.523688417223783009e-03
-1.701900035638609365e-01
-1.752857447049030459e-01
-1.234773643491087758e-01
-1.480994575252053969e-01
-1.673036204808795724e-01
-1.324934301684306259e-01
-1.016554701619258039e-01
-7.656213241686821158e-02
-4.258239003083942598e-02
-3.119818482001633989e-02
-3.458375984075727494e-02
-2.243877280595425044e-02
-1.748414564517020153e-02
-1.610662319508568072e-02
3.604498966970279272e-02
1.145030875752156563e-01
1.515584173395954082e-01
1.704700559391545134e-01
1.969799224334327359e-01
1.720449276624430035e-01
8.485475044858185878e-02
4.177011045844090248e-03
-6.390009574190602670e-02
-1.592560169553739191e-01
-2.392472317661135939e-01
-1.954381766372275675e-01
-1.085917468032254751e-02
1.510576575555838685e-01
1.692388962895059190e-01
1.593248375412473217e-01
2.046138548445100291e-01
1.910696535069207891e-01
6.607939606294624402e-02
-8.689669429664009792e-02
-2.188686936563032370e-01
-3.382356563541635830e-01
-4.243690488294307173e-01
-4.078229938187135639e-01
