-1.826793188496831366e-01
-1.521308647694706306e-01
-1.224719728157017407e-01
-7.057550149088041846e-02
-2.450473652492695525e-02
7.069558577147846967e-03
7.330429336376301230e-02
1.465505518007907126e-01
1.486280770709768606e-01
1.388428384071896116e-01
1.665005690523433668e-01
1.169404986881835279e-01
3.985659156711262446e-02
1.392845225958669053e-01
2.795726836589038089e-01
2.101418002488077974e-01
6.606394661651678046e-02
2.595785726016554273e-02
5.489381524613631824e-03
-4.695344755597132685e-02
-8.081690972074527524e-02
-1.018606742481695110e-01
-1.333930028403906565e-01
-1.759588052481845244e-01
-2.217645848918321505e-01
-2.358579362044462280e-01
-1.918748028819093898e-01
-1.125891443792886443e-01
-4.067484374992716423e-02
3.238692882903997788e-03
3.563479507857458123e-02
7.880711760543583633e-02
1.319386138469395842e-01
1.943517342085911703e-01
2.644075137443053780e-01
3.177615916411956065e-01
3.528304493460761582e-01
3.961097753244851027e-01
4.093793638682856617e-01
3.504020403002903739e-01
2.841323162081183518e-01
1.916440457166045663e-01
-3.962218966781375779e-02
-2.546797069153249327e-01
-2.276639965945917443e-01
-1.016740992642767433e-01
-4.123184560118624276e-02
5.496959719047134207e-02
1.683229077372071780e-01
1.327117663781267332e-01
-1.638646438996071292e-02
-1.606809206003076973e-01
-3.285133564078914770e-01
-5.290220988682399206e-01
-6.645429446474505619e-01
-6.975071083215034218e-01
-6.516221684117131652e-01
-5.330189917849722514e-01
-3.916030057850301005e-01
-2.835639926848133596e-01
-1.865939652884235356e-01
-9.346061817282415307e-02
-3.803650181068647662e-02
5.660718681885668069e-03
7.418912665220359082e-02
1.428067669705595510e-01
2.011550364921925738e-01
2.671876588516695072e-01
3.368852715178303203e-01
4.169462426890788165e-01
5.016999543078376478e-01
5.307234068523993820e-01
5.027708127828904860e-01
4.920908760931017034e-01
4.835603320940113359e-01
4.046509811073828455e-01
2.885218075293550788e-01
2.060540723391542928e-01
1.448486800464999225e-01
8.573363440254330725e-02
4.079807940113963638e-02
-2.239730602684220084e-02
-1.290795238788393640e-01
-2.359953293542734198e-01
-3.241080001623756757e-01
-4.079215269451170744e-01
-4.487128246910718210e-01
-4.147148182716894338e-01
-3.493601793641315512e-01
-2.888916246156599255e-01
-2.255801044199667038e-01
-1.503211444640415451e-01
-7.473241597618052179e-02
-4.308901913219602420e-02
-6.278873287147959670e-02
-5.966338060074560801e-02
-5.532329325953162791e-03
3.632760419513428318e-02
3.720944896246348998e-02
3.873821165010426365e-02
6.418779629709928103e-02
7.293758307937170393e-02
4.030830030710837869e-02
2.439643346515092681e-02
5.839608967443009335e-02
9.610288109194556339e-02
1.534613513554193287e-01
2.947264121444178597e-01
4.394760120928396518e-01
4.329887104739956749e-01
2.969025772493953386e-01
1.781483307470247412e-01
1.005746022039309961e-01
-3.563965406568343069e-02
-2.371440140043040157e-01
-3.624263860490603562e-01
-3.554463120902593420e-01
-3.363669089893658870e-01
-3.096170682640481120e-01
-1.575856328938864959e-01
-4.517211519865482403e-03
-3.881838617347096315e-02
-1.298889850712848237e-01
-1.018373094678916291e-01
-2.909323612716470386e-02
-2.959556929821247073e-02
-6.784320518906714059e-02
-6.906057220067479685e-02
-7.048076006832568186e-02
-7.160504959059800500e-02
3.134868327349105144e-02
1.826702171372968364e-01
2.290055825146827817e-01
1.938195526865141571e-01
1.782097650963553881e-01
1.930040610144765911e-01
1.994113832215065607e-01
1.947971509402535717e-01
2.052094380756367964e-01
2.026986104649620146e-01
1.471724863055907662e-01
7.884325249750323561e-02
3.182635971614711234e-02
-3.552724116382901393e-02
-1.417573568754216806e-01
-2.390512273053134185e-01
-2.813333343876948112e-01
-2.596071463688455205e-01
-2.026632619858872997e-01
-1.562921194453945062e-01
-1.241315069022268514e-01
-7.788974523550730444e-02
-2.794325036894168210e-02
8.022197812346205936e-03
4.192254930312758199e-02
5.476701590328071634e-02
2.759091119084009641e-02
9.501578268681101780e-03
2.010802115576982088e-02
8.749878633025287566e-03
-7.473668978903403801e-03
2.702912038678452131e-02
4.781882382525579761e-02
-7.859740720556365051e-03
-5.040876085678182295e-02
-1.556938149758294206e-02
4.637608781311595985e-02
1.337018275427968028e-01
2.673496136243851407e-01
3.597291280452352691e-01
3.331824920025647785e-01
2.322650210905053692e-01
1.198746090283416693e-01
5.516391456225087919e-03
-1.318507953292995527e-01
-2.778227461472463355e-01
-3.645230681000692363e-01
-3.895746144425463742e-01
-3.712988620782367022e-01
-2.593346011862863176e-01
-1.039990224247877570e-01
-3.045196151766426523e-02
-4.003976673951509246e-02
-4.804960301324469329e-02
1.111256064645455011e-02
6.720151961029283139e-02
-3.870770044536571419e-03
-7.628834726493791130e-02
1.408955980020990852e-02
1.298635669513815427e-01
1.562704962077900439e-01
1.781937370140997123e-01
2.031048019450601982e-01
1.805694811493723240e-01
1.433969099512750200e-01
1.270230588310234110e-01
1.341209125261423607e-01
1.604354742142945767e-01
1.694947072452718806e-01
1.262684704483715836e-01
5.856724686840300564e-02
1.849268149692417235e-02
2.126675582148795929e-03
-5.247288413215474290e-02
-1.674245153300621125e-01
-2.657530997050694954e-01
-2.812676671603558942e-01
-2.667623753908476836e-01
-2.796423862567422036e-01
-2.552039225324670979e-01
-1.486696572769180547e-01
-5.059988116415013032e-02
-1.405080270959346844e-02
2.718081709342575619e-02
9.711511918446007197e-02
1.309855428286810508e-01
1.034981648037797686e-01
7.248605740619959437e-02
7.189035837701120146e-02
6.379194803218821153e-02
4.069932810072506013e-02
3.797281129903182922e-02
3.177206995727112349e-02
-1.030894493102144441e-02
-3.138139268161246886e-02
1.546576456108903624e-02
7.630480042407958297e-02
1.179275912774852275e-01
1.912253961858684237e-01
2.909068943992907386e-01
3.279986623386258460e-01
2.648375431989674067e-01
1.336651977009369885e-01
-2.285490406428197785e-02
-1.550061543337381831e-01
-2.350158762915423305e-01
-2.851721637426216649e-01
-3.141893264618213499e-01
-2.903528939399326880e-01
-2.251708918139446181e-01
-1.823304891032377639e-01
-1.712916201788567405e-01
-1.477493502373070089e-01
-1.121550780761747107e-01
-8.519296703925022252e-02
-4.420454747485089847e-02
2.077699530805601075e-02
7.540089829706617119e-02
1.059191994669216874e-01
1.392874190721534733e-01
1.852935995105021993e-01
2.088733101604424713e-01
1.938091327844351508e-01
1.849957173965025570e-01
1.952145023167732862e-01
1.662669282949908456e-01
1.037611902873641634e-01
7.619694594090993534e-02
6.682507087573631710e-02
3.146105319452378868e-02
-1.149548756777953040e-03
-1.043300424309347163e-02
-7.560462959977198860e-03
-9.033093100015879978e-03
-6.897597641237798727e-02
-1.878015545597314373e-01
-2.543131974656521188e-01
-2.379413936387575756e-01
-2.378435710759929100e-01
-2.626904174011814863e-01
-2.149307568303433225e-01
-7.998134983539011145e-02
5.566369435699744517e-02
1.191419460605227659e-01
1.075512382455148519e-01
6.655652846537891965e-02
4.093495278813173710e-02
4.109482086627141290e-02
4.723613525948960196e-02
4.812431079001854017e-02
4.687141868589308341e-02
3.571524269488116077e-02
1.204796147925690439e-02
-6.063053629419700927e-03
-4.937451418303328426e-03
-8.635464085618899804e-03
-3.443948349622117516e-02
1.712797682222833712e-02
2.319386182588838996e-01
4.369785998105963909e-01
4.340182327105399085e-01
3.232758970141786370e-01
2.509267145397544585e-01
1.659481977116173956e-01
1.774498846876123442e-02
-1.270312025325132099e-01
-2.187122348300007402e-01
-2.890952069484214459e-01
-3.546357230554560980e-01
-3.749218264302968118e-01
-3.478375756608023672e-01
-3.175732339550029204e-01
-2.777592397168642813e-01
-2.000850249832545336e-01
-1.181606231974845489e-01
-7.300253862422095841e-02
-5.075373743469375337e-02
-2.367901464605987050e-02
1.906947458449167326e-02
3.499751719881841194e-02
-2.425332444832761086e-02
-1.449888054462250553e-02
1.991611233163684824e-01
3.556797817579318011e-01
2.528452861991757894e-01
1.659594720559489922e-01
2.324611500645084317e-01
2.356912316256615514e-01
1.498953069442510999e-01
1.144424092295102668e-01
1.012620724930302502e-01
2.457176654518780645e-02
-5.630378692133557877e-02
-2.507846193789066425e-02
5.217705841816213524e-02
1.677033024580685747e-02
-9.417874858384706060e-02
-1.537734564594187003e-01
-1.583401484443389129e-01
-1.495995722582935672e-01
-1.316059849945465932e-01
-9.726983858792134785e-02
-4.855192528526131729e-02
-7.968346595367100521e-03
7.662036859678228451e-03
2.659812483794874241e-02
7.431375785297568426e-02
1.158222706951197722e-01
1.113376246937344827e-01
7.857742912215669173e-02
5.170007787796156162e-02
2.193313671405838078e-02
-3.484816509202094681e-02
-1.074934694103311383e-01
-1.759808398513048877e-01
-2.210999759485751948e-01
-2.197385169394547311e-01
-1.865645871269584477e-01
-8.981281410916899799e-02
1.483589016466377863e-01
3.919108783639801974e-01
4.164443360605398770e-01
2.914993851987774942e-01
1.530000014359250426e-01
-4.637769833064035729e-02
-2.321680635525414094e-01
-2.591346779728276872e-01
-2.453095799251883147e-01
-3.108227417718713581e-01
-3.279766200485804695e-01
-2.419674909541489893e-01
-1.848958567499890404e-01
-1.444694911741376542e-01
-9.977750487524909839e-04
1.220995292623904827e-01
8.777830570404202004e-02
6.061902026304929331e-02
1.455471839604148832e-01
2.359260758345245734e-01
3.157323229737278858e-01
3.933667117248458300e-01
3.951439683415554072e-01
3.552184405210032092e-01
3.532604335214655777e-01
3.425619683378139935e-01
2.764765473956111719e-01
1.901547042990550107e-01
8.814153082326309230e-02
-3.761598144390243537e-02
-1.290476682390945262e-01
-1.531471680889583409e-01
-1.606967529647663762e-01
-1.946764120405053977e-01
-2.520869530771232547e-01
-3.183192532316723167e-01
-3.737527544758734721e-01
-4.145525954786880019e-01
-4.641506026442402955e-01
-4.980265424424525356e-01
-4.458908829825881659e-01
-3.310478694468621530e-01
-2.325499331060857100e-01
-1.317992863981808649e-01
-2.998012239146446989e-03
9.576019075120567603e-02
1.463184200271843982e-01
1.790329674982649166e-01
2.008991663212501555e-01
2.382203603235549527e-01
2.944513164270306516e-01
3.043166918260331033e-01
2.588044002119738174e-01
2.247275355730342372e-01
2.076420189336573852e-01
1.609151244408568715e-01
9.813812697996353307e-02
6.997768723299674365e-02
7.858627947710737638e-02
9.549135433423092123e-02
1.349861301225987464e-01
2.351110673846293631e-01
3.473779430589460926e-01
3.537931731804228597e-01
2.279813996373961094e-01
5.535230829252495849e-02
-9.381256696165642117e-02
-2.103246518927198716e-01
-3.091393589924668062e-01
-3.928497522611064663e-01
-4.308335601373199375e-01
-3.979771782223085475e-01
-3.339191980081132050e-01
-2.954545727773351671e-01
-2.735459691689451911e-01
-2.346107208468216909e-01
-1.778797518925367693e-01
-1.053650305332510251e-01
-2.981944626233738738e-02
1.303862737325223176e-02
3.947576914811017079e-02
8.835093595446630310e-02
1.148477787157010377e-01
1.030242138498982662e-01
1.426432871087535970e-01
2.259221663984462281e-01
2.476769473196118176e-01
2.193301308284020257e-01
2.091458631542726376e-01
2.211922175464003937e-01
2.399250671116429923e-01
2.442279875102151554e-01
2.233980389545517642e-01
1.901289561724325561e-01
1.389453445587939262e-01
7.431691084197658559e-02
4.787788870881236336e-03
-9.780555134600998901e-02
-2.079306419087067759e-01
-2.842357322585469803e-01
-3.718637755968089431e-01
-4.242935295912818594e-01
-3.263955797654133351e-01
-1.766246323269441976e-01
-1.173329761876159838e-01
-8.202879833940449061e-02
-5.691995907600347349e-03
4.662934881676866067e-02
4.649261358380580439e-02
3.753635145510870325e-02
3.676260634178803166e-02
3.659322759905717787e-02
3.683055565076924498e-02
2.506604422713867159e-02
4.287046217615778781e-03
9.066022097226162854e-03
3.166683037321332828e-02
3.724655038933691320e-02
4.287061652272421142e-02
6.383859611832427838e-02
1.053613607204650915e-01
2.213280477134222379e-01
3.800537698703955192e-01
4.259446391504774221e-01
3.150771338087098861e-01
1.469466875671898431e-01
-3.860879232157374275e-03
-1.143807217714419011e-01
-2.005615177873244781e-01
-2.836514340811799872e-01
-3.226504179871499400e-01
-2.960790866430494384e-01
-2.639902949675573818e-01
-2.486885187248975559e-01
-2.097534042643017516e-01
-1.470200016076891325e-01
-9.296973808327448074e-02
-6.369432797492768916e-02
-5.464714423979109836e-02
-2.406704648225135162e-02
4.678530405026389005e-02
1.013885866869210783e-01
1.111379085114391208e-01
1.087609349617995880e-01
1.103374441154283125e-01
1.297721759475345960e-01
1.811227525039352249e-01
2.213898581924482745e-01
2.044417547933972679e-01
1.636791067925605359e-01
1.496954454960937042e-01
1.525334802843532622e-01
1.528958276680982276e-01
1.451075032862904068e-01
9.181037481295223346e-02
5.003383120561387398e-03
-3.016299857801473666e-02
-7.007881129560900035e-02
-2.305332606676647189e-01
-3.593231904444337266e-01
-3.062584655282944990e-01
-2.287943737085686990e-01
-2.127799315658544521e-01
-1.622820687295716269e-01
-8.912972516334730089e-02
-3.093339665388523257e-02
3.325508908822668447e-02
7.115486914650451244e-02
7.940347796913123368e-02
1.124380131728367066e-01
1.090115558774713556e-01
-1.524842991670070577e-02
-1.157500277227586083e-01
-4.877498765317146712e-02
3.580543679946743968e-02
1.361662836398354337e-02
-1.264234186301764484e-02
-6.700217862775154770e-03
-1.059826964822611038e-02
1.018326870372942249e-02
4.983874048821092945e-02
1.266880747661019990e-01
3.258161626355366991e-01
4.818218996776268970e-01
3.707308650296187724e-01
1.545214172018499199e-01
3.131949721822905458e-02
-6.561636353683739098e-02
-1.831047375720818438e-01
-2.821569851909944693e-01
-3.090478764323932870e-01
-2.295395893150376510e-01
-1.395564669920638934e-01
-1.052664932164203010e-01
-8.125528166542941855e-02
-1.034950859983705951e-01
-1.667295441930729261e-01
-1.478220642896318493e-01
-6.112043957068775957e-02
-1.750044803004644628e-02
-6.975022240960249142e-03
4.035384801246647696e-02
9.940309490318091634e-02
8.619170019958918849e-02
3.761086093501556094e-02
6.952135769255081421e-02
1.555836018908269280e-01
1.971389502386739490e-01
1.915640063334767829e-01
1.642349415277560565e-01
1.464167058156303214e-01
1.796400020780522522e-01
1.651719554320051075e-01
5.955926379415495825e-03
-1.078345484805188770e-01
-3.324353139031838156e-02
3.362133312910983718e-02
-2.335183807833546982e-02
-1.046380707195458115e-01
-1.840086158010580120e-01
-2.520349687401551297e-01
-2.529554542348176893e-01
-2.198907148162768388e-01
-1.979026360953750896e-01
-1.522798596672907678e-01
-6.962608044841475663e-02
2.094599229135694213e-02
9.668887732763620235e-02
1.232957246300719900e-01
1.023628255286311295e-01
9.948491777487744603e-02
1.189342554971890148e-01
9.868645388546193331e-02
4.840330928375068120e-02
1.689189573865419042e-02
6.389191626897265663e-03
6.891037961957788630e-03
1.843282040232272281e-03
-2.063981104624543206e-02
-1.926033345422277498e-02
2.951936036585784545e-02
8.138317391981374216e-02
1.404864974938514199e-01
2.431708134096007279e-01
3.076919133748042823e-01
2.554056823146315103e-01
1.554571913256097559e-01
5.679654875321045460e-02
-6.268809073672373944e-02
-1.736928853716715460e-01
-2.518067777258168327e-01
-3.116778320398747582e-01
-3.368420409044288188e-01
-3.162549728813934813e-01
-2.727994723856608239e-01
-2.214064016066032980e-01
-1.641911761334110820e-01
-1.009360604979480103e-01
-4.824533541478712162e-02
-3.783150662588741914e-02
-4.433268722692740305e-02
5.753970608197517267e-03
1.051762700208912216e-01
1.705383677959979583e-01
1.810626604090250225e-01
1.924585525822582466e-01
2.341864005990719200e-01
2.661740143489417232e-01
2.355077725953163004e-01
1.562846414078436219e-01
9.866051685109275549e-02
8.664777588116936990e-02
7.658981871758491211e-02
4.410781435833584230e-02
-1.916267662699408514e-03
-5.133609010091949587e-02
-7.327551649412417101e-02
-5.718401468019724404e-02
-5.350210719086211097e-02
-8.929061396807111417e-02
-1.308859545813304270e-01
-1.502741479757544185e-01
-1.483323443532429398e-01
-1.348326464774469713e-01
-1.102346281331357813e-01
-6.478121364846736729e-02
-1.704605252815414793e-02
-1.068862089818909539e-02
-3.498272575048280014e-02
-2.416079017804367499e-02
3.331661772477108319e-02
7.925816031169795328e-02
7.918451984204623317e-02
4.795348946134518620e-02
2.522702242984563997e-02
3.924861373573382273e-02
5.441517309735937474e-02
2.999699821568315578e-02
-6.696597595871115784e-03
-2.607639124030494693e-02
-1.500804973017023924e-02
5.122537912031834006e-02
1.480335298822557100e-01
2.297007938667796068e-01
3.028991869875509724e-01
3.415615213760118674e-01
2.743546474020541748e-01
1.197589412601529069e-01
-3.089216222955408486e-02
-1.325315938319068243e-01
-1.992795330207453586e-01
-2.611864489909208054e-01
-3.176079972736074453e-01
-3.298981722560038188e-01
-2.867976932241990684e-01
-2.252778195259913241e-01
-1.716095573245632888e-01
-1.236269948407454355e-01
-9.277885926567573660e-02
-9.013550326708869020e-02
-8.197083026896273550e-02
-4.912038058748048608e-02
-2.653532320098666436e-02
-3.032564707066604665e-02
-3.583517443752529813e-02
-3.090537408058438573e-04
8.834574965640407118e-02
1.425787655200850546e-01
1.123159006036982821e-01
1.140405285697397852e-01
1.984346555510342891e-01
2.319869140660223983e-01
1.636490484744025919e-01
9.257066299756488981e-02
5.808609085380849607e-02
2.512211266579581631e-02
9.028456848468174867e-04
5.338617775937491705e-03
-1.845624463581031771e-03
-4.902976733968010536e-02
-7.791334292817410356e-02
-5.627822511693720414e-02
-2.624036676163070403e-02
1.012108876510864341e-02
6.775154139175723622e-02
1.389916447743960726e-01
2.522834059535209450e-01
3.486686386562126705e-01
2.920788022530363959e-01
1.880399979701525282e-01
2.295618626259183503e-01
3.011049584226124787e-01
2.366333578278131122e-01
9.957610436469370441e-02
-3.059638844908888627e-02
-1.368109612788361851e-01
-2.075536828420260771e-01
-2.955586627166773006e-01
-4.430094051506192065e-01
-5.768971097656980795e-01
-6.058549832572528437e-01
-5.301379114860055308e-01
-4.067286832863484802e-01
-2.519882931476093990e-01
-4.770753264213950517e-02
1.462846472185626023e-01
2.213148705977874553e-01
1.757560685867752270e-01
9.225760750766738572e-02
-5.383664323275569319e-03
-1.232841124042972497e-01
-1.912319897176537331e-01
-1.689241196279084034e-01
-1.421739558692229344e-01
-9.984213622110127417e-02
7.415299448134460292e-02
2.478276511144680838e-01
2.264568568811640148e-01
1.511274552141016470e-01
1.809590334732789907e-01
2.285572389447022290e-01
2.252345903317751197e-01
1.950801667274670026e-01
1.613636072221071860e-01
1.478348274443579691e-01
1.475457678919673277e-01
1.437439777483981163e-01
1.417783965155345882e-01
1.351407037863938954e-01
1.222778914242864529e-01
1.037350933874354175e-01
5.737812846951496903e-02
-1.301142232800200915e-03
-2.438191632576438422e-02
-1.859826770315074068e-02
-1.690454150946781725e-02
-2.534626490041968355e-02
-5.544523659389136161e-02
-1.106038644830696083e-01
-1.643077247152595621e-01
-2.150480407380065961e-01
-2.721014251261876793e-01
-2.947506309436583316e-01
-2.626953511104381800e-01
-2.332880449519785793e-01
-2.086994276544084093e-01
-1.070846893800238842e-01
1.940052465489776334e-03
-3.330090741023575274e-02
-8.363456946032597761e-02
3.462917967875447228e-02
1.768676600479009153e-01
1.887666031155128266e-01
1.482930724410652656e-01
1.308378837241541692e-01
1.355523124937476620e-01
1.369180349442927214e-01
8.845875287447707569e-02
2.730345505686676034e-04
-5.860314575756669225e-02
-5.662433892150579851e-02
-1.543630507808326988e-02
3.890509856863939159e-02
1.152950220635832052e-01
2.322413277744728999e-01
3.352846917026146567e-01
3.356888383292971900e-01
2.301259261885248986e-01
7.467933123005479623e-02
-8.453150473784384888e-02
-2.049669335265278947e-01
-2.757683774161873158e-01
-3.272038347641227363e-01
-3.565814414383897124e-01
-3.222005100080491680e-01
-2.333480018418990776e-01
-1.666322740273969982e-01
-1.561875269362790475e-01
-1.409522492317396014e-01
-7.681123040363180277e-02
-1.187476424666977781e-02
4.760766708803126912e-03
4.916891464567994807e-03
4.667844824375749768e-02
1.221314319720316066e-01
1.638817823919862804e-01
1.479955785768521659e-01
1.387579403849397708e-01
1.865195794620507219e-01
2.432140006899677631e-01
2.459607088599983227e-01
2.108573530995275780e-01
1.765937698516907017e-01
1.489392658142727477e-01
1.393881618497888608e-01
1.465240298636460436e-01
1.236016188567606588e-01
5.562789385516792029e-02
-1.674999976655682649e-02
-8.436008054176347137e-02
-1.730468430783766443e-01
-2.634884361657371943e-01
-3.074457273339421537e-01
-3.106889197092340127e-01
-3.025883881805929154e-01
-2.585530674056322753e-01
-1.666894584440184179e-01
-8.604849693564955992e-02
-3.506375114924575181e-02
2.771605596323215015e-02
9.047921624426340237e-02
1.145004020629816766e-01
9.902269207245070759e-02
5.839569756571107162e-02
2.033130774808491331e-02
1.104585474395261037e-02
2.452917099422982986e-02
3.883072243829996384e-02
3.721981474650619404e-02
2.286267501359001350e-02
1.881228461902533650e-02
3.284385176118844590e-02
4.135999562742126434e-02
5.667379799018712472e-02
1.541801401054311016e-01
3.099584918106791931e-01
3.601343601918827186e-01
2.593872812531174410e-01
1.245064475852136893e-01
5.292395833281046680e-03
-1.123859378799492437e-01
-2.223083424191470980e-01
-3.312533144887452319e-01
-3.588691611608148535e-01
-2.160647461524154989e-01
-8.533959426580528529e-02
-1.426233208280121567e-01
-2.170803404369121836e-01
-1.638018455617777369e-01
-8.063778074326202749e-02
-2.985887536012644949e-02
8.712275297785586348e-03
3.002376350908720487e-02
3.746739764904086223e-02
5.292082651489170286e-02
7.947728834529917130e-02
1.112582909480714782e-01
1.504858126861894907e-01
1.779875494470725406e-01
1.746822328193113061e-01
1.727320999764475618e-01
1.787338739902201989e-01
1.500815556721539767e-01
1.102163410572539054e-01
1.096278296175494382e-01
1.159215041137840185e-01
8.543263038028493794e-02
3.453365123967419570e-02
-1.539652405429620119e-02
-6.521614096465058741e-02
-1.196439800912878770e-01
-1.878479634074840254e-01
-2.680834307948566364e-01
-3.271628140241644167e-01
-3.218799969588260756e-01
-2.513775891074556124e-01
-1.670808329215661414e-01
-9.404407551392607312e-02
-1.126792942827349597e-02
4.635939460976504917e-02
2.677556217867099048e-02
2.460151076946408971e-02
1.316719977554009491e-01
2.019545822709793159e-01
1.323446647262546960e-01
7.253260176933312708e-02
7.775681584603054419e-02
5.302096639269630873e-02
2.853430917417401624e-02
5.138218752407671536e-02
5.252666612099088361e-02
1.199687888098518139e-02
-4.845574843346606153e-03
2.914189848111633369e-02
1.088737526269258904e-01
2.291850069661489631e-01
3.162417759995863609e-01
2.817775029380486518e-01
1.682315118883419558e-01
6.179612839953906728e-02
-4.881020645229859622e-02
-1.739630670139094282e-01
-2.550932446168441281e-01
-2.753082672295393829e-01
-2.662278811941981571e-01
-2.283903895550130347e-01
-1.821201162083200820e-01
-1.828206153671861622e-01
-2.078813901480618676e-01
-1.872375618176994327e-01
-1.321941038055210182e-01
-9.509984822074971089e-02
-7.249357032212382090e-02
-2.090417299881577873e-02
6.947681972383551452e-02
1.425615868809912701e-01
1.549980765367991453e-01
1.515485742409746206e-01
1.843789192072612382e-01
2.303671873039401241e-01
2.468795926944138963e-01
2.256026853540449295e-01
1.830365576774324876e-01
1.464441427664080753e-01
1.356407733924913095e-01
1.465438006437207175e-01
1.338469901297419107e-01
4.458346654357511069e-02
-8.469306810541141206e-02
-1.686542644728860618e-01
-2.079472961369469575e-01
-2.461838358255309944e-01
-2.828205895473506204e-01
-3.098993901577219434e-01
-3.153690418316267285e-01
-2.604696560151331108e-01
-1.381540597096323486e-01
2.671476467302522084e-03
1.145818902232889069e-01
1.726930465473966725e-01
1.635497612341468843e-01
1.034999747812283405e-01
3.540625281237383404e-02
-8.658537148189994134e-03
-1.353371072024996298e-02
2.213447711501578472e-02
6.455600222119918519e-02
7.946808670770919014e-02
8.720270190271305066e-02
9.818615668801350393e-02
6.973675710790114279e-02
1.098556203917911214e-02
-1.086651913583328022e-02
7.999449293586376186e-03
4.755371409713896047e-02
1.560611445751088067e-01
3.260527522638014264e-01
4.050465541073418607e-01
3.047136224429593532e-01
1.382158883332164079e-01
1.141601040238359593e-02
-9.059617755887391932e-02
-1.742265102084233630e-01
-2.754763887331269090e-01
-4.460914091021563888e-01
-5.392039332254958683e-01
-4.120152259301150810e-01
-2.385300219032744917e-01
-2.003614667990703258e-01
-1.689548154775836197e-01
-1.445339313110172857e-02
9.859785160473436005e-02
2.834118816371085370e-02
-7.411478726903694692e-02
-5.875343158530926813e-02
3.394611655631571412e-02
1.162629838518665082e-01
1.531228999134965629e-01
1.913632524646518840e-01
2.504522037144002455e-01
2.457032665372532176e-01
1.741949808906529951e-01
1.354960842608417815e-01
1.298002035574602198e-01
1.080259963227075681e-01
9.639540710096830556e-02
1.032710254811940731e-01
7.679784273312433018e-02
1.184974047959249516e-02
-2.558112782688221759e-02
-2.206215080784842270e-02
-5.742415312764739127e-02
-1.407123078674042960e-01
-1.728885303407759477e-01
-1.311513304137809921e-01
-8.671682625217408402e-02
-6.660990379226883196e-02
-5.414624524741038641e-02
-5.121337435298043556e-02
-5.106956181450357513e-02
-2.733287694984888605e-02
2.888948496823435380e-03
5.036297073930932899e-03
5.962787315140948702e-03
2.189136906735990318e-02
1.522731699255416328e-02
-4.701496078698691114e-03
-7.953689756391520496e-03
-1.167941429768403622e-02
-1.725413324885004263e-02
-3.110669595001078203e-02
-9.470837914077967490e-02
-1.761334779517445270e-01
-1.893690904679256048e-01
-1.353572011846006229e-01
-6.648322855866808934e-02
3.254102686325452409e-02
1.879844448044108163e-01
3.239627651837847511e-01
3.367263229862105245e-01
2.283165527024751673e-01
7.908003136862698512e-02
-4.701138630560691700e-02
-1.252342779280634089e-01
-1.505940360070230355e-01
-1.178944976102666853e-01
-3.357621702203864023e-02
5.858352045786369144e-02
1.336002602521882965e-01
2.153028892891954427e-01
2.767502906663927842e-01
2.623262640107672516e-01
2.108725477246365942e-01
1.735964312111220598e-01
1.159893442468669933e-01
1.559852825734587764e-02
-8.516924946946693997e-02
-1.582926120896053501e-01
-2.202508881638927940e-01
-2.713004947038964443e-01
-2.847893928784801520e-01
-2.664167373690995433e-01
-2.416856190671390348e-01
-2.074266725966124048e-01
-1.511267612397315108e-01
-8.216220195328428899e-02
-3.427488036436358854e-02
-2.699660331633400162e-02
-2.915201331250986960e-02
-1.802960512760282824e-02
-2.394041025831726566e-02
-6.034582927552070014e-02
-9.704838905686215267e-02
-1.136622554513345290e-01
-9.985869529299219727e-02
-4.787687963076835140e-02
1.396837196560747271e-02
5.599013440304666245e-02
9.884816623451461726e-02
1.633612129456942230e-01
2.300539309219751249e-01
2.774535019176880835e-01
2.912435113978401602e-01
2.618807178171863592e-01
2.247256534431864572e-01
2.053714028261391933e-01
1.466786105775393922e-01
6.918061110469617137e-02
9.424956067677064953e-02
1.387392893131230709e-01
1.822147409474707963e-02
-1.752651164019830565e-01
-2.504427583270290025e-01
-2.116569723768437772e-01
-1.370861185333628329e-01
-3.896321035482028933e-02
8.394470944130129342e-02
1.829179228488641840e-01
2.083354605204029431e-01
1.635964854195882945e-01
6.036868463398781248e-02
-8.083107904304975833e-02
-2.053647918793942151e-01
-2.814104508254675063e-01
-3.218630482752906086e-01
-3.431419251005882742e-01
-3.330271013276227543e-01
-2.720382866574084235e-01
-1.828365517228796033e-01
-9.840709954594697995e-02
-3.057302502974285074e-02
6.971706520443168853e-03
2.386484523737054941e-02
4.261662718389791493e-02
6.109731427369444190e-02
8.497747576230940680e-02
1.215066277525780336e-01
1.555693654951870175e-01
1.772951879525760943e-01
1.879974605843750535e-01
1.966279895552194290e-01
2.111463321767830525e-01
2.119971091928230522e-01
1.766623761097232403e-01
1.260876556429222362e-01
1.003229751680593945e-01
1.026353144916448690e-01
1.092921252691001210e-01
1.060233734389517679e-01
7.769664120720311262e-02
1.524086397427088652e-02
-6.242651561854615366e-02
-1.424860175482615121e-01
-2.259005379860679896e-01
-2.880829911991407144e-01
-3.054681136345349657e-01
-3.003139575041697817e-01
-2.758762659599159339e-01
-1.871420092618346354e-01
-9.315952478684898230e-02
-1.107430862875704441e-01
-1.379259479106850483e-01
-2.439634919846847202e-02
1.169371007710813537e-01
1.582642964029737642e-01
1.510671376727281134e-01
1.298592145287035815e-01
9.384810833314102818e-02
8.771498458510845753e-02
1.132570859360700344e-01
1.048800338081753991e-01
3.279824337234966275e-02
-4.504009215914372283e-02
-4.618265222632592093e-02
3.022228027664046468e-02
1.047457374547823006e-01
1.619556482160461608e-01
2.698125071427057708e-01
3.834766803063294205e-01
3.511611346266738654e-01
1.758327488329619326e-01
1.053030498645057128e-02
-9.818336955698818425e-02
-2.052972066069461698e-01
-2.870930941310887996e-01
-3.145156843583357120e-01
-3.443849009566001818e-01
-3.390457418533944223e-01
-2.105221372569281157e-01
-9.082503381005294085e-02
-1.157003836947554931e-01
-1.559044458994571225e-01
-1.129445485146553657e-01
-5.924933971364953339e-02
-1.685974873545756370e-02
2.949048676369644961e-02
5.093539764071715326e-02
6.188760058915578066e-02
9.756811807286153160e-02
1.221165384990648833e-01
1.062566677037691948e-01
1.063298044375345502e-01
1.583411768675049014e-01
1.977196076306600714e-01
1.791919693127537738e-01
1.664934473643668866e-01
1.985916525683689149e-01
2.039034670306766606e-01
1.425562832028240690e-01
7.942451674945917584e-02
5.744908983891951204e-02
2.828920812483030900e-02
-4.856578919634129549e-02
-1.378887310791825360e-01
-2.041869434694572882e-01
-2.443178734071924929e-01
-2.414105340175781711e-01
-2.095718784987742334e-01
-1.804548434645895927e-01
-1.152527329193601263e-01
-4.264419590838912366e-02
-7.537113653562836635e-02
-1.206605228755987941e-01
-1.444933815496545274e-02
1.279213641794542944e-01
1.281244733204734698e-01
5.416134039559631491e-02
5.948433990160455903e-02
8.581436254203775316e-02
-1.296484439245543241e-02
-1.088447966523107546e-01
-3.895382389402037016e-02
3.661283518964771055e-02
1.377956719215093356e-02
2.942309230424519986e-02
9.157043800165816372e-02
1.238786691572820037e-01
1.984480420071740026e-01
3.317708283228123500e-01
3.721071706222760511e-01
2.577288840849792928e-01
9.925923152219984225e-02
-1.942667590380176001e-02
-1.202193682083914361e-01
-2.248395729322946457e-01
-3.046882399029610666e-01
-3.412830935427293433e-01
-3.348018848202767850e-01
-2.785519030195817147e-01
-1.994395530578905451e-01
-1.425023694915912298e-01
-1.150574323977063274e-01
-1.006560371878101323e-01
-3.956111625723190278e-02
1.049153355370258528e-01
1.931126890647152927e-01
1.161291490369292523e-01
2.796480239723174444e-02
4.434701251811683231e-02
6.573085777939678687e-02
4.837421580976800778e-02
5.939757089765894393e-02
1.124104322934591366e-01
1.646518030314383652e-01
1.757862230254789992e-01
1.610165125231415029e-01
1.813948924490126902e-01
2.224668283548102143e-01
2.180945205696065425e-01
1.599770543576994608e-01
6.382497177652438070e-02
-5.077708932868130881e-02
-1.572556801598164467e-01
-2.529696688911688973e-01
-3.197076939499362558e-01
-3.213547122155123725e-01
-2.703611030701372764e-01
-2.103918316240928343e-01
-1.514827733402196452e-01
-7.166079446586673396e-02
2.218032430139874750e-02
8.472212392022321348e-02
1.087641208780336932e-01
1.301443785712686763e-01
1.371457159456578034e-01
9.571227160991818694e-02
4.777072387157493827e-02
3.708339103232793921e-02
2.320524308875519456e-02
-6.339730072378334247e-03
-1.272183499505284178e-02
-2.421907067870810587e-02
-7.728170440880338665e-02
-1.213248778528758787e-01
-1.060587078975093051e-01
-5.526092654871796878e-02
-3.970497984732764864e-03
9.657012968921820095e-02
2.947395624199755648e-01
4.480747473009139559e-01
3.987165562923035145e-01
2.591503540582131282e-01
1.519221842133743339e-01
-3.245791833227561207e-03
-1.667310186252345117e-01
-1.989372635329041961e-01
-1.923302218243564399e-01
-2.599888429455607386e-01
-3.051920493137020296e-01
-2.694769084232626066e-01
-2.362991597718871462e-01
-2.431771165966026549e-01
-2.188060717822622459e-01
-1.166204986973532615e-01
-1.721059402405189509e-03
4.416654766351852529e-02
3.394505444448020492e-02
4.385297693091384091e-02
8.130641821025492988e-02
6.407735199248044966e-02
1.136764989579184051e-02
5.666966544533395128e-02
1.853645782486604277e-01
2.549454706347423771e-01
2.438371823297530439e-01
2.244744906135910378e-01
2.216588853728870823e-01
2.075050729768289637e-01
1.376319298378562428e-01
8.144989274832051263e-03
-1.114131072685677071e-01
-1.436656389553366275e-01
-9.420262462043350882e-02
-5.069201787181976115e-02
-5.807883520595245874e-02
-6.068249814351568683e-02
-4.092154448855091220e-02
-7.311782136759636952e-02
-1.485276523265779136e-01
-1.493198406922419952e-01
-6.893264826627917841e-02
-7.857440738976423714e-03
2.365541914523320785e-02
5.122840210495778479e-02
5.120712971831094251e-02
3.331421759621064349e-02
3.262527556485345093e-03
-5.475929464591006157e-02
-7.660499963279696067e-02
-2.546331742622150521e-02
5.788257110491478591e-03
-3.348213923202165987e-02
-9.062227489897668742e-02
-1.308140059612769579e-01
-1.431592388883961009e-01
-1.175802219125196002e-01
-6.886579016283146670e-02
1.721967038345161710e-04
1.177873626678912211e-01
2.691657331396552499e-01
3.563492183769489396e-01
3.083957319037021749e-01
1.770652122880413126e-01
4.839921579939296392e-02
-4.562185832880401304e-02
-1.261108753877851207e-01
-2.354935096016836371e-01
-3.289643428007160697e-01
-2.952786828947943087e-01
-1.648835300210599319e-01
-7.122655344578296410e-02
-3.231912984275997491e-03
1.335585370473716393e-01
2.872118694464836364e-01
3.440585092674313117e-01
3.171687189509108107e-01
2.740854662676517339e-01
2.321194705589541551e-01
1.952345358301929568e-01
1.489336851606870016e-01
6.312692462089262990e-02
-2.007652019473513821e-02
-6.199333110657217344e-02
-1.238406358868685275e-01
-1.692049847300513277e-01
-8.537148623301989148e-02
-1.191857671947789757e-02
-1.203075533665689673e-01
-2.566313932078483906e-01
-2.673450965263163281e-01
-2.260202569417830987e-01
-1.975368701964687890e-01
-1.869428179562087344e-01
-2.036556149562524787e-01
-2.267977151487340359e-01
-2.351457049595173099e-01
-2.349835502445882796e-01
-2.142869842429649119e-01
-1.442786525657105967e-01
-3.983428761709840310e-02
4.868348240130736249e-02
1.151929962160944537e-01
1.924040134206198016e-01
2.711340220968758707e-01
3.156909564438164506e-01
3.242357878804509319e-01
3.126793135865041928e-01
2.909203455638704194e-01
2.564325671958793129e-01
2.071429084272789212e-01
1.692390424339839106e-01
1.390432978768367245e-01
6.695270741954585658e-02
-2.625660006993899009e-02
-7.454895467403309384e-02
-8.208213756599506972e-02
-6.960301010023618729e-02
-3.014715124662944307e-02
3.916539331714876532e-02
1.414697277801961472e-01
2.197338883153815703e-01
1.782793824861401699e-01
4.766273682622217123e-02
-6.542584073381814413e-02
-1.474153182069479207e-01
-2.340012387849449427e-01
-3.170363277099235155e-01
-3.657775833678169608e-01
-3.658678422010349651e-01
-3.343716537789781507e-01
-3.010366808247603720e-01
-2.639405384902108742e-01
-1.956680470687545137e-01
-9.906396999290081884e-02
-1.497131236663702680e-02
2.815275502263836493e-02
4.107220304338639327e-02
6.864022712636669299e-02
1.460270683697451333e-01
2.217781505890443761e-01
2.192250657004740921e-01
1.871433090456295356e-01
2.083147445575674883e-01
2.279901904373719534e-01
1.903164577295605731e-01
1.669300729298367481e-01
1.836938241900517854e-01
1.763325069138698131e-01
1.558391790126094079e-01
1.623121879551089053e-01
1.508524756897286490e-01
9.160968889769935397e-02
2.842900530740392895e-02
-1.459244825891343328e-02
-7.083162018020985884e-02
-1.717444111604671808e-01
-2.843383569916027032e-01
-3.519359942241373496e-01
-3.739895649007561329e-01
-3.508513219313247888e-01
-2.562498254042774870e-01
-1.428529817150701597e-01
-8.272322086435117405e-02
-3.402572137918741246e-02
3.693257702595941633e-02
6.916737189645220940e-02
5.151030829485213347e-02
4.095505443223220604e-02
4.622660839060537680e-02
4.068036195863845850e-02
3.130179725771260746e-02
5.075024417477672078e-02
1.029287716492560678e-01
1.429552703528839674e-01
1.300569087413736558e-01
8.149151449486509435e-02
4.987400115950664514e-02
5.524707277565655411e-02
9.812877313984796901e-02
2.048821866622652088e-01
3.281173401333427053e-01
3.415707529148769850e-01
2.521613447041347600e-01
1.666575033782231041e-01
7.085545714337349033e-02
-8.504682607813901507e-02
-2.321651349112011653e-01
-3.062754510462221691e-01
-3.373241452643093163e-01
-3.456622492446270734e-01
-3.224236305151697568e-01
-2.901748488441681650e-01
-2.571082098598558296e-01
-1.892764824135484414e-01
-9.818666591047062187e-02
-4.273431392546722662e-02
-1.965691818756978848e-02
1.703089385667941325e-02
5.517284413345472510e-02
6.085780931027754553e-02
4.705101492449678680e-02
4.781442058783224452e-02
8.338107222713139755e-02
1.429775159719294808e-01
1.921872235348904001e-01
2.128694951944303804e-01
2.080082612176163692e-01
1.880108872665645359e-01
1.705260777241240921e-01
1.620738312398852798e-01
1.510365585687069023e-01
1.223518888563444873e-01
7.298436344217802685e-02
2.188426880455802970e-02
-2.443232368924517367e-02
-8.837509374083316049e-02
-1.565124365370524351e-01
-1.871700360647768902e-01
-2.025542260388699944e-01
-2.392865621074429239e-01
-2.537136375074464656e-01
-2.064497304874655104e-01
-1.354320276327627137e-01
-7.953821420185731850e-02
-3.094240596274170502e-02
2.235700220759755802e-02
5.595464701381912959e-02
5.846919871862059359e-02
5.951174487699985305e-02
4.918621523564530029e-02
4.654236258832006312e-02
1.288138750604443106e-01
1.957106419897820249e-01
1.012487010763194195e-01
-2.556343653729268098e-02
-4.150732252486026563e-02
-1.656893615183073834e-02
1.700756794881201975e-03
5.282507065336136676e-02
1.454020680648895059e-01
2.556765366740876844e-01
3.230244806704937743e-01
2.789065175802433738e-01
1.539237132006230357e-01
3.678624834142743549e-02
-6.677387295865866434e-02
-1.816669450205496972e-01
-2.649197850449710456e-01
-2.910704146439356266e-01
-2.856245139995911009e-01
-2.582148268004802460e-01
-2.275330231460512831e-01
-2.103151132639808907e-01
-1.725371675442090302e-01
-1.083411978251903190e-01
-6.943727630067192402e-02
-6.342928461692676212e-02
-4.086089979724578242e-02
1.695728683934930731e-02
6.963881529738889797e-02
8.276728821866537189e-02
8.105009040255679864e-02
9.644112060900916772e-02
1.177171866675051914e-01
1.442088988519777404e-01
1.920007884257872166e-01
2.291541031458016464e-01
2.247083791810616238e-01
1.988372814053240567e-01
1.562084966258499019e-01
1.009977467287396791e-01
7.967337316805861436e-02
9.775526042566443086e-02
1.002773990755690958e-01
5.263327700965103606e-02
-4.535558805285905271e-02
-1.584918966181895206e-01
-2.145953447522174762e-01
-2.098327605997087342e-01
-2.319111264793418115e-01
-2.785014384455976044e-01
-2.467767693653605265e-01
-1.416915805151076069e-01
-5.625990963044474880e-02
-6.181196063887825498e-03
4.059197267958155469e-02
8.649757396010485100e-02
1.224154030810734733e-01
1.217798728321403956e-01
5.535222412710489454e-02
-6.860559313943571241e-03
2.965633181364235940e-02
5.557069449181959581e-02
-5.587880783917685557e-02
-1.312154536120678783e-01
-3.550546228519833869e-02
4.561178673818411938e-02
1.880681236685621469e-02
1.791617209983680653e-02
9.011550224420099287e-02
1.982093343423096399e-01
3.129876776863158572e-01
3.426892414462374137e-01
2.452232336932810008e-01
1.183074145386085324e-01
1.068696127412794433e-02
-1.097203719097235436e-01
-2.169834344515316760e-01
-2.902860688590526705e-01
-3.084747860618473614e-01
-2.113283076720086917e-01
-1.091031671314325463e-01
-1.583683378170731293e-01
-2.384042139118567327e-01
-2.063046083812143661e-01
-1.331741531360278730e-01
-7.180222260132995693e-02
1.154505854133076881e-03
5.812462022697700154e-02
7.311817215584483221e-02
6.718920551324782109e-02
4.107435346496479678e-02
2.099247695413973200e-02
9.299246160560717400e-02
2.167159223535086165e-01
2.392711348404557570e-01
1.751399242499484532e-01
1.498282088911682686e-01
1.632405482557960086e-01
1.605940851408109160e-01
1.407260490725250890e-01
1.091787853304961586e-01
7.399692800520614455e-02
3.668535578037662725e-02
-7.414222435607166484e-03
-1.100811940695574712e-02
-1.773588976832329855e-03
-1.088094682281708636e-01
-2.611134750709073749e-01
-2.931686727670666515e-01
-2.839271293011688679e-01
-3.085942082402899911e-01
-2.440322053730061003e-01
-7.697815690049049364e-02
4.462816050666192774e-02
8.234646422866932769e-02
1.088314137931264969e-01
1.150412949595325113e-01
5.562801500619213996e-02
-8.116084838164068505e-03
-5.842144326192629834e-03
3.474431336313888591e-02
7.378558903792578616e-02
9.149932713977229626e-02
5.338006256801174076e-02
-3.552799594279367618e-02
-1.158863955962941839e-01
-1.377632163668357779e-01
-8.760408581372525205e-02
6.936257607428567007e-03
1.232840899106858873e-01
2.792490259678002129e-01
4.223858776297725326e-01
4.512495899827204671e-01
3.979862338429144830e-01
2.861139083164632724e-01
3.354861864501237911e-02
-2.196424416915449540e-01
-2.577760144167248191e-01
-2.342539102230728476e-01
-3.237747458204009998e-01
-3.805603056113465166e-01
-3.127928298189899259e-01
-2.225931575755933645e-01
-1.601750434702644554e-01
-1.071790133372415021e-01
-6.930390763813565336e-02
-5.632157337708021405e-02
-5.387306360125713317e-02
-3.714015891005749415e-02
2.719414375205231327e-03
5.238850385688987449e-02
9.460626077148814872e-02
1.308769016795802431e-01
1.778998144335051657e-01
2.160773335785872995e-01
2.032620537707778008e-01
1.924607603387089583e-01
2.605211105004591188e-01
2.794257460439777407e-01
1.102008475971525681e-01
-5.148675459509246405e-02
-1.936347334105188028e-02
2.800748176730146616e-02
-3.463667471548887572e-02
-7.835396318544962657e-02
-8.197178181054219637e-02
-1.362868638751050243e-01
-2.085305783697382898e-01
-2.317905784615293119e-01
-2.222632543718298659e-01
-2.004144526450765407e-01
-1.670279199917318602e-01
-1.449461516841839548e-01
-1.417708822587461504e-01
-1.286244555734949169e-01
-9.345219770714993657e-02
-6.171930075367555724e-02
-5.074412242890875141e-02
-4.435389501215364350e-02
-3.218156696706050979e-02
-1.272259893719883059e-02
3.649786395805183770e-02
1.014503811509647191e-01
1.170744440323243374e-01
8.570930389695281815e-02
8.164040457115587235e-02
1.243001399354779352e-01
1.855878684376159604e-01
2.642692608065605464e-01
3.719387235645724710e-01
5.416235423238822122e-01
7.751905154853662161e-01
9.097324339845969110e-01
7.943997322365987657e-01
5.549859168373418861e-01
3.564532426883579297e-01
1.344375524418701395e-01
-1.703468710907972972e-01
-4.390974148949999267e-01
-5.774904467889167003e-01
-6.262511484236498172e-01
-6.549184864665194006e-01
-6.922317408164574415e-01
-7.192091616288431855e-01
-6.938802240804877730e-01
-6.284975736983846595e-01
-5.794146828210753331e-01
-5.298375616988818537e-01
-4.269626423170140295e-01
-3.066810386525503640e-01
-2.163224021077887749e-01
-1.408287593331644105e-01
-6.807828081325487113e-02
3.611564532576577724e-02
1.887265818069999157e-01
2.894814698950194387e-01
3.074934075744238382e-01
3.600095872415585152e-01
4.489950964944963707e-01
4.892451062630024938e-01
5.132046814724215977e-01
5.443833278188620062e-01
5.359062705670094573e-01
4.982384694185388319e-01
4.384039624722600448e-01
3.322549259397170607e-01
2.168041057394959059e-01
1.049487073009018612e-01
-3.757311459540729759e-02
-1.566831686721177896e-01
-1.846384275165186273e-01
-1.621644556379526481e-01
-1.408176087295737178e-01
-1.250718960738700369e-01
-1.233831129371595614e-01
-1.280200864236041569e-01
-1.239648455531844051e-01
-1.412988886944787637e-01
-1.795896904997560939e-01
-1.762512227875005222e-01
-1.481035565641155571e-01
-1.819865213913662294e-01
-2.455339134201426077e-01
-2.362198287080936321e-01
-1.800666773614138794e-01
-1.533541329523691599e-01
-1.439905721844480513e-01
-1.259051647392022133e-01
-8.702179040939718446e-02
-6.418831442937797394e-03
1.165143055066181627e-01
2.900127657712025520e-01
4.670168346566355155e-01
5.016863799451358741e-01
3.711402885319882716e-01
2.246882650312360674e-01
1.253593539345051189e-01
1.314534067643438608e-02
-1.131878568770820076e-01
-1.866853080706358803e-01
-1.941527862890191636e-01
-1.780857308077917200e-01
-1.564023561269151652e-01
-1.268901517251438404e-01
-9.854899536527358950e-02
-7.462179191335516215e-02
-5.250141532388295784e-02
-4.164700688713317278e-02
-5.120572845116729693e-02
-6.146888067768701419e-02
-3.948028717061439347e-02
-3.000864892615785762e-03
-4.734283898376063365e-03
-2.603084625034996630e-02
4.920690055352453657e-04
6.352052345719572113e-02
9.875708829479072637e-02
8.853447067807078408e-02
6.066545537930817522e-02
5.834101066792000273e-02
9.689531280319670092e-02
1.375023176842898875e-01
1.537208098564007697e-01
1.559781213985400039e-01
1.342598248064450772e-01
7.435834856148412775e-02
-4.667894655753873634e-03
-8.577161377963887778e-02
-1.586257017277248882e-01
-2.003764548245768329e-01
-2.046168931387213064e-01
-1.870545059186252967e-01
-1.551660985452026631e-01
-9.531353360885912174e-02
6.533427478009317529e-04
8.711572940948303367e-02
1.082660096113052528e-01
9.398976529010663605e-02
1.064853507451266751e-01
1.294927843825064429e-01
1.122415602951567642e-01
6.416085305441072972e-02
2.853829569952329170e-02
1.272637568761418245e-03
-4.070896376844679310e-02
-6.598987435331980789e-02
-5.901061865306216764e-02
-6.833064004348822496e-02
-8.833885450430448150e-02
-5.789105345189925894e-02
2.910960213950424327e-02
1.529598313503482687e-01
2.756557144320006536e-01
3.067154902521980753e-01
2.221421468457291382e-01
9.854312585004268432e-02
-1.524144959906226227e-02
-1.132668902741209849e-01
-1.997332043027876258e-01
-2.868353873762067296e-01
-3.344909141899800598e-01
-2.958704447831995710e-01
-2.393957558371412608e-01
-2.326492370136896415e-01
-2.051711049142258547e-01
-1.128671365447599106e-01
-3.159997540101965735e-02
6.904762107223627599e-03
4.100562961539987172e-02
7.124933598654117906e-02
8.805540126583193128e-02
1.036756493231341392e-01
1.087937424404153697e-01
1.060890035937229886e-01
1.327358042228218293e-01
1.790407512408556945e-01
2.000757466508224780e-01
2.011788681015553859e-01
1.939761267210440010e-01
1.579663553777467810e-01
1.098038435610895203e-01
9.724110216986639466e-02
1.216220968396734547e-01
1.321338487202677048e-01
8.744533593715057840e-02
1.255825613105947258e-02
-4.416895098513638068e-02
-9.605281593343029112e-02
-1.655800409587988853e-01
-2.219470612160946432e-01
-2.558903882593061008e-01
-2.851555897386361949e-01
-2.730023041738903200e-01
-1.904852010202388868e-01
-9.198283689285995102e-02
-1.492822478198928965e-02
5.642088151329138074e-02
1.043517389819871855e-01
1.045145621525891688e-01
7.085908331760554235e-02
4.113328412969068787e-02
5.672419742658634662e-02
5.194778167754039722e-02
-5.540387934815466792e-02
-1.202330264674460331e-01
-3.007192971399309106e-02
4.247818363223627991e-02
7.815714824964549445e-03
-1.579329005745752634e-02
9.874686208445259891e-04
2.163049935352834643e-02
8.731955402425428669e-02
2.133012060413151945e-01
3.168047655016832942e-01
3.171548254639923736e-01
2.209552900997880653e-01
9.025467782266437256e-02
-2.503514472723296358e-02
-1.148769874490603859e-01
-1.939471775784782359e-01
-2.466708313336707925e-01
-2.457290688734250217e-01
-2.440915977293454664e-01
-2.770525248521006345e-01
-2.492241852777912214e-01
-1.358124638491680636e-01
-5.823344650667346828e-02
-4.073018380646705600e-02
-1.138332603363150647e-02
2.489104628010099796e-02
5.585596097664793924e-02
9.271233645638184140e-02
9.118821498966235561e-02
5.982560503774465160e-02
8.577782214101445368e-02
1.492969911574255626e-01
1.653608029532344093e-01
1.604612736556398911e-01
1.801771304762831427e-01
1.865030748172554487e-01
1.742340514947148811e-01
1.755304848815887331e-01
1.588489814633151087e-01
9.575289974193446074e-02
1.585328161868700125e-02
-6.520657371841587224e-02
-1.420429122002794531e-01
-1.846070610949352986e-01
-1.932303682899033925e-01
-2.034920027796485176e-01
-2.189375791142068595e-01
-2.212850178131511858e-01
-2.054004622969501093e-01
-1.646976555571582346e-01
-1.017781121230370289e-01
-3.923966056069108643e-02
1.391054368888661186e-02
6.064955166013272225e-02
8.888257484908854145e-02
9.715941459051741225e-02
9.628332380257909051e-02
6.498408443638369059e-02
3.643980834882255132e-03
-1.755332334965846106e-02
1.620613984342874486e-02
2.936093874582022811e-02
1.383419248195667979e-02
1.892824062809408611e-02
1.925973679750008286e-02
-8.434238437530942184e-03
-3.005054043101524144e-03
6.847705897639753958e-02
1.792052889668467042e-01
3.107232301679646591e-01
3.978645776061228156e-01
3.447876249879094912e-01
2.007762483772381756e-01
1.056738716205924411e-01
4.236782525785155740e-02
-9.689889734241136088e-02
-2.557016771969391478e-01
-3.084102954972982591e-01
-2.959582645961088554e-01
-3.081727341847997348e-01
-2.996818456260753050e-01
-2.198072446859428153e-01
-1.391789137021161582e-01
-1.132839525734605501e-01
-9.656993207044842209e-02
-6.512291320744326151e-02
-3.365557357805817190e-02
2.173785195852525470e-02
7.708330808703273140e-02
5.960771218021936740e-02
2.176885560206788528e-02
7.390427424834991599e-02
1.639877102322084557e-01
1.698242608456384806e-01
1.279209078258807530e-01
1.421021301771073497e-01
1.778568470915852795e-01
1.477170799156574676e-01
7.116009810784970635e-02
9.810860117842368916e-03
-3.014861970673261143e-02
-6.803110818673230309e-02
-1.140819810479215823e-01
-1.663262436949713430e-01
-1.982102595975889781e-01
-1.860441313583606204e-01
-1.707826427138175451e-01
-2.064749554573808155e-01
-2.435303832258403078e-01
-2.115291756734156148e-01
-1.408517215001444389e-01
-8.269247113058214582e-02
-4.980322943141729519e-02
4.659272603029840365e-03
1.545966920605606476e-01
3.076829502561539975e-01
3.123961501056874424e-01
2.475285198618270011e-01
2.658678708521236556e-01
3.585323304059268024e-01
3.902695464358585387e-01
2.736323245275538163e-01
1.574799318304440088e-01
1.907970123221622571e-01
2.253281240020023057e-01
1.425056694822793568e-01
6.419462623646295107e-02
6.935142944940789200e-02
1.348029365004933533e-01
2.578864911835087037e-01
3.799084152996657360e-01
3.348862370557718626e-01
6.546188156713347861e-02
-2.211960235265845176e-01
-3.630534315736413942e-01
-4.780284979779302335e-01
-6.532838949144053053e-01
-7.842668178342422358e-01
-8.077215729786901832e-01
-7.578247808793656670e-01
-6.506565654727746173e-01
-4.872824052732383504e-01
-3.195531599800805478e-01
-2.233628251468494086e-01
-1.759371554135989446e-01
-8.305085412942997403e-02
3.099183424905588291e-02
7.078184815032245725e-02
7.600087472770772345e-02
1.338943126764746139e-01
2.149422335174965559e-01
2.872373582203015530e-01
3.891886208431207805e-01
4.871212364145248719e-01
5.019637285166204110e-01
4.898182767065483167e-01
5.308204120920391178e-01
5.447729368108408243e-01
4.758526366821114184e-01
4.143125208856064945e-01
3.856139768239039145e-01
3.222056533180813753e-01
2.147435750951126598e-01
8.445369879032418869e-02
-5.937960260961916426e-02
-1.904309564302532620e-01
-2.912102221881354702e-01
-3.591506100648939603e-01
-3.870487516943276196e-01
-3.723445751030038942e-01
-3.201563379017475230e-01
-2.673565277476513402e-01
-2.545179046853028315e-01
-2.387753654622899180e-01
-1.763654918014923023e-01
-1.224876477683587706e-01
-1.123167072612799855e-01
-1.136214692843731944e-01
-1.157380705440362589e-01
-1.185868524342267027e-01
-1.064273638698536029e-01
-6.827866709388949462e-02
-1.277870148443516901e-02
1.363554994310367530e-02
-2.127411804707872445e-03
1.837659628856781746e-02
1.044401311945966082e-01
1.779897019570100825e-01
2.296473578809930527e-01
3.323322370055161179e-01
4.601429228396020643e-01
5.056009406739527812e-01
4.278278755579488779e-01
2.658669111299269971e-01
9.069911989646112227e-02
-4.265872925978865526e-02
-1.443743507013529048e-01
-2.352675031208361633e-01
-2.862701202892098951e-01
-2.869912227005169680e-01
-2.705305504831259644e-01
-2.485779197691196929e-01
-2.233487982356618939e-01
-2.065915914067011638e-01
-1.791056466361427291e-01
-1.292898607745859574e-01
-9.978416239416382227e-02
-9.896228147285351939e-02
-6.253258121810859049e-02
1.785192001732590489e-02
6.072048407743511900e-02
4.375471737875809980e-02
3.444398819745233403e-02
6.440089955991837312e-02
1.134456555478565443e-01
1.597277124327907416e-01
1.735326352335920252e-01
1.584788415513970483e-01
1.690064968477248963e-01
2.147463663073657381e-01
2.408882493351266474e-01
2.196557515995833931e-01
1.703705714985313535e-01
1.074115184001106782e-01
3.306786247077061341e-02
-4.286005288331628388e-02
-1.130237457409260377e-01
-1.797886694000292440e-01
-2.309824231462023203e-01
-2.263874561835038102e-01
-1.604087967587543018e-01
-1.050518469614619838e-01
-9.717994983156132138e-02
-7.482357226252116245e-02
-6.798883298441102049e-03
5.691686821283403752e-02
7.683600770792380075e-02
4.888804928809029060e-02
-5.683882164308762253e-03
-3.523938091256809818e-02
-1.990988966138414543e-02
-1.405343540755678994e-02
-5.074524370332812728e-02
-6.981931186933380828e-02
-4.836239100902678389e-02
-5.866431141084459816e-02
-5.290324704661879957e-02
7.931818349957056591e-02
1.958532240617967546e-01
1.707875962570979678e-01
1.922025309757769695e-01
3.087209475598413078e-01
3.009393407487940819e-01
1.515159339382971260e-01
9.623631887289513243e-03
-1.049527636826322052e-01
-2.032921833992648586e-01
-2.481779063453052325e-01
-2.550799085855910975e-01
-2.526955754657812525e-01
-2.208107429699671942e-01
-1.798460184376069471e-01
-1.762204399889979733e-01
-1.595479815038650662e-01
-9.568618703861964114e-02
-6.618704240432102259e-02
-4.778690915634421776e-02
7.447647328826975666e-02
2.019658223980675682e-01
1.723156190835135604e-01
7.494160365192445439e-02
5.706451359502963394e-02
9.735372702870949413e-02
1.286043579549159821e-01
1.384059156576478711e-01
1.419528029194417618e-01
1.489653935190947409e-01
1.511049455669401798e-01
1.549849917933811549e-01
1.752604563934040960e-01
1.774596521562322726e-01
1.170633047480666711e-01
3.187486045134552831e-02
-1.089016275801373002e-02
-3.749554161645000244e-02
-1.017530446311004227e-01
-1.708134298185498834e-01
-2.113488943021494537e-01
-2.486658956225716866e-01
-2.747942948537589469e-01
-2.575690597160463780e-01
-2.119080211667224989e-01
-1.530815218329485694e-01
-7.620436332218594178e-02
-9.713153444372041312e-03
2.401593995605725423e-02
5.840966235274539647e-02
1.041492284328747742e-01
1.129549070537852751e-01
8.041626206631666274e-02
6.253674432471167943e-02
5.907456207711302143e-02
2.827865273351923628e-02
1.442729623181590332e-03
1.815548080224821045e-02
2.744001968763059088e-02
1.234832284931473541e-03
2.037688168669862972e-03
5.566575135683042574e-02
1.333561660095188839e-01
2.345017382606598699e-01
3.316962224282081761e-01
3.406127594799284175e-01
2.310947941739445177e-01
7.498240827772781336e-02
-4.526556176040699014e-02
-1.405501602410130779e-01
-2.574898534099910874e-01
-3.368001279263010961e-01
-3.018759452697082346e-01
-2.262675309730591000e-01
-2.038540318726592415e-01
-1.875589178192165474e-01
-1.313173298629974062e-01
-9.388839463963088994e-02
-9.192511345517186128e-02
-7.170549314649306283e-02
-3.605765666611473325e-02
-1.035061684109556818e-02
3.477947064839162494e-02
1.106757876167830529e-01
1.658183639590046221e-01
1.704333575025194225e-01
1.571747893193972401e-01
1.504218036454809115e-01
1.360443247699273661e-01
1.026325455361054156e-01
6.185856370287817069e-02
5.587966267109668872e-02
1.156865821221129964e-01
1.830630512862566894e-01
1.815720507939238004e-01
1.221563433630678541e-01
3.851555568575456417e-02
-4.358022220467252378e-02
-8.851458257933007834e-02
-1.267485872497204069e-01
-2.064095464126627366e-01
-2.753102508765110645e-01
-2.714323058939389632e-01
-2.214386083777451775e-01
-1.657774591021461130e-01
-1.035119201545300488e-01
-4.077180025418106202e-02
-3.143161342464534380e-03
2.256403295393204916e-02
6.340362723430820191e-02
8.725333790888217811e-02
6.651579136266447256e-02
4.750953283778303060e-02
7.128162863632048207e-02
1.091404518243026117e-01
1.108359429878217894e-01
6.995696261708614361e-02
2.255615801038075158e-02
-1.318441869526047402e-02
-4.703733863610988497e-02
-6.728728049307637626e-02
-5.325695593901930147e-02
-3.329208462323551138e-03
1.047101726555071388e-01
2.754473566465669432e-01
3.932814478608356312e-01
3.409710951746866558e-01
1.971659129870529659e-01
1.042268850465118829e-01
4.799482038711002513e-02
-4.554158084639715193e-02
-1.593514137522685226e-01
-2.445594672133848957e-01
-2.909821083326423752e-01
-3.135689864373781832e-01
-3.267788972390475166e-01
-2.923055125057066883e-01
-1.668369893271824944e-01
-7.718319864612580017e-02
-1.692835051003387936e-01
-2.680098310926518623e-01
-1.577130390336293209e-01
9.598335327324090949e-03
4.672091359707136737e-02
2.898127715207073074e-02
5.248936637513782616e-02
1.253726894838984307e-01
2.298384888356541089e-01
2.891264972377898257e-01
2.571806293804135279e-01
2.102946100655271322e-01
2.004886457995514182e-01
1.895300310042178915e-01
1.692328375598116663e-01
1.443502197897126860e-01
7.470899285052308436e-02
-2.305853532439385012e-02
-7.169968793944676844e-02
-7.562415853684929801e-02
-8.629743917799895248e-02
-8.697228866296295713e-02
-6.383899030748763082e-02
-5.163785130831313047e-02
-5.469071408889212421e-02
-5.285149238601261068e-02
-4.251993202990343029e-02
-3.436129697024612600e-02
-4.724486803033417504e-02
-6.727790575013509189e-02
-6.228452025142525161e-02
-4.756658190662212821e-02
-4.144788825780509889e-02
-3.542499796276932233e-02
-4.450970631913229308e-02
-6.711642007532478416e-02
-7.154480210074407043e-02
-7.417629291110139356e-02
-9.772220807133188969e-02
-1.185130530319102871e-01
-1.349015667158852405e-01
-1.539571760399440770e-01
-1.297071365808864507e-01
-3.239413477952101522e-02
9.577700062207958331e-02
2.258472691096493623e-01
3.596786975354935856e-01
4.223329142048007911e-01
3.345288126425285946e-01
1.779140782725880110e-01
6.655966623521777925e-02
-2.453392321638954432e-02
-1.270565608491702747e-01
-2.016457455638216989e-01
-2.477473108043268535e-01
-2.205692749485839710e-01
-3.862121517946041221e-02
1.474251188565201265e-01
1.604781285079990849e-01
1.435595614514736384e-01
2.215478826674305846e-01
2.676669778651946663e-01
2.315377768140089165e-01
1.949355951867009495e-01
1.449276887329527252e-01
4.088115131727916574e-02
-6.005052726599447582e-02
-1.138133771395488103e-01
-1.426958006152729275e-01
-1.650325995481157215e-01
-1.945731162916159995e-01
-2.275217760413630885e-01
-2.287215648948660029e-01
-2.057172488502057861e-01
-2.026867926199722725e-01
-2.180221243352336302e-01
-2.162303434692470772e-01
-1.726435630687148948e-01
-1.009393078158530022e-01
-6.041477412058159080e-02
-7.567876697283540399e-02
-1.050419732044664267e-01
-1.235879569740621631e-01
-1.251187102178752675e-01
-9.049095235636854528e-02
-3.543784052130025120e-02
1.338976703021362707e-02
8.133086775092690512e-02
1.865354382453911497e-01
2.808084113628834255e-01
3.244418144132255044e-01
3.475592528522644664e-01
3.654464245063513417e-01
3.417064785236412217e-01
2.842981516463820024e-01
2.281167168818313551e-01
1.680408825613275425e-01
1.132027579235543313e-01
7.026555536853595907e-02
-3.413133238958421245e-03
-1.102577495910458810e-01
-1.838126459516359335e-01
-1.839206015749474954e-01
-1.420887960398914962e-01
-1.066263715840278792e-01
-6.091830408480976289e-02
4.153797531557123363e-02
1.629104038717389957e-01
2.033541150584006196e-01
1.219394247075039073e-01
-2.115684268893922026e-02
-1.380677232432764856e-01
-2.207804613539249006e-01
-3.064407543098537912e-01
-3.628553110087603395e-01
-3.532371566976795774e-01
-3.189208231425706419e-01
-2.727777946032488021e-01
-1.818965236456770440e-01
-8.031165181151803112e-02
-1.909001084028767725e-02
1.275890548148418679e-02
3.767238263301909973e-02
7.704149924345717049e-02
1.367049260470082905e-01
1.658753896446449883e-01
1.401984463847280316e-01
1.211549808792577870e-01
1.566714757331144625e-01
2.106620148169328077e-01
2.256643173173977501e-01
2.022761237215886521e-01
1.793645575033966100e-01
1.694666014817091670e-01
1.580771902678564933e-01
1.365776602422219821e-01
1.070136828366623771e-01
7.307505425692359391e-02
4.599265749322378749e-02
3.036005087467150143e-02
-9.775411769182194843e-03
-1.008774486588220054e-01
-1.976153088591896534e-01
-2.576655815167162578e-01
-2.969968188994375202e-01
-3.146643008149078158e-01
-2.895539425235362230e-01
-2.429185646877608518e-01
-1.850275842890861666e-01
-9.123724008394712426e-02
1.147424500925790097e-02
6.844205996799368474e-02
8.328364837158355738e-02
8.271646080477240703e-02
7.103453174967219730e-02
5.260415630203075371e-02
4.390743663320269968e-02
5.538891299544118629e-02
6.736095942282870064e-02
6.101724553013321284e-02
6.137985094456967911e-02
7.588408204289329162e-02
7.087928770886756102e-02
5.702366678635190089e-02
6.848384975823065823e-02
1.106143083293142509e-01
2.052574150755289983e-01
3.213866636598574633e-01
3.374223923943069914e-01
2.429743517615292892e-01
1.371836466409220023e-01
1.646511062009096277e-02
-1.370935842714818831e-01
-2.399591661578600321e-01
-2.733274475830363981e-01
-3.053516841524827052e-01
-3.385201116151079770e-01
-3.362516382818245275e-01
-2.953453960454384131e-01
-2.205608791503392285e-01
-1.339977575402029608e-01
-7.676690215555204144e-02
-5.210172002082917586e-02
-1.987506692881318288e-02
3.427126597385907192e-02
6.637404317373885032e-02
5.170070685584656628e-02
3.598699141068854163e-02
6.414297259133874829e-02
1.216791643188029348e-01
1.484338330255793592e-01
1.203253537022758862e-01
1.171218680578475779e-01
1.860852752152665213e-01
2.276641038162703357e-01
1.808928503994085280e-01
1.368032017237028053e-01
1.527985299075835524e-01
1.593844258277054282e-01
1.077528974247760063e-01
4.162576055155750576e-02
-1.228010211044007483e-02
-8.142172088128521446e-02
-1.529547036974843732e-01
-1.911004401928654006e-01
-2.224839763818438065e-01
-2.552046801440712165e-01
-2.285165824315016914e-01
-1.443217766610422059e-01
-6.930040775558606037e-02
-1.655955478967978400e-02
2.402466421170519617e-02
6.012696547048139439e-02
1.099212332759160332e-01
9.606886514920018327e-02
-5.280873493402594293e-02
-1.621737408117743806e-01
-7.617187676770523219e-02
4.622751409880063861e-02
6.299376740515763573e-02
4.513147902599103783e-02
2.847835103206491220e-02
4.769602416973597533e-03
2.489440133786249149e-02
6.717859559630283417e-02
6.347419628158799954e-02
9.639972710862913796e-02
2.595282784564838519e-01
4.096049992052072097e-01
3.625643572077437704e-01
1.949657204085048223e-01
8.675211653050914073e-02
-9.671686251964871361e-03
-2.285199570989095708e-01
-4.250267254093615943e-01
-3.963960915309151511e-01
-2.730078637413603238e-01
-2.453668728804841159e-01
-2.482043154687111342e-01
-1.835594190023245031e-01
-1.011157745737140123e-01
-6.249836764679461004e-02
-4.902332142848707386e-02
-2.948582352573662219e-02
-7.317017528018908423e-03
1.486145035930572234e-02
4.912451302238752399e-02
8.622107084888974704e-02
1.015224177027882757e-01
1.080309269898355601e-01
1.365906877815808718e-01
1.760569169553828084e-01
1.979867764109746464e-01
1.896089376411568550e-01
1.608006619525287617e-01
1.486353744837154434e-01
1.477964151237963486e-01
1.221184529962141829e-01
1.034787666947045576e-01
1.008603376432191945e-01
5.144972302065545927e-02
-1.730465678785863409e-02
-2.708229147083623944e-02
-2.587221465874433440e-02
-1.065656987235253650e-01
-2.438131980815704258e-01
-3.369415093077185452e-01
-3.446763305527752452e-01
-3.017121398045961023e-01
-2.383209269070535319e-01
-1.496635181021526984e-01
-3.447712169275405497e-02
7.290240053567906275e-02
1.284761227415359142e-01
1.255629143064220798e-01
9.607886721671593522e-02
7.989442375129549023e-02
8.240190360895532917e-02
7.036710212181573887e-02
5.083026157132047862e-02
6.905394807916238886e-02
8.882788445715240899e-02
4.633904884223561532e-02
-6.785303009604433909e-03
-9.469746444438976313e-03
1.798127189877537016e-02
8.390384624852277595e-02
1.674133074394223708e-01
1.666271286985077649e-01
1.141938597303815695e-01
1.308079038793436011e-01
1.698472451091847246e-01
1.318673517329955192e-01
3.720820165631396476e-02
-5.816916300247417654e-02
-1.404415481376906083e-01
-2.236178601527037124e-01
-2.992567927682480700e-01
-3.425981180396845405e-01
-3.649597925310402169e-01
-3.547180695060478950e-01
-2.646570676328772187e-01
-1.315429863290099033e-01
-3.673765734287450652e-02
1.549473015265730169e-02
4.999780223308061128e-02
8.351863967760161933e-02
1.468382942410664804e-01
2.060761769543767441e-01
1.882631954484232095e-01
1.368383452095040254e-01
1.251271849810805803e-01
1.180760344407207757e-01
1.055891623128050322e-01
1.357192707656334207e-01
1.786093176772981794e-01
1.782107824054675049e-01
1.404793882457888443e-01
9.269534733096984613e-02
4.517356162108010498e-02
-2.166447969181853339e-02
-1.015474407238544652e-01
-1.217341938638725612e-01
-8.164024865772112616e-02
-9.009089652489202238e-02
-1.598637561175732802e-01
-1.967289657041123019e-01
-1.842463172884650779e-01
-1.504003787610787013e-01
-8.343091562992141497e-02
-9.219372333878456116e-03
3.120225995381281647e-02
6.656586399634052686e-02
1.026278297185783117e-01
8.037426370110167806e-02
1.625855823073266496e-02
-5.481317299387415340e-03
1.761873917815490881e-02
3.393100673133498529e-02
3.995520527261834515e-02
4.902916701519255405e-02
4.666870886146905206e-02
1.805604705496230422e-02
-2.984427862077546068e-02
-7.345542992183326514e-02
-8.276831599944257933e-02
-4.246890249333278716e-02
4.266815859577879205e-02
1.744565501379035932e-01
3.302200179162970151e-01
4.103307094423189194e-01
3.472888134317937969e-01
2.227010147299247622e-01
1.176577263896595310e-01
-1.883935634012189747e-02
-1.976663587892218410e-01
-3.228190757392337407e-01
-3.787113931650427645e-01
-4.081807556751481103e-01
-3.846189011762151666e-01
-3.154036463906128018e-01
-2.640789385712283277e-01
-2.204936617365600982e-01
-1.578251658556392711e-01
-1.194737154414909630e-01
-1.122635912980452511e-01
-6.439126000724010312e-02
3.818213856689418179e-02
1.146047864457563348e-01
1.201232050043844757e-01
9.788120537704401991e-02
9.362764139297719002e-02
9.248481980779924005e-02
6.281840931908767856e-02
3.865734123969099406e-02
7.038481306402795401e-02
1.196518391159836353e-01
1.358959631306092541e-01
1.466193429732911557e-01
1.755365570498467753e-01
1.989711263284976994e-01
2.042827213289954980e-01
2.090547320793019193e-01
2.314663737965683421e-01
2.555630279741896715e-01
2.420499852354099368e-01
1.926044435528338761e-01
1.605840167221801451e-01
1.676735144258409416e-01
1.636547492092322864e-01
1.126224081056303172e-01
4.548674775987109065e-02
-1.998943199484178729e-02
-1.041690480953005454e-01
-1.989977942045716430e-01
-2.800325440225925888e-01
-3.280641962916043819e-01
-3.219563907548163573e-01
-3.115158552097985201e-01
-3.696954409626123095e-01
-3.990209463799218037e-01
-2.860624595494571376e-01
-2.003043048278175253e-01
-2.986529220045478494e-01
-3.959674289340612274e-01
-3.315645533420636948e-01
-2.156855988518848188e-01
-1.058268133968818803e-01
9.185378226429503912e-02
3.064976895885157537e-01
3.446305492361860234e-01
2.992250500495544641e-01
3.590523627013973429e-01
3.776516006687448135e-01
2.200420178241150049e-01
5.828644326880251525e-02
4.614227485939439988e-03
-2.412956226461940301e-04
1.398022116399388892e-02
4.155150433575350438e-02
7.147576611298428473e-02
9.909349703797007414e-02
1.027865981638778903e-01
8.192865346900350676e-02
5.778890914481471519e-02
2.882498131097245564e-02
7.881958952734725854e-03
1.582179740408033719e-02
1.326831043222030659e-02
-3.404836898181427124e-02
-6.799442941977378030e-02
-3.455595309339014320e-02
8.639195285374889205e-03
-1.396268915442828648e-02
-5.700823309003304196e-02
-2.798574160002606503e-02
4.467296936093542725e-02
6.249593717870043086e-02
3.909347034761127132e-02
6.108191730226150001e-02
7.000680879918443067e-02
-4.436558767637244910e-02
-1.375338402534917182e-01
-6.184676533062057058e-02
-1.667818691505491141e-02
-1.294401289859158366e-01
-2.122613159235215707e-01
-1.927901534282857599e-01
-1.679228120546920056e-01
-1.293002031335253599e-01
-4.365083861227220946e-02
3.171783143105166847e-02
5.388478010345227470e-02
5.882741370484285970e-02
9.990201012636436284e-02
1.541286118008713957e-01
1.426779238200878985e-01
7.834235078501733396e-02
5.872249430435909356e-02
8.197907171004134574e-02
5.792653593306507781e-02
-4.983154129220048779e-03
-2.700167369228686359e-02
-2.606068491116509886e-02
-6.426275566667961903e-02
-9.770238712250005342e-02
-5.714447227784896777e-02
1.789469360946360083e-02
8.584871697762178067e-02
1.929584667012069210e-01
3.063897647268327140e-01
2.916676965344647821e-01
1.536914414757534486e-01
1.274121070828421708e-02
-1.205718882199272590e-01
-2.604014821968512194e-01
-3.131595116315474825e-01
-2.568359483516877706e-01
-2.152969071287489378e-01
-2.399212068514226248e-01
-2.454894758422448975e-01
-1.739031905347240003e-01
-6.494560173345317877e-02
6.414182533387179086e-03
9.273066067409810320e-03
-1.246789183737051498e-03
4.413702537670512183e-02
1.098398213983416416e-01
1.238575487493921989e-01
1.182910560865910454e-01
1.352184617925981935e-01
1.384476860409751264e-01
1.310871452678224469e-01
1.416409102349054372e-01
1.366789699542906300e-01
1.206460056363341249e-01
1.424509925976869817e-01
1.709245646347828107e-01
1.572744741032814919e-01
1.247556489738846364e-01
9.981225432551454890e-02
8.053447184428928762e-02
5.379156900176404466e-02
-7.261418575904766970e-03
-9.701742174413888198e-02
-1.756081266374908967e-01
-2.354049470352677087e-01
-2.876054812212646139e-01
-3.202553918177428738e-01
-3.104707811945444651e-01
-2.468730140229878356e-01
-1.575869012427544846e-01
-8.591124352582776846e-02
-2.959167014846934146e-02
2.409420539833593417e-02
5.428898787107667295e-02
5.898483306684484256e-02
7.247603927506342247e-02
7.760671012034256466e-02
2.081585345589188202e-02
-8.178039515224350825e-03
1.102580921128850644e-01
2.066012726765283913e-01
9.104146102296796494e-02
-4.926233352442391938e-02
-1.488596745200762572e-02
7.164632841992044088e-02
8.694956692131354525e-02
1.084139305087092331e-01
2.102458171770977269e-01
3.235158854816336249e-01
3.391480666325722426e-01
2.589871363801261039e-01
1.428995482557246233e-01
-8.255140823869210054e-03
-1.689133426009888361e-01
-2.565592438044076440e-01
-2.766910907134175757e-01
-2.964780836497803440e-01
-3.096794811562206817e-01
-2.858517370487708709e-01
-2.378813194445103252e-01
-1.830008255184465138e-01
-1.360598735234641588e-01
-1.106291755267735100e-01
-8.504819861737455966e-02
-2.615846918349253730e-02
5.263884437772663183e-02
1.043539755759157750e-01
1.111927402432559137e-01
1.086521721137755359e-01
1.399616319157277189e-01
1.799443530748477960e-01
1.646527235363141606e-01
1.286857086092608460e-01
1.508686340123473191e-01
1.777237317077608458e-01
1.439120731359373184e-01
1.201616531488681333e-01
1.395174386683589174e-01
1.498523944900679583e-01
1.578030256745723559e-01
1.256416211021475493e-01
-3.207722081673911735e-02
-1.896555046527702015e-01
-1.931435671803071741e-01
-1.681022040361248859e-01
-2.350765921037368256e-01
-3.000463485111483086e-01
-2.852261521768618135e-01
-2.273121212043402173e-01
-1.779028477715668133e-01
-1.320039005700622825e-01
-5.893473371013233097e-02
1.542013439334564973e-02
5.401401326552758564e-02
8.022831456207356327e-02
1.109551279065455198e-01
1.136544495891610718e-01
8.094055382236428620e-02
6.047124193987548496e-02
7.295009926929205135e-02
6.857852304447227543e-02
1.892063607049141588e-02
7.760278320175654013e-03
9.850949586398133340e-02
1.682854462652229044e-01
1.212810829944851315e-01
7.940417954582253135e-02
1.323737406419526474e-01
2.216883303898402324e-01
2.825494828649756096e-01
2.516023800724256354e-01
1.229913392379114317e-01
3.608271872280272019e-03
-6.558136590019772449e-02
-1.499215488146778963e-01
-2.339886256771199768e-01
-2.425606719744341500e-01
-2.112451660326056246e-01
-2.326997191353850636e-01
-2.841361551798860519e-01
-2.741972268680147873e-01
-2.180775908082395464e-01
-1.948455755083973173e-01
-1.836572131712536082e-01
-1.163629878348077240e-01
-2.881331107320708046e-02
5.042201740012068611e-03
2.010034353940508972e-02
7.566187076164977710e-02
1.298428574849475603e-01
1.461712476724807142e-01
1.659112135330386706e-01
2.007602788440632224e-01
2.162037213352384635e-01
1.965040508901946259e-01
1.528670116672449786e-01
1.339004074960557789e-01
1.652119145195362904e-01
1.825326584756291060e-01
1.489750844522978457e-01
8.382153264662876857e-02
-3.139485129743431469e-02
-1.207294147104067683e-01
-5.194645068730489867e-02
4.108098841093742182e-02
-4.801296547059855785e-02
-2.157567769305253069e-01
-2.769498907262083476e-01
-2.408522443856855322e-01
-1.880510966265708794e-01
-1.376953651511478305e-01
-8.271832760186544065e-02
-4.491699099097065662e-02
-1.999622920201344842e-02
3.243338452028411700e-02
7.916613098670144399e-02
5.702209401003191513e-02
6.520343725748303093e-03
5.571588887765899570e-03
4.612348666781443396e-02
6.812547925706802232e-02
5.010321336009319892e-02
2.287453436911462967e-02
5.864333945208574823e-03
-1.869069143271718733e-02
-3.602908852888593583e-02
-3.744915613433414878e-03
7.371317267343503732e-02
1.906063282066346731e-01
3.422160724097597639e-01
4.250859932118546958e-01
3.481479640268912989e-01
1.917775990609884851e-01
6.429846390554533331e-02
-3.936930645876839802e-02
-1.374035083371815402e-01
-2.117970084868692204e-01
-2.636801613371113628e-01
-3.027139604119283289e-01
-3.272500856062702801e-01
-3.031585503402724480e-01
-1.998032537080256521e-01
-1.382228832377601913e-01
-2.270680603015552690e-01
-2.722348854332963808e-01
-1.289102491287365815e-01
2.746379664911868801e-04
7.581774358508625022e-03
2.690913105179576492e-02
8.567896803695995711e-02
1.173311465544570470e-01
1.305944608983988786e-01
1.515970064295159014e-01
1.772122061940079318e-01
2.015099907547710789e-01
2.198723876900148533e-01
2.206896594753579854e-01
1.989144502621139621e-01
1.817835937343581232e-01
1.743934612269591455e-01
1.256911464700702086e-01
4.464083113666014735e-02
-4.150930188980890556e-03
-3.450515286290913725e-02
-6.984975348252475680e-02
-8.797570525309708622e-02
-1.241630122690958876e-01
-1.984890605908007366e-01
-2.384401405122369977e-01
-2.202837779171633870e-01
-1.913672764359836131e-01
-1.684227600025392790e-01
-1.475864483249314241e-01
-1.164395916588403940e-01
-5.363879233412260916e-02
3.466126239223720623e-03
-2.136887814943797675e-02
-9.513143090585718387e-02
-9.259926336504720190e-02
-1.628793487960099318e-02
1.494379294220398585e-02
-1.358580868159078511e-02
-3.711493222968456629e-02
-4.320435210862555442e-02
-3.936051748133596873e-02
-2.872727668326289022e-02
-1.828936430316141851e-03
9.403115825753492751e-02
2.705762160985131226e-01
4.808216582446233622e-01
7.036037859379388193e-01
8.547323870919314448e-01
8.079862694712546256e-01
6.484293990687011178e-01
5.359622922478720630e-01
3.537294365662856377e-01
-2.311791877727177591e-02
-3.458945379174609425e-01
-4.062706737431476256e-01
-3.968046288839499613e-01
-4.722449890751162505e-01
-5.263618789538029308e-01
-5.141495155950837059e-01
-5.095270859046822087e-01
-5.306645452879671376e-01
-5.384263641080950791e-01
-5.114374859657693229e-01
-4.616547195954343041e-01
-4.069196054034405763e-01
-3.543462198006524511e-01
-2.979247775803174347e-01
-2.310912634192343051e-01
-1.569311817335014569e-01
-3.207098375535709367e-02
1.827420256576421376e-01
3.623636645936030298e-01
3.733671985334234833e-01
3.188315019949500284e-01
3.410102980668950901e-01
4.090423994733216606e-01
4.540936540278397993e-01
4.632811820757924970e-01
4.410111432397282316e-01
4.074739709334231907e-01
3.635398867101158893e-01
2.716365845270118928e-01
1.372983387456977178e-01
2.237531618861500482e-02
-3.399080447170263475e-02
-4.236960993362971772e-02
-5.128967316837577950e-02
-7.929266422597884556e-02
-5.817622250899030095e-02
-1.419192975661162648e-03
-5.793860288983634921e-02
-1.889358656765839917e-01
-1.910885523517553697e-01
-1.083773302204446148e-01
