-1.768016998916852739e-03
-9.424141455059474939e-03
-2.256724295965429478e-02
-2.447072346333414861e-02
-6.482139870272322565e-03
3.519640590833862659e-02
8.652972712201700833e-02
1.097429677151577909e-01
1.085356095925876230e-01
9.888734821006354980e-02
4.730932549021801131e-02
-3.582124520086239078e-02
-8.083724339822571936e-02
-9.667812740994730092e-02
-1.378794791278931120e-01
-1.773519682438915168e-01
-1.630277277055584007e-01
-9.468356045439590973e-02
5.558277370215046476e-04
7.816753873918216855e-02
1.078236905691598857e-01
1.036013686935822464e-01
7.079042259642884249e-02
2.950409044306309680e-04
-5.999029464378809184e-02
-4.791656213441856937e-02
-8.600931625146229081e-03
-4.972562800999179126e-03
2.751509278221631050e-02
7.511595584250416180e-02
-5.578932931255611849e-02
-3.764044148355248920e-01
-6.264813864820456546e-01
-5.611430192892358226e-01
-1.325160434700864698e-01
4.017639048096331988e-01
7.174464987376447667e-01
7.851619164993317579e-01
6.714441399140453903e-01
3.678725453401119894e-01
-1.392673987056722643e-02
-3.122628060646045478e-01
-4.581156535226904580e-01
-3.850645594711619157e-01
-1.248743793539100061e-01
8.436675171500226944e-02
1.000247459250949988e-01
5.371974077746674570e-02
7.064170674478426060e-02
9.176704267122960668e-02
2.821844657190319614e-02
-8.460933780769505641e-02
-1.514386305349152140e-01
-1.550229795216143125e-01
-1.245402492624307356e-01
-8.796376910904821211e-02
-1.029849385333246048e-01
-1.464773664427150845e-01
-8.804112143912591615e-02
7.388000851652629097e-02
2.039770194747296816e-01
2.766343464225186621e-01
3.405558814820790481e-01
3.540443030285870263e-01
2.723312048645850081e-01
1.274105324381778481e-01
-4.678440760772806933e-02
-2.111510654587240854e-01
-2.936814050436529211e-01
-2.837683420689828262e-01
-2.678686820916975075e-01
-2.986069354480810900e-01
-3.304202999931493689e-01
-3.067369652530121948e-01
-2.114262791671602248e-01
-8.052869346323565658e-02
-6.955958435221849812e-03
-1.901950171503227066e-02
1.022680356689773667e-02
1.867710207749308238e-01
4.026868874847182589e-01
4.692081028903370976e-01
3.991308247323224201e-01
3.604203069674054016e-01
3.464533771651370775e-01
2.103406383468370833e-01
-5.888457032115421153e-04
-1.270281813475840349e-01
-1.337859901302054233e-01
-3.087031905986943603e-02
7.849535746562436023e-02
-1.838375701925712077e-02
-1.991012533377599925e-01
-9.209081992012996265e-02
1.353756601055560727e-01
2.072164327378101314e-02
-2.745172603325393146e-01
-3.513073922572768626e-01
-3.033791083650944076e-01
-3.176397423616263982e-01
-3.234526543106998608e-01
-2.636324753580056579e-01
-1.587226943375047161e-01
-1.271583579614606052e-02
1.253142351543232724e-01
1.772325457103149926e-01
1.648982068435271287e-01
1.788238807120327845e-01
2.205448411224245064e-01
2.268030016668203530e-01
1.967590397942439173e-01
1.511827503700922115e-01
8.399500029988053729e-02
4.385882622293026112e-02
9.466883204937483198e-02
1.722415868326422628e-01
1.570381497770531598e-01
6.247202480483406151e-02
-8.357791129659578044e-04
-2.352468837462443063e-03
-9.299650940330507487e-03
-6.000405963372378720e-02
-1.266117442415374272e-01
-1.952537876634210523e-01
-2.756685181156099396e-01
-3.268725078352431312e-01
-2.909063279787404976e-01
-1.963621745458567491e-01
-1.141201559318149872e-01
-4.664196469485996921e-02
3.844700076089720142e-02
1.284526784220362261e-01
1.921184308153357778e-01
2.170396674605958864e-01
1.989072409691759746e-01
1.551747854700193108e-01
1.210352455564424889e-01
9.114132610882447194e-02
3.005398360470473360e-02
-3.702792010529833838e-02
-4.534597569075680956e-02
-2.219270244472388784e-02
-5.232947674823262146e-02
-1.032867839568610002e-01
-7.310844193436268068e-02
2.073686111002021742e-02
1.028240311057976725e-01
1.761032457811722574e-01
2.278357007387267208e-01
1.881397803858190776e-01
6.918700240305519777e-02
-4.088496824184507938e-02
-1.119777398214979180e-01
-1.717509277409268176e-01
-2.399540276782826942e-01
-3.169535026606885020e-01
-3.594991310946669127e-01
-3.134853469570888507e-01
-2.130190393459795994e-01
-1.189539229423720035e-01
-1.245685677287499543e-02
1.144657839478022965e-01
2.025010818747139674e-01
2.326941681705085863e-01
2.361183347350404027e-01
2.082721860634174083e-01
1.444362077736403016e-01
9.717902697354796615e-02
1.044920514298302294e-01
1.325015475157271527e-01
1.326034986873201593e-01
8.874975060663406468e-02
2.453437493958632309e-02
-7.329653964039395397e-03
7.929077511441354198e-04
1.707318064162865329e-03
-2.611677950969602119e-02
-8.976415202815186956e-02
-1.717602876062563066e-01
-1.851028771468715417e-01
-1.089301292305407259e-01
-4.523333668322883361e-02
-4.584211107270408370e-02
-6.971911203696470882e-02
-7.265162361256484458e-02
-4.578780054793085003e-02
-4.617705993879082926e-02
-1.052801563339127028e-01
-1.072365528419104985e-01
1.425196904949215838e-02
1.073282621884676241e-01
8.675540249592111897e-02
8.454880184449466152e-02
1.794593530934229519e-01
3.108806498696355947e-01
3.788447322276835560e-01
2.589307899098237109e-01
-4.478691278618850136e-02
-3.070957907457612657e-01
-3.315219399194917482e-01
-1.625908621297897927e-01
8.793899595229560939e-03
7.797971795269181827e-02
1.093939988849851747e-01
1.577917115363719758e-01
1.574899027851364153e-01
5.989361828046521619e-02
-8.380671688530896835e-02
-1.916086165720182477e-01
-2.250882646216358918e-01
-2.213699867767039420e-01
-2.310321025731199018e-01
-2.352468185499372033e-01
-1.874208634237127247e-01
-9.840879960469603449e-02
-2.664838533724477043e-02
1.357559363143321512e-02
7.605161579938178595e-02
1.625363656160295212e-01
1.851019962330704149e-01
1.124022749265591314e-01
8.941367312622643462e-03
-6.385869949859357408e-02
-6.427992653384199950e-02
-5.363100002949372502e-03
1.594229051807456027e-02
-2.100827182767712326e-02
-2.668044878043705770e-02
-2.017496733405468867e-03
-2.530337856500610577e-02
-8.251922365187043529e-02
-1.049679911851097436e-01
-7.181172754114534262e-02
1.509985920715700876e-02
1.690507946386335669e-01
3.940336084294155938e-01
6.468306255033513530e-01
8.263519235131964180e-01
8.303324624151015021e-01
6.686337582877830421e-01
4.655354072332012483e-01
2.817058349459847788e-01
5.985484624286055433e-02
-2.041920063014181774e-01
-4.326378186181211172e-01
-5.979487145677397919e-01
-7.116808744389149233e-01
-7.522253272722428941e-01
-7.213585443243276663e-01
-6.831488368400697730e-01
-6.592720735981040248e-01
-5.987305032910621438e-01
-4.966916929494186728e-01
-3.900568794570377640e-01
-2.622765829656968917e-01
-9.828772793726200940e-02
5.859164794042098778e-02
1.953897412417721635e-01
3.559739940066224406e-01
5.228818303160475134e-01
5.887844112898825699e-01
5.226439414957666507e-01
4.397278672583283532e-01
4.012862898501071141e-01
3.409282842953728632e-01
2.540558712462212543e-01
1.864119069281624519e-01
1.067394213565612815e-01
1.654111501803437467e-02
-3.669128224814649508e-02
-8.144364672253956439e-02
-9.820684616929720168e-02
-1.050282480579392552e-02
7.483757076070852998e-02
1.820312394253921495e-02
-8.822650531118864103e-02
-1.352650190893921744e-01
-1.597633619257847748e-01
-1.833642771985250775e-01
-1.719958565881937185e-01
-1.246585570827891953e-01
-7.600460023030584933e-02
-3.792743611411478200e-02
8.640835481177205207e-03
5.082784214872178991e-02
5.104529845600605520e-02
2.847945067577130687e-02
2.830943252138978447e-02
3.130818258203075383e-02
-3.597050358091873068e-03
-5.389756012800338281e-02
-6.358499308484846790e-02
-2.903339735889025677e-02
-9.684058261703208312e-03
-1.726647122748031782e-02
2.535752872736022484e-02
1.236807952691775653e-01
1.824715390720714758e-01
1.733280944729628237e-01
8.370187829990091699e-02
-1.178951302379309535e-01
-2.594233082442338190e-01
-1.642060798190296267e-01
-2.861703437207712558e-02
-5.311590027391548813e-02
-8.719243895713953141e-02
-2.527306406302805286e-02
-2.018842613272106568e-03
-5.754465614950413088e-02
-7.273102211892475133e-02
-2.361798325436545443e-02
1.675445842797721255e-02
7.067820692396384330e-02
1.916684275604761123e-01
2.917470442622970839e-01
2.645978972380073624e-01
1.569226860174733895e-01
6.313795166749974763e-02
-1.329464623508328988e-02
-1.044409371964946376e-01
-1.823264436112753961e-01
-2.127055927768142785e-01
-2.227135907324569730e-01
-2.186821208629829705e-01
-1.573051603743948201e-01
-4.631505382855118091e-02
5.403464061051380107e-02
1.139732065316825943e-01
1.389955547516138756e-01
1.337758516253816365e-01
1.058420234396071774e-01
7.303419469384259122e-02
3.615077791605360302e-02
-1.452969983179244751e-02
-4.952124905743984090e-02
-2.290223597112473614e-02
4.649189741550663335e-02
8.329920467665952177e-02
6.560769232124903649e-02
5.132406344853093771e-02
5.665427712545567651e-02
3.281373230629935217e-02
-1.829560658898193512e-02
-6.201663732368392634e-02
-1.021657080651453275e-01
-1.242842984818913754e-01
-1.005009501403595490e-01
-6.480456478106244589e-02
-6.576042040823941448e-02
-8.425560697758249784e-02
-5.660365352596106320e-02
2.251607348459281135e-02
7.240959985485927175e-02
6.125075615076005370e-02
5.502085541889729925e-02
7.367569077088235996e-02
5.746160435715687298e-02
-1.723283738784612412e-03
-3.029557770429151115e-02
5.575068869006175043e-03
4.222669555614682463e-02
2.778387990266380919e-02
-1.507552161277563377e-02
-6.579393257245109983e-02
-9.861898944681332657e-02
-6.720754011172103137e-02
-1.024236494430972623e-02
2.842713250200733233e-02
1.266985178032028481e-01
2.765877486118101802e-01
2.957842640810099955e-01
1.472360464393211998e-01
2.822988820024981485e-02
-4.858663860518933064e-03
-1.175036523933849497e-01
-2.847044629210634392e-01
-3.057829730062209261e-01
-2.149044142662316081e-01
-1.691275867353833340e-01
-1.550017724146656450e-01
-1.050283038758195592e-01
-2.412929589953212786e-02
3.942011013991577467e-02
3.962222459126770596e-02
6.132182905200435352e-02
2.016296049055826267e-01
2.858117455951547092e-01
1.719360322884546377e-01
3.506990013224482727e-02
-3.476293659892927546e-02
-5.578255791428347876e-02
8.870450636874084582e-02
2.417072268094495047e-01
8.421347130472230103e-02
-9.103410338053211093e-02
5.419535565445871700e-02
2.783612590279080368e-02
-3.675263011861484852e-01
-3.495576516414218293e-01
1.634972728993863145e-01
2.456444863300103476e-01
-1.121307121061927564e-01
-1.722885583631540984e-01
-1.378858913074797743e-01
-4.233932795919954084e-01
-4.474412253226359715e-01
1.473414389853822393e-01
6.255937406013699631e-01
4.503665896227459498e-01
2.953597785774275675e-02
-1.322067719905191119e-01
-6.504747639668366499e-02
-1.361139219890509372e-02
2.167637356591608708e-03
9.301447540453604279e-02
2.185442640763704814e-01
2.616003163670359011e-01
2.064565298156953999e-01
7.359194363419281626e-02
-1.146830357930763711e-01
-2.381358846840521126e-01
-1.962573335819695064e-01
-1.035183431106973251e-01
-9.771972868678784063e-02
-7.582631911888002008e-02
8.556617835870981847e-02
2.588068956811245824e-01
2.738450093188024015e-01
1.560160968601082832e-01
1.059622895471578653e-02
-1.360028672788521353e-01
-3.141822013831631066e-01
-4.895563777833502606e-01
-5.381236386543680750e-01
-4.081859836531035457e-01
-1.831391266268310170e-01
5.355755717523221632e-02
2.312767251542706126e-01
2.711233684824745360e-01
2.294717166850496759e-01
2.415390798394198013e-01
2.560191385132039588e-01
1.482261417231254819e-01
2.103004875061779272e-02
9.596694336375014012e-03
4.023652269492961064e-02
5.994057149695478787e-02
1.066679448239519767e-01
1.518637990414573591e-01
1.766499394701816772e-01
1.858042759239992847e-01
1.304725650119092084e-01
1.532801189715016568e-02
-8.971541997779210187e-02
-1.741023603518111751e-01
-2.567171957793471515e-01
-3.053304489895929397e-01
-2.855268259603658265e-01
-2.302791796992231799e-01
-1.914685480476683854e-01
-1.616054004938684840e-01
-1.141295542315741846e-01
-7.311644003669036385e-02
-6.566209832490843556e-02
-5.086109294872813436e-02
1.211730691089577330e-02
7.080819949924158085e-02
6.393994354015619663e-02
2.318944397830409454e-02
-5.549843778604663866e-03
-2.012533880746876155e-02
-6.808250144770204570e-03
2.688721372832230186e-02
9.496259148761732050e-03
-8.587126707199409237e-02
-1.753346182016586041e-01
-1.511007875902714293e-01
3.252942549814378387e-02
3.540651295470971238e-01
7.488709270901281467e-01
1.099773835405125411e+00
1.275781408743527301e+00
1.235720068432246244e+00
1.005617399107562537e+00
6.256749933359311289e-01
1.987367489103699369e-01
-1.851687161311338925e-01
-5.432105785097116613e-01
-8.890490809509161707e-01
-1.171463002104908613e+00
-1.334442793386572790e+00
-1.345270288584128560e+00
-1.227645210124967301e+00
-1.032802637434487192e+00
-7.773103872859569163e-01
-5.010004722696006496e-01
-2.666866461821840728e-01
-7.518429917724772649e-02
8.570799705699014281e-02
2.014875625494375877e-01
2.850118851149183730e-01
3.683505265298345766e-01
4.771689382002938240e-01
6.042714797294468365e-01
6.836621048664134337e-01
6.738100571241857351e-01
6.305988880946056252e-01
6.125350884634569448e-01
5.613593203533793208e-01
3.992427696177167640e-01
2.136469326473835473e-01
1.294380512552316953e-01
8.005043092259667148e-02
-3.834852571506419672e-02
-1.693854542400364260e-01
-2.307716727787545719e-01
-2.368427505577231362e-01
-2.310614220840255806e-01
-2.269377736505913123e-01
-2.202619078266801478e-01
-2.197739427569360693e-01
-2.350373262276383435e-01
-2.367780275514325128e-01
-2.019589512281638743e-01
-1.666824933520054952e-01
-1.433639571974298366e-01
-8.638909481844667115e-02
-2.173935075735419775e-04
5.811633108643120965e-02
7.041230676916634956e-02
4.930206509613382915e-02
1.312347869184770158e-02
7.994379892875477789e-04
3.811316084192806208e-02
1.044003535813979033e-01
1.778000352454550681e-01
2.557767201850406069e-01
2.777516494748266673e-01
1.771385111323815209e-01
5.603702620974573140e-02
4.048756719987502140e-02
4.463476880791630852e-02
-4.493504981829621325e-02
-1.944635631357160277e-01
-3.342487394418663937e-01
-3.939128164426316525e-01
-3.238819663946688743e-01
-1.852439429492964695e-01
-8.235985376520962853e-02
-3.370743448727533259e-02
1.941864947580581452e-02
1.055269437841548918e-01
1.701162352686537427e-01
1.693092163933636041e-01
1.356300358490026836e-01
1.063409055934741165e-01
1.106741711976350767e-01
1.884252196463357676e-01
2.942287873253200403e-01
3.101455111496012051e-01
2.247944140998301144e-01
1.394429567842231377e-01
1.080338244308029494e-01
1.084600265078897591e-01
6.966727271502645702e-02
-1.224744860913226097e-01
-4.532474264996460001e-01
-7.024780802526113810e-01
-7.385889387122890337e-01
-6.235949881880661350e-01
-3.573597898050307475e-01
4.906048542777172172e-02
3.599300585206648417e-01
4.230405166359294533e-01
4.200814473451117692e-01
4.689828140301006698e-01
3.230444824871392950e-01
-1.416120307642965148e-01
-4.786294006222174824e-01
-3.192782959185366254e-01
-9.367781712595828203e-03
7.864635976570687192e-02
1.355975536138416537e-01
3.180030721296837615e-01
3.946352437000881785e-01
2.423430302546061843e-01
4.470569489891527970e-02
-7.120267804639304754e-02
-1.447011394420021912e-01
-1.561023820672557405e-01
-4.338973976113522091e-02
1.149737972732763347e-01
1.770874278708561567e-01
1.180581677465195878e-01
1.958985311529671744e-02
-6.133322286774718635e-02
-1.575569173548820867e-01
-2.832083560693353097e-01
-3.550081089339588991e-01
-3.369786252417402150e-01
-2.817195733395247981e-01
-1.942905397307363169e-01
-7.875709534595358441e-02
4.207928190494640563e-03
6.001063006869285232e-02
1.394975511074964536e-01
2.065758380181201836e-01
1.903771779384636487e-01
1.190446393838302253e-01
8.795419151845905448e-02
9.805188251483094863e-02
7.565090660868940831e-02
6.595850199049836660e-02
1.581109206370872045e-01
2.358229490786623583e-01
1.255785529703223602e-01
-6.712378294820574298e-02
-1.026718250723850367e-01
2.475139743388234115e-02
1.391879927797116667e-01
1.408457503405643740e-01
4.584476872352995225e-02
-7.506434484353519121e-02
-1.412640646945650391e-01
-1.272757994859226582e-01
-5.006986529280883780e-02
1.124828477757256889e-01
3.432057149035540600e-01
4.182574566929067039e-01
1.756532296155683126e-01
-4.422388316341006875e-02
-7.829999747055940706e-02
-7.888036686035043710e-01
-2.352611975560203295e+00
-2.679817548424592299e+00
-5.063130536002822257e-01
1.945846139491790527e+00
2.303926591173989014e+00
1.121406481810959921e+00
7.739406523015873729e-02
-8.079128203847116274e-02
3.670862997404625849e-01
5.997429953157523697e-01
2.069442933043971478e-01
-3.354985247236422774e-01
-4.491820881448985725e-01
-1.651898488418898914e-01
1.042412037886613907e-01
1.318336673026721528e-01
3.979590097233454138e-02
-3.621822116196787844e-02
-1.411482918353373639e-01
-2.628253864476771118e-01
-2.766389764193656897e-01
-1.751994181402362349e-01
-8.604476327030216587e-02
-1.339715738620888552e-01
-3.131010643130518467e-01
-4.022932856300737714e-01
-2.103476834737102730e-01
1.027893880533991278e-01
2.766589676715630053e-01
3.148712187247049155e-01
3.055146452742230623e-01
2.560412144211603458e-01
1.975313908853183198e-01
1.281311943262914144e-01
1.116031535042734044e-03
-1.192478597839467802e-01
-1.218667336176543214e-01
-2.689578818061319487e-02
6.813186442059730730e-02
1.242574144070123232e-01
1.464130429234923036e-01
1.344544238347500642e-01
8.714750169592933027e-02
2.339907118035155012e-03
-9.695794367092738786e-02
-1.699448286001377373e-01
-2.166220391713012672e-01
-2.424195161762159878e-01
-2.240497617677618125e-01
-1.627022756344847498e-01
-8.136989271671235535e-02
2.928438827424925672e-03
7.414659057289395283e-02
1.129322478016864251e-01
8.964494370449688221e-02
2.352646887233146578e-02
1.385641894763926102e-03
4.102247951706031182e-02
7.546166592546860175e-02
9.636459116875648045e-02
1.411386579201961422e-01
1.816850000960673339e-01
1.506581031032382390e-01
3.775731309808338931e-02
-7.929457397341961589e-02
-9.954065844397877449e-02
-2.873533274304235913e-02
3.047048493585429244e-02
6.671012154266570127e-02
1.480119864361825188e-01
2.266717741767955152e-01
2.036318933249678664e-01
1.018990469656258224e-01
-4.524604089097324783e-04
-8.025365694004592265e-02
-1.476309142408552821e-01
-2.126731423259290987e-01
-2.754515123936714383e-01
-3.228056988510651371e-01
-3.511686142275475264e-01
-3.613670974169442829e-01
-3.277734329793298151e-01
-2.390233862219907357e-01
-1.546759431831337128e-01
-1.373188874049107167e-01
-1.514776060408232761e-01
-1.178047702084638604e-01
-2.429464252310684080e-02
8.812873243771780774e-02
2.168836951228265142e-01
3.991285023243312802e-01
5.565980486167169117e-01
5.309381048063330777e-01
4.021870307457828253e-01
3.878801799577550335e-01
4.324376860064905181e-01
3.582720303967534270e-01
2.023361512390143835e-01
5.957461338409772433e-02
-8.618445633723090249e-02
-2.223293234241053851e-01
-2.889002746882050610e-01
-2.910515609815802485e-01
-2.550246923694921009e-01
-1.859171768724721951e-01
-1.068972524905002774e-01
-4.642982149117035051e-02
-2.544231725912097716e-02
-3.950215740626706468e-02
-5.582559604481893145e-02
-8.952682121657420944e-02
-1.617957584904646251e-01
-1.959493699970516201e-01
-1.326361948324717155e-01
-3.575106075311625803e-02
3.246576790508267502e-02
8.814129438237387759e-02
1.338057093008789278e-01
1.292962699656000358e-01
7.188676655367527701e-02
3.387255288400135844e-03
-3.906907567528294239e-02
-3.198292485641548305e-02
2.724397091420604957e-03
1.570540673011391886e-02
3.641067997537859868e-02
1.026242054381936442e-01
1.152309809832599563e-01
1.995968054987904902e-02
-5.444899435896307510e-02
-8.585664372133658406e-02
-1.982279895900638522e-01
-3.316913132413505938e-01
-3.380906869492669165e-01
-2.605476851399040616e-01
-1.930683691882462416e-01
-1.235431227350755334e-01
-4.496386547062679317e-02
6.557555060752812137e-03
4.751890645472798408e-02
1.178372019418650329e-01
1.749050384442409900e-01
1.686160190582909335e-01
1.555211038028034565e-01
1.757867949992692747e-01
1.664377944894831762e-01
1.149138150108260231e-01
9.114417027946863925e-02
1.234135449596924228e-01
2.085421433481087494e-01
3.664726613858763082e-01
5.843303293940529386e-01
7.323762442298106246e-01
6.933650691987836012e-01
5.903820786079497784e-01
5.454471254674407854e-01
3.951028609943074144e-01
6.537035345774887263e-02
-2.369130365240171843e-01
-4.103122836398758189e-01
-5.431190543597490539e-01
-6.897571007362974793e-01
-8.195748066864808612e-01
-8.860111703940206640e-01
-8.963166622712018805e-01
-8.753970859790475290e-01
-8.026509785584577950e-01
-6.680991677974400522e-01
-5.012029739739837231e-01
-3.346507640505569370e-01
-1.727447414175226070e-01
1.790509315028795956e-02
2.191622851672303252e-01
3.425997304642395269e-01
3.686746649649194074e-01
3.518334573710315549e-01
3.328610581933115764e-01
3.573259818691127965e-01
4.344770490283662578e-01
4.994619277876192198e-01
5.389749397074902193e-01
5.824479189684935720e-01
5.664848082053379752e-01
4.234265586408220150e-01
2.156581485726788983e-01
6.873839506209508676e-02
1.908176262665658984e-02
-1.529476846432792358e-02
-4.398699809039285924e-02
1.646256198266375648e-02
9.969005370979228120e-02
6.317286486981223137e-02
-7.883080573990208784e-02
-2.414383734907017687e-01
-3.331648236433180643e-01
-1.550536368352809502e-01
3.326105441066463664e-01
6.406547826868870255e-01
2.551960550060729527e-01
-6.171699413187928807e-01
-1.328797398087959714e+00
-1.469268357584389451e+00
-1.030352651601881053e+00
-2.866059327371299759e-01
3.453105307686087366e-01
5.633653708109802594e-01
4.464839951473098534e-01
3.078571369488197762e-01
2.989614251516036214e-01
3.408992331667759501e-01
2.632759630496887548e-01
-5.235619988512662387e-02
-4.276080162875927626e-01
-4.474925785738347872e-01
-4.316930459204458559e-02
3.292845355996660284e-01
3.757435916916491703e-01
3.056184102056845320e-01
2.937245190789625759e-01
2.481638566128679668e-01
1.489360806124850334e-01
6.644248519346523940e-02
-2.032265738495894064e-02
-1.097168561387564245e-01
-1.188059172804008801e-01
-6.526128247402140925e-02
-6.591035883751936164e-02
-1.383111266394218830e-01
-2.045480082704796421e-01
-2.038401076391824773e-01
-9.859302893841531690e-02
5.942238354697183811e-02
1.314324296804086634e-01
9.565596933978662286e-02
5.418417281930568846e-02
5.249920418098569241e-02
7.451821508200849598e-02
9.325884655102330278e-02
8.255481482421905826e-02
6.391844261417733986e-02
4.827748623269685624e-02
-2.263378004874029570e-02
-1.464082935487543979e-01
-2.283516383992881815e-01
-2.397510174676883432e-01
-2.263894364440431628e-01
-1.947308113880112657e-01
-1.256439190348877244e-01
-4.177044576225136252e-02
9.932499021282417684e-03
3.156891129503409249e-02
8.201126348757586948e-02
1.560818237902899530e-01
1.578348089918569508e-01
8.130029395551768845e-02
2.336257826595591891e-02
-4.417911549914489006e-04
-9.170357418257826451e-03
3.325147643668659864e-02
8.736832352170585680e-02
7.664237779551796859e-02
5.692320641794208075e-02
9.373528165539558865e-02
1.230046353288987981e-01
9.452353480177326517e-02
4.903063757251265031e-02
-2.507242074590604330e-03
-7.831175500617890139e-02
-1.273851236337958381e-01
-1.155120772898433346e-01
-1.069665500634014721e-01
-1.132158935559613167e-01
-5.564487609854722183e-02
5.578670762810808426e-02
1.295604562946991722e-01
1.467830254284588909e-01
1.360520821037616013e-01
8.114879912893020741e-02
-2.011917896149465965e-02
-9.315630803772868840e-02
-7.543800458994269487e-02
-8.884007615996303633e-03
1.562835611123892035e-02
-1.666442946422617977e-02
-4.278012714206518019e-02
-4.614723998591457876e-02
-7.286938901216485909e-02
-1.137591417040835079e-01
-1.014034633819081294e-01
-4.206490464181108363e-02
6.856060372074580106e-03
7.308370752355078381e-02
1.669337802222557732e-01
1.744650506705927029e-01
6.702322632477980546e-02
-3.620673561329455087e-02
-9.043632855286312666e-02
-1.369404466121561526e-01
-1.932184736178169382e-01
-2.646630625666617220e-01
-2.693620425849564959e-01
-1.027172991681087610e-01
7.823457865304195291e-02
7.518377624131118708e-02
3.537257688285867091e-02
1.182497096390525554e-01
2.024894649680701875e-01
1.932725872173389203e-01
1.531446243929331374e-01
1.352479551742742370e-01
1.272871346149994642e-01
8.298757098730683013e-02
2.898072176009458545e-03
-3.083089230552376117e-02
1.162448786991317207e-02
5.344944446721902609e-02
5.541587616185576770e-02
5.414035936881318734e-02
4.822070821777417471e-02
4.027824384707749325e-03
-5.073516560231899897e-02
-7.847152851188773925e-02
-1.105353874917730794e-01
-1.585656656631784789e-01
-1.729947347679186287e-01
-1.459356563966139608e-01
-1.142746919294784641e-01
-8.439340281698930191e-02
-4.278133381596893603e-02
7.942612333329889668e-03
5.123277965981992699e-02
7.481877585576873768e-02
8.001679537446826362e-02
7.468756143633215050e-02
6.454161341430836307e-02
4.683027227910892959e-02
2.661203015383622333e-02
1.872040228222531313e-02
8.825255444699134019e-03
-8.849801162158934739e-03
-3.657321455625294274e-03
-8.676277041183021871e-03
-6.686540710089308726e-02
-8.780912172186015885e-02
-1.914909483702853521e-02
2.607734091093994941e-02
2.818545753960256112e-02
1.071862006750897850e-01
2.187374856617377017e-01
1.920362078039041798e-01
5.059916035443383364e-02
-4.361789033890160761e-02
-7.113914408177737791e-02
-1.239876505940108037e-01
-2.181662795766590723e-01
-2.824975380842816852e-01
-2.485473209971865438e-01
-1.406313992596097961e-01
-4.680065216858586563e-02
3.173809987747495259e-02
1.309614364835558209e-01
1.941336726719525563e-01
1.865463484759098400e-01
1.560753063921862249e-01
1.234124920275473103e-01
8.225602276566076898e-02
3.161524375730701691e-02
-2.543419657933809752e-02
-4.051238761569650459e-02
1.317172877043241291e-02
5.966773181113767949e-02
5.323823851964639559e-02
4.758887943239732687e-02
4.938862044991806921e-02
5.577093069516053485e-03
-6.419860053154098634e-02
-9.604391702429665445e-02
-9.673264502601996995e-02
-1.186211213133935571e-01
-1.606205676465838061e-01
-1.680684077344982708e-01
-1.239909784059669839e-01
-6.796477939497119758e-02
-1.199951259025557396e-02
6.284294778930710201e-02
1.256111679306660123e-01
1.268962402649037868e-01
9.382143247230906313e-02
9.051986806845666034e-02
1.014711092992147956e-01
6.703444073113513924e-02
1.624018598012535314e-02
1.069205217885560617e-02
1.730122935086572319e-02
-5.797696615341950757e-03
-2.455687071988373743e-02
-2.862836515190639655e-02
-6.045613440285134421e-02
-1.077627898514550570e-01
-1.023616413889911758e-01
-4.151297581910835810e-02
2.055501885337480961e-02
8.575528338824330021e-02
1.608429559459136904e-01
1.826071671544816089e-01
1.201029449446965047e-01
1.583325101182127617e-02
-7.928212040684599893e-02
-1.241413837422413874e-01
-1.517079263795643174e-01
-2.385529209345954027e-01
-2.782863513557129465e-01
-1.121917594797540163e-01
9.823547264100024323e-02
1.300735308146361291e-01
8.032059748914999187e-02
7.510404398467036835e-02
6.557334085992992667e-02
3.571329243902643391e-02
2.036600907258727042e-02
1.794686476960172250e-02
1.647979811165680916e-02
5.539982467031321321e-03
-1.510115359329676499e-04
3.145680239694824409e-02
7.308398319860309744e-02
8.039691766817878837e-02
8.921965896107585114e-02
1.207511258715970037e-01
9.391810512791219645e-02
-1.512728223843784817e-02
-1.061105153918938254e-01
-1.527912294591272924e-01
-2.203189241541793630e-01
-2.609386822478492185e-01
-1.721075608296270265e-01
-7.616339675841568221e-03
9.375295038903923295e-02
9.562830703248736963e-02
6.507736915416106882e-02
6.595492416742039510e-02
8.464660275097257713e-02
5.981260073413116607e-02
-5.674728119328187499e-03
-3.249163153985579200e-02
1.279427027198624424e-02
6.978689696707041090e-02
6.807333800367905419e-02
6.658055896656966954e-03
-4.471554897931845352e-02
-4.113089897074349854e-02
-3.435708522136469989e-02
-6.526992123546476732e-02
-8.215580672404615425e-02
-4.483735862646789916e-02
2.776206311268407390e-02
1.039746320005548730e-01
1.463332507043066943e-01
1.612774220043725060e-01
2.001248278968841832e-01
2.311369167951543568e-01
1.701068079383371012e-01
4.690170527280854151e-02
-4.641675233306473414e-02
-1.182855787923569602e-01
-2.165443319640444897e-01
-2.953072680925721838e-01
-3.075785262697118272e-01
-2.898929775630010863e-01
-2.415125636175224910e-01
-1.274831413499408483e-01
-2.671306561974909344e-03
6.324675710429022990e-02
9.046266311619893807e-02
1.176863718079544235e-01
1.339861155418137217e-01
1.194517537681772101e-01
8.080149484741082355e-02
3.125845174623780726e-02
2.794466415996678735e-03
3.929020976932959958e-02
8.783079842076442489e-02
3.973559919614524927e-02
-4.484307042446723096e-02
-3.207565103056574107e-02
1.397307589870749878e-03
-5.052375874598835637e-02
-1.092431601536215657e-01
-1.357768565092197233e-01
-1.649159602379350054e-01
-1.667410161952402048e-01
-1.579459815033766312e-01
-1.713570953498939065e-01
-1.382951520983028981e-01
-6.735254670179245673e-02
-7.819614618252182514e-02
-1.137823213235994863e-01
-1.379645736868927511e-02
1.360202467856334030e-01
2.280917340267502036e-01
4.200397442067246301e-01
7.357430176779304887e-01
9.451259918411817340e-01
9.924618999095540239e-01
9.542269957888788179e-01
7.859399134679294630e-01
4.844350761715501275e-01
1.666311602914799239e-01
-1.306292904046119918e-01
-4.418104532250259897e-01
-7.147761544712928350e-01
-8.787751624881043888e-01
-9.394198611195254678e-01
-9.231634304838924887e-01
-8.566219870015330251e-01
-7.597548957265317648e-01
-6.422266040216533245e-01
-5.380896431922341794e-01
-4.566455190364056005e-01
-3.505281538659118512e-01
-2.008494995813820960e-01
-5.098046005195608354e-02
6.527208072553455920e-02
1.693571548192007170e-01
2.841413718819775225e-01
3.920565241572654402e-01
4.783901407716636411e-01
5.470972167578979084e-01
5.984868493234969389e-01
6.265868737185278370e-01
6.170200572306226983e-01
5.639123465969382298e-01
4.705218158676000573e-01
3.489394683106261663e-01
2.481288577919120719e-01
1.511823308527333043e-01
-3.479868442352590518e-02
-2.219478520340398831e-01
-2.355248855742811953e-01
-1.648055033836218486e-01
-1.905052484847151728e-01
-2.802808154089503345e-01
-3.280535658526799736e-01
-3.299931035526866840e-01
-3.223914644522833939e-01
-3.077646337777616981e-01
-2.711947542023568913e-01
-2.097934670532398405e-01
-1.410791837227568790e-01
-7.992519234590494959e-02
-1.217150882197023248e-02
7.121976478113639653e-02
1.382531723962353853e-01
1.622303611550197644e-01
1.749414994003652413e-01
2.065686351808249943e-01
2.152929669512848032e-01
1.751188339873876176e-01
1.362036355428576651e-01
1.268017237492183591e-01
1.187792233949543502e-01
7.984015947267224245e-02
1.367544711412651409e-02
-3.247229870417839281e-02
-6.288451771162484327e-02
-1.353993625325232986e-01
-2.038919121697040648e-01
-1.889892151297496159e-01
-1.377969224660535730e-01
-8.137014312992779663e-02
3.362478324131398105e-02
1.499512348217025559e-01
1.380053402654541350e-01
2.811678981639123553e-02
-5.065102416202796332e-02
-7.711959085686585780e-02
-1.058223164200350619e-01
-1.680160370919464852e-01
-2.509196069867317136e-01
-2.286132963886758351e-01
-2.551103831692315069e-02
1.343369489067267331e-01
8.641141620607892260e-02
3.809485681524897582e-02
1.240992194238020319e-01
1.951818585101862680e-01
1.671883385586006854e-01
1.123611030456958954e-01
7.430709480760357144e-02
2.564151687534037272e-02
-3.723114293548074327e-03
5.869209685954338007e-02
1.219547760183800900e-01
6.363285118176797983e-02
-1.372438700391032801e-02
-6.847764029853875556e-03
1.835425957577498796e-02
2.080943250829320190e-02
7.842142417197077095e-03
-4.420452026911761423e-02
-1.184635482043470828e-01
-1.637374332309706748e-01
-1.813338247050045593e-01
-1.858566443546843805e-01
-1.540063306444361679e-01
-9.221262608034151709e-02
-4.522339213340560715e-02
-2.909638399840465406e-03
7.135937768389445657e-02
1.475504744364342646e-01
1.810669090477702303e-01
1.694579263620575871e-01
1.148738665922806185e-01
4.479246423833664614e-02
1.941627120789637603e-02
3.852014929797625831e-02
3.659346468490346643e-02
-2.076950490643937955e-03
-1.375947978567427891e-02
1.860375657169337921e-02
-2.602999389945253109e-03
-1.167329895734613709e-01
-1.927900082917238522e-01
-1.487153325678436111e-01
-7.354179732972707106e-02
-3.967581722497698360e-03
1.210771712530515354e-01
2.297902912994020108e-01
1.834499592692169778e-01
4.146744397580791330e-02
-4.331018839426720168e-02
-8.075171248550266911e-02
-1.550873785731679000e-01
-2.546122690883260709e-01
-3.240769041484640178e-01
-2.783981071759704662e-01
-6.623886263843770106e-02
1.370517669647367820e-01
1.578079480309407812e-01
1.213994709979783759e-01
1.489069270726821326e-01
1.705871418965508590e-01
1.627627710307966713e-01
1.506569015745797824e-01
1.137581227202430073e-01
6.468696880959567963e-02
2.649748246908102331e-02
-1.125541037420374826e-02
-2.290694356211533944e-02
1.397694607206267231e-02
4.363305973203492061e-02
4.496914079324509927e-02
6.841263952775522572e-02
4.583124914837201358e-02
-1.067983139551082483e-01
-2.075448057863221174e-01
-1.300228830402307967e-01
-8.983828841247284980e-02
-1.726549753310934465e-01
-1.925421547492855157e-01
-1.312657301433832191e-01
-9.910476126211485715e-02
-6.246871401344980534e-02
1.762722024856772096e-02
7.875271778698493541e-02
1.103126934699958928e-01
1.518999247570753108e-01
1.686788126802049037e-01
1.270302662974890917e-01
8.295528570820601133e-02
7.629556819099558851e-02
6.899876031385435149e-02
3.270283679879242011e-02
-1.037336602852044140e-03
-5.832970139631243889e-03
-1.225706651655691926e-02
-5.626145666536151030e-02
-1.168801774403698396e-01
-1.296269630588123833e-01
-7.848794107576007040e-02
-2.707412432162017296e-02
2.616286877971674141e-02
1.402490932428874515e-01
2.373866079999929490e-01
2.207605301001435982e-01
1.173200566258224553e-01
-7.302670887777824860e-02
-2.776029021462422253e-01
-3.077345766208206546e-01
-2.265448261515386752e-01
-1.870932536621894571e-01
-6.917925485763183613e-02
1.207737535204389673e-01
1.438774886065646297e-01
3.602549529511510362e-02
2.718979871721387623e-03
5.106720637281005754e-02
1.005776781925216967e-01
1.146546960427394929e-01
9.413627383653587477e-02
6.442971461414356837e-02
2.423137110040724483e-03
-1.285777013301002969e-01
-2.464805954430240864e-01
-2.094149215904809180e-01
-2.511856438783001064e-02
1.363048535712793052e-01
1.881435267342947970e-01
2.108296897993033880e-01
2.239304973350035033e-01
1.521214699243515489e-01
3.336398371034071664e-02
-4.794245640938949587e-02
-1.070793520984596320e-01
-1.484248535676256087e-01
-1.466875415635509883e-01
-1.441921112553461448e-01
-1.657360961584927739e-01
-1.456792496707234874e-01
-4.757881933067607816e-02
5.987735901607669359e-02
1.101606285969028709e-01
1.251153241933708193e-01
1.375407266524050764e-01
1.243721710109926409e-01
6.777636042568653540e-02
-6.573501986194508692e-04
-5.956854449948729979e-02
-1.165546628521129113e-01
-1.340718939517282493e-01
-6.810843993489709702e-02
1.790212730178558989e-02
4.195529011483448145e-02
3.702731541019047001e-02
3.361642854864043545e-02
-1.924655252208699180e-02
-6.300289486533544592e-02
2.481370142594263584e-02
1.382941194299311949e-01
1.381405028253501199e-01
1.253694044456236667e-01
1.374603917108419837e-01
4.839981116277834033e-02
-1.044162924246875568e-01
-1.606899931801761827e-01
-1.113975693434125641e-01
-7.472158937126596734e-02
-8.908018782938267877e-02
-6.767663290167418022e-02
2.254365942468879169e-02
9.916082795800711114e-02
1.191441898727142318e-01
1.087228534856398143e-01
6.872425388651923206e-02
-5.064033893749403381e-03
-5.764611392988239214e-02
-4.771517081494495993e-02
-6.035583151401124891e-02
-1.442326711993061339e-01
-1.445356897953107012e-01
-5.684635414958871813e-02
-1.325804662514956100e-01
-2.648421922420651775e-01
-1.149302732131925325e-01
1.106755749971888442e-01
6.522131521208494875e-02
-6.760230475584000365e-02
-8.908785096855641183e-02
-1.269925517807546367e-01
-2.140476006734191028e-01
-2.348863742348834271e-01
-2.030716556444853160e-01
-1.941554946539071902e-01
-1.359904396771151325e-01
4.692002951589849258e-02
2.442599655731783337e-01
4.211341368680069364e-01
7.041099573693876401e-01
1.027970676946355244e+00
1.192347215638186020e+00
1.169025287755601328e+00
1.015762178543217154e+00
7.410629180283563322e-01
3.611325172913543158e-01
-3.673681645180079669e-02
-3.593310395636136745e-01
-6.699188356999367100e-01
-1.047075512001984565e+00
-1.312875200217463290e+00
-1.304453771580382337e+00
-1.154675995786603515e+00
-9.788365987956572090e-01
-7.397176252402054564e-01
-4.795104185834851429e-01
-2.739820108791215514e-01
-1.137356648840351925e-01
1.300063186988209551e-02
9.396386455667454785e-02
1.408644724697825923e-01
2.337392117547115455e-01
4.224027934078651292e-01
5.457990532058221156e-01
4.740344487770633553e-01
3.834748079681191690e-01
4.175518190126751294e-01
4.607500609336817599e-01
4.420250821781110950e-01
4.454316301494337660e-01
4.446672337938014086e-01
3.017890946893989623e-01
1.115944536676219401e-01
7.343467173607166887e-02
7.607358349486373350e-02
-4.429862081618984870e-02
-1.646684850520365451e-01
-1.770321412092668301e-01
-1.793509176151273365e-01
-2.295088920947024325e-01
-2.590927911516018312e-01
-2.383993377321538265e-01
-2.137390280393917097e-01
-2.071415031414515773e-01
-2.029415371665853340e-01
-1.879932083107950236e-01
-1.519446520142002377e-01
-9.661263754138940674e-02
-4.325905530688756856e-02
-1.257333849979241219e-02
-3.289552523592538524e-03
1.602798847774924290e-02
6.808789760219452480e-02
1.330160481557572105e-01
1.823326356898979650e-01
2.092247695556338494e-01
2.155616521571290800e-01
1.899432641767605512e-01
1.219126507556401312e-01
4.269993033315946235e-02
1.717067834369020995e-03
-5.353336157920024485e-03
-2.706811290990952107e-02
-6.445736625653639140e-02
-7.084643841838272893e-02
-6.108962166744105055e-02
-9.693119759074532438e-02
-1.507922813227951520e-01
-1.273074963223417566e-01
-3.037437295577680857e-02
4.891590635647444230e-02
9.653070789250711714e-02
1.320678763720573856e-01
1.046875613539689359e-01
1.539028949605382793e-02
-5.243055433252081371e-02
-8.428136016034533384e-02
-1.232409956885947289e-01
-1.768143324365274993e-01
-2.214071140727158771e-01
-2.114778091307211172e-01
-1.259772192102249500e-01
-2.391668082114885990e-02
4.677357914663687888e-02
1.180136162625907703e-01
1.880079161675105581e-01
1.914902914292705427e-01
1.387114580998151103e-01
1.126864612772969787e-01
1.092716554742040602e-01
5.381110950395831538e-02
-3.816713944205414599e-04
5.127454999853928164e-02
1.012653202582511486e-01
3.590415078398515036e-02
-1.668689879756418692e-02
7.695905086101482995e-03
8.708453507229291235e-03
-1.127009930990894443e-02
-1.637726964168695343e-03
-2.816834098419655069e-03
-4.607222528265100814e-02
-9.995307771829795018e-02
-1.280673039557820025e-01
-1.325612230023837657e-01
-1.395885035133570540e-01
-1.378773747862416243e-01
-9.577593039734719205e-02
-3.043366320380241213e-02
2.710842253130961096e-02
7.521616727565505478e-02
1.110704903722466164e-01
1.303074439304129917e-01
1.341764968126337720e-01
1.119848428090072234e-01
6.585737673776202727e-02
3.074734511682868793e-02
2.504840507708255143e-02
1.790163347682170725e-02
-1.078413997865166479e-02
-3.112279178816112352e-02
-3.732083891289696143e-02
-6.625190403404827844e-02
-1.041534983272888043e-01
-1.001947598235522902e-01
-5.468024067201163185e-02
1.341133705869640771e-02
1.058908393891678790e-01
2.031633461809889685e-01
2.506738420941384549e-01
1.634310793025465780e-01
-6.099899458860565810e-02
-2.216244075752257237e-01
-2.084078671899560198e-01
-1.985915069533562005e-01
-2.590676554548390076e-01
-2.451513559441999002e-01
-1.397981224149401625e-01
-3.511373656651690239e-02
3.843154380987600510e-02
8.636076848356671887e-02
1.240603335817608566e-01
1.628448795471608423e-01
1.867425234104380938e-01
1.676802872182016624e-01
1.037669542220447660e-01
4.597380219690717917e-02
2.580310968162871296e-02
9.474575252574300721e-04
-3.548681517122216633e-02
-2.709687420373019934e-02
2.531948066876060083e-02
6.450733198347782804e-02
6.656392724881725342e-02
5.185348188452850587e-02
3.773196261738362423e-02
1.298865211211517288e-02
-2.568996029380780921e-02
-5.713700317507201809e-02
-7.330693219203905653e-02
-7.953738872112536828e-02
-7.652319961323525432e-02
-6.878442748856367084e-02
-6.111018855197884042e-02
-5.684929228624435726e-02
-6.042333730044331663e-02
-5.438039664641135251e-02
-1.705759790825879529e-02
2.592376989827506473e-02
3.904978642968340297e-02
3.263086250281491130e-02
3.428652237831435884e-02
6.734909025013485762e-02
1.272101531646031292e-01
1.482695966678414801e-01
9.140231454459171734e-02
1.969121036426215582e-02
-2.617838165645699350e-02
-1.004957036383662267e-01
-1.783056379303692429e-01
-1.343649125224695706e-01
-5.411827631781641890e-03
6.556813001640454663e-02
1.157845678318404070e-01
1.908086867193055647e-01
1.555472301453706407e-01
-3.183502730474154635e-03
-1.216277269393002541e-01
-1.638184776888615968e-01
-1.642963344671679593e-01
-1.281393630257765259e-01
-1.348750091735389234e-01
-1.746235461350514606e-01
-1.378225163796575892e-01
-6.923123217004306662e-02
-2.886680009926547233e-02
2.045179428154179566e-02
5.012763360771612525e-02
3.362285455614004437e-02
8.402833040523197822e-03
4.326625356060820327e-03
9.678306717300087791e-02
3.126527712297116346e-01
4.532469496047843438e-01
3.321958548485021701e-01
8.588745089925449439e-02
-4.799764175032728009e-02
-6.536717744969801347e-02
-7.061531800910028633e-02
-5.528775081863766816e-02
1.071900304955984706e-02
7.171514004727377878e-02
8.780460352751962017e-02
7.864582893821289722e-02
3.492397999718616780e-02
-5.868415043008070459e-02
-1.506064804390952749e-01
-1.892961173904234295e-01
-1.898567711498948540e-01
-1.830454052062764347e-01
-1.693726328515539059e-01
-1.322739820052002968e-01
-6.444025321994081845e-02
1.841378113339984385e-03
3.092870544885541889e-02
5.997511136477395172e-02
9.484852147412024814e-02
4.296374662479236078e-02
-3.519871500705238493e-02
3.139931927390095245e-02
1.203762195704434906e-01
3.385498109685453755e-02
-7.141586522272602711e-02
-3.715014353826535942e-02
-1.547575692180518624e-02
-8.934995599590958570e-02
-1.120193826236273865e-01
-6.773493427661789190e-02
-1.110022701676652013e-01
-1.658142683909965553e-01
-3.063628660885985358e-02
1.365627398161010086e-01
9.280460224621796261e-02
-1.648555241321533055e-02
-1.188807940492003778e-02
1.894702494346224911e-02
-3.421508169695687378e-03
-6.226262488673653395e-02
-1.396416503145405941e-01
-1.588764650590626382e-01
-3.409281368149397196e-02
2.088360318311759389e-01
4.824303005270017541e-01
7.050243416250183692e-01
8.369705729039599307e-01
8.982494542553458583e-01
8.242464123281841859e-01
5.154187120325143256e-01
1.386069553465486548e-01
-9.188092229736324890e-02
-2.828596350644937418e-01
-5.382218045340981805e-01
-7.304370930008954321e-01
-8.102062624225730980e-01
-8.494558376651948350e-01
-8.426736280766307097e-01
-7.553094714818986422e-01
-6.124152503863352637e-01
-4.528080209514004917e-01
-3.100985767924735459e-01
-2.117542394602407452e-01
-1.334790864031453472e-01
-2.702910737614497294e-02
9.075490879245418085e-02
1.695488835902741742e-01
2.307698881986442463e-01
3.323085650480869235e-01
4.510186029490876880e-01
5.191292549133228462e-01
5.442341603976486031e-01
5.665850385347992457e-01
5.553330074765786550e-01
4.808145207337832794e-01
3.881464345098473712e-01
2.945921561034928748e-01
1.773061257306917105e-01
7.092249171375733519e-02
-3.696775664769266778e-03
-9.199636390125447150e-02
-1.971541480964542903e-01
-2.818431005314933069e-01
-3.279861563521405676e-01
-3.225101393914216463e-01
-2.856156423347266937e-01
-2.448915015774794646e-01
-1.697593405448420689e-01
-6.684432471616454097e-02
-2.443687652559273921e-02
-6.325524462236012391e-02
-1.033177487953377827e-01
-9.673313010707722259e-02
-7.317126788591986342e-02
-7.625383436933011461e-02
-1.109747259424503640e-01
-1.393159281503980329e-01
-1.142483628329292733e-01
-3.005554943829118197e-02
7.130689698503568652e-02
1.573421525487831152e-01
2.184075566202953178e-01
2.366368165555023662e-01
2.164475276775202350e-01
1.811392419261394771e-01
1.280933195112519407e-01
6.902292429654009742e-02
1.021959455197781613e-03
-1.081350246939322135e-01
-1.445477653044444366e-01
2.159397671772880778e-03
1.216895628988562406e-01
3.996550266550578934e-02
-5.956867390384657651e-02
-4.598272188092270701e-02
-1.000159266686331296e-02
-1.969585196892288323e-03
-1.674109410676025839e-02
-5.654616539226672151e-02
-9.417444673710853587e-02
-1.098982762626720122e-01
-1.157852000327722480e-01
-1.152518384411566760e-01
-9.125462871409452392e-02
-2.908194863571212166e-02
5.523898471740609772e-02
1.158889231889379534e-01
1.352383739232463911e-01
1.454002414573849766e-01
1.477634996490163055e-01
1.005752919141865431e-01
2.943793809258295202e-02
6.683713605495043841e-03
1.806472586655493220e-02
7.354590559784714501e-03
-1.292264072489397730e-02
-2.094136451310489935e-02
-5.047852452053006728e-02
-1.059213226339137393e-01
-1.171345535727855436e-01
-6.858539967973825702e-02
-3.413825691986460686e-02
-1.856097602372664898e-03
1.036156198849688126e-01
2.040311435597104428e-01
1.658633702335831628e-01
5.118468188047209377e-02
-5.130293951166147760e-03
-3.958833707107838051e-02
-1.474251563045789748e-01
-2.732914719637825618e-01
-2.986537596071942025e-01
-2.293839451863968204e-01
-1.508999545567375478e-01
-6.563546348265499042e-02
5.182481699469881214e-02
1.368851395423786310e-01
1.622049383953609869e-01
1.837548190915925250e-01
1.801045953578050141e-01
1.136333024697584182e-01
5.666165265083195068e-02
5.083520361458879894e-02
3.054659168843826267e-02
-3.250950886904278858e-02
-6.328422440545651562e-02
-1.883447183181171519e-03
8.049852352448148840e-02
7.967217607604544505e-02
3.382113602106098099e-02
3.554859917861041829e-02
4.962558519292511322e-02
1.038304552932324890e-02
-4.665503750410050082e-02
-8.776718572572461685e-02
-1.217701508740165611e-01
-1.350100538670082617e-01
-1.383835049898524405e-01
-1.495377701141605564e-01
-1.155574414270992972e-01
-1.548712125864509619e-02
7.521309101813418441e-02
1.123606557185389543e-01
1.274304190623394561e-01
1.372879924475637892e-01
1.262741966475042221e-01
9.186723264576865389e-02
4.490148584732767817e-02
2.249567702832759933e-03
-1.982223045770825295e-02
-2.454383985024442480e-02
-1.009494296622183603e-02
1.293495986467530119e-02
-2.068471277030774561e-02
-1.167849192496389493e-01
-1.686823669561857142e-01
-1.347171644343048702e-01
-6.621059635391092490e-02
4.253051146469832844e-02
1.868402665048879141e-01
2.441969691326874026e-01
1.477040361642197042e-01
1.266055705057760744e-02
-5.033945096628525406e-02
-8.811887356426106876e-02
-1.682193684574431469e-01
-2.409057063192989734e-01
-2.377879615479271957e-01
-1.727173140968219500e-01
-8.358550237393966298e-02
8.152797186637212451e-03
9.064562187599960186e-02
1.615588955574185914e-01
1.903733741853108341e-01
1.576400031300823623e-01
1.231782731060828973e-01
1.219659137484459255e-01
1.068669101247292225e-01
5.574095330401875048e-02
-1.173417349872711915e-02
-6.384370067140714144e-02
-5.284593938390727552e-02
8.522299397473079297e-03
3.777373844062399677e-02
1.591501269374259384e-02
4.482291568460401374e-03
1.113494588149711514e-02
-1.570325117199767792e-02
-5.582488027357225546e-02
-6.691529583523445068e-02
-1.046199988916846346e-01
-1.824481402569861355e-01
-1.953352050103690507e-01
-1.291767558950644990e-01
-7.442462631519970728e-02
-3.035282315067597270e-02
4.543493610594172283e-02
1.184623709977716127e-01
1.561677851911800752e-01
1.650470432658323605e-01
1.428622707845668138e-01
1.041527021756979421e-01
7.644798936929796118e-02
5.385363828818984927e-02
3.173787098231072717e-02
1.771580409267223266e-02
-3.648967919400562115e-03
-1.526535200121487829e-02
1.545453983907074669e-02
2.014155918410083512e-02
-4.727829302678827200e-02
-8.887830150449400890e-02
-8.882540141988697069e-02
-1.313661967409834874e-01
-1.289702587260176114e-01
1.114709870778757099e-02
1.259856895041077396e-01
9.286859631006977311e-02
3.343703531237886967e-02
3.166731618572529716e-02
1.524103040667097730e-02
-6.138938712776875750e-02
-1.529446433660601734e-01
-1.995513171772157479e-01
-1.739175006348354924e-01
-9.108679211797564290e-02
-3.219977307278984111e-03
4.839138885308995330e-02
8.447924226063839581e-02
1.269373289640756131e-01
1.318050283561442715e-01
8.372485450387229244e-02
4.424756282070098357e-02
1.829717140683551763e-02
-5.711282047930719974e-02
-1.466012875666460880e-01
-1.370966728728547357e-01
-3.593760299845091821e-02
4.050948931701214839e-02
6.208540072447199520e-02
9.501019960777951079e-02
1.468666866652248160e-01
1.589053154247652422e-01
1.196802990597023858e-01
6.702377591005337365e-02
1.402194396995257511e-02
-4.870393695378547050e-02
-1.046984320222602571e-01
-1.182764242132653409e-01
-8.615267789324358716e-02
-3.708330952089254617e-02
1.559738446971334000e-02
6.792639588947922691e-02
1.029763628104208156e-01
1.104455885695143358e-01
9.313132725731151917e-02
6.082822404430372060e-02
2.890346131142096028e-02
8.039232561258255472e-03
-2.941139131401957624e-04
-9.847158259134094344e-03
-4.098687160643843530e-02
-8.512404316734288601e-02
-1.138473835280933710e-01
-1.345955504981483641e-01
-1.919698098147908927e-01
-2.782064221931271897e-01
-2.916526761783576061e-01
-1.841694337118708058e-01
-4.599699310909040328e-02
6.956608825841187338e-02
2.029904621764099248e-01
3.221854807075750227e-01
3.256359112905487518e-01
2.072890128721594227e-01
7.713447870175507703e-02
1.258480272649549828e-02
-3.443268260304552242e-02
-1.298788958352318501e-01
-2.260063279515548695e-01
-2.316186417223319860e-01
-1.606098460088171698e-01
-9.633648579948597690e-02
-2.512441311014538756e-02
1.139099429841883837e-01
2.176523694650580321e-01
1.728581433640701825e-01
1.190184115823339078e-01
1.805545963043417024e-01
2.184184172147083380e-01
1.295653959386359189e-01
3.079679626652728763e-02
6.895139480298670409e-03
-3.035885443387925653e-03
-1.704115435681046939e-02
1.335577125967020093e-02
5.082140659955126927e-02
3.139502329465213709e-02
-1.494285414389086124e-02
-6.001949125262494994e-02
-1.457700808182062491e-01
-2.567919198562635952e-01
-2.862694944209669412e-01
-2.045732975434078060e-01
-1.066450483762109852e-01
-5.637938752909034401e-02
-2.585361416696371067e-02
7.522536971720922283e-04
-4.242784067007496218e-03
-1.908874735234209960e-02
-3.367334285374997543e-03
2.391129152096549415e-03
-1.588240543265935154e-02
9.758758078148913745e-03
6.052530629619261304e-02
5.066930544718772217e-02
9.789223804497875978e-03
2.398088115220827973e-02
7.927399459779953250e-02
1.011188729346744614e-01
6.937524542142045614e-02
9.263533944676119458e-03
-7.124024452417565545e-02
-1.506270628397780031e-01
-1.652475711728593200e-01
-8.845243326994764455e-02
2.605115541162222187e-02
1.207555111333745018e-01
2.003247073776026621e-01
2.849865998045486015e-01
3.601879223415587195e-01
4.315476898126928695e-01
5.220326544073928821e-01
5.681376093216777834e-01
4.730329629751139908e-01
2.650404852381159082e-01
4.851189523556073691e-02
-1.549666586076084984e-01
-3.648338898389398288e-01
-5.277925009740442874e-01
-6.009290466686336707e-01
-6.324375722477754147e-01
-6.472488703042409419e-01
-6.042368770816740620e-01
-5.115584515364819396e-01
-4.218674195867060384e-01
-3.240756920478167213e-01
-1.825162645612322943e-01
-3.059211274942537362e-02
8.331323287060982130e-02
1.599739045702054385e-01
2.168560755196790590e-01
2.762158993734393220e-01
3.450904639906880456e-01
3.800053690926629146e-01
3.583506459373647646e-01
3.278276874025887744e-01
3.140182693434627192e-01
2.850281154385830296e-01
2.263292569374492635e-01
1.475686062328994130e-01
5.929713978367677496e-02
1.575111159633421631e-03
-4.866778644222052863e-03
-1.369298110411854008e-02
-4.498288689747262370e-02
-4.956092682485917222e-02
-4.437086276509125821e-02
-8.579565705211023019e-02
-1.408553385222761078e-01
-1.603517833357026579e-01
-1.602060497310678344e-01
-1.499117758740784179e-01
-1.154767913562999709e-01
-6.761728799307153981e-02
-5.187999710921666757e-02
-9.983841063587164943e-02
-1.167957236840163615e-01
4.331400032601146616e-03
1.401715119582716829e-01
1.587811530256122983e-01
1.345621594597039006e-01
1.077958137163090857e-01
9.284350515538265791e-02
1.472799916128363640e-01
1.653803708508240489e-01
5.408751988702158869e-02
-5.673030944832674338e-02
-9.848244339296749472e-02
-1.563070039071239592e-01
-2.505775141858403443e-01
-3.190947592767491292e-01
-2.702989653548971694e-01
-6.984033427663338678e-02
9.224750394813803489e-02
5.534906787427749941e-02
-2.382214382678604636e-03
6.144716892676244102e-02
1.036605704664537442e-01
5.745530705921587239e-02
2.784924001210830474e-02
3.333649794877331651e-02
1.598526216916261802e-02
1.058333218663643806e-02
7.150818667002006856e-02
1.328715004895903440e-01
1.284716873392824643e-01
1.104433078782917216e-01
1.112006113283903891e-01
8.691585091963387188e-02
4.093548702186836086e-02
-3.781122683830434594e-03
-7.207139240982421424e-02
-1.376293786912546335e-01
-1.429148773244508785e-01
-1.303947016999641717e-01
-1.445061231970522220e-01
-1.230043664462644321e-01
-3.892935465840112463e-02
3.566880907447610161e-02
6.316006062298629153e-02
7.052260720153689932e-02
7.498150272271901506e-02
8.056199648998502161e-02
8.263710976603165503e-02
5.982458757809588912e-02
2.337692519909820299e-02
1.122792639630460637e-02
1.514513464226669749e-02
1.062730391087247754e-02
9.596649495404608460e-03
-1.090497468268312314e-03
-6.815790437583268968e-02
-1.496221794065993593e-01
-1.428706446205488811e-01
-7.724674220753031950e-02
-4.692505395643188637e-02
2.368871255545444005e-03
1.357772298043792847e-01
2.280131841991742681e-01
1.572769896538738221e-01
2.129000680641188539e-02
-3.430421805832964410e-02
-5.140880070608963570e-02
-1.404510275991427692e-01
-2.507639201171022458e-01
-2.618262089924358049e-01
-1.863434894028334621e-01
-1.061321583714933958e-01
-4.157709771787851394e-02
1.714308492600053260e-02
1.043658237864278637e-01
2.483987965424365729e-01
3.349240858577223756e-01
2.506082248615079666e-01
1.128548266747071982e-01
6.140796370677949895e-02
5.462975874315483676e-02
1.781919426262891515e-02
-3.761772739590284187e-02
-5.624881852974573937e-02
-3.103520556391396734e-02
-1.864937037687775315e-02
-3.513403665157234512e-02
-3.662690206154867179e-02
-7.511709258601791117e-04
4.666062074187486697e-02
4.742098957779987412e-02
-1.913701941750771407e-02
-8.531660388373774051e-02
-1.025287314464656263e-01
-1.069907352127710265e-01
-1.208665788464727137e-01
-1.192739465798738074e-01
-7.965883964713717236e-02
2.690567063336550893e-03
8.013908104953762490e-02
7.807030686122690133e-02
1.501546113697953266e-02
-2.551513177888085904e-02
-3.239464399743604422e-02
-3.212946860025096135e-02
-1.062146163258033058e-02
2.382663977618136586e-02
3.908909477339765626e-02
5.309008360836632578e-02
7.223920695577995543e-02
5.902103414602927894e-02
3.082226099261461613e-02
3.264563104384927278e-02
4.821675001237186314e-02
4.049637137756580824e-02
1.014256386516448026e-02
1.654403239556337391e-02
1.034173758925031883e-01
1.755925891018228768e-01
1.286576993279170411e-01
3.528557963300402861e-02
-8.153714375815419857e-03
-5.002719770081480444e-02
-1.490792193404328336e-01
-2.560920199702850231e-01
-3.131006701862643071e-01
-3.165590069410248453e-01
-2.541132512269852484e-01
-1.213840221724719198e-01
2.287370960739441156e-02
1.117893908057055602e-01
1.307938667837128532e-01
1.243665236523922857e-01
1.505627527020546308e-01
1.765702910758452371e-01
1.202248475832284058e-01
4.483122091875976073e-02
9.267826487137718894e-02
1.998526925865261039e-01
1.784851607099022797e-01
4.896132705480350789e-02
-1.836258066495202734e-02
1.124017236690574850e-02
3.247062987073792012e-02
-1.952869350733877490e-02
-8.522532731066075062e-02
-8.394848427127876711e-02
-6.271395217157330060e-02
-1.024476916653374592e-01
-1.442287155112230157e-01
-1.161793204576647282e-01
-9.156731123109129733e-02
-1.304316791843423695e-01
-1.531622708377501085e-01
-9.830520277108827087e-02
-4.635312744454012784e-02
-8.616037260699518918e-02
-1.190801235838527539e-01
-1.452289234966345696e-03
1.426021183308455453e-01
1.281085248618402672e-01
5.375773970837301879e-02
5.521378370110427425e-02
7.904674344857742785e-02
7.884162496584516677e-02
8.648904575987013954e-02
8.522329156828022112e-02
3.094121875777818345e-03
-1.367251393035230078e-01
-1.825300265607625871e-01
-9.327857445634318845e-02
-9.147851699024558969e-03
2.933067971798335866e-02
1.183519130088280663e-01
2.390794052236209222e-01
3.034621766898383810e-01
3.398645983266150306e-01
4.035121120608375911e-01
4.664868535075220590e-01
4.706482845809079607e-01
3.770067777612597926e-01
1.900683694266995516e-01
-2.844479788889413274e-02
-2.012453808435940850e-01
-3.093448457821447173e-01
-4.041612054259454689e-01
-5.075622365837832994e-01
-5.685216702925955934e-01
-5.737692209020771594e-01
-5.689463706986204183e-01
-5.415468542528305562e-01
-4.718225460232755575e-01
-4.112358751100735343e-01
-2.982070268266850954e-01
-3.469431056493539611e-02
1.823235240689655978e-01
1.717726930741875213e-01
1.456370706243812485e-01
2.758856280542851813e-01
4.072106693223556118e-01
4.094152743842838782e-01
3.581604736345879725e-01
3.464567998322511388e-01
3.494640987652605224e-01
3.041713866789841347e-01
2.278434024359647647e-01
1.754517321361764859e-01
1.182343567306856358e-01
2.914846696862941067e-03
-6.120649511033644796e-02
3.981358027145173728e-02
1.238263862255947478e-01
2.110773653746332579e-02
-9.902127791344883523e-02
-1.103553660725937607e-01
-1.158776130643567881e-01
-1.488738293886836539e-01
-1.700696173188294136e-01
-1.961653851070778998e-01
-2.188972575109535967e-01
-2.047558686522392701e-01
-1.726647592374099816e-01
-1.589508293102406544e-01
-1.566956269269191848e-01
-1.343919968515532304e-01
-8.613865772328288539e-02
-2.105084904348086122e-02
7.006629057085408951e-02
1.726674939485238758e-01
2.256992246651520762e-01
1.921514342036891310e-01
9.073118651369382892e-02
-1.097587487931903083e-02
-2.452968342113101552e-02
3.645480799959641832e-02
6.798033959720664599e-02
5.912010452336673161e-02
5.444084003216539958e-02
2.650052255960217568e-02
-1.807605661961230945e-02
-9.238392216769017451e-03
4.313351896423388288e-02
7.845193554601387342e-02
8.417113014420386785e-02
7.212858751982791083e-02
6.046726082623861409e-02
5.259472212299174526e-02
1.817604280930635446e-02
-4.517002461866809898e-02
-9.878928472657871884e-02
-1.255791451798627945e-01
-1.400981240804897443e-01
-1.607859286044441005e-01
-1.803834300129525947e-01
-1.587124193775567016e-01
-8.490349692942236737e-02
1.551775778305689024e-03
7.371902073904143537e-02
1.200144944912454881e-01
1.249613658929385196e-01
1.006057183738537919e-01
7.340576275653776239e-02
5.044364118730273322e-02
3.300956379619121583e-02
2.383863633156971251e-02
2.646233754998408849e-02
4.746822633875994596e-02
5.851446871631065666e-02
7.912129668058332996e-03
-7.624552658917183035e-02
-1.114832161858624049e-01
-9.251603865082030920e-02
-4.342815098638415361e-02
5.901050622844721677e-02
1.721050062859418583e-01
1.836088874610639077e-01
9.998527967873230282e-02
2.463063819252769848e-02
-3.402308607852766453e-02
-1.262505851061197226e-01
-2.271402666862187558e-01
-2.784685785263900093e-01
-2.535307593711021434e-01
-1.579323834903543222e-01
-4.748869616980803954e-02
1.357327575753354554e-02
4.672382709998877670e-02
1.092813156627635285e-01
1.725984069561229961e-01
1.852995486168248496e-01
1.633914666536146754e-01
1.233343712761706124e-01
6.780615069521363225e-02
1.909157688642850251e-02
-1.919640992485968645e-02
-4.389367767110169405e-02
-2.939172264305404264e-02
1.488773362097154523e-02
4.897561859260932127e-02
5.628872349289384958e-02
4.673113542975969315e-02
3.988401625738171447e-02
3.670792233930413040e-02
9.974305319862677294e-03
-4.268885338814532027e-02
-8.283630852058954108e-02
-1.086179108435622043e-01
-1.716917746086482066e-01
-2.561011940586186419e-01
-2.570419898088183719e-01
-1.768619679041614490e-01
-1.337959337239814084e-01
-7.891613323539280189e-02
1.268693657188869617e-01
3.463854682132961882e-01
3.644650494008210284e-01
2.736849164069908857e-01
2.305287189493638866e-01
1.728232020879558462e-01
4.069072393399059129e-02
-7.352810061198783442e-02
-1.034561527871200870e-01
-9.492338531572055982e-02
-1.046002129464886354e-01
-1.425366459577273870e-01
-1.696829929653796698e-01
-1.284105889407429202e-01
-3.671161234523027950e-02
4.239460891375779195e-02
1.336526615868384726e-01
2.508346436142387947e-01
2.712773836952870887e-01
1.349888852009746287e-01
-3.292822145144307100e-02
-1.300039189322876876e-01
-1.853537089033078233e-01
-2.386981475389932661e-01
-2.752805385932376447e-01
-2.794864228024909747e-01
-2.542862896805955786e-01
-1.794814178205706157e-01
-4.778719012182901932e-02
8.423798975579936676e-02
1.817641698725212529e-01
2.462844507872915534e-01
2.255915499990663320e-01
1.212773263216270769e-01
8.080599858697956606e-02
1.610070392703144282e-01
1.972284264552992550e-01
8.014533224971308323e-02
-6.546465172610071992e-02
-7.610045486321184716e-02
6.087847852148572936e-02
2.099000302048846800e-01
2.165018483466187860e-01
1.011009428663718068e-01
1.876728601662109100e-02
-1.342700844190643228e-03
-5.393002114093137928e-02
-1.485559783066491835e-01
-2.092384559627560869e-01
-2.154813199151313918e-01
-2.107141003014959824e-01
-1.966414835780443127e-01
-1.398451632086926411e-01
-6.832324990295243761e-02
-3.269380930285044340e-02
-2.215651902364636910e-02
-1.455292362677812826e-02
-2.537376394003003355e-02
-4.650243238715144611e-02
-3.481979641427344896e-02
9.735077910925225841e-03
4.628152561156126388e-02
4.933250109005909989e-02
1.946493098409345091e-02
-1.235827426994305124e-02
-1.325954589810307907e-02
-7.624164435982774303e-03
-4.888339954425578726e-02
-1.207507416819592477e-01
-1.385515586570774949e-01
-8.316544941256734380e-02
-3.893805278629174776e-02
-3.390632189458151619e-02
1.868924756364214249e-02
1.363438434838734892e-01
2.260862374715963130e-01
3.047063194428916155e-01
4.902463125470586935e-01
7.370745876904429839e-01
8.649650642200166217e-01
8.071947782624234735e-01
6.200154748460156018e-01
3.748310347450165003e-01
1.295487408677528651e-01
-1.091039456992729806e-01
-3.603192728612364393e-01
-5.884288594984218301e-01
-7.440513632705864078e-01
-8.264511433484168501e-01
-8.411973550572900971e-01
-7.901692916803770839e-01
-7.091113950147889256e-01
-6.336992274464210428e-01
-5.555831560608677222e-01
-4.370527598307153427e-01
-2.715075270464537005e-01
-1.190455561382177951e-01
5.761775527648560491e-03
1.698131562219671598e-01
3.410281221146819197e-01
4.266631405424515799e-01
4.706881856521774044e-01
5.311369538419796754e-01
5.550710309345108229e-01
5.367679295463270162e-01
5.154295144553123764e-01
4.403674775263509700e-01
2.975511521655602176e-01
1.790993678080591567e-01
1.036872532299923377e-01
3.937107712941816107e-02
2.073301203372658608e-02
2.722531179810057378e-02
-1.953532136124323804e-02
-9.559364675570262981e-02
-1.443698291811890688e-01
-1.815864341994660180e-01
-2.171633381965024090e-01
-2.346069249516588018e-01
-2.310671433301060007e-01
-2.022281610834104071e-01
-1.675840617239934549e-01
-1.659743469142364591e-01
-1.734119679651182078e-01
-1.348520518611044383e-01
-6.253048667121836879e-02
-3.375287633186216385e-03
5.308877243076911417e-02
1.559714748070491486e-01
2.696727974313211096e-01
2.673155053703883399e-01
1.379208502867413921e-01
4.190256554177009679e-02
3.357377103347487096e-02
-1.800829844902610000e-02
-1.444083113099309534e-01
-2.295930925671244571e-01
-2.231708734319009513e-01
-1.556405501919445600e-01
-6.928732922172725628e-02
-1.323266540631454213e-02
1.690500575235729178e-02
6.624478237318418006e-02
1.137725389591465741e-01
1.088783604115879100e-01
7.553521057232655267e-02
6.080710893342767404e-02
4.891803544473655868e-02
1.184857197837474625e-02
-2.321835362375722009e-02
-1.176886055033281309e-02
4.987749386419670222e-02
1.196611482643193530e-01
1.366081281058593166e-01
1.057054047074965086e-01
1.093477641854049831e-01
1.048363311915386231e-01
-3.165614814151443412e-02
-1.778394668404566503e-01
-1.660777644039942436e-01
-1.200343439328335482e-01
-1.423147853742090518e-01
-1.437777636715238672e-01
-1.157118514819355098e-01
-1.015567982929098945e-01
-5.984377026898922425e-02
1.769825879491674497e-02
7.444011846899963036e-02
1.004484362004265940e-01
1.206837893132711587e-01
1.139056124235958006e-01
6.200916185225983229e-02
2.048162913100517318e-02
3.103011958923313635e-02
5.051505160046405873e-02
3.724163541711691255e-02
1.253553926665946540e-02
4.078479496533796156e-03
-2.519856514073025300e-02
-1.171406432152677229e-01
-1.643484070140141251e-01
-4.590666310201488992e-02
1.022119027374408101e-01
1.356197673274702475e-01
1.631795114863446305e-01
2.093644916414043322e-01
1.358538546653924595e-01
7.314760284619274341e-03
-3.757723762436363663e-02
-8.261976544298624270e-02
-1.856475625140556196e-01
-2.325840935888491834e-01
-2.094724600996788477e-01
-2.023915380964533828e-01
-1.923894961160954875e-01
-1.349499720539295289e-01
-5.888219666649855549e-02
1.503297398207992241e-02
8.625897215983976962e-02
1.315027777306985446e-01
1.439617983448396310e-01
1.478361273300985435e-01
1.479260034450521344e-01
1.274957848324352883e-01
7.979629774039360968e-02
2.273219540821989904e-02
9.990880051534357237e-03
6.304660611742465837e-02
1.046776020598221002e-01
8.677245786929266291e-02
6.554442544742038190e-02
5.412297836751901736e-02
1.641817345049387603e-02
-2.688509688223613553e-02
-7.505356421602688011e-02
-1.533808300777855793e-01
-2.050936682230461716e-01
-1.872154119509876480e-01
-1.600756277464519539e-01
-1.487513709111643878e-01
-1.033806255648746647e-01
-3.359792856946953316e-02
1.557571728874523539e-02
6.690330043619185929e-02
1.309794660050017934e-01
1.553657708344789168e-01
1.261820235329339512e-01
8.661924314023743132e-02
6.420995228116900544e-02
5.028712678980637452e-02
3.211041973902388491e-02
1.891983701560770448e-02
1.728867324458404839e-02
4.544990060986651981e-03
-4.159453999650027101e-02
-9.524207050435291866e-02
-9.942192762329887801e-02
-5.466520880531876292e-02
3.196898409833110691e-03
9.197010719998069406e-02
1.814818508346906500e-01
1.696890968009446832e-01
8.070791047525824324e-02
1.184617742105704453e-02
-4.687913733495968627e-02
-1.209945202289549882e-01
-1.928535076718314589e-01
-2.562280246272441442e-01
-2.582526848872514491e-01
-1.541885728613150430e-01
-3.784499545512353541e-02
3.935182488189685468e-03
5.170664210828863211e-02
1.699515225846384425e-01
2.216711908328596325e-01
1.057252459387393179e-01
-3.462988421400567396e-03
3.262114626639413956e-02
7.665049469295999451e-02
3.135897256676734024e-02
-2.915783421500575678e-02
-4.806718486469767349e-02
-6.943523947456751999e-03
6.138117200232207776e-02
7.564385634537786063e-02
4.986111769384381914e-02
4.428741788033512677e-02
3.454866620860605475e-02
-2.926868339425720174e-03
-4.406439632145987828e-02
-7.246903260985694539e-02
-7.314693470202701664e-02
-5.357323369968183813e-02
-4.890454981504387122e-02
-5.768961139407515620e-02
-5.733124168054481301e-02
-4.898871545725230064e-02
-3.416666565636267139e-02
-1.362163042582286571e-02
3.262481349050603760e-03
2.560923702313996214e-02
6.027344269687136963e-02
8.500081151392599454e-02
9.417956461550242020e-02
1.000165691448409305e-01
8.356068208454996149e-02
3.165467622735461395e-02
-1.634799493756797575e-02
-3.638186554961321539e-02
-7.354652659203028686e-02
-1.419213074567740041e-01
-1.577722464508982403e-01
-8.292345716461586858e-02
4.325934629703845195e-04
5.132608791369014378e-02
1.249343550542948295e-01
2.130275231800517477e-01
2.186048802207310460e-01
1.240592739158367375e-01
2.307090461502435061e-02
-2.642814702271534602e-02
-5.920247844892816136e-02
-1.293322522766153782e-01
-2.361496176303967964e-01
-3.044947222077521998e-01
-2.663445690579392400e-01
-1.580761599094599734e-01
-6.052935829513048094e-02
7.414046279895482316e-03
6.358031193672744608e-02
1.131283579018736996e-01
1.544217950975478593e-01
1.703185164468859758e-01
1.416923257999846419e-01
9.740716071478322524e-02
8.570507136506218260e-02
1.045312238223007201e-01
1.198304447134581063e-01
1.091742886549863928e-01
7.182804596961014920e-02
3.935296138893978196e-02
3.978525573688290740e-02
4.669307102853485769e-02
1.741236708525299021e-02
-4.899263791730039397e-02
-1.298327094019466055e-01
-2.015453868994077913e-01
-2.240904535397279518e-01
-1.817882003054333284e-01
-1.259485496079717770e-01
-8.948572397593151928e-02
-3.964265946637970939e-02
3.065840404343493988e-02
6.997603185284786975e-02
4.072608322647577883e-02
-1.107858489412117536e-02
3.450173447889968992e-03
7.259265026354749795e-02
1.019108872694708956e-01
8.159625397432490601e-02
7.111399519850197803e-02
7.355446352666954180e-02
5.269188263397174554e-02
6.213579424149505773e-03
-5.501859360227338153e-02
-1.473053250261854297e-01
-2.466844624279151965e-01
-2.517080429636952554e-01
-1.512555322115646250e-01
-7.088249713684043052e-02
-3.767881267754857183e-03
1.593482429247514709e-01
2.787333198718094929e-01
1.724159132442077136e-01
1.504257056470677256e-03
-4.181771563130906588e-02
-2.934866253765114341e-02
-5.555137566592315002e-02
-1.002572347337872816e-01
-1.027705974974647135e-01
2.015319888780210678e-03
2.073593633970597372e-01
4.158922399574909168e-01
5.563665989789259303e-01
6.188276534077729041e-01
5.833601079766569386e-01
4.265378553098623238e-01
2.085647091018100197e-01
3.283894680850549253e-02
-1.557704778260983469e-01
-4.622521149503895366e-01
-7.001071592272845034e-01
-6.723071740561082921e-01
-5.721504838965340012e-01
-5.779471462906451418e-01
-5.592587138105089561e-01
-4.285266934385745796e-01
-2.736439884869165673e-01
-1.627307081762436602e-01
-7.817766909374959661e-02
1.104999267939139884e-02
8.953249569091570326e-02
1.368293226222641878e-01
1.797166860718208137e-01
2.342778313367436249e-01
2.498376922777013620e-01
2.000698083308889708e-01
2.053192851675403885e-01
3.605624089418531519e-01
4.820772809982687424e-01
3.897982499400274303e-01
2.385778656612468074e-01
1.944746727118191187e-01
1.759459859297302919e-01
1.015459931679730254e-01
2.905042644623490045e-03
-7.906295845792453425e-02
-1.040533696285018683e-01
-7.672624550016200751e-02
-8.674357356414166831e-02
-1.682768854765431810e-01
-2.438745308187718619e-01
-2.581164567937421772e-01
-2.190052071106499687e-01
-1.516027058969978414e-01
-6.653836480635183515e-02
4.699645700906081996e-02
1.376261881112401664e-01
1.183617657318784683e-01
3.705223391445167103e-02
6.205562911348147526e-03
9.796628623067923577e-03
-3.185979876634396912e-02
-1.188663893341254524e-01
-1.901143447470294845e-01
-1.962445431382306982e-01
-1.341849306314847612e-01
-4.901859053678313261e-02
1.589171827547939536e-02
6.757229686317908768e-02
1.225159097041940148e-01
1.582857211583329482e-01
1.560550954319001593e-01
1.340290046163199467e-01
1.002120564215640969e-01
3.602374122532463890e-02
-4.298106404490899951e-02
-7.661730735918539925e-02
-4.017644982894587324e-02
1.889169407191758354e-02
4.657291794082133590e-02
4.461758325648643858e-02
4.500653143503110382e-02
4.935648964599845950e-02
2.797125558873884976e-02
-2.197217450256671450e-02
-6.028279976749709168e-02
-7.027687834648672915e-02
-8.053741032744683725e-02
-9.517282506042890056e-02
-9.164934358852729057e-02
-7.996753760451971726e-02
-6.796532971881909246e-02
-2.681748353552436404e-02
4.242641597087297434e-02
9.548055033952468351e-02
1.090366996142051181e-01
8.740417010817973231e-02
5.034665363414465161e-02
3.402238576892555738e-02
3.920051909032372384e-02
2.555032847786780498e-02
-4.150354370595218771e-03
-2.112076157171993360e-03
3.152859331090296369e-02
1.975386533777944917e-02
-7.401742948954782852e-02
-1.256076205546635682e-01
-4.120259238452821798e-02
4.295208810067433630e-02
5.211854028730360244e-02
8.367324864728584166e-02
9.795187963871368475e-02
4.804364691605433890e-02
3.966505096681745973e-02
5.597324271342606766e-02
6.156603500323653243e-03
-7.896131771641320962e-02
-1.695356739029854620e-01
-2.508163061964922003e-01
-2.600476143411897811e-01
-1.892487807980525738e-01
-9.381040252044757499e-02
-4.363062925233678752e-03
7.134357137613001054e-02
1.341701040983035997e-01
1.749947487265288149e-01
1.659217728854784080e-01
1.278816653795989688e-01
1.115992533585884738e-01
1.044580022087132909e-01
7.000880781597880465e-02
1.303736446511556332e-02
-4.013442693455432364e-02
-5.450853028085449192e-02
-2.088728535034369005e-02
6.686052016330134781e-03
-6.790674764712001203e-03
-1.338225684674290705e-02
1.476508631842301210e-02
2.589740994432154775e-02
-1.224176654920920183e-02
-6.962954237175794647e-02
-1.142510172151621622e-01
-1.300019742579584803e-01
-1.104868045378510077e-01
-7.663292516635460128e-02
-6.036026885447366014e-02
-4.854697885291856668e-02
3.780686072891354527e-03
7.460840651587781480e-02
9.808064806471387953e-02
9.371735222859545189e-02
1.120760214273541361e-01
1.179691479799740983e-01
8.204797777335520736e-02
5.308300466880692958e-02
4.067336091234331763e-02
1.066871004934978259e-03
-3.227866971429510512e-02
-2.202156448840746072e-03
2.476840823516508749e-02
-4.415089407135591726e-02
-1.531142599460317555e-01
-1.837334715435892107e-01
-1.455262321256930724e-01
-1.016700590716664437e-01
-6.967106071311184208e-03
1.478343192560426789e-01
2.272093930685927798e-01
1.850295281228372946e-01
1.371257124775799308e-01
1.378717193055820356e-01
1.119404926340920453e-01
-5.522096044140140103e-03
-1.630037752784559701e-01
-2.435425739514613941e-01
-2.130414853501029215e-01
-1.515588972628092168e-01
-9.763504204745111770e-02
-1.087411111290677648e-02
5.091741374279022680e-02
9.172237669934912851e-03
-5.067327074453326780e-02
-7.239403041893197055e-02
-7.350122954733541436e-02
1.112618624070425832e-02
1.407846061803740001e-01
1.665586413898696994e-01
1.232111145351367509e-01
1.244161422332904082e-01
1.435658467452929077e-01
1.177150542118988452e-01
5.934864373002624732e-02
1.363187459537650026e-02
7.436411724493708492e-03
1.481821984413835350e-02
-2.388473662883738857e-02
-1.042739973687394905e-01
-1.555037097359593667e-01
-1.630683188077688972e-01
-1.675860143751494724e-01
-1.559700184666009681e-01
-1.038532867690800388e-01
-5.395613005071346613e-02
-4.058445593049059275e-02
-4.842040897387071829e-02
-5.480241312789654873e-02
-2.708161649739453114e-02
3.054285389069909956e-02
4.699006880007989412e-02
1.838537555818665903e-02
3.301319757400808519e-02
9.284997200418092234e-02
9.739719195503190874e-02
2.926027801631705255e-02
-1.266417132785359681e-02
8.847515848321566012e-03
2.378372078608127077e-02
1.582751298040042942e-02
4.240415121189963776e-02
1.127124686153871541e-01
2.066791886119622446e-01
3.352790348126676312e-01
4.806760610680856360e-01
5.546191468906143118e-01
4.869128778767862764e-01
3.320242993142775156e-01
2.035574085355881246e-01
9.044536395745737811e-02
-1.172360238583340791e-01
-3.970464408155987002e-01
-5.988184664736888596e-01
-6.774060931488947723e-01
-6.934848428384766672e-01
-6.573305567356044765e-01
-5.605473019518003586e-01
-4.383927270341508309e-01
-3.139934446470139529e-01
-2.033635439392004196e-01
-1.329208727573227278e-01
-7.179523799600953660e-02
7.164986710007398285e-03
5.372945447735558155e-02
1.235963371823678159e-01
3.238076286460022102e-01
4.889929707837959438e-01
4.548185589193102785e-01
4.051392464916114267e-01
4.547781487688359880e-01
4.536673142079524212e-01
3.576987132406465042e-01
2.500485796446479947e-01
1.461932766519144500e-01
3.900381386873551237e-02
-5.107170882396461220e-02
-1.090801094206468175e-01
-1.433478622146510117e-01
-1.863666578234760562e-01
-2.388788954731044523e-01
-2.399345743741843617e-01
-1.738082617237274308e-01
-1.107432677269478416e-01
-8.459017427476327178e-02
-6.500431396369484027e-02
-4.073323669116008655e-02
-2.412870437613244198e-02
-2.119044176662885151e-02
-2.740892983757752671e-02
-2.194059592859660263e-02
1.169178467659169260e-02
6.081584108265880584e-02
8.496790199286266554e-02
4.647739782054650243e-02
-1.695313611095525946e-02
-2.460021243657949108e-02
8.664185099546833912e-03
2.945365422272067449e-02
8.574651488826502688e-02
1.953515327687159464e-01
2.267859677404054364e-01
1.207446235220077796e-01
1.128999904898671421e-02
-2.648403454852862188e-02
-8.297822445149122261e-02
-1.937650360996378551e-01
-2.754426470330823551e-01
-2.868394860026594606e-01
-2.525087442067386889e-01
-1.776379482489696404e-01
-7.423454796568068614e-02
1.109632479840943348e-02
6.310085127625861268e-02
1.068541939499162569e-01
1.442839506888232703e-01
1.531269751392890510e-01
1.363978733868528859e-01
1.136049940936717378e-01
7.551262245092034420e-02
2.348519065548339280e-02
1.637823895950239056e-02
