6.781684207417378041e-03
-1.056953947072844097e-01
-1.661210734406520229e-01
-1.771480094691939566e-01
-1.448571444044903234e-01
-1.081422192280497713e-01
-1.429537404006790413e-01
-1.922686833828313180e-01
-1.430105263925835202e-01
-1.109287078919456299e-01
-2.245602904000880418e-01
-3.138316295240118903e-01
-2.180795314916780525e-01
-1.764983506389740733e-02
1.818476203685953363e-01
3.289191947250570958e-01
3.838039570968642678e-01
3.546352328462408221e-01
2.632267660469485016e-01
1.195262389699915384e-01
-3.390018127216404276e-02
-1.274487585375979337e-01
-1.324186701987187798e-01
-1.454741619345205628e-01
-2.235598814155895231e-01
-1.747577149474913438e-01
2.423507407197308949e-02
3.162290243196096140e-02
-1.801678420863800645e-01
-2.424106398119325601e-01
-3.220068396706365910e-02
2.354639830265289613e-01
3.066567199438595681e-01
2.145340250988204689e-01
2.491147717644857096e-01
3.399077920941181996e-01
1.969804869473231190e-01
3.491996388600093759e-02
1.061806557252781141e-01
1.533744662628668542e-01
7.505373481410603301e-03
-1.618548422516485896e-01
-2.142674095441937376e-01
-1.355985276112492699e-01
-8.923303127429282888e-02
-2.505469399482577741e-01
-4.550327230699354186e-01
-4.980316300443711763e-01
-4.232476249941301005e-01
-2.336919107692838338e-01
2.029654761272216973e-02
1.823647099909694869e-01
3.291825620228217009e-01
4.623520768207946552e-01
3.255292176852300212e-01
3.111601254357902052e-02
-4.247327045682021407e-02
7.011857558820941416e-02
1.305147834222215308e-01
1.397898290405353017e-01
1.430212729561614327e-01
7.063922259136645732e-02
-7.234903171208165173e-02
-1.690499234384940652e-01
-1.668351108020755813e-01
-1.358580987739761714e-01
-1.401513160082284992e-01
-1.399641270200228937e-01
-9.695603922623391435e-02
-1.043586596145070627e-01
-2.109003519096669110e-01
-2.076777616828976158e-01
3.215261071002979698e-02
2.333424740162068911e-01
2.081082440297391534e-01
1.644643062098839481e-01
2.097568469047795814e-01
2.015062479344355284e-01
9.751428484661466001e-02
-1.042611082142315057e-02
-5.607597179484289512e-02
-7.125780154648447828e-02
-1.292763894850586237e-01
-1.838771488219389794e-01
-1.431471372994934099e-01
-7.948464132225377399e-02
-1.170535021752417693e-01
-1.899671407911443233e-01
-1.268829562134540234e-01
7.359854708574278814e-02
2.453349013752085250e-01
3.001046286814960107e-01
3.025936152326185180e-01
3.710311416963543718e-01
5.494094659448709450e-01
7.105151417674736569e-01
7.012957930981591481e-01
5.404007344700597626e-01
3.160632670172953129e-01
4.757544118363013497e-02
-2.775268930948430190e-01
-6.220114303997575922e-01
-8.315640682283357288e-01
-7.969909206034699878e-01
-6.885695656615367088e-01
-6.727136301260620010e-01
-6.297251110004802310e-01
-4.892661989925919386e-01
-3.581099835570489276e-01
-2.410121144860174758e-01
-9.031145527703082765e-02
5.087278915678139501e-02
1.579641048871973097e-01
2.502633637645935161e-01
3.160226067570399699e-01
3.400112108324530036e-01
3.274363602237316817e-01
2.903327388757053207e-01
2.570096253016844745e-01
2.336066966368434694e-01
1.974859955204248951e-01
1.711054821038983376e-01
1.802632349448874960e-01
1.799182460782168536e-01
1.436303524280741206e-01
1.089657340854110201e-01
8.697404909263577177e-02
6.546078592934619078e-02
3.891158637243680857e-02
-7.071467531464249723e-02
-3.036283837182198742e-01
-4.662400585192274516e-01
-4.032300161410595774e-01
-2.524225817662327787e-01
-1.265702453316664977e-01
2.341336672950535686e-02
1.674129083051815736e-01
2.266811291057494460e-01
2.185252884410918139e-01
1.889381824631964080e-01
1.440322032438680899e-01
8.529118571155505646e-02
3.533993503579304502e-02
8.368903401083434279e-03
-9.880799890588959355e-03
-2.250876287107504703e-02
-1.833880298746436155e-02
-3.677078730274095653e-02
-1.143525104432707579e-01
-1.812543305370797053e-01
-1.743989775002808829e-01
-1.454265292508964136e-01
-1.100212251607657482e-01
4.631091810152284174e-03
1.659364298261910009e-01
2.401328831858882684e-01
2.064368823013932874e-01
1.387360027572364096e-01
5.314847061116029225e-02
-6.435674524084233905e-02
-1.776993666978250175e-01
-2.348003803576714232e-01
-2.540456717240375806e-01
-2.845783820915563367e-01
-2.401623233422324477e-01
-1.871896492336787635e-02
2.013112353167290092e-01
2.036836216269805044e-01
1.098123162640985417e-01
1.019861749572810450e-01
1.239586783845089968e-01
8.943514279826272895e-02
4.204606233133864612e-02
1.321557307085709926e-02
-4.628668188554709712e-02
-8.757063143338428279e-02
1.258637390586285834e-02
1.380363099286974760e-01
8.908693802982611820e-02
-1.983447921909027578e-02
-9.177502346588060911e-03
4.462787831351673618e-02
3.690269904339557594e-02
-5.700300092081786799e-03
-4.382962993534175039e-02
-5.561104095404378889e-02
-3.074390715675378791e-02
-8.263434861485022265e-03
-2.018496611320879514e-02
-3.862182154250390353e-02
-5.274768332880942767e-02
-9.498018232915464432e-02
-1.464305081634106054e-01
-1.419861415041043795e-01
-7.955079619803001600e-02
-1.022297554517865963e-02
5.566302203891702882e-02
1.402269347435492752e-01
2.196883762094829218e-01
2.333035287093154497e-01
1.782966402798198680e-01
1.138137819696431879e-01
5.806862711729216669e-02
-6.591518180655980830e-03
-5.674466786357564019e-02
-7.745040682227125051e-02
-9.740417211542541642e-02
-1.225701928883120850e-01
-1.473636918601790025e-01
-1.764889981171575140e-01
-1.714174947226996815e-01
-9.110179645239301072e-02
3.264767086932349877e-02
1.551627674100529708e-01
2.550446032615392711e-01
3.114845633757608034e-01
3.325446638950175782e-01
2.682393911266890418e-01
4.053919430118609751e-02
-1.829359794247865378e-01
-2.291160883414627425e-01
-2.791709140057232474e-01
-3.868581503137762945e-01
-3.068920907233761430e-01
-1.307217359034853199e-01
-1.362297877869653451e-01
-1.840426632331910173e-01
-7.167588689299317362e-02
6.787260032323315373e-02
1.163951481962267470e-01
1.381747248151913576e-01
1.666175315620772590e-01
1.842594909550051008e-01
2.000374953345374074e-01
2.129256817129780432e-01
1.951175630501955083e-01
1.328752811273612444e-01
5.328065661038961648e-02
-1.716190263654650272e-02
-9.524518626277118927e-02
-1.532571842263764084e-01
-1.140167317346123116e-01
-2.775424413183189346e-02
-2.702373013746206531e-03
2.491171973653732215e-03
4.046920155093252508e-02
4.745490744135346523e-02
5.607995389800599084e-03
-3.349569171373738274e-02
-6.103448203797430527e-02
-8.505615948226283307e-02
-1.024894098801971964e-01
-1.300781833617865868e-01
-1.631644797696598370e-01
-1.329716277560688553e-01
-5.101487129997326307e-03
1.305221082994103277e-01
1.839642342915406015e-01
1.860747250667462993e-01
1.838963720156017723e-01
1.506928661327039398e-01
6.644247757232057960e-02
-1.946673249807598371e-02
-4.904554090812994482e-02
-4.234041108088134470e-02
-5.527731047163788464e-02
-6.836320970381261353e-02
-4.886849441230452229e-02
-5.066533528160634819e-02
-1.124691458093870916e-01
-1.754923431943444245e-01
-1.690939049804143779e-01
-1.011324883810961750e-01
-2.186048091309635705e-02
8.238627403791834447e-02
2.230236928631026960e-01
2.967110589601087423e-01
2.549581971093803912e-01
2.061347580689387449e-01
1.911696429438700662e-01
1.105556034770479035e-01
-7.465278190435387096e-02
-2.596420387377862959e-01
-3.397220037923782687e-01
-3.556337756543325179e-01
-3.760614587370672002e-01
-2.975202284191015289e-01
-4.849069413837523573e-02
1.612778483241635030e-01
1.775412397529859132e-01
1.480257375162392086e-01
1.712706995509000463e-01
1.797926093813331794e-01
1.618397579241805939e-01
1.281731740865752200e-01
7.261660975271450047e-02
5.183729296302270334e-02
7.894246849581039449e-02
6.663866651598143731e-02
6.206525839983351167e-03
-1.021275839481867315e-02
2.109065595910294272e-02
2.463174163418129989e-02
-6.336652211389140477e-03
-3.140987068101105950e-02
-4.213874235459953016e-02
-5.521233113948660620e-02
-7.192007475149267415e-02
-6.423283555405617795e-02
-4.844855990348749530e-02
-1.010682013776781074e-01
-2.104566634604674580e-01
-2.718398104682663852e-01
-2.550394602292667678e-01
-1.985790635748520550e-01
-1.218586854571773459e-01
-4.589999165034684692e-02
1.371956613924284196e-02
6.599751177915953726e-02
9.172185769204463379e-02
6.005615269298275605e-02
2.030203401809895641e-03
-4.050635821850405438e-02
-7.827553020609624712e-02
-1.163945419893580302e-01
-1.310606817165436977e-01
-1.080062377125087653e-01
-5.201184958433768130e-02
2.968215862367898014e-02
1.641823855832020007e-01
3.528768818716772060e-01
5.013069230917753805e-01
5.667745443159021290e-01
6.003335813827337386e-01
5.983245180357424919e-01
6.048370053342168040e-01
7.048576036911512466e-01
7.214413527050407282e-01
4.629611961052917390e-01
1.106902863216972649e-01
-1.661532823273032811e-01
-4.230059586927132909e-01
-6.381959592549641958e-01
-7.974979269010520344e-01
-9.661106719113540242e-01
-1.072931302613770344e+00
-1.032988672238000394e+00
-8.890415276041516712e-01
-6.792086374707866359e-01
-4.357345378228330013e-01
-1.863949431890792874e-01
8.675342032872196407e-02
3.023948176030150092e-01
3.620733563271227862e-01
3.595692926476682372e-01
3.701509582942766885e-01
3.539163729443026707e-01
3.530077584862705842e-01
3.820842953899263872e-01
3.474616290247155015e-01
2.698366519986896694e-01
2.648950877856899866e-01
3.071354163250450409e-01
2.379328849814738578e-01
3.705332010453628311e-02
-8.572713376393961693e-02
-4.879123385732844764e-02
-3.133815458752865768e-02
-8.596605507039380145e-02
-9.956951352506858421e-02
-8.928288089176883435e-02
-1.310117989370714886e-01
-1.960675663583185679e-01
-2.343590173253178310e-01
-2.327498461992951739e-01
-1.717967174242353845e-01
-5.487871133741423213e-02
6.389100891588955777e-02
1.510747058899279682e-01
2.037052766972345941e-01
2.100968388861669256e-01
1.873930655322862959e-01
1.655630595719415898e-01
1.245774679470391388e-01
5.486500756834643971e-02
1.086274267309779787e-02
1.109473064300208617e-02
-6.370709602813221656e-03
-6.833687585735112591e-02
-1.357077687574613778e-01
-1.967725211072041402e-01
-2.548489960842514890e-01
-2.608614947562794550e-01
-1.804701233531365856e-01
-5.421303940164219626e-02
9.178376275821410746e-02
2.518944848715400919e-01
3.327322258839776614e-01
2.661904763949056729e-01
1.581836556493861901e-01
8.508476058462624558e-02
-3.172162825518069773e-02
-1.901016119527460524e-01
-2.707260512646684214e-01
-2.546358193219542820e-01
-2.046866343741729766e-01
-1.391464379333565982e-01
-5.470069796645433274e-02
3.874111721850438672e-02
1.020978062275084419e-01
1.135066798905135094e-01
1.274222964620153886e-01
1.146693119985181114e-01
-9.300719152924571270e-03
-9.095837601692403906e-02
1.145608452665470428e-03
6.014938913431939344e-02
-6.741977779040404795e-03
-7.522566902848429327e-03
6.603784003382170975e-02
5.324170950687943937e-02
-2.469019582712255606e-02
-4.611800475096890228e-02
-1.494059290003266552e-02
-1.749640970454943018e-02
-1.840682066926909929e-02
9.192864613722763478e-02
1.971745275444143908e-01
1.147223783751499387e-01
-2.170664159591572870e-02
-3.746648433194277317e-02
-3.651111070062293407e-02
-1.139711012831026160e-01
-1.920586694555656004e-01
-2.166111614453322676e-01
-1.887165988033861763e-01
-1.010751536782513865e-01
9.738189813157452357e-03
1.037750909711245839e-01
1.981104502127189193e-01
2.660386923304854379e-01
2.415666129218043967e-01
1.439494230683301679e-01
3.761649850829715258e-02
-3.709210625679496692e-02
-5.437011065608755855e-02
-4.391350714436068753e-02
-5.598641959730345230e-02
-6.239467296779261513e-02
-3.840897045438078361e-02
-4.708971961492264963e-02
-1.120157727065060754e-01
-1.533501959085439015e-01
-1.317941390155218107e-01
-9.005723541687335465e-02
-1.684107407036276871e-04
1.800713910842804688e-01
3.122731358392318302e-01
2.842091473969151072e-01
2.231770999579695269e-01
2.088923353811710792e-01
1.283742654000994132e-01
-5.800672397106935302e-02
-2.291983076811481834e-01
-2.829659641328097219e-01
-2.433064992659666192e-01
-1.878064251922936800e-01
-1.357753389906779795e-01
-7.776428266617267659e-02
-4.562646994857167543e-02
-5.676548518532102683e-02
-6.999269250563873446e-02
-5.614887259810239645e-02
-3.262775541556884457e-02
-1.037987380642277357e-02
1.222925943892944414e-02
2.903365426685092926e-02
6.042389230311538684e-02
1.139682232616606172e-01
1.305410070357499175e-01
9.273072206225217717e-02
6.590619142274425912e-02
8.017269544770307121e-02
1.048842543450375642e-01
1.009605060709894975e-01
5.726079630511697605e-02
9.712324931528199673e-03
-1.240091283368952024e-02
-2.169968866563826496e-02
-2.308165371005913707e-02
-2.041639372862526572e-02
-5.240118403405389508e-02
-1.216981903679011517e-01
-1.731475405787110677e-01
-1.836751390743170120e-01
-1.510059754478381422e-01
-6.510860190572323458e-02
4.083484988825215878e-02
1.405190594532663151e-01
2.377115637808443482e-01
2.730517083182731897e-01
2.063136009188034636e-01
1.294921977586404593e-01
1.044543034455623631e-01
6.727530435677520071e-02
-1.062699806220103807e-02
-8.633967534752381989e-02
-1.470441943311388000e-01
-1.781626738732159376e-01
-1.481429366877874687e-01
-1.069709025708529548e-01
-1.355857952324754367e-01
-1.891774656619093775e-01
-1.667419442507981631e-01
-7.292588574614974894e-02
3.734763482842365367e-02
1.202957062852597070e-01
1.325503939629785188e-01
1.332693195068626879e-01
2.072835416031773015e-01
2.729531572157355424e-01
2.366300283904307911e-01
1.296912474254937608e-01
-1.754251608951971214e-02
-1.749196064291904107e-01
-2.783830659432902643e-01
-3.078403993251540016e-01
-2.800340167878547781e-01
-2.123935407445178836e-01
-1.240170435292120982e-01
-2.936972877992760286e-02
4.160408835304631875e-02
7.149550608513803585e-02
1.045095495807242814e-01
1.666986052162323928e-01
2.023165784203310724e-01
1.660202606820161686e-01
9.629522673931938115e-02
6.192490844420864976e-02
7.362420994683793740e-02
8.401799331054940478e-02
7.689105714726743313e-02
8.518971284959810097e-02
1.120529577735774190e-01
1.167629430467651414e-01
7.902511397743303134e-02
1.568829985402780958e-02
-5.677116071850626250e-02
-1.324349478256527934e-01
-1.968010440426603280e-01
-2.240644973004871088e-01
-2.033819821916313664e-01
-1.738085961437806914e-01
-1.866011820519614950e-01
-1.930267825931178960e-01
-1.049898653009820187e-01
-1.439082338139713660e-02
-5.086325905905331873e-02
-6.474156979508749465e-02
8.451744745650598134e-02
1.927594208478075333e-01
1.094269791864069530e-01
-9.128439698108035266e-03
-5.580588265384187063e-02
-9.068960625976872636e-02
-1.251864796117829193e-01
-1.132774579255601544e-01
-6.669750608591348828e-02
-2.996528108218756911e-02
-1.054130931238203041e-02
-1.928320436200445199e-04
3.888909273088516933e-03
3.669899234889058282e-02
1.359921168193654606e-01
2.839027399862463219e-01
4.126721317860274074e-01
4.496348079757551131e-01
4.289930018833565395e-01
4.452676482717431439e-01
4.348838933788150007e-01
3.035942628591614123e-01
1.569040667753571483e-01
8.954021546144041999e-02
1.430886626746107060e-02
-1.338053299057518630e-01
-2.584948940014384355e-01
-2.613269660074367118e-01
-2.502938068165396768e-01
-3.593660066263318908e-01
-4.439121092032911053e-01
-3.697404506434836535e-01
-3.012916866277499661e-01
-3.326001786512083891e-01
-3.474676502550298474e-01
-3.220154193026275591e-01
-2.923485121061935033e-01
-2.196742514016757353e-01
-1.126820492552928765e-01
-2.218917010013582436e-02
5.958692321871141007e-02
1.259238082768371902e-01
1.443214531778339305e-01
1.527647130265833986e-01
1.930196277775328706e-01
2.241333434326491514e-01
2.136533137395784654e-01
1.877602380671726523e-01
1.669260580841532005e-01
1.619425704233332930e-01
1.831848641409507261e-01
2.087422630609256646e-01
2.052028364880846834e-01
1.366407772062768478e-01
-1.778449064966239335e-02
-1.520922385039900071e-01
-1.445964700212989951e-01
-1.074931736642803504e-01
-1.607004360849915436e-01
-1.611092903070311111e-01
-1.493176553779198418e-02
1.262308073367870709e-01
1.531147135427402273e-01
1.268008106630592879e-01
1.076427158536914230e-01
7.729446405248063812e-02
2.155014648357977958e-02
-3.263507787430423857e-02
-6.133190677082902414e-02
-6.375931616216021225e-02
-5.541649012252132522e-02
-5.146397720567119638e-02
-5.697652508493736279e-02
-8.259695867438969497e-02
-1.271805166238317852e-01
-1.485292484503192290e-01
-1.113863564219603891e-01
-3.567600562499766148e-02
5.322127393180445254e-02
1.512350133902241878e-01
2.213919826892188358e-01
2.141987942142559997e-01
1.424946253800036255e-01
5.911524061196307689e-02
-3.388664858872918878e-02
-1.757223842148315784e-01
-2.827161883849402813e-01
-2.213739622722644962e-01
-1.134892698198771699e-01
-1.218131804339276925e-01
-1.115257794662459223e-01
1.270092553263420417e-02
1.077127333683762928e-01
1.125531206619327790e-01
9.674209770130606789e-02
9.168855545630770487e-02
8.998969107810383949e-02
6.942873791908822645e-02
1.965308620668717796e-02
-2.453865207355858391e-02
-3.327545819683910139e-02
-2.052121021186674443e-02
-1.979771919543747705e-02
-4.522736385973929324e-02
-5.114875119013945898e-02
1.730322151292153221e-02
9.140917211161408984e-02
5.336374040964843302e-02
-9.237881047385997774e-04
9.043458989945314663e-02
1.675215027121862432e-01
4.889104050405762569e-02
-6.809680841556724207e-02
-3.655058453020004761e-02
-2.435846487785124637e-02
-9.424935714894258632e-02
-1.138443158348041162e-01
-9.817141713682203674e-02
-1.659698855047821442e-01
-2.093074308891431645e-01
-6.391349773158300218e-02
1.331258983260041606e-01
2.004879201886571871e-01
2.000518528109160310e-01
1.933358195441964023e-01
1.272185959716191084e-01
3.206742183597634244e-02
5.083052537259297177e-03
2.457275653746922306e-02
-4.552035146265185142e-03
-7.508525211745870065e-02
-1.094280060925261477e-01
-1.103180537915598725e-01
-1.449793665509477025e-01
-2.025843814065987347e-01
-1.928744559283130933e-01
-1.039905015510387831e-01
-3.217093490284331225e-03
1.142142835223524389e-01
2.612437696880212656e-01
3.435987893413471883e-01
3.140422285543269521e-01
2.345129538892837817e-01
1.112464655645395289e-01
-6.391597768505692667e-02
-1.998099934027265934e-01
-2.476281615925087776e-01
-2.524769849293123647e-01
-2.049277025068955704e-01
-9.920726526831118164e-02
-3.032748379887418438e-02
-1.360048720391874091e-02
3.791687772267592071e-02
9.220562401838909572e-02
8.218367756333809504e-02
7.001155141302664586e-02
8.182057207706441848e-02
5.221312325026992995e-02
-7.596988511561917658e-03
-3.220478045724466110e-02
-1.909799614294772907e-02
-1.819932404776511414e-02
-6.125796833494463051e-02
-1.129664024210303569e-01
-1.139447641567168934e-01
-4.981857756417543137e-02
3.888314881054262540e-02
8.309491864382716197e-02
6.737335842678621178e-02
5.075211075373705499e-02
6.362763072549050547e-02
8.566902780580266941e-02
9.375752554251598481e-02
5.079268011736749050e-02
-5.020468995483819141e-02
-1.414419610949628758e-01
-1.903569087973969731e-01
-2.191016681667672106e-01
-1.809703347603733303e-01
-3.183168887181312551e-02
1.455922563897650845e-01
2.372324524590077310e-01
2.177256426618151830e-01
1.437058110359057672e-01
6.431253792566084260e-02
-1.735571373418419439e-02
-7.365462917298359891e-02
-5.950378630928390700e-02
1.590183317214977077e-02
9.933917901602164202e-02
1.316514797248843349e-01
1.082093507757575651e-01
8.048587036262447314e-02
3.275925803407287590e-02
-9.028719926476523605e-02
-2.227966285167448102e-01
-2.545039087204594708e-01
-1.953912336383549497e-01
-9.739342585254653906e-02
4.379578419131356648e-02
1.938320994654185170e-01
2.555813130773403330e-01
2.187494711892850607e-01
1.688739463984381683e-01
1.179810641188469983e-01
4.435006066423132637e-03
-1.558838344519820895e-01
-2.837092152937419343e-01
-3.432644010604823936e-01
-3.418579221405463331e-01
-2.941123517209389693e-01
-2.071223237785479176e-01
-8.873919753109796305e-02
3.397374662690695601e-02
1.438013298962227404e-01
2.244158172571964482e-01
2.394871266772563567e-01
2.097224512054513823e-01
1.800774022847503597e-01
1.256113788520838714e-01
6.445048063159639073e-02
6.515006879695287023e-02
7.165430551523445379e-02
1.695568957645604904e-02
-1.674105855148924973e-02
1.376011483532441765e-02
2.283830852656043922e-02
-1.615538562605803655e-02
-2.970263660613483084e-02
5.236244408104238912e-03
1.751374767246801495e-02
-2.949424849679758293e-02
-8.156569640008813626e-02
-9.929471002957318548e-02
-9.792940068094918571e-02
-9.801413623656748952e-02
-1.005701502753021392e-01
-7.607274418727556775e-02
-1.797273109687218956e-02
3.013962306293680588e-02
6.620499955982114826e-02
1.134925518890196466e-01
1.359607524078108032e-01
1.248010001988629492e-01
1.222151781337458970e-01
8.778074792050193087e-02
-1.797268950722659409e-02
-8.424767913832008348e-02
-6.296449858336915228e-02
-9.524676320813468822e-02
-1.824954063322029307e-01
-1.571060366585859958e-01
-9.844737434151791533e-02
-1.960939863257620264e-01
-3.056961653511031107e-01
-2.423529880990677177e-01
-1.329855090497570613e-01
-8.357677889175865737e-02
-2.834564295944736259e-02
5.907276978567143483e-02
1.998314242452327028e-01
3.945592650092384912e-01
4.871536537264747335e-01
3.992096741635089430e-01
2.929319878552871792e-01
2.036410054532494796e-01
6.674196913073963955e-03
-1.566895779704552405e-01
-1.240116290450447856e-01
-9.086738900764125548e-02
-1.589587106527310389e-01
-1.450496076544340041e-01
-1.875558086034737060e-02
9.760588581882773118e-02
1.920524971104485834e-01
2.814737629655155171e-01
3.231332834507456564e-01
3.146594071188575370e-01
2.900969115654403185e-01
2.235741881490591054e-01
8.535794945401514733e-02
-8.556754480402886665e-02
-2.687516216395004487e-01
-4.872931723375569235e-01
-6.850320842951025391e-01
-7.213793503196291867e-01
-5.708197780155284118e-01
-3.728618055106917017e-01
-2.031818347684684611e-01
-4.767086239182342922e-02
4.274992550723243079e-02
5.234694604408110519e-02
8.964198635331134535e-02
2.151608972272433529e-01
2.838768372651251370e-01
1.434742129958389012e-01
-3.107118745114846592e-02
-7.620615549789174978e-03
8.789408820436202252e-02
9.699348636684511360e-02
1.181368120565774033e-01
2.145705682652664370e-01
2.914385289419621494e-01
2.916061482173490371e-01
2.444044315168635573e-01
1.703722624959389809e-01
8.068793578619604112e-02
5.072318112179577398e-03
-5.790106638323669341e-02
-1.111980109703792213e-01
-1.131615174394887402e-01
-8.090118934423595753e-02
-9.108767941004995705e-02
-1.369192639165828784e-01
-1.649336448747715789e-01
-1.871705845865941908e-01
-2.156075080277442824e-01
-1.920789013188968775e-01
-8.580737517423203675e-02
4.788883598955753773e-02
1.740984045468643715e-01
2.906119174931274807e-01
3.432073330437275804e-01
3.000523483382621093e-01
1.968563535873256720e-01
5.303020015198087189e-02
-1.031754781365028101e-01
-2.225889641129910335e-01
-2.987937586736343354e-01
-3.141778685111648595e-01
-2.348889656991667296e-01
-1.100941925762880524e-01
-6.593169603959836422e-03
8.172549047727188654e-02
1.334159950935742134e-01
9.560420556012846904e-02
2.977105487956391988e-02
2.322700961656368884e-02
3.694210985361406213e-02
3.086734964589659194e-02
2.947482516339618858e-02
2.611402121446932192e-02
2.551721583145790187e-02
6.078904967331810044e-02
9.285494129038217304e-02
5.911008870905424400e-02
-8.339239631242922543e-03
-3.046188920506703174e-02
-4.313542420471008776e-03
-2.172709194670050317e-02
-1.134798253563788634e-01
-1.389225495189667370e-01
-3.218557918003397966e-02
4.763829174692815055e-02
2.367579777142711159e-02
-1.056641810633944870e-02
-2.924461346739866754e-02
-7.103134162700078247e-02
-1.298828455115649816e-01
-1.617783080330660039e-01
-1.183468104661683507e-01
-1.048741156239848225e-02
9.850958269134935108e-02
1.822486105636037523e-01
2.405713054813723994e-01
2.505406332135080016e-01
2.060350725387539716e-01
1.294741700989120448e-01
3.143848794066302771e-02
-5.852628358480994192e-02
-9.058203684023796720e-02
-8.672205161792490014e-02
-9.745624916618883526e-02
-9.570866288953014389e-02
-6.958735662241677389e-02
-7.809174363417024922e-02
-1.231004872425806584e-01
-1.458325081125755596e-01
-1.231772729352824253e-01
-3.739537003245468200e-02
1.193045530213805161e-01
2.517981914883671846e-01
2.617690690699223666e-01
2.074442999675159549e-01
1.658138400671574642e-01
9.510423961321866348e-02
-2.400955840425421373e-02
-1.424770965509951082e-01
-2.441047317153968721e-01
-3.023795763351309618e-01
-2.729270972021950459e-01
-1.989769096184030306e-01
-1.310548865542531249e-01
-3.501608050957555340e-02
7.514920888821849387e-02
1.333307890292740328e-01
1.576185311940780376e-01
1.690398855635958930e-01
1.286954426846741995e-01
5.960823074375812963e-02
1.000718879215629561e-02
-2.574692881865036156e-02
-2.134328096187017645e-02
1.152274993671125597e-02
-3.008296147476459056e-02
-7.920588864466676648e-02
2.973410956012525336e-02
1.644376202765767958e-01
1.210830104366078797e-01
1.513677274853695437e-02
-1.142572850929530690e-02
-2.563512108488851665e-02
-6.055482805863139639e-02
-5.239747900681058362e-02
-5.397962221003201055e-03
3.800872038302225819e-03
-4.550368385816369599e-02
-8.131068795305358698e-02
-6.342643693804453364e-02
-4.642008279524895142e-02
-5.439840145580385200e-02
-2.473109884480504880e-02
6.800793994899939632e-02
1.555428544021434656e-01
1.782305823945953271e-01
1.376828407917811692e-01
5.991962756631799558e-02
4.360514875194812685e-03
1.525063574759446920e-02
2.935340479827668742e-02
-1.380178532094408425e-02
-6.176496430031345325e-02
-7.897807728711633835e-02
-1.061719633399522134e-01
-1.546842642721875938e-01
-2.055706314574765603e-01
-2.479091788128864327e-01
-2.270789948444564277e-01
-9.757858477940586917e-02
6.818644603957603467e-02
2.019195126342424318e-01
3.282514113004950662e-01
3.920342785303986277e-01
3.042102728960089930e-01
1.644872346594614398e-01
9.823539265012395938e-02
3.113108917850550272e-02
-1.238422854268989015e-01
-2.739014286416972532e-01
-3.119251474415537517e-01
-2.850815342592020740e-01
-2.611848890446094584e-01
-2.124998317853112328e-01
-1.223892279603479849e-01
-2.287682196144896069e-02
6.390708864949398715e-02
1.146437234268537914e-01
1.281011020298234437e-01
1.363595149431986175e-01
1.451865278528915726e-01
1.541533122995436544e-01
1.572772264937703501e-01
1.188469272992027925e-01
6.353064814623270162e-02
4.977571018305769479e-02
4.309625196028585292e-02
-1.497289233003531311e-02
-8.121993083941543567e-02
-5.928724122960527670e-02
1.121562890163814441e-02
-2.849077326057845166e-02
-1.011070136149749277e-01
1.449991141150931348e-02
1.486096199239710369e-01
2.919096970345402831e-02
-1.456584859824813227e-01
-1.423335053511640413e-01
-9.818099984385779411e-02
-1.582867663067127062e-01
-2.703030905279702467e-01
-2.708160384536664744e-01
-6.039516054120097621e-02
1.775703148783861485e-01
2.429035092042035604e-01
2.418673038190772839e-01
2.856659514499197416e-01
2.955149168846925578e-01
2.331257223984811167e-01
1.487300748202499689e-01
7.698464957212251825e-02
2.022465360441678961e-02
-4.536293231063424219e-02
-1.158106264412377406e-01
-1.413441721642995086e-01
-1.205610390966769252e-01
-1.117967411009113121e-01
-1.307461975225900352e-01
-1.437880438095773539e-01
-1.551014343777833149e-01
-1.928981980747844494e-01
-2.194362673957093446e-01
-1.643103873117219837e-01
-2.540162060023680446e-02
1.324272738679423411e-01
2.426975373196107455e-01
2.950564290323862138e-01
3.047295423462800801e-01
2.195133782812720147e-01
1.382536490927165074e-02
-1.923246132414004328e-01
-2.904123716347624118e-01
-2.518687082208019845e-01
-7.911067426656379076e-02
6.355679697633392911e-02
2.189901773588256301e-02
-5.764529414663349671e-02
-3.656561956773084904e-02
1.795555305815150875e-03
1.977312908730339408e-02
4.314306696874772862e-02
2.955226244037887501e-02
-3.168205144831921088e-02
-6.722028326493514894e-02
-4.984261170474001829e-02
-6.471403960129978872e-02
-1.472927900705670867e-01
-1.844864894324980131e-01
-1.128118896200454024e-01
-2.498052647397429327e-02
9.940571681893932421e-03
4.683024839287895646e-02
1.349107450022770383e-01
2.135749810435657314e-01
2.212641063614999015e-01
2.080438546262546318e-01
2.284421979536449265e-01
2.590265958411461789e-01
2.801678238795995424e-01
2.867266272857201814e-01
2.711049028557210305e-01
2.711273420126751876e-01
2.957261982642002685e-01
2.706545705797770429e-01
1.891591569917017157e-01
1.183142459180634432e-01
2.590814443293575076e-02
-1.518828518165224739e-01
-3.642025468344215478e-01
-5.370078028294518191e-01
-6.438959046812877673e-01
-6.645173262699619610e-01
-6.388958318666350111e-01
-6.398183286368457345e-01
-5.710257212666755011e-01
-2.935015710335410755e-01
6.873329737066627421e-03
5.892312210003523842e-02
-1.666761114636536312e-02
3.132111975042498053e-02
1.681496358163719618e-01
2.560423354838738397e-01
3.131902397906738411e-01
4.096506240183614977e-01
4.998697557620279674e-01
4.881004378348958173e-01
3.883467494132151754e-01
2.892609062923643948e-01
1.994887680195452928e-01
6.281317819050433182e-02
-9.901040287199114331e-02
-2.022242234780750603e-01
-2.439906185742691802e-01
-2.688161605593769043e-01
-2.554771051422071726e-01
-1.972388902487020035e-01
-1.420442847747840631e-01
-7.862849160874227361e-02
4.223384249401522170e-03
4.361978367434076603e-02
5.920078510282522632e-02
1.023047080407743503e-01
8.631171210156755869e-02
3.422000381391821638e-02
1.035965619646065372e-01
1.682918587913471986e-01
5.754013598514056554e-02
-3.425425529532886981e-02
1.597874820591818623e-02
5.126620598603572054e-02
3.565599366717377844e-02
3.219785004395975953e-02
8.715070056998956011e-03
-2.737296295995746490e-02
-2.714132716111333776e-02
-2.651461776624780553e-02
-6.157281565341918284e-02
-9.184346179114499797e-02
-9.010361123107535342e-02
-9.042432010899414951e-02
-1.175008846416650543e-01
-1.357348100091502752e-01
-1.067909628142494766e-01
-4.069194466428509988e-02
5.038300879687476752e-02
1.520626923976085287e-01
1.994501445082499658e-01
1.593110956635986897e-01
9.658297647987719448e-02
6.314144805204896516e-02
4.162987432357807827e-02
1.576513389372188531e-02
-9.816101307667203166e-03
-2.566595760734068435e-02
-2.910273841910887213e-02
-4.031262198082621179e-02
-7.548016654609926435e-02
-1.226953243354444445e-01
-1.683708020336115441e-01
-2.034403931673181842e-01
-2.017573715649910171e-01
-1.386203812029696836e-01
-1.053457027569847798e-02
1.674034557603908679e-01
3.227864172335829229e-01
3.592536132733379906e-01
2.907787828414916120e-01
2.041417542976984856e-01
9.853880632858116884e-02
-7.199324982859531263e-02
-2.469568822616134696e-01
-3.061528498611558735e-01
-2.473781829221798345e-01
-1.752361462753586063e-01
-1.235219427845784812e-01
-3.989598991115776011e-02
7.479215694340680953e-02
1.453825429353886867e-01
1.304753297164817083e-01
7.745343791280269452e-02
5.034728034132015390e-02
4.396196030365937674e-02
2.505766928306548888e-02
6.995371297646039120e-03
2.007895093238536502e-02
5.603987182671413964e-02
6.627120587077792169e-02
1.403705856565084890e-02
-6.469315928954373629e-02
-9.623385919923935217e-02
-6.917382205096067604e-02
-4.000241074452206419e-02
-3.296685004552216830e-02
-1.640356200196642356e-02
7.402934652648532343e-03
7.695321184654226564e-03
1.395105545090968499e-02
5.906471685163153934e-02
7.862532740137975762e-02
7.660572331539362845e-03
-9.627257003500382104e-02
-1.497542441884650299e-01
-1.505846495543170238e-01
-1.081766236069936632e-01
-2.042954491927750915e-02
7.197486949066556061e-02
1.383744210975703104e-01
1.849790291275898169e-01
1.928479042685981859e-01
1.466546587500038301e-01
7.364830717376971703e-02
1.312918609020791855e-03
-4.919478693387030477e-02
-6.696682712795126724e-02
-7.081256150547665662e-02
-6.985609377236026707e-02
-5.831737889230727279e-02
-5.689676959471383355e-02
-8.548668294217909303e-02
-1.231565784905227501e-01
-1.367193680511858411e-01
-1.153371403530762673e-01
-5.739490008695075779e-02
4.622999001619701454e-02
1.833628421974405898e-01
2.957582829823690029e-01
3.280234160660309706e-01
2.816010155142166793e-01
1.876520226580483397e-01
6.738963653988117031e-02
-5.868917779161818282e-02
-1.616491313935271568e-01
-2.207691006983924786e-01
-2.393332430650256248e-01
-2.318086304762499439e-01
-1.936905459624446713e-01
-1.169284696823836983e-01
-2.741962516986623521e-02
4.058369321454111112e-02
6.935382007143958694e-02
4.927791161332632786e-02
1.262587831386771317e-02
9.092305045613889580e-03
1.983125349760655326e-02
1.376086916188573595e-02
1.311321947888098582e-02
1.055667426378426380e-02
-1.995465574865753003e-02
-3.011879752716595596e-02
2.668172807555192066e-02
9.518787511913429089e-02
9.992772327381824193e-02
5.738262983070011730e-02
2.263963314537153701e-02
-7.976900964292292159e-03
-4.882648072454481153e-02
-6.779379481953375086e-02
-4.193806670022631744e-02
7.409106298056760201e-03
4.817104571990670631e-02
4.788341833309996826e-02
-2.403069092032236384e-02
-1.229060987082549461e-01
-1.438397571907376604e-01
-9.018163856864544470e-02
-4.670529364345836487e-02
2.106337449816933494e-03
9.080170151901026387e-02
1.459357796870135726e-01
1.484125785124921770e-01
1.831211583879672200e-01
1.875586626809772339e-01
3.419886106321724795e-02
-1.067980200784200417e-01
-2.753802838747388543e-02
9.351521234797183224e-02
5.593312792479615547e-02
-3.389085430075924193e-02
-9.374261525723026622e-02
-1.889914158034609604e-01
-2.788551917543087288e-01
-2.572149918469109897e-01
-1.641762726435566921e-01
-7.578329494058645699e-02
5.749291363125437482e-02
2.398877406734471196e-01
3.207175577554233215e-01
2.455222696763141588e-01
1.590647203761778317e-01
1.336229167001163343e-01
6.815006619237787278e-02
-7.987993666643325441e-02
-2.039906702282023865e-01
-2.216737222671525398e-01
-1.675787156692515878e-01
-1.015978724898150137e-01
-3.792457490469171300e-02
2.007538788800123514e-02
5.089907666030414612e-02
5.221849650234057505e-02
5.765365868007353567e-02
8.952371443098855464e-02
1.266701861436066445e-01
1.306490334097753780e-01
1.029509776147114891e-01
7.913448073431686436e-02
3.602406004815930651e-02
-4.755341801658417161e-02
-6.926236506574842688e-02
-2.861959451409198593e-02
-9.809950680508514043e-02
-2.117813337557117592e-01
-1.497089115529785519e-01
1.831849742744367723e-03
6.210990094231549213e-02
6.435748177248686031e-02
5.202113187078120926e-02
-7.619109205734161255e-03
-9.316070284822428049e-02
-1.529439655530978603e-01
-1.663483996077107507e-01
-1.338647934469428813e-01
-8.183495679947713763e-02
-3.885856323837055815e-02
1.446638634899213155e-03
5.213387934358551523e-02
1.177700421590024693e-01
1.913331821947970024e-01
2.112843802036068197e-01
1.124753996494455427e-01
-5.726770624924529263e-02
-1.727203608640930921e-01
-1.789015648884047793e-01
-1.342649543873934148e-01
-9.946542364034383077e-02
-6.312719815081647978e-02
-2.686198758937225275e-02
-3.208924119153364757e-02
-6.391300768322705217e-02
-8.555071289410748347e-02
-9.708979920762118854e-02
-4.981782518114134112e-02
1.005603798663079612e-01
2.598668940304130759e-01
3.404775846678527729e-01
4.202145053553646425e-01
5.583174775513930488e-01
6.144175215070662999e-01
4.867854475607453768e-01
3.214961201005614999e-01
1.828182755421386696e-01
-5.780813277771951197e-02
-2.893726241028634627e-01
-2.904951760278456918e-01
-1.871756782950284859e-01
-1.742155017723437949e-01
-1.910358322239463225e-01
-1.552299757198669916e-01
-1.214665761201403904e-01
-1.525530477326506318e-01
-2.196772518828314369e-01
-2.787103849139115908e-01
-3.415508973420761096e-01
-4.059857244221706241e-01
-4.322273074823050898e-01
-3.857002447749012797e-01
-2.634724044128320397e-01
-1.281421139155092814e-01
-3.565858827615336901e-02
5.130652601930722756e-02
1.678276400093666465e-01
2.592576297447403144e-01
2.673573041658074412e-01
2.319055797364765470e-01
2.256122948493144709e-01
2.244921728555503981e-01
1.791156542191236767e-01
1.495542264470830496e-01
1.857402100982293858e-01
1.989836090116694212e-01
1.249610585198514673e-01
3.137099763508936073e-02
-4.123902553154530637e-02
-1.283994894623916583e-01
-1.995223931307429921e-01
-1.792107905135629231e-01
-1.007664767681972773e-01
-4.285419600371408871e-02
2.872230446250325503e-02
1.317441608564129674e-01
1.443109053537705300e-01
8.679098675169721888e-02
1.419495098014164625e-01
2.051824672944625727e-01
7.085002466017892298e-02
-9.286955788282795499e-02
-1.176271014909381074e-01
-1.156166708684733258e-01
-1.138586475375751167e-01
-6.595362052259752528e-02
-5.459723345306252001e-02
-9.181473793697228492e-02
-8.289884542640395260e-02
-3.692726769611034965e-02
7.551375148888541181e-03
1.012792838443520305e-01
2.268041714651740093e-01
2.466613412172753428e-01
1.518744028103908295e-01
1.005395041943947798e-01
6.077788341137963651e-02
-1.467153177344570625e-01
-3.718703626912130411e-01
-3.455916022642929741e-01
-2.021277732038485597e-01
-1.683813031342300814e-01
-1.588635572398190143e-01
-6.094369506375698492e-02
4.984014213399939192e-02
1.116552935791414042e-01
1.506510036064860614e-01
1.651531804024687911e-01
1.414777306330016748e-01
1.105207919995449817e-01
9.277572745773209062e-02
7.447561691074361390e-02
4.791310783996226980e-02
1.395031080873894956e-02
-2.111120434045345856e-02
-4.885241699891347544e-02
-8.210072263853236685e-02
-8.868481724094205709e-02
-2.752691548027114826e-03
6.346523853667093706e-02
-3.692131993963643916e-02
-1.273149165227472068e-01
-3.062297308656740380e-02
6.099972041507702170e-02
1.342640248644905859e-02
-2.067855783672542525e-02
1.463031196346962180e-02
1.119543588056033656e-02
-4.691744753465203199e-02
-8.114926861765475730e-02
-6.670531946476752905e-02
-3.579903836993793276e-02
6.897604969323263904e-03
6.440415585119570185e-02
1.046953595225786904e-01
1.225589316158622183e-01
1.343650139926691744e-01
1.096736639953590081e-01
4.211594765848109684e-02
1.127744888288571140e-03
1.649518921214905218e-02
3.417432936381072095e-02
9.759362550239528145e-03
-4.296483620760645911e-02
-7.776491539432708877e-02
-8.518276294565746420e-02
-1.173967116318175852e-01
-1.805400770180814740e-01
-1.870202064013636867e-01
-9.936055462361570445e-02
4.871240069723729166e-03
9.736630316554421849e-02
2.246595967167545616e-01
3.131579957337721765e-01
2.719545114851001366e-01
1.960733430801018251e-01
1.091897220405043528e-01
-1.101151759278717196e-01
-3.377573459801374023e-01
-3.449938961857333397e-01
-2.242646761661856170e-01
-1.593512051267093055e-01
-1.268181661789129777e-01
-5.489924105669420629e-02
3.546317797617820622e-02
9.875702651501566676e-02
1.390261100613933432e-01
1.553474628204968011e-01
1.068918972114218657e-01
2.635964654186629536e-02
-1.380297464176490161e-03
-2.237006522166039291e-05
-1.886125199749165079e-02
-2.863567193766030153e-03
5.510941640755612908e-02
6.199684324703909344e-02
1.490947643849965809e-02
-5.947174233094961252e-03
3.347101049732780290e-03
-9.900054145398233529e-03
-4.950742508055279434e-02
-6.153430883415544200e-02
-2.048816765016311589e-02
2.330433770495188295e-02
3.017788782377122184e-02
2.655550998028933379e-02
2.916152925057218306e-02
8.320795683160032638e-03
-5.619531363224933990e-02
-1.312894346951678504e-01
-1.439926581878340495e-01
-7.202063111103931825e-02
1.574628610719721548e-03
2.785806472284277358e-02
8.301478627730257687e-02
1.832109652334484584e-01
2.180031091522435238e-01
1.598161309364012350e-01
8.181151258445258645e-02
1.051794589350099098e-02
-3.929932387880626099e-02
-3.664153814885180716e-02
-1.041544197921728809e-02
-1.456614414831993234e-02
-4.708686952107241780e-02
-7.309221352945118044e-02
-9.567922346990055671e-02
-1.446039112836823570e-01
-1.855861133292614207e-01
-1.520936740658618280e-01
-6.675738985689096128e-02
3.062634128505485956e-02
1.691223797497286019e-01
3.020597309947634090e-01
3.187011160712939772e-01
2.520197093012038758e-01
1.905687080820040180e-01
1.031504422699969503e-01
-5.873548487961426090e-02
-2.623717878240530155e-01
-4.253147125055817823e-01
-4.816997908046947718e-01
-4.546199210740778374e-01
-3.875886145613958167e-01
-2.642434580685496526e-01
-9.268933965116991913e-02
7.750500614374027097e-02
2.155064945827959710e-01
2.952085271775553577e-01
3.238268049962160777e-01
3.311617743644675871e-01
2.895679472717901382e-01
2.350088426109182005e-01
2.734765700160666224e-01
2.930061218378655630e-01
1.338668538431161958e-01
-4.446011879750456919e-02
-7.939380366083015339e-02
-8.139522031085323628e-02
-1.268983479305313133e-01
-1.519446893822647970e-01
-1.514534744492041785e-01
-1.669775196088729430e-01
-1.718484599452221318e-01
-1.366614484248499795e-01
-9.926116838462112346e-02
-7.153882534701794249e-02
-2.267635745571087297e-02
1.579010802284738779e-02
-1.795027692708811573e-03
-3.993360299392621077e-02
-5.230894188563137148e-02
-2.894765703993822797e-02
3.506014037112272635e-02
1.113761834314468957e-01
1.518751875415957353e-01
1.586597831345766263e-01
1.587113452650472378e-01
1.406715065135519804e-01
7.662784642448683403e-02
-7.835531003810044040e-03
-4.816714752738225636e-02
-4.818077100060098872e-02
-7.220236733337306867e-02
-1.167799105215644451e-01
-1.257884252351630927e-01
-1.104931219483977906e-01
-1.168472941693551731e-01
-1.262052374751082839e-01
-1.029514540106113568e-01
-6.025561829024340954e-02
-8.406082070326906241e-03
7.393668286624938135e-02
1.960461360866770364e-01
3.166626435458249622e-01
3.577840828909689685e-01
2.918739881299069472e-01
1.723479424414337824e-01
6.137737328571953727e-02
-8.473981154245024960e-03
-5.074658617527982862e-02
-1.102446625529871632e-01
-1.828933631980755592e-01
-2.188454513025737680e-01
-2.096664861290878923e-01
-1.974053692511993918e-01
-1.886757838196150006e-01
-1.365987203287443996e-01
-5.435010985315517906e-02
-8.918397683428412603e-03
1.732024798765353230e-02
6.503762243556714118e-02
7.876381876190598208e-02
3.747297185165883449e-02
3.952573380073519382e-02
1.062668722083499190e-01
1.153267802312289841e-01
4.709946065766914408e-02
2.422450200000324586e-02
4.546422575921318932e-02
4.476429645007589525e-03
-7.675468923709193036e-02
-1.126156770606338425e-01
-1.047200152305329396e-01
-1.065553677291285056e-01
-1.493486282487350991e-01
-1.982442246345829939e-01
-2.072636423252431082e-01
-1.979916149430379080e-01
-1.884764545672958369e-01
-1.482359461679254586e-01
-7.301795233067794044e-02
6.795255254354364005e-03
8.205527993672946663e-02
1.591873908661180226e-01
2.291761825093072136e-01
3.149350529621738892e-01
4.548525662042048334e-01
5.331944820373886174e-01
4.061666054143978632e-01
2.322227788135195203e-01
2.196427011150346720e-01
2.731816109796916803e-01
2.883864277765039175e-01
3.094276017891917085e-01
2.906344108657870073e-01
1.739119191948126641e-01
3.767424435183620857e-02
-8.649714579401213133e-02
-2.591634736872162059e-01
-4.201362742220023927e-01
-4.594492179588067216e-01
-4.448106949576801084e-01
-4.748474898439706271e-01
-5.210966545736348543e-01
-5.512341112954671773e-01
-5.136009255549071062e-01
-3.463907278615439567e-01
-1.608181875930470572e-01
-8.246381194148375005e-02
-3.614660693340879249e-02
4.305999018149381241e-02
1.044348858883960285e-01
1.499532283664111176e-01
2.139226813749288969e-01
2.631653243524846308e-01
2.650645864927194117e-01
2.328967964817898750e-01
1.850500154671611552e-01
1.545108706632389306e-01
1.721220495097064707e-01
1.726100681176113427e-01
7.398097570577777393e-02
-1.710763440753451659e-02
1.818915781610715848e-02
7.853255794651251009e-04
-1.888372756780783979e-01
-2.555403407393861404e-01
-6.775948603886840227e-02
3.730316076747862419e-02
-7.346702429873178120e-02
-1.249050754129566593e-01
2.499118889604634575e-03
1.499457507101893405e-01
2.493759874804738763e-01
3.457999449243468471e-01
3.633197811441874481e-01
2.318771185046724082e-01
6.153847392023027718e-02
-6.759381729667013339e-02
-1.976445712661130116e-01
-3.097741664877971535e-01
-3.525066165556836051e-01
-3.497207177250886700e-01
-2.915368925894617491e-01
-1.165032808730251113e-01
1.309238587794730735e-01
3.038559417855771771e-01
3.478634215221271808e-01
3.518708087723119715e-01
3.151635938263568359e-01
1.310872539915451385e-01
-8.088744238198626590e-02
-1.149917183879318738e-01
-8.177269639762199671e-02
-1.397651187713871701e-01
-2.079613072101535176e-01
-2.340351868072718944e-01
-2.573131901639256203e-01
-2.459247569012408263e-01
-1.834826445526948346e-01
-1.200944013019252105e-01
-4.896729580705095480e-02
8.093624830962375949e-02
2.271114863624656977e-01
2.958177375648602947e-01
2.947649299757059693e-01
2.694220127477094939e-01
1.914116987863929698e-01
5.094271894629179981e-02
-8.283477400267615087e-02
-1.595936252920425735e-01
-2.068811835053372405e-01
-2.478163091213129998e-01
-2.406934890350415079e-01
-1.769129744262739057e-01
-1.045928897982508765e-01
-2.148642677590317795e-02
7.210521662280219846e-02
1.130564123570430013e-01
1.137320073977226564e-01
1.530751219538976637e-01
1.867398391315915063e-01
1.231103695396322945e-01
4.044652189711472889e-02
5.210982741793754314e-02
8.667934403680987998e-02
4.694346565930926363e-02
-1.366932251854142619e-02
-1.473397568393029419e-02
2.609146006667716761e-02
3.436243948862967301e-02
-1.138618075686247642e-02
-5.156775160311846684e-02
-5.037856363347266442e-02
-4.669151620042873152e-02
-7.777399702404243220e-02
-1.063520465793743180e-01
-6.857137193880320780e-02
-1.196092771436935154e-02
-3.646089990903120248e-02
-9.225990153862957677e-02
-7.899291872433282513e-02
-3.557901501714502701e-02
-1.592112870907512467e-02
1.484293651547674911e-02
6.840818224178210616e-02
1.113492256016919979e-01
1.347809212778817434e-01
1.365717842265697923e-01
9.753563067754637828e-02
3.007333917789836372e-02
-1.689647455540718712e-02
-3.739270506120817572e-02
-6.469887481371838778e-02
-8.733666129294645475e-02
-8.587444627177623357e-02
-9.166128938665935033e-02
-1.161257429850001133e-01
-1.381491219160424500e-01
-1.524748969983870661e-01
-1.040851642359666152e-01
6.378131167595835205e-02
2.430562442029082504e-01
3.073121386962466839e-01
2.962939331969456358e-01
2.581373035064362109e-01
1.834436499263220055e-01
8.845301638903965702e-02
-3.816681590489249404e-02
-1.956587533192048478e-01
-2.865920701039135210e-01
-2.713451342321160364e-01
-2.359523298308921213e-01
-1.965066145670557318e-01
-9.054467013985995072e-02
3.705245244159529466e-02
8.998079887051513293e-02
8.314095606831568841e-02
8.215474549004694871e-02
9.123194672893240875e-02
6.774619607885136452e-02
-2.541715215350782292e-03
-1.783445362521046684e-02
1.136553461226917361e-01
2.192800629725585038e-01
1.050675155399664329e-01
-7.067141765654577634e-02
-1.032929080806509747e-01
-6.321752596964809456e-02
-5.021938403591007238e-02
-4.980386929985670952e-02
-5.980693465113447183e-02
-7.241189625327994206e-02
-4.048102785672152981e-02
2.047919636770208218e-02
4.462699564931394552e-02
3.025110126898734875e-02
8.823398990233636066e-03
-1.869885083560104966e-02
-4.775020939032276202e-02
-8.366209176688449434e-02
-1.304054537538241465e-01
-1.196008274506921293e-01
-1.922884738554617862e-02
8.063869643817217492e-02
1.319755508422093548e-01
1.620766230273283648e-01
1.552754176484930915e-01
1.090629243896186346e-01
6.130119234188859817e-02
1.292897717454814105e-02
-3.142097610494169746e-02
-5.450331283369451441e-02
-6.454900059416046609e-02
-4.026434571114396316e-02
2.317176297394924617e-02
4.741457749595832244e-02
-3.245377769574363247e-03
-6.856695963039963204e-02
-9.897918501260079271e-02
-7.677802166632867464e-02
-4.573481760990188300e-03
6.494523677736063760e-02
1.131784020139614544e-01
1.985284510196141661e-01
2.943850425215926436e-01
2.952779199857906156e-01
2.056980701638822795e-01
7.801331535881279866e-02
-9.588787818607018287e-02
-2.845840038431156627e-01
-4.158866224193853989e-01
-4.711923243165718755e-01
-4.526503187529251626e-01
-3.625403615230583521e-01
-2.365050584663534738e-01
-9.745619295743743193e-02
5.822083937705871404e-02
1.824812830091437355e-01
2.141790139308853702e-01
2.115759418823651705e-01
2.626859925223111181e-01
2.781681496083841520e-01
1.484849606354845530e-01
2.397762666232889153e-02
6.691951742919942381e-02
1.402457560471188636e-01
1.002854562107264036e-01
3.806868354346746447e-02
2.377613037029888132e-02
-2.929967352031451200e-04
-5.071808017667493729e-02
-1.012162159009855067e-01
-1.541810633218344551e-01
-1.877765900592478499e-01
-1.670821546621488740e-01
-1.210737714102726598e-01
-7.692534635926823183e-02
-1.918447999321157282e-03
8.335498257872515915e-02
7.675788785585997698e-02
-3.670695019993058805e-02
-8.532861190550181107e-02
6.860290352406978043e-02
2.396954464340666502e-01
1.874924342247395181e-01
6.656225731514776867e-02
1.209246320988592305e-01
1.890395837194433493e-01
4.325942223788248331e-02
-1.228685709378464219e-01
-8.243211860065181862e-02
-1.639536946517104743e-03
-3.000487263959522241e-02
-5.525498668566155430e-02
-4.730829364988614616e-02
-8.185488795721511390e-02
-1.293432760003043469e-01
-1.482691953923772066e-01
-1.694569938644161500e-01
-1.855463775672071269e-01
-1.382457626467052114e-01
-3.750320104913210106e-02
4.169945174217825484e-02
1.021788629100817136e-01
2.035813307132911532e-01
2.947143057167903590e-01
2.932284952147740653e-01
2.543573962881693351e-01
2.199207527765977832e-01
1.050842703845314696e-01
-9.375584960610766627e-02
-2.500912086095510856e-01
-3.200538693915568889e-01
-3.436500782359569461e-01
-2.865058396495551718e-01
-1.316131429504332484e-01
8.098528973890326693e-03
8.180756414721895853e-02
1.631657715677659604e-01
2.283012968686729538e-01
1.991511076428899296e-01
1.420759006539340508e-01
1.204598925170083795e-01
6.467303802547999525e-02
-2.668950493921031647e-02
-6.373225433415102836e-02
-6.655030211833738718e-02
-8.180002970010646912e-02
-4.100795109640946456e-02
5.802046220104315616e-02
9.995216891130691284e-02
7.763879741738632934e-02
1.815057188919717152e-02
-1.408767576825056822e-01
-2.968211618732576329e-01
-2.655759861420154966e-01
-1.515989833932949726e-01
-1.262272060118691808e-01
-1.180745268503495538e-01
-2.027022787528398595e-02
1.088329297086050862e-01
1.485463309213319871e-01
1.035797668588678694e-01
8.587069116726031570e-02
9.274432899567483513e-02
2.852438937264127963e-02
-6.132856435255286398e-02
-6.569271935992646028e-02
-3.351556009627229549e-02
-6.674580626409643003e-02
-1.187193385618554725e-01
-1.003786531734728316e-01
-4.609453447811388827e-02
-1.342657012502893217e-02
3.685813407599089486e-02
1.347282628220254630e-01
2.211268417745858306e-01
2.285188593713573524e-01
1.476904412102565956e-01
3.865744844732961483e-02
-2.308371143665272074e-02
-1.346743933343158561e-02
4.832871504549254849e-02
1.088049097147266026e-01
1.469486518329810865e-01
2.325201812021427117e-01
3.627030307040434165e-01
4.126075469635882564e-01
3.547969216855975105e-01
2.719497611414914418e-01
1.817489266777799206e-01
4.280428990862776562e-02
-1.390231992773322545e-01
-2.969104332132345148e-01
-3.866239948988452468e-01
-4.455001316975790715e-01
-5.148713479079860544e-01
-5.647922444933701769e-01
-5.681687462659716914e-01
-5.382507462662244890e-01
-4.589992886061657340e-01
-3.404767022975820345e-01
-2.581262912039741786e-01
-1.529797933396042087e-01
1.062538423234823809e-01
3.539069877177605239e-01
3.571068817027708286e-01
2.749887578834114832e-01
3.115143272551845754e-01
3.542327014639403693e-01
2.998786449987530522e-01
2.274584713294677263e-01
1.982041703270208954e-01
1.861055082668461036e-01
1.547640611951484058e-01
1.152802230385854970e-01
8.968322120026397948e-02
5.661327896220327838e-02
9.311192371520997380e-03
-3.203088147699448274e-02
-9.520625915265031047e-02
-1.946700455963864540e-01
-2.624348076581303202e-01
-2.615049502512624136e-01
-2.209034070627224899e-01
-1.263366702309221823e-01
3.473377245786086337e-02
1.786742293171288409e-01
2.377182702576222384e-01
2.417871014064605639e-01
2.095751064613991799e-01
1.221779405023021986e-01
2.056945855920778304e-02
-2.593282481254985394e-02
-3.202956621389335679e-02
-6.090445447954621894e-02
-1.010050183742384755e-01
-8.782321784659355424e-02
-5.126413623760020521e-02
-9.440320706729897482e-02
-1.952153521605764774e-01
-2.162741901434192260e-01
-1.305444930382799185e-01
-2.809679748513117109e-02
7.380167649718295808e-02
1.949423957096518834e-01
2.629338774894617869e-01
2.332730978230109775e-01
1.668802332191247628e-01
8.565059515097972476e-02
-3.055731867779798439e-02
-1.411029724104526928e-01
-2.179446010752150997e-01
-2.786842910068266788e-01
-2.814059421017249263e-01
-1.797879039956580549e-01
-4.427283740801765677e-02
3.339031577115671168e-02
6.891212676984895258e-02
1.215281288426082185e-01
1.737848524430965491e-01
1.598511171189770930e-01
9.322091534254742240e-02
4.155249414838244754e-02
5.926700845391385392e-03
-2.397097594103133472e-02
-2.571427711685133830e-02
-2.987994104833618242e-02
-6.148209839253612752e-02
-6.586144514708486275e-02
-6.870296300239076351e-03
7.382589977944960247e-02
1.075120248977483317e-01
7.968208929668554874e-02
4.174395091103167560e-02
1.510192100615275097e-02
-1.821255412139390420e-02
-3.931430836691333919e-02
-3.217012599919688576e-02
-2.968822752503002746e-02
-4.256886410417147493e-02
-4.445167149326729322e-02
-4.178007822895765666e-02
-5.339651285035872802e-02
-5.727724923463328038e-02
-3.060798393265901085e-02
2.072479457296811864e-02
7.511560412364905182e-02
9.918948283307357783e-02
9.949586914700093987e-02
1.156351705210133252e-01
1.155522971259076576e-01
6.113103048339963569e-02
1.688048972088955837e-02
1.545922936691902783e-03
-5.572980733115938390e-02
-1.144019767548030420e-01
-9.626196655351694498e-02
-8.360563521212871496e-02
-1.485917141230156946e-01
-2.005402722646443814e-01
-1.619324453721588120e-01
-7.178689073388443143e-02
2.027912104152923903e-02
1.215095754420540408e-01
2.298823750884818884e-01
2.743409213225279086e-01
2.122684000227030854e-01
1.163143030832626545e-01
5.468610348069486565e-02
-9.375991465819376314e-03
-1.143405958720917770e-01
-2.088564399824904272e-01
-2.359014907707678577e-01
-2.111168718623895879e-01
-1.508992562186264041e-01
-5.917954701165358683e-02
3.089442024347490573e-03
1.836342205500073391e-02
5.453293743202496102e-02
9.705811974894856808e-02
9.473617422096672347e-02
8.026637516270940242e-02
5.673981336361878097e-02
4.644794564136525694e-02
1.338384851097846329e-01
2.074029844734521788e-01
1.067602939824036090e-01
-2.876603586379896521e-02
-4.296893648858846060e-02
-1.614983678953116342e-02
-2.525857313085782055e-02
-4.978506054345257364e-02
-6.367595819648247391e-02
-5.132152727421356031e-02
-3.450686292018267931e-02
-4.467825816742899275e-02
-5.048023435632129075e-02
-2.609983294491629788e-02
-1.562104848734653315e-02
-3.810850628072208479e-02
-6.581209520092783094e-02
-1.040988085184642725e-01
-1.386867901424484462e-01
-9.612479872372635403e-02
2.373089047007735305e-02
1.213815597467465673e-01
1.594505239460980162e-01
1.871096643750754240e-01
1.959945248396230688e-01
1.331226217324515682e-01
2.686199615924188266e-02
-5.175510893499904452e-02
-8.709742835543876627e-02
-9.642650053001985966e-02
-7.400295477453480708e-02
-3.021683622084889859e-02
-2.218270222320918583e-02
-4.247699863185850494e-02
-3.640147990416432028e-02
-6.220245521017171708e-02
-1.541498954127795973e-01
-1.791168445780653151e-01
-7.953874816795819536e-02
4.445154248645823841e-02
1.552044951148047469e-01
2.691333003580607119e-01
3.326060869165463063e-01
3.053517892277621271e-01
2.262928238167288275e-01
1.189558321615874353e-01
-3.447754219451679147e-02
-2.056851429123294217e-01
-3.153261985449763438e-01
-3.101236845304684575e-01
-2.175272133044580947e-01
-1.203654262956194015e-01
-3.874818795130992310e-02
7.208908970190824883e-02
1.765906710497199827e-01
1.880126067907391119e-01
1.176383158598798967e-01
2.699341365287804759e-02
-5.914301423015087128e-02
-8.484877794068834689e-02
-2.542836698095487721e-02
-2.890403217701407318e-02
-1.776639096067771095e-01
-2.590493081714543289e-01
-1.278122311380021081e-01
3.099126076199879010e-02
7.907989780889712605e-02
9.854830425183688791e-02
8.132164752218479231e-02
-6.614684806576964088e-03
-6.468851048246682112e-03
1.026551124170323320e-01
1.287992308660817764e-01
9.454194550155026189e-02
1.051379583791083178e-01
4.661755618769795190e-02
-9.889193354309259998e-02
-1.485113190641657588e-01
-9.635683935140909595e-02
-8.324838875100434854e-02
-9.049894728662795373e-02
-3.985514711819691802e-02
3.027224921660319479e-02
8.486585463646227623e-02
1.420949538378127319e-01
1.628570519999686939e-01
1.097472452240574325e-01
5.160664475062858719e-02
4.103979048258261930e-02
3.725646775566487934e-02
2.609489867893544091e-02
2.266526360274071644e-02
-2.189086631933470639e-03
-4.620289073552777404e-02
-6.203218647321216694e-02
-7.278387462991117718e-02
-1.191453193348580991e-01
-1.372020685226634784e-01
-9.024331055037770888e-02
-7.129713641690547943e-02
-8.160291516850887161e-02
1.706889367219328532e-02
1.980674522416997485e-01
2.795908257571783628e-01
2.395402873449628822e-01
1.837869775743868339e-01
1.299354068780651517e-01
4.513092988258529670e-02
-6.726669609386223825e-02
-2.108660905538470298e-01
-3.658451389461622183e-01
-4.255519063518025669e-01
-3.425636298565980509e-01
-2.232993136672660195e-01
-1.364986967648127159e-01
-4.848102398151495074e-02
4.336430949551114966e-02
1.196553794227065703e-01
1.737167167866996431e-01
1.753496860411057345e-01
1.232775906620582618e-01
9.281899700582237067e-02
1.358070090500956006e-01
1.829875232002955709e-01
1.607749241697845055e-01
1.282672648197974719e-01
1.461250544298730025e-01
1.511737074834869632e-01
8.298685497543788203e-02
-2.154330651392972334e-02
-1.029377654935423325e-01
-1.335799932671200008e-01
-1.118176855378263945e-01
-7.871371025593676407e-02
-8.143536909371110188e-02
-9.097677562269182450e-02
-7.327919050055171912e-02
-7.559304469432163998e-02
-1.114910175508398438e-01
-1.201836172907852357e-01
-9.129035971174832842e-02
-4.970036860935496403e-02
2.222227445138106813e-02
1.147545841341836570e-01
1.685591790391147149e-01
1.773293150493217563e-01
1.764071425407587601e-01
1.596042570634163549e-01
1.255249732740699731e-01
1.099009632865187019e-01
9.995279936351826600e-02
4.477169417778926325e-02
-4.349470649883412088e-02
-1.237264001249918782e-01
-1.875038794491153959e-01
-2.172097774537102288e-01
-2.217874359344947366e-01
-2.491601747649581644e-01
-2.370909551515985869e-01
-1.058154479714208951e-01
2.458647480942696001e-02
8.689786363877177733e-02
2.138522535710553896e-01
3.368078078879328530e-01
2.594502612329979696e-01
1.010318511706317091e-01
3.092687307431211952e-02
-3.144308434370151478e-02
-1.392753423321483053e-01
-2.347079873260425331e-01
-2.986137698727566181e-01
-3.198437186903406726e-01
-2.807587244799374382e-01
-2.095701013225566844e-01
-1.501142785377315991e-01
-1.119812732054108195e-01
-7.746939068679052631e-02
-3.895646587613266904e-02
-2.280112141204469062e-03
5.711286742288345514e-02
1.869560079318471901e-01
3.611847568225168836e-01
4.616577367715736790e-01
4.222907789130104228e-01
3.105384483214909674e-01
2.224528998660242618e-01
1.908243721923083558e-01
2.021693846963589225e-01
2.255548976176220688e-01
2.386916036336772518e-01
2.530815340187732021e-01
2.940567337114278756e-01
3.519976007356974135e-01
3.707458213605732689e-01
3.024626769189351361e-01
1.529110846529582735e-01
-6.051677869405851229e-02
-3.451944799606696535e-01
-6.590644548260550240e-01
-8.844702959697352540e-01
-9.750546951647616201e-01
-9.872214371360873431e-01
-9.036614338887485331e-01
-6.816324865794284316e-01
-4.187166303111902743e-01
-1.582479753998269623e-01
1.653007213132398623e-01
4.088312678976356307e-01
3.990761147384181973e-01
3.019434404788765569e-01
3.065115324448043355e-01
3.378772265444381917e-01
3.083961079282189210e-01
2.579987063129335345e-01
2.386674131745885885e-01
2.384544861325661458e-01
1.885207916640729287e-01
7.028450235407057711e-02
-1.268168088782575115e-02
-1.037618373480875267e-02
-2.368612992087532065e-02
-2.771842333260607361e-02
1.314976679205554222e-01
3.153967650603397010e-01
2.587983503226751192e-01
7.105577634497080297e-02
-2.255615764910201548e-02
-7.456225119638444643e-02
-1.795071743352853744e-01
-2.781187692353038199e-01
-3.224626102260685356e-01
-3.232140991393841478e-01
-2.620301955733840837e-01
-1.434684838131291273e-01
-2.360031759509238422e-02
8.267606734693341841e-02
1.812058296678659419e-01
2.319681701346204827e-01
2.179542580541627694e-01
1.656956303016365317e-01
7.544290972241550486e-02
-2.137585868258295302e-02
-3.527501098678539893e-02
1.036168187794119303e-02
4.270382834054614954e-03
-1.840429693914782602e-02
1.487323616298883051e-02
2.839351990551703883e-02
-5.753942784177287079e-03
-1.967813713741790524e-02
-3.556706306285686847e-02
-7.560911697731272085e-02
-8.890100336625407496e-02
-8.661714005150100704e-02
-9.836952251452522888e-02
-7.850096048873439480e-02
-1.552277350032761974e-02
1.578462240947601722e-02
-1.484383738676608999e-02
-5.627607321197404533e-02
-7.913283685288022284e-02
-8.405177624874932141e-02
-5.500680616834840997e-02
1.730247153345958883e-02
1.061341991908209548e-01
1.590097903443040417e-01
1.623514517623567688e-01
1.586753904983692898e-01
1.499779406296851414e-01
1.060190452582543685e-01
5.554643554571501302e-02
2.223123690921660969e-02
-2.325120556432584001e-02
-7.906240204649703229e-02
-1.164647349672877363e-01
-1.344989803231928516e-01
-1.416904079109698178e-01
-1.462168696129510226e-01
-1.339068816182567012e-01
-6.466559347665168378e-02
2.841920350747459759e-02
7.615843165563287998e-02
1.312465675897803163e-01
2.346979059385837507e-01
2.679047307920315868e-01
1.863960867801947030e-01
9.817925911211110301e-02
2.614067525041814319e-02
-7.999677919556424932e-02
-1.867534885031859049e-01
-2.348196401069056471e-01
-2.288724476716353928e-01
-2.001520276804313880e-01
-1.441892188536512132e-01
-5.481031083902336565e-02
1.769907534562085993e-02
4.727686815413188748e-02
7.594330182178371524e-02
1.029656761723643510e-01
9.764397009643760450e-02
8.297946692940592894e-02
7.292975549126679002e-02
6.087237797848528420e-02
5.403926247354186307e-02
1.891431194214821671e-02
-6.085847473930344059e-02
-1.118549831843647785e-01
-8.704916144181368276e-02
-2.754210168427231528e-02
1.297400032714988473e-02
1.922486891409877496e-02
2.144971077176827806e-02
4.913051355946440601e-02
7.160089054920409923e-02
5.157480738751650529e-02
2.252312627590094887e-02
1.310171327091880222e-02
-1.621688814071988935e-02
-7.127027551607348355e-02
-9.475095340797551335e-02
-7.272270374547606941e-02
-4.111364614369930615e-02
-4.768328684860928882e-03
5.586839048765653015e-02
1.210468469448354734e-01
1.416934767460739375e-01
1.084502422121988302e-01
5.894398440376417275e-02
1.899577424483068350e-02
-9.705336624300122186e-03
-1.740733119925877079e-02
-3.011176646178335622e-03
9.110445308045979351e-04
-3.040817928516841018e-02
-5.744278313544270986e-02
-2.552081980636909317e-02
-2.433375094125297608e-02
-1.834274293168438874e-01
-3.305782346169816588e-01
-2.241571922351597579e-01
-3.196615441932784685e-02
1.044804840310353117e-02
3.211172900705025479e-02
1.635156142801191537e-01
2.747491011698717234e-01
2.761962224108263086e-01
2.162305119105717155e-01
1.161326545045577169e-01
4.268567896426218866e-05
-1.087524126950921710e-01
-2.458348946257691847e-01
-3.189183299964551965e-01
-1.803008743080615761e-01
6.902450631655655811e-03
2.197579449913495547e-02
-1.839712784634621456e-03
7.904743682398158999e-02
1.458976157561812648e-01
1.226651948433152839e-01
7.724399720634307631e-02
3.546365623229381231e-02
-1.449811174546900179e-02
-3.024354904674897079e-02
8.745323335876055426e-03
3.900107109942457795e-02
3.362084779352671193e-02
3.067516222631343561e-02
2.709916475525763965e-02
1.381835420631309479e-02
7.982514632428258650e-03
-1.528506700816288470e-02
-6.747305976896320057e-02
-1.015603262271288082e-01
-9.859440423680208843e-02
-7.034159847422442879e-02
-2.297313902411017225e-02
1.706457272082894522e-02
3.181677988969591753e-02
3.043360424803874878e-02
4.194897820696643839e-03
-4.858054354278855402e-02
-8.785206474776691143e-02
-8.692429971617342266e-02
-5.490040743490714331e-02
9.632638654486651297e-03
1.102292663725283894e-01
2.032907075142135200e-01
2.279267824120718433e-01
1.815935240586471489e-01
1.095716291906981832e-01
3.360411433256822039e-02
-4.899507226039378355e-02
-1.226458798175345255e-01
-1.630774128014468860e-01
-1.614869915734767070e-01
-1.282624824207280745e-01
-8.620310119657356718e-02
-5.348497356371479522e-02
-4.515959896923679717e-02
-5.834419818564100246e-02
-4.950714559006445803e-02
-8.066165983449549368e-03
2.031929388271349821e-02
6.408308858124134311e-02
1.717503228255208292e-01
2.380842703852643627e-01
1.806776016668691920e-01
1.166381286410237833e-01
1.109452106953614098e-01
5.104334312820896224e-02
-1.035640026549963927e-01
-2.426460481129547320e-01
-2.826109077669241021e-01
-2.385275157140841207e-01
-1.728887658829357798e-01
-1.149910867010084936e-01
-2.377871723295642281e-03
1.811318682919854650e-01
2.935730686429873226e-01
2.626898283472633988e-01
1.670044045490096107e-01
3.709602477319159236e-02
-7.036221852942464716e-02
-4.375944409198909146e-02
3.335121528234591404e-02
-1.223047415280541922e-02
-1.341790341346464910e-01
-1.661117632293581392e-01
-8.551712587279533540e-02
6.737684675200406731e-03
4.520079240557571543e-02
3.383807700383649475e-02
1.246151310393411003e-02
9.761707755668092013e-03
8.144238885425111527e-03
-1.313371631286939373e-02
-4.075196053868140877e-02
-4.625658560086715748e-02
-1.645517388264684452e-02
1.559146334997247273e-02
1.249489996361550538e-02
3.541688274234109680e-03
1.400416334917046687e-02
5.267800010233089983e-03
-9.901213406921068744e-03
3.061781754691721147e-02
8.325241980445838297e-02
7.262062038203248582e-02
3.767595525325234673e-02
1.889577844434527087e-02
-7.527242059129453031e-03
-2.349740892770547235e-02
-7.365930225589910167e-03
4.464411019484454575e-03
-1.492053731826242964e-03
-1.670912063818993584e-02
-4.569900334103377260e-02
-6.320831626272786774e-02
-5.927937662712532557e-02
-7.485970274726533313e-02
-9.437430364663737525e-02
-5.045525579293082957e-02
2.718399427104857546e-02
6.191780380819283947e-02
1.031501221466353951e-01
2.094712624212918539e-01
2.649452166343998494e-01
1.782528771389553235e-01
5.725201759007687158e-02
-1.548176253033655553e-02
-9.568072892910478577e-02
-1.959033092424960487e-01
-2.556635381856066092e-01
-2.615475394979738799e-01
-2.268726077266921271e-01
-1.393660557456336269e-01
-2.775694102236085647e-02
4.157963830665536292e-02
7.207871913410708598e-02
1.025230299705731096e-01
1.195646990635370333e-01
1.166506907654686898e-01
1.109606348631698713e-01
8.806568950022684861e-02
5.886828725510520610e-02
5.734968426710001371e-02
4.467087052144078085e-02
-8.137939258316512561e-03
-4.323391739533469225e-02
-4.228345432891636446e-02
-4.957398897223212753e-02
-6.453118335897899127e-02
-5.713095249517772395e-02
-3.456267613877197359e-02
-2.245911907103354671e-02
-1.506208348683269263e-02
1.335549977311052683e-02
5.200589755993244301e-02
6.347752974090922762e-02
5.585090905970512692e-02
6.936566471049331051e-02
7.690638470910705904e-02
2.199050204855527296e-02
-3.999900416415462512e-02
-2.139634767526439954e-02
3.327132701933462749e-02
4.854251705118203808e-02
5.063169539344216513e-02
7.130235914158614130e-02
6.387544264249328529e-02
-2.042979542246318309e-02
-1.412239565241128203e-01
-1.954918846411145550e-01
-1.482227910967245099e-01
-8.338195156436861710e-02
-8.165832062730914165e-02
-1.032661043455393307e-01
-6.199867973584882036e-02
1.801704251602270074e-02
3.108364103052113289e-02
-4.012492857636221211e-02
-9.274477814922255092e-02
-4.708026109164932527e-02
5.426244182868130567e-02
1.380579796394973968e-01
2.097961142081655461e-01
2.823260513965121232e-01
2.922328162801390294e-01
1.950209792839929512e-01
6.113205168042178117e-02
-2.156028944281609960e-02
-6.466666252322172959e-02
-1.344210445950881072e-01
-2.422449763324320826e-01
-3.088188529748605027e-01
-2.702400431364305744e-01
-1.768082704990071585e-01
-9.248555803654173735e-02
-1.653204072654728893e-02
4.357747025298759624e-02
7.618707065613758433e-02
9.863183845262157856e-02
1.142866123383378812e-01
1.178857654908536667e-01
1.183613076970043004e-01
1.170498462236984061e-01
9.563364312630440178e-02
4.743811503988647205e-02
1.890259070902572391e-02
4.856246244237449883e-02
8.881120999128588878e-02
8.346176840441689448e-02
4.642572134677372397e-02
9.706397835900486271e-03
-2.391939694316870188e-02
-6.243678941319728837e-02
-9.581062901139991705e-02
-9.781530897583266826e-02
-6.486071268712174931e-02
-2.814299552852473837e-02
-1.906236195424022145e-02
-5.134206327046415136e-02
-1.146451491336059059e-01
-1.734954532458507503e-01
-1.935014094459052980e-01
-1.549453448206827566e-01
-6.365818286746159627e-02
3.444271537939806727e-02
9.674692744671459232e-02
1.271873272122026610e-01
1.388293985963427735e-01
1.188197579880869714e-01
6.813308027020302526e-02
3.206817946535736596e-02
4.430158993494858616e-02
8.071223977450033005e-02
1.085999396910321962e-01
1.205980958486645160e-01
9.864466871107394064e-02
2.884564120670881499e-02
-5.152025085380666780e-02
-1.027757046473733171e-01
-1.361869259661096510e-01
-1.586991027594118753e-01
-1.362769295648812995e-01
-7.375382112143312463e-02
-3.866715410888790783e-02
-8.897250613425458643e-03
1.207762194044348369e-01
2.640817825989275058e-01
2.280159218100102914e-01
1.053127116637706251e-01
5.894615046410534714e-02
-9.956790292670787690e-02
-4.570047707663928427e-01
-5.827033391269689222e-01
-2.628171776747979527e-01
5.899952940917609079e-02
1.139625380548570238e-01
1.752467501752199008e-01
3.674641391865141049e-01
4.830906138405000050e-01
3.908813941548388016e-01
1.567147130708612113e-01
-2.008407290226895889e-02
-3.692591383831626828e-02
-5.400779514682500088e-02
-1.641291308895738710e-01
-2.315506642804093518e-01
-1.835750114341999639e-01
-7.881626664856221376e-02
2.469638318547054401e-02
8.456902040013272726e-02
8.002424242266192866e-02
2.984039317937100741e-02
-3.282394054900646119e-02
-8.554442178315384282e-02
-1.277568036697878939e-01
-1.786467956788818368e-01
-2.304439290790169792e-01
-2.409319220080048396e-01
-2.164913290179917849e-01
-2.039642293111403326e-01
-2.028614727070679191e-01
-1.811661918364387280e-01
-1.303183080850718878e-01
-7.510128419302608549e-02
-4.752511857682639035e-02
-4.525976677230449108e-02
-4.326775234125551650e-02
-1.507509256970359854e-02
8.903273897296945516e-02
2.872255366906988905e-01
4.782013891808659656e-01
5.465868976295896742e-01
5.080408758116287116e-01
4.353966870768313235e-01
3.714488813860525873e-01
3.413252361546785241e-01
3.292161070515909893e-01
2.986093578888383560e-01
2.508760158922934691e-01
2.052039673584689361e-01
1.856468364791113435e-01
2.201355895914020588e-01
2.621010386747881227e-01
2.026400303703976280e-01
4.620621693325727142e-02
-1.072260247471232553e-01
-2.795246182756387365e-01
-5.575436003275433539e-01
-8.760194200829789501e-01
-1.072457810948801882e+00
-1.095818044662472568e+00
-1.035005759373914591e+00
-9.006702633239759281e-01
-6.016786801971810705e-01
-2.552198610083074026e-01
-5.760286076321549653e-02
8.099037112267368221e-02
2.675076496101854162e-01
4.050581204574437155e-01
4.598461995468858809e-01
4.855668596162777684e-01
4.945905198830665706e-01
4.980549416688737629e-01
5.019981317706547763e-01
4.829095808653727784e-01
4.058264498374755669e-01
2.731614908600454861e-01
1.641834240273691847e-01
1.138641478946869345e-01
3.538478573653082437e-02
-9.699475145804495324e-02
-1.757272189155253961e-01
-1.709279569599240212e-01
-1.700121876272605581e-01
-1.837790443275855168e-01
-1.570491184458189804e-01
-9.755470750190914364e-02
-4.505961042330462740e-02
-3.556515358774899049e-02
-8.082970647550755117e-02
-1.191955989741230043e-01
-1.074707471631601019e-01
-8.771054122769877948e-02
-5.363628343634198326e-02
6.091716588802617571e-02
2.149483800954459511e-01
2.893502986233837948e-01
2.719942400342429956e-01
2.272071633201850349e-01
1.473479148183891030e-01
2.632023487298065789e-02
-5.229165950711384819e-02
-6.383222936208113318e-02
-9.285625185737622633e-02
-1.383207922392778177e-01
-1.019662220408243808e-01
-5.788487507794284198e-02
-1.668265474898479872e-01
-2.827341818528242290e-01
-2.118425576801911403e-01
-1.326965376091501503e-01
-1.699971059752959923e-01
-1.271726866906555120e-01
4.763106833090315073e-02
1.993278306290032775e-01
2.988452995294546555e-01
3.572860873688068484e-01
3.074422921030626754e-01
1.768663269495803214e-01
5.763247064541702352e-02
-6.670500731289254193e-02
-2.165377769285263543e-01
-3.010019717000641526e-01
-2.743556218140116854e-01
-2.095650819487887007e-01
-1.467166059386535992e-01
-6.419455786492977989e-02
3.044793579783648327e-02
1.134598337026788695e-01
1.601440605717085464e-01
1.465262991812700255e-01
1.005796825321733229e-01
5.441539145375384745e-02
4.647615393179731734e-03
-6.188410122764427188e-03
3.658792219763985082e-02
4.242021726485528665e-02
6.324268304683863286e-03
2.514075604787424645e-02
8.143379349906518239e-02
9.304988044302428540e-02
5.476584372866960537e-02
-4.005718579516152206e-03
-4.551557841707196128e-02
-4.596207691038166343e-02
-5.218617424552877276e-02
-9.773664677432765402e-02
-1.068492850940327560e-01
-2.261821274324950226e-02
5.551613587701848679e-02
1.964337217352914167e-02
-6.883014352012520320e-02
-1.071524593345593857e-01
-1.019719661140579686e-01
-7.243299810840882202e-02
-1.500991230005507826e-02
2.551954557973342558e-02
7.912280506094997168e-02
2.254721794919858635e-01
3.146972110878267781e-01
1.805272631030700181e-01
4.241767813042682245e-03
-3.116068411813614769e-02
-3.693915070815389362e-02
-9.810214524544919046e-02
-1.380143594520134576e-01
-1.255376120190054290e-01
-1.018276808595495880e-01
-9.310102067160158645e-02
-1.116067847041938565e-01
-1.335289575403082463e-01
-9.606358072409515447e-02
4.631320400975622031e-05
9.279629666582707437e-02
1.719243194715202594e-01
2.346190808465438704e-01
2.274581103795897952e-01
1.613685545074357020e-01
1.055977965102076477e-01
4.825671287495050810e-02
-5.004992422194490254e-02
-1.540866829342218136e-01
-2.138720109003236503e-01
-2.132406847719114928e-01
-1.635649801151895788e-01
-1.032008273299264839e-01
-5.096515146017639025e-02
5.413346400255300561e-03
5.358571245937326227e-02
7.477836758005199091e-02
9.094029747369136718e-02
1.157512919025931036e-01
1.151460211262916727e-01
7.445815394583128743e-02
3.822668021034511532e-02
2.740949431777423353e-02
1.272138712939355903e-04
-5.461781456684382252e-02
-9.425555050060190065e-02
-8.808527186969833389e-02
-3.383139380335176138e-02
2.381911464987248803e-02
3.314747313967457421e-02
1.245361044385018962e-02
2.439412725927089451e-03
1.463659921153341245e-02
2.850728827937425158e-02
8.364782285402730388e-03
-2.421012630516037115e-02
-3.583681093194607259e-02
-6.504622633933503095e-02
-1.086398844707187478e-01
-9.240211093179404034e-02
-3.134936862830126764e-02
8.557741700276694924e-03
5.405486110763027541e-02
1.255556002337379629e-01
1.535957272129460371e-01
1.177045876967644233e-01
7.182160963055952974e-02
2.590526546985353479e-02
-2.605531859764844554e-02
-4.882909626568669031e-02
-3.233337460701139060e-02
-7.367350047252013007e-03
1.028558949491187313e-02
1.911192879620773541e-02
1.271174224884243434e-02
-1.594325410458682230e-02
-7.332718604684246300e-02
-1.427256034054593392e-01
-1.660986499996845722e-01
-1.111840911754394950e-01
-3.212505920958094729e-02
3.407250308822325213e-02
1.439504263274184181e-01
2.810387493865962316e-01
3.047892888647006915e-01
1.875933912149221894e-01
5.282934538400076152e-02
-3.838848024622683319e-02
-1.289778240297319023e-01
-2.392422899039421957e-01
-3.164678574028152447e-01
-3.081136101358885049e-01
-2.166052294242216125e-01
-9.113906638131794025e-02
-8.376587354486628861e-03
5.221827545770052481e-02
1.896186987702267457e-01
2.979731404492091951e-01
2.015870667749860012e-01
2.594967280894192735e-02
-3.259958668366241819e-02
-9.878767964479756580e-03
7.750098102649068468e-03
2.214855764845340830e-02
4.097572917977970047e-02
5.059890368441839065e-02
4.684833993739009883e-02
3.870944739377900345e-02
2.709689928542777237e-02
-8.064958065346768470e-03
-7.114445054552585856e-02
-1.114464909038777596e-01
-8.108734973241299437e-02
-2.150993676366055180e-02
-1.184240549679882806e-03
-4.458659657549752728e-04
2.592180870942033255e-02
4.338818226792275079e-02
4.432445509893275307e-03
-5.870251664393780905e-02
-8.290680665387457904e-02
-6.840899524556187661e-02
-5.397094775377036385e-02
-1.689474379186831424e-02
7.429737146251350066e-02
1.520360953825184713e-01
1.634094625696803638e-01
1.451913628909312082e-01
9.548521476597343627e-02
6.380173088217692967e-03
-5.447679721029130562e-02
-7.417817224144898636e-02
-1.036384486274644634e-01
-1.232091375186744053e-01
-9.935919637694386186e-02
-6.994907086046804612e-02
-6.150833789104666327e-02
-5.886462284918681648e-02
-6.612705672481905550e-02
-7.325600409230217935e-02
-4.112935823761594556e-02
1.938741301315208276e-02
8.713573641506357215e-02
1.808670500948800497e-01
2.507394184356224187e-01
