-7.398948810237523932e-02
-1.013242348224642833e-02
-3.489300751963832908e-02
-2.687043158835990958e-02
1.493854864603604872e-02
1.533555710649841045e-02
1.258650386951342542e-02
2.637600739992327151e-02
1.167875626190240448e-02
-9.149574233838813492e-03
2.052571711334665212e-03
1.053721769299328405e-02
5.893254265842002605e-03
2.837918859308826217e-02
5.692212335612269886e-02
3.298784087601916437e-02
-3.598566217438336351e-02
-9.428620601098817999e-02
-9.012193140732620289e-02
-4.184189927204311210e-02
-4.735139468957243192e-02
-6.227407764207976842e-02
5.891986743122645809e-02
1.690634691576004267e-01
6.878784228700807191e-02
-4.779032737808165676e-02
-5.314754639031832317e-03
5.262437036839693466e-02
4.207591098750660535e-02
1.720408863808547961e-02
-1.909984205587002964e-02
-5.748507579758027619e-02
-5.861802893831553202e-02
-3.742282050112903657e-02
-2.367720030415141827e-02
-1.483758241325256605e-03
2.013412308307819740e-02
-6.759486863605610948e-03
-9.519487646121918209e-03
1.103310470350559042e-01
1.919186838409208951e-01
7.620151530964713871e-02
-5.955095829576801530e-02
-4.699602915290950617e-02
1.618265056956051315e-02
2.228503946672827016e-02
6.473833437307106344e-04
1.910291712018448093e-02
7.237099937447111220e-02
6.632671216662290592e-02
-3.095679482462170701e-02
-1.160564740707893394e-01
-1.316919559299286613e-01
-1.112870755187487792e-01
-6.129276553288812851e-02
-9.120232683418419764e-03
5.663540982824566417e-03
7.558899410067914520e-03
2.344229148472560392e-02
5.068048656982761246e-02
3.152484570783496698e-02
-8.630817700981206764e-02
-1.725536122552866758e-01
-1.010235689366326822e-01
-1.285360989357500587e-04
1.474970929839093323e-02
1.791364789969623894e-02
2.922761483307945857e-02
-1.505405704967198964e-02
-3.616739249939445594e-02
7.018468162390335829e-02
1.505272605761173998e-01
6.071981979509927241e-02
-2.627243548569450915e-02
5.445610331295865775e-03
1.906288217509605892e-02
-2.270649745709141937e-02
-2.858025452390974136e-02
2.666004972976384821e-03
4.568690486346048407e-02
1.091410444394720625e-01
1.652107769368359735e-01
2.127556895090338129e-01
2.696974169975689395e-01
2.070551760318857515e-01
-5.216720364182862724e-02
-2.557141939747458736e-01
-2.273304075388962453e-01
-1.750564360694638333e-01
-2.196162445088609971e-01
-2.128912061649246845e-01
-1.211501899719646946e-01
-4.374882291158252445e-02
9.527544067161813207e-03
6.193951201802061490e-02
8.470455465131157546e-02
6.226687227642275363e-02
3.210134822950402866e-02
3.136381743181750753e-02
3.139051270987082420e-02
-1.018311353231274481e-02
-5.159509945174794304e-02
-3.290444108300248638e-02
3.028458050811486113e-02
9.633666307264132644e-02
1.266910861933870369e-01
8.628912274867497900e-02
1.812530684389523049e-03
-5.839135324839343083e-02
-6.329318796848494577e-02
-1.941720881841960816e-02
4.216592523459710556e-02
6.564344416960957163e-02
3.001250844000495979e-02
-2.499623356060946822e-02
-6.862448259041609155e-02
-8.743299450147481999e-02
-5.013742486496121364e-02
2.309331356442032718e-02
5.925285432131720265e-02
6.311334256148215527e-02
7.642446201236070824e-02
5.586752190199427426e-02
-2.090358385515398223e-02
-8.010228467069673008e-02
-9.289698480470019726e-02
-9.346763496769090740e-02
-7.539162032998079910e-02
-4.197236586885470799e-02
-3.533719903434699022e-02
-3.588518639822094874e-02
-3.016065906856116308e-03
2.141321281990378467e-02
1.234588927998851553e-02
3.249895329989424542e-02
9.284353200064809908e-02
1.222939313341684792e-01
1.021274982318638030e-01
6.261564661000725007e-02
9.612894796165427289e-03
-3.738069305290199484e-02
-4.611138418491021046e-02
-4.534407586957595049e-02
-7.144073728568126058e-02
-7.854535273738184886e-02
-3.548945036748644977e-02
-1.002636998288271384e-03
6.207107539570577356e-03
2.982909603938164317e-02
4.996429407936123918e-02
3.819594685309988386e-02
3.139572456600103756e-02
3.445295846331863227e-02
2.280582805788578318e-02
1.007849865735746531e-02
8.390379543614781555e-03
2.096071978931322161e-02
4.118387914980205927e-02
3.780468267291128143e-02
2.232158031272370516e-02
2.493315226001343449e-02
1.757384765597729340e-02
-3.569470146308002974e-03
-3.828322989061678366e-03
-1.255704048011539037e-02
-5.384656801255906233e-02
-7.080048200981707562e-02
-3.942864639701905427e-02
-1.274438128798354407e-02
-3.027031455185779513e-02
-8.773661783598989128e-02
-1.515265850016543903e-01
-1.611486857268839834e-01
-8.777613810505655034e-02
1.099203346673598494e-02
6.567533503547672014e-02
7.642709050656616709e-02
6.280864195671573280e-02
2.789244182054833113e-02
6.195033362635450278e-03
3.205233227139907271e-02
6.227886970267632050e-02
3.887059741085922837e-02
-1.238576874958341803e-02
-2.982973761861593825e-02
-1.895571644301392161e-03
4.366365339133193579e-02
8.335550595733734469e-02
9.808839805766533804e-02
7.902746754006334529e-02
5.692746114408653996e-02
5.441760085785671969e-02
4.027725584876096221e-02
6.177280481766122058e-03
-2.038155073121074995e-02
-4.545814174957336917e-02
-7.134255491668796412e-02
-7.686318973509151387e-02
-6.988353489955503872e-02
-5.828839092346217721e-02
-1.919211332282740046e-02
4.012623974293477030e-02
3.305574873499260435e-02
-7.564707829940789385e-02
-1.295167497210166774e-01
-3.439824108136164266e-02
4.387428831469300516e-02
7.728777544248124909e-04
-5.404225763904097618e-02
-3.175274105208196473e-02
3.603863530675812527e-02
6.905165703214526107e-02
5.015655577884725602e-02
4.609496189263254801e-02
6.414879861988974363e-02
4.393848999462642013e-02
-2.226849919951348535e-03
-3.244097014527600603e-02
-5.818566959249611009e-02
-6.387607984590305821e-02
-2.450309981454351985e-02
1.160575730015001202e-02
1.895550377867392944e-02
3.620142082916377735e-02
5.698579798165380461e-02
3.550811901500702805e-02
-1.815527379980740041e-02
-3.867717742333218189e-02
8.007445029478560405e-04
3.873740490630069033e-02
1.574212804745575567e-02
-2.968067134992084452e-02
-3.373045689816766418e-02
-1.486885178224077626e-02
-1.224317087523079869e-02
-2.209484807931508428e-04
2.837495093970381424e-02
1.451249933263798475e-02
-3.882244020120879935e-02
-5.016995501331096563e-02
-1.355427127616024713e-02
9.418884087880430994e-03
2.515059985460457725e-02
6.442369024082020279e-02
8.165777134893545397e-02
4.284965114589486812e-02
1.519846245758867511e-03
-1.373858803308469767e-02
-3.559494284284288323e-02
-5.030719839111284786e-02
-1.427079315664847407e-02
4.996211642541081854e-02
4.911745985998316327e-02
-6.815766243511060807e-02
-1.686761794923660740e-01
-9.756315333688012070e-02
3.836228852055596078e-02
5.778671605856941507e-02
4.070622839582080377e-03
1.087968639046897352e-03
3.122587933445295297e-02
1.496890307701666430e-02
-3.313659394470069852e-02
-4.177693116738613599e-02
-4.999067835146479150e-03
1.576093628600922641e-02
-7.040070337151154919e-03
1.283422834500166573e-02
1.398149121913862536e-01
2.100482861508894405e-01
8.238459895386224252e-02
-6.069322285687761553e-02
-6.351160029375432781e-02
-4.916110264449508049e-02
-7.704305224851562550e-02
-5.499045996511428558e-02
-1.024095982884339062e-03
1.028482272112159202e-02
8.306729245738190756e-03
1.873009297308444662e-02
1.205846841639157674e-02
5.913357217355681358e-03
2.442222844623387346e-02
2.588440814768125028e-02
-1.212555963794168315e-03
-1.150013225337566738e-02
-1.353730032911800579e-02
-2.398201529340113214e-02
-5.094116814547661187e-03
-1.397821574040325129e-02
-1.171560441580636880e-01
-1.576918886957671129e-01
-5.222240149580500979e-02
9.759416747382232415e-03
-1.929659777638204413e-02
-9.738214551901583707e-03
1.888498053273623273e-02
1.870475795424675347e-02
3.885863398198813323e-02
7.344000316326931843e-02
8.015023109822866365e-02
7.404821811474669724e-02
7.640260532888674960e-02
8.796282225228603535e-02
1.137324853350490939e-01
1.285427716229402273e-01
7.499253857978548099e-02
-3.680964243501722716e-02
-1.244583003867164306e-01
-1.609382745799616543e-01
-1.691184519956140664e-01
-1.343353755434078534e-01
-5.832773805711677362e-02
8.151775825955814153e-03
3.664714524620986402e-02
2.880221852272274452e-02
9.431377024003255449e-04
-1.145673865261239224e-02
4.871213566670407752e-03
2.664036173665840918e-02
4.193598267430325571e-02
6.259920508276622941e-02
8.084730102020723508e-02
7.057487264123839255e-02
4.248628260095339143e-02
1.608796527613055166e-02
-2.602418193765037094e-02
-6.483094340709145975e-02
-5.811062882751859282e-02
-4.899152174711403351e-02
-7.352717155210809763e-02
-6.794704743440171946e-02
-1.221797003641447721e-02
2.684235400529997803e-02
2.822820818468735338e-02
1.803445137265805021e-02
8.615283093257888880e-03
2.075372376576294087e-02
5.323217587105164017e-02
5.418940421387191675e-02
1.111507026564896236e-02
-2.714672868333856473e-02
-4.003333698771618238e-02
-4.131023660845550144e-02
-3.358708479716733530e-02
-3.115077196273871932e-02
-5.283636867378255914e-02
-5.874817655201837463e-02
-6.539896054168939203e-03
4.966852955299755346e-02
5.371592690138224380e-02
4.721800000114382417e-02
6.866140115458453652e-02
9.240278415401587120e-02
8.667627956328978478e-02
3.886032500101337800e-02
-1.311242822183571535e-02
-6.265058569872982569e-03
3.263720899224097777e-02
3.371382575950206822e-02
2.740198645021714105e-03
-4.079435173688197164e-02
-1.041207359196199556e-01
-1.443512527061144302e-01
-1.037865581096431566e-01
-1.696478169211424955e-02
3.125295568544794039e-02
3.287499991817019462e-02
3.620672399495737659e-02
3.049829817279433447e-02
-1.645938811224461479e-02
-5.855764349654636602e-02
-4.809298195627700889e-02
-2.288765791430478341e-02
-9.544367145934845587e-03
2.220384767962422026e-02
5.706632708010209859e-02
4.526777066699212704e-02
4.990276896513419144e-03
-1.729083675871520911e-02
-2.907198069657921519e-02
-4.123639806849265649e-02
-2.178665405748790931e-02
3.175041710291585245e-02
6.802632811867240226e-02
6.098080238384264579e-02
3.033548617529543967e-02
-1.204990239445841160e-03
-1.447132175526582611e-02
7.825701138943954444e-04
1.926463271895818841e-02
1.349892786932587949e-02
5.296674702987118517e-03
1.237838073047004342e-02
7.902535934003739396e-03
-6.903443382432904347e-03
-5.851124586497436636e-03
-5.247958015851954781e-03
-1.279134137133031840e-02
-1.394180162201706999e-03
1.118539474595118578e-02
-1.450010697757992024e-02
-5.014444616880010808e-02
-3.720267874944317710e-02
1.801144808493033642e-02
5.141253997813897275e-02
4.139692422264803356e-02
3.411648853670703335e-02
4.169585439999960036e-02
1.696295117224254356e-02
-5.074097581830790821e-02
-1.103744396020822638e-01
-1.120163829232523611e-01
-5.934370829493021415e-02
-1.253698589103421218e-02
-2.154567783424133492e-02
-6.011440106202518840e-02
-5.485960952047680417e-02
1.772315319872793532e-02
8.853342875346204011e-02
9.181431410106430380e-02
6.160653957577527651e-02
6.109631831667530766e-02
7.795843084506316745e-02
5.840007142026797798e-02
3.382751661105565938e-03
-3.035718810867297016e-02
-1.467244625614154765e-02
2.254405478326943976e-02
4.063506198130072133e-02
2.541437063849625103e-02
5.275567386071053702e-05
-7.563795676410202048e-03
-9.693351624512866124e-03
-4.825908228892097918e-02
-1.155607844637940307e-01
-1.397480248551402904e-01
-1.057502368966103390e-01
-6.201232497617408662e-02
1.175603626059895657e-04
6.320844440266365494e-02
3.539910824969855901e-02
-6.096054528579343545e-04
1.080009392885340758e-01
1.942400505508237729e-01
8.447151837904276483e-02
-2.626761943730172161e-02
-1.773071169072936923e-02
-2.508501253592429481e-02
-5.750581997101071596e-02
-3.777353013491181744e-02
-9.803299257915062265e-03
-1.705531419835881052e-02
-2.792461640173658777e-02
-2.202343526205645038e-02
-1.169199855759335202e-02
-6.931217898017191792e-03
-1.295820407200083159e-02
-1.988196387818969360e-02
-7.534971783866516951e-04
3.369935898007769826e-02
5.393358726599087327e-02
6.828120968176544514e-02
6.660416192903159671e-02
1.807519498823309187e-02
-3.901730807671398987e-02
-4.314511990386754592e-02
-1.612234789199164936e-02
-1.283306863133316586e-02
-2.357837466477882490e-02
-2.645314650966602843e-02
-3.913442379008275074e-02
-4.031526328452369329e-02
6.728130016731217675e-03
5.183126752483772220e-02
3.931079584151229295e-02
1.184869085980397134e-02
1.811176145719005023e-02
2.373185364024504515e-02
-5.183472994672356365e-03
-3.849041263332542845e-02
-4.639731943253519453e-02
-2.121103742330080616e-02
3.317483714641863285e-02
6.290366090636990981e-02
3.002651058183559984e-02
-2.069042542902930180e-03
8.422063268997147939e-03
4.428162880391797902e-03
-2.949520055563906520e-02
-3.840776806578555247e-02
-1.807550356268615779e-02
-5.896643239128437561e-03
-2.096464147029650747e-04
4.245156254350165859e-03
-2.145961797588572667e-02
-5.953407951404267318e-02
-4.412770226389661071e-02
1.606528800359811882e-02
5.675199106887321432e-02
5.874402808693675315e-02
2.987613054691299827e-02
-1.390320031596568254e-03
-5.372980634588040393e-03
-3.428215184483789091e-02
-7.495286311755125497e-02
1.130673243621415670e-02
1.444433741103777202e-01
1.118024748867121887e-01
-5.837867996099019297e-04
-2.758747895095024424e-02
-2.565621927244076533e-02
-4.957545278527805688e-02
-4.997981415268814426e-02
-8.131642001607137724e-03
3.618115120523048706e-02
2.865446165118767929e-02
-2.462077161562321176e-02
-5.302536361949559268e-02
-4.746785122889833619e-02
-5.784224469453216888e-02
-6.785455030365936113e-02
-2.735651250534980664e-02
1.920277111609606374e-02
-1.891996095477030404e-02
-6.214963178031196467e-02
4.476780089163484577e-02
1.531104163216200076e-01
3.381143730471954101e-02
-1.009800274704278633e-01
1.973972594243369322e-02
1.585716619794248217e-01
5.660769763382696856e-02
-7.000558632498857237e-02
-3.182555055198454941e-02
1.363532268792964214e-02
-1.347226392342444623e-02
1.726844273595053679e-03
6.663590904332282461e-02
8.313547164504138387e-02
5.231670799346978262e-02
4.332298201095417106e-02
3.898705830818870871e-02
-8.942642562660065020e-03
-4.648899961198647846e-02
-1.966973758127876781e-02
5.791356807727991371e-03
-1.107004608619774864e-02
-1.159518821673423059e-02
-3.429812498260568360e-02
-1.540065656469362942e-01
-2.121781304681466807e-01
-8.320634312257596532e-02
4.743009107101381350e-02
6.701205068080473559e-02
8.185227261205987870e-02
9.272650413957474191e-02
3.459034111306864834e-02
-3.457125850031284031e-02
-6.513422945652894147e-02
-8.643540956249445850e-02
-9.330183788222512486e-02
-7.058695788887410505e-02
-4.926695407215562345e-02
-1.573425240683041723e-02
6.159905440357825446e-02
9.763915828326884261e-02
2.699842265010091516e-02
-2.669309456914875645e-02
3.502449340166208236e-02
1.184551310261735824e-01
1.421221788230009608e-01
1.425810815926965569e-01
1.394241407130795973e-01
1.114592111861454904e-01
5.814802988744480899e-02
-1.957703807845920588e-02
-1.126357827757752117e-01
-1.788714377715580894e-01
-1.825283975371451706e-01
-1.247713019448190852e-01
-4.811564737292105265e-02
-1.326713333904082533e-03
2.634124469973576910e-02
6.061998441235612323e-02
6.613788547663794481e-02
2.313181449809113138e-02
-1.165725176829966563e-02
-1.229602970879781557e-02
-2.504454942536231757e-02
-5.050825071234413960e-02
-2.706017103831617754e-02
4.398335835433597740e-02
7.554091774516488722e-02
2.855942446303727511e-02
-2.491916268148386751e-02
-3.342465272313931840e-02
-2.869587732331923061e-02
-2.135935097788178513e-02
-8.014106642749461301e-03
-7.857368091793968251e-03
-2.459698728668018898e-03
1.746280155834495015e-02
1.799361757999008368e-02
-4.639326991124363177e-03
-3.577540254745973508e-02
-5.152655942300565783e-02
-1.232119773870420099e-02
5.153426306393727591e-02
7.105565851686711232e-02
6.036092063051716472e-02
5.251561131351435707e-02
1.635223530956116111e-02
-4.614300554112802516e-02
-6.699251686864510225e-02
-3.506795691714015284e-02
-1.634197346352480457e-02
-4.486220336579606338e-02
-8.254797917767242588e-02
-7.208739574746018952e-02
-5.515785106018435829e-03
5.485650080024542796e-02
6.816368907567744995e-02
8.627963080911629778e-02
1.342313812345276025e-01
1.413347041165547990e-01
7.802832280361654549e-02
-7.008529896950093513e-03
-6.757096003293740216e-02
-6.840641037812046632e-02
-2.404683092335139008e-02
-8.163376653969168714e-03
-3.830237750193324353e-02
-5.808947093019766611e-02
-2.787981979475428682e-02
3.661813742250211168e-02
7.124486282323176656e-02
4.706153835713390576e-02
1.932928697026926879e-02
7.285327388618610678e-03
-2.128147345827476403e-02
-4.405742281704708163e-02
-5.756325094934445358e-02
-1.036009537986426893e-01
-1.348782843160202527e-01
-8.657304863366445391e-02
-1.693114067068814468e-02
6.253486122389032009e-03
1.740270751259745743e-02
4.447233809638352631e-02
3.978357459600164597e-02
-7.085173720002337430e-03
-3.742413474451757732e-02
-2.899534741137238872e-02
-2.777821307255579249e-03
3.311150773196779723e-02
7.320515767499816140e-02
9.876542943130370289e-02
9.398751006424831134e-02
6.799159914039487607e-02
4.344629905920738971e-02
2.562952253138330375e-02
1.561672053372843184e-02
2.118693532957078088e-02
2.512258018854054628e-02
6.917181338159925086e-03
-1.723179483279513660e-02
-4.494835476207030556e-02
-8.369545087735930089e-02
-8.466360819213561428e-02
-3.646785468475988168e-02
-2.628423576516063578e-02
-7.078165488046965492e-02
-7.686403227858773501e-02
-2.905437709048201006e-02
4.450611247204425483e-03
2.324556214835294538e-02
6.224399775712285976e-02
9.662880536471978032e-02
9.431047219236612933e-02
6.816917120815195463e-02
3.268408961859441131e-02
-1.728637941815966417e-02
-6.234604502351614314e-02
-6.220626783590762349e-02
-3.386148572027998516e-02
-3.427625668013396798e-02
-4.530881355424836582e-02
-1.346426617512843336e-02
2.397352569617552595e-02
1.746034072098931814e-02
1.792084418263701663e-03
-4.486189782073414511e-03
-1.956005766881280944e-02
-1.013887186785625630e-02
2.742304338861442647e-02
1.194822353259250222e-02
-4.705072133679476937e-02
-3.506498248310935262e-02
4.076440440254242709e-02
7.210306388591278259e-02
5.199773562034597230e-02
4.276627792418152829e-02
4.669713165587741771e-02
2.636506203749056088e-02
-2.192480988376977261e-02
-6.598631888150018054e-02
-8.085481512665611270e-02
-5.742228995434985050e-02
5.104312243732304910e-03
6.992371992789148116e-02
7.651420307459269599e-02
2.654397654562742903e-02
-1.254776869272370213e-02
-8.387641590888892870e-03
2.313832703735409571e-02
6.875696149590600215e-02
6.061016591707529821e-02
-6.054230518498265184e-02
-1.548920138245785116e-01
-9.058250237957529705e-02
-1.546408877620543063e-03
-1.152967327408843841e-02
-4.099873783220949613e-02
-2.187720294037191412e-02
5.433832625410122547e-03
4.090264460014903479e-03
-2.690488165956388816e-03
1.945871951626952645e-03
-2.305173045436372317e-03
-2.351633614995435329e-03
3.067738047326347070e-02
6.289827383855167708e-02
5.519902817531292805e-02
3.374074358421867703e-02
2.308471118278444464e-02
8.213341983520753425e-03
-1.341202029512044390e-03
1.712533426535029976e-02
3.074229020454392197e-02
6.863738294981268882e-03
-6.171243784035385961e-03
2.291575403321121501e-02
2.682010681223736051e-02
-2.277750036380334422e-02
-6.722101419147688550e-02
-8.450822469312646579e-02
-8.009536627447980117e-02
-4.796868824387846841e-02
-1.341045898677953839e-02
1.619852632803085724e-03
2.612800896985246688e-03
-7.930554616983651051e-03
-8.873512100274406900e-03
1.816282320655727631e-02
3.571667869462588629e-02
2.299643408788905677e-02
3.560954013115165406e-02
7.230324320057089638e-02
3.314386757502941344e-02
-3.729034275873730625e-02
1.344046158998677895e-02
8.176882200865437378e-02
4.586759746619265693e-03
-6.827638988215070648e-02
-1.726185523740602148e-02
1.074949806602158373e-02
-3.564339769548825060e-02
-3.160564180173353055e-02
3.871340238975864989e-02
7.126169399968972085e-02
5.157618858092877928e-02
4.257140871320288372e-02
3.179904268481063140e-02
-1.246027819920913354e-02
-4.650826044968228712e-02
-5.548390112795989482e-02
-8.137371440394176869e-02
-9.924153513092562329e-02
-6.311539399084321877e-02
-3.380366645397106518e-02
-6.106827693991336709e-02
-5.705999410953595252e-02
2.593811969276054938e-02
8.779622117934610115e-02
8.256360850019915654e-02
7.105047576417669597e-02
5.124880657011271490e-02
4.080253409102665638e-03
-4.024750022098768677e-03
4.088350124564638782e-02
6.687530110635991898e-02
6.335094685521745761e-02
4.524333265527513692e-02
-1.929019471648749789e-02
-1.029655453010569766e-01
-1.207317583430932012e-01
-7.667566915116459658e-02
-3.850264440806695082e-02
-6.461746248791372903e-03
4.381632822796624471e-02
7.364917059298473068e-02
5.268172823487683731e-02
1.175761271085806921e-02
-2.761582910782068093e-02
-6.511048651743768512e-02
-7.574086166032552303e-02
-4.243298729346215575e-02
1.001145842600044758e-02
4.861032785464362155e-02
5.258182035183583958e-02
2.309142197973972077e-02
-6.891257971090455035e-03
-1.684762629885376908e-02
-2.267340428780017375e-02
-3.478787857437545816e-02
-4.081159795628568066e-02
-1.284392419289927950e-02
5.924750469617868359e-02
1.141279973641488865e-01
8.838761879119597098e-02
2.393672974550567489e-02
-7.690416255895745831e-03
-1.089562584258025983e-02
-1.331731604285992833e-02
-1.573765785177455578e-03
3.963929285357437743e-02
8.094866687804723460e-02
7.664238573092531370e-02
2.983955884925330176e-02
-8.012884028366654143e-03
-2.147656580314005401e-02
-4.601653964472934843e-02
-8.151164864249470232e-02
-1.091027743287420054e-01
-1.558317207849431729e-01
-2.003108804958657618e-01
-1.543777080045931061e-01
-4.254242135758650595e-02
2.331898600717889625e-02
4.299900967170622312e-02
7.382021031858367055e-02
1.005114618452862540e-01
1.037110932275802366e-01
9.738991688043288630e-02
7.683807840225373442e-02
4.186261113871374284e-02
1.549822605456422329e-02
5.897187611624558207e-03
3.999813828579404373e-03
7.528450288603152560e-03
2.484708833476006670e-02
5.263704928522430077e-02
6.593519958947074988e-02
5.842472769241161684e-02
4.854328705771462221e-02
2.770425392647064139e-02
-1.963969256154261128e-02
-6.574719366710955748e-02
-9.156131833574487899e-02
-1.193910845968700063e-01
-1.424152069678063515e-01
-1.201617891918701359e-01
-5.526461691184661462e-02
8.846690150072333836e-03
3.919614419326324095e-02
2.156166687719862293e-02
-2.296262492710431438e-02
-3.776801116857479018e-02
-1.160037224567961670e-02
-7.681784698065342171e-03
-4.683328654352812009e-02
-2.549980118770049306e-02
1.135057499447724438e-01
2.079278843948142164e-01
1.286788105597220788e-01
8.326851446018369504e-03
-3.324717671653906748e-02
-3.603594703259889453e-02
-1.659308061428304421e-02
1.633434365528309284e-02
1.555947593916078529e-02
2.760067958546708750e-04
-1.717996457043084041e-02
-8.235476480999162630e-02
-9.925285124657064195e-02
5.144395632926553746e-02
1.757872943362417395e-01
8.123606716588308019e-02
-4.760919381221613567e-02
-4.597861346409728989e-02
-1.733905170245836347e-02
-3.015252704325132801e-02
-3.082104730550692256e-02
8.438880098810681157e-03
4.007732037948667086e-02
1.056575823074231216e-02
-3.199237732875490070e-02
-1.346145868466372061e-02
1.418803661728424391e-02
-2.220350121124785650e-02
-6.782947502009409324e-02
-5.890109261516136147e-02
-2.999386033824573417e-02
-1.126012603118663191e-02
1.026794527765963888e-02
2.971934544958682034e-02
3.264562351865045453e-02
1.911500788487888181e-02
6.645219587768060737e-03
8.003464126133619239e-03
4.998674971674969261e-04
-2.135835818563721483e-02
-2.244640773124790406e-02
-7.076201385607033129e-03
-1.663581293385139881e-03
1.456999551914571825e-02
3.772391510294583611e-02
2.470227545555289672e-02
8.249981488968733540e-03
3.502038603563859681e-02
4.874806409946315366e-02
1.154334583106007839e-02
-1.421719256796727740e-02
-3.763446696321524898e-03
-4.252132818630274293e-03
-4.537433220946026670e-03
3.492250675274448379e-02
5.402616950346084135e-02
1.750107293165085662e-02
2.261439566577262000e-02
4.686387265765170479e-02
-5.461398937788490560e-02
-1.479390011100092106e-01
-2.012268841594224214e-02
1.035887483080707577e-01
-2.829365430025981148e-02
-1.604929781097024222e-01
-6.878307801362010254e-02
2.424707248604705129e-02
-1.243362316560429198e-02
-2.500500414581092318e-02
5.665183610684527103e-03
-1.399911714862289887e-02
-4.742392278273847850e-02
-3.681088364410327329e-02
-2.033438801248179176e-03
2.947116422630821631e-02
4.214688498480112511e-02
3.080845413211258377e-02
2.190024307936814379e-02
3.164596367614617295e-02
2.912443874106543373e-02
9.744361075725014795e-03
2.261439950658453157e-02
6.551930881479602065e-02
7.750563692359667411e-02
5.570459751793775671e-02
4.745679628303840075e-02
4.973163153274340331e-02
2.115992327781823432e-02
-3.510657890031798622e-02
-6.854307314650322225e-02
-6.241797129472034800e-02
-5.780659222362864030e-02
-6.879925540371549519e-02
-6.108188650672680131e-02
-3.092532425554085293e-02
-3.431728552891972865e-03
1.472643513507230356e-02
1.667986934577963404e-02
4.920197724799131589e-04
-9.280664344099008936e-03
-6.250011877443379001e-04
6.467170261649154116e-03
-1.663282540773644916e-03
-8.664601635682844111e-03
-7.222914309103684906e-04
2.400594095270878678e-03
-4.703861749101988926e-03
7.570487823863714973e-03
3.569698643986655984e-02
4.986155352866560031e-02
5.143959113372321285e-02
4.656565464814198252e-02
2.654811672933030456e-02
-2.027293688458905226e-03
-2.211201499697617798e-02
-2.377053774394307512e-02
-6.959135879497247573e-03
2.911877865295356416e-03
-1.631120681545036866e-02
-3.504863274943408047e-02
-2.803280718906469432e-02
-2.357976506186269805e-02
-2.381562377408113357e-02
2.718174116600244501e-03
1.034705745441337130e-02
-5.385311647038670824e-02
-1.022181429333336306e-01
-5.384683644124498708e-02
8.828319777451479333e-03
1.741267086870724665e-02
3.695060244869530219e-02
1.044022695574995108e-01
1.430143187208031963e-01
8.976361177414188264e-02
4.587424552420479688e-03
-4.862234313493000656e-03
5.059302685852815756e-02
6.069087990053791126e-02
5.509165873872600913e-03
-4.881949728714228554e-02
-9.296466068464893928e-02
-1.272632540305533577e-01
-1.128826632213521253e-01
-6.035446723190104196e-02
-5.048168696355638529e-03
3.959336815097881657e-02
4.273676864920062518e-02
1.299933723812422316e-02
4.223522991782538427e-03
-3.401523759899033935e-03
-4.207789983991293975e-02
-4.970239259633060097e-02
2.191230374099889695e-03
4.611989498759527795e-02
6.117577900843198385e-02
7.497668065232901413e-02
6.048874066472910427e-02
-1.489146454082628489e-03
-6.631999151776245272e-02
-9.827184336444919066e-02
-8.750431188855242737e-02
-2.842970349187100634e-02
5.336388992895132327e-02
9.397284780274448024e-02
5.039645825700397874e-02
-2.356257314207464704e-02
-3.200892463560253004e-02
1.904069763320086553e-02
4.870901612901799155e-02
4.336300272616935153e-02
5.115059814726112541e-02
8.368020876870536917e-02
1.048448621861212682e-01
7.799745616324357811e-02
5.764283276710986843e-03
-5.381069715071931658e-02
-5.032462670328986809e-02
-1.574159408332690205e-02
-2.075876312164236237e-02
-8.590266149607407586e-02
-1.608129917379791940e-01
-1.681187037526004902e-01
-8.891994385865323314e-02
-3.256212591525291938e-05
3.238527059749857218e-02
3.976221503762450427e-02
5.481388415437686568e-02
5.396289031447383533e-02
3.746686710523034619e-02
1.982622945926813124e-02
-9.217089371754520755e-03
-3.215135628505222387e-02
-2.643293593398518548e-02
-2.007320328866392736e-02
-2.890245562811264921e-02
-1.650462024435921105e-02
3.669220859471980511e-02
8.830172949102202407e-02
8.341547265906672226e-02
5.527768148896451683e-02
9.392310312408354289e-02
1.169377234858710868e-01
-3.155254834608122588e-02
-1.786276388933237536e-01
-1.207183446054049952e-01
-6.651045306554898007e-02
-9.836857229045622986e-02
1.605398445300375634e-02
1.589304376316023060e-01
7.787898361907660827e-02
-3.748437875834356725e-02
-8.558338590852861832e-03
8.961956175785285722e-03
-5.048283139480982257e-02
-7.230799324781585213e-02
-2.821434563201368276e-02
1.959361312221689216e-02
3.494265596791550077e-02
3.556208243439254457e-02
4.663662829004206617e-02
3.682268954434571306e-02
-2.365457316959599689e-03
-6.566754213448878531e-03
1.241628776199554633e-02
-5.363971251931366757e-03
-1.280358201413797116e-02
2.297357818391555784e-02
2.862038861856213562e-02
-1.584283314532056522e-02
-4.092723648885705778e-02
-1.534735649770580315e-02
1.870401574062406300e-02
7.629180895448914833e-03
-4.103380268436832012e-02
-6.175432655811924354e-02
-2.761131658187598176e-02
1.878418102099095599e-02
2.724107256352912426e-02
4.262647610812856508e-04
3.144803856543534719e-03
4.399663899018615293e-02
4.014124006077496309e-02
-5.744844304198647861e-03
-3.653457853684421303e-02
-8.713388742524655339e-02
-1.083591355011054858e-01
2.084777486021842374e-02
1.594202008486121092e-01
1.087772409117228056e-01
-1.322810574723315077e-02
-4.970141384122352124e-02
-3.565894540098331345e-02
-2.771792736285474609e-02
-5.153664652232509830e-02
-5.130180503634539091e-02
6.307919319420714210e-02
1.529048517067796986e-01
6.215202665548087702e-02
-4.977122156129485525e-02
-5.166327045363060255e-02
-4.503953491158224631e-02
-5.099145396353085141e-02
-1.068212031384247439e-02
2.815728488312194827e-02
2.132975423889206176e-02
2.374112771919258819e-03
-1.647298218450402377e-02
-4.675652416015244756e-02
-5.997897706339745671e-02
-1.867884414978030622e-02
5.645066021193797384e-02
9.840925956847978995e-02
8.553880531571342316e-02
7.465246121397958734e-02
8.400718625887307334e-02
5.099896985374501035e-02
-2.599765886354470090e-02
-7.161769132391518355e-02
-5.961699445259389940e-02
-2.331466878387710578e-02
-2.348001829418357861e-02
-8.881540711817330347e-02
-1.277502160520243291e-01
-7.855526040815669075e-02
-4.556070322989407700e-02
-5.507783568011008490e-02
1.327404542313410235e-02
9.420132632913845450e-02
1.482819898258285266e-02
-8.195015744294162352e-02
1.255701140876358014e-02
1.117766325342057221e-01
4.065263112169925641e-02
-1.001073398448286411e-03
8.595732698624342083e-02
1.415278379652290530e-01
1.274343294317380193e-01
1.062799057272764136e-01
6.391523417264809159e-02
-1.053508457613732026e-02
-9.021015237379446938e-02
-1.387610658148238363e-01
-1.338894800772748583e-01
-1.106524568779879703e-01
-8.875623265836758702e-02
-2.614055635761428423e-02
5.659151795890772496e-02
7.246126223179377712e-02
2.780717727200486544e-02
-7.615600311065111316e-04
-1.256808950546184876e-02
-3.742919907636940713e-02
-4.990555722118622528e-02
-4.336466643277459010e-02
-4.023003655477139229e-02
-9.115646204319064957e-03
6.787105087905670464e-02
1.133805952831273278e-01
7.552310027107272949e-02
1.459617457998518310e-02
-4.750307798217537694e-03
8.029528907951865788e-03
1.106898967643041298e-02
-5.062091007117211668e-03
-3.286559985548113266e-03
1.624551513871061448e-02
-4.811419956808568946e-03
-5.968374965682072403e-02
-8.160779875189466681e-02
-6.476719286728427338e-02
-3.615046188682427553e-02
-1.809955997396303813e-03
2.237740153471507593e-02
3.415579673681262696e-02
5.270331029228048081e-02
6.028050289718814292e-02
3.434063313558533004e-02
1.075673094141924588e-03
-1.298878659348632822e-02
-1.080680334254520772e-02
-3.631993356037024542e-03
-8.813926850978343053e-03
-4.035133743695709652e-02
-7.735250839362570185e-02
-6.754877466786596285e-02
-1.511848242134096292e-03
6.360879643347193413e-02
1.017191767845923023e-01
1.322280686439041841e-01
1.304142424267825950e-01
9.344187921049880441e-02
8.771775173161236450e-02
7.417927466856769070e-02
-2.715883717346461237e-02
-1.134152253463114601e-01
-9.798695371862917169e-02
-7.826304949851814463e-02
-1.094235066802400069e-01
-1.358206670966353447e-01
-1.182512791520011347e-01
-6.789215661709502303e-02
-3.232383111176790474e-02
-2.030737195712314924e-02
-7.151662675757279597e-03
-3.672414541860479636e-02
-7.360072791526810210e-02
1.769381561723793253e-02
1.255522858969847222e-01
6.111982735730745603e-02
-2.456952824463678672e-02
2.104198309164666963e-02
6.635192219543505077e-02
5.183513753317904593e-02
6.581773998684609106e-02
8.947243722185961590e-02
6.038091851837570911e-02
1.858119923327517312e-02
6.938840113104237720e-03
4.424187323760197035e-03
8.428215970023343953e-03
3.509483835137093555e-02
5.723294585578903720e-02
4.447624865868522043e-02
3.354328677808519552e-03
-5.426916313462241265e-02
-9.730606516928412553e-02
-8.132765245565236334e-02
-2.632560057390295402e-02
1.227369817581737931e-02
1.868143497640995659e-02
-4.537957218270232199e-03
-3.593363740183400101e-02
-4.014722071346767118e-02
-2.083719493895993743e-02
1.583905043364169929e-02
6.338097478575148436e-02
3.437813067821852281e-02
-9.560629425637583167e-02
-1.505644524425749642e-01
-5.221076266618361605e-02
3.357793231684676194e-02
3.793082516867285481e-02
4.391868045180796765e-02
4.791622034865367780e-02
2.137038044501201814e-02
-4.291257151135791960e-03
-2.161912361525969439e-02
-2.778228319213613129e-02
-8.809784138651941682e-03
9.162132153494385520e-03
2.227362460499345345e-03
-9.821985297203648935e-03
-4.943478642789860683e-04
2.715298115518808772e-02
4.205357042889803360e-02
3.015921522132189100e-02
1.176654409436677165e-02
2.962515274773681873e-03
-4.356980889594306953e-03
-2.207300583548322745e-02
-3.871484974180910282e-02
-3.492221726919995939e-02
-9.521236101543185948e-03
3.022667062194300119e-02
6.241548968669771713e-02
6.035011007034842001e-02
3.725955436513742058e-02
1.543011750458159539e-02
-1.735079987339161606e-02
-5.200102069223614537e-02
-5.190050769927610080e-02
-2.815896573300503969e-02
-8.616406670627066097e-03
1.801486753359600457e-02
4.596569205853447831e-02
4.230576304217582156e-02
1.675117138561294655e-02
4.385610921860162714e-03
1.605741457070433524e-03
-6.368808973839642715e-03
-1.587820280739255831e-03
1.844468764119200008e-02
1.867978841949444885e-02
2.416758256323196796e-03
9.861453865907690228e-03
2.387847111700391531e-02
-8.447478727012252067e-03
-6.736602346026057675e-02
-7.130021652911472385e-02
-8.101676539750222311e-03
1.967589915909299936e-02
-2.417347333095679757e-02
-2.393778694501806290e-02
5.182892635967185739e-04
-9.955645277305348595e-02
-1.801630985602033219e-01
-4.224265571733364089e-02
1.078190685138578214e-01
8.258099833848719928e-02
4.109644688720824612e-02
6.597457350470530002e-02
4.907289165522470825e-02
-8.004580452531558088e-04
5.985315110672727659e-03
4.779055898212117293e-02
6.817085873858198808e-02
3.356068401347023222e-02
-8.340404964784772779e-02
-1.567359349540725089e-01
-3.687498479395288908e-02
9.528599469669896127e-02
2.496464219524716435e-02
-9.463873155104063351e-02
-9.668890697321935734e-02
-4.274265546595815840e-02
1.473208227527056900e-02
5.674593374746431107e-02
5.439064816700445171e-02
5.445049172525917580e-02
8.586909101971781921e-02
9.131762334441011209e-02
6.923958588430348393e-02
6.184225822741923340e-02
3.450759041249926162e-02
-2.493270351463074477e-02
-5.597463208928858680e-02
-6.105752205250033343e-02
-6.917869832278152054e-02
-3.132587004924854840e-02
5.692879617332899378e-02
8.206493676720376385e-02
6.268206377219986275e-03
-5.558363957153079210e-02
-5.151691607096850478e-02
-5.110502034959635287e-02
-6.695618558471856663e-02
-5.467350624002711990e-02
-2.007921653622038449e-02
1.175615988170326635e-02
2.627464824289524672e-02
1.373340087369828016e-02
-6.738660681382260126e-03
-8.564811260233076706e-03
2.103540681761259523e-03
-5.388030430389255734e-03
-3.683898951617902567e-02
-4.151220563389605711e-02
2.446332945629712402e-03
1.977469609586321453e-02
-2.065248651964522730e-02
-1.602426739553281312e-02
7.785206480375937710e-02
1.383635154605595552e-01
8.989782788640901523e-02
2.497976451616359950e-02
1.779696681569463076e-02
2.305738143629471743e-02
-4.972494529033779503e-04
-4.075051476580042464e-02
-8.616131017338024556e-02
-1.163498884109538389e-01
-9.394238397164512977e-02
-2.767334442703168335e-02
2.346167767156637565e-02
3.997729339921095304e-02
4.890166140537077766e-02
5.047016148746219510e-02
3.609844117612027309e-02
1.640667667002719543e-02
-1.914139687405333121e-02
-7.071988991826400062e-02
-8.598551860694891857e-02
-3.143467350157769929e-02
5.234642074627708641e-02
8.904347841404430808e-02
5.064338008290103499e-02
-2.049704444971181712e-03
-1.621687197005213660e-02
-1.283751496821223387e-02
-9.299481078310202140e-03
-1.493493105515011909e-04
1.328868249835660556e-02
4.111191101229303563e-02
6.902719906973567299e-02
5.116247893228417776e-02
6.282932736147051056e-03
-8.148679634262391558e-03
-6.664153435186484856e-03
-1.142966609277042134e-02
-1.106362783289984233e-02
-3.476043482364434695e-02
-4.475035639517977587e-02
4.484035506686731565e-02
1.027565571359961849e-01
-1.249467853728891339e-02
-1.328499075886660219e-01
-1.233168729528312801e-01
-1.002906982331447927e-01
-1.116922276453051338e-01
-8.899905077325172276e-02
-4.707389026424915052e-02
-2.884774163789319973e-02
-1.603273435419882639e-02
3.004228550594660596e-02
1.255535648088678680e-01
2.077613977735359163e-01
1.889918272481427297e-01
9.970163983047222733e-02
2.682753722645005862e-02
-1.681480495221062549e-02
-4.635393862427983347e-02
-2.446004780859485986e-02
7.338343055392561320e-02
1.170178231894556387e-01
-1.354941200857865541e-02
-1.324369858390670729e-01
-5.796785413483386551e-02
3.078331320177211949e-02
-1.441866369650733094e-02
-6.383111832897926663e-02
-4.683013626578894084e-02
-3.217497524558519256e-02
-3.119275516867880960e-02
-3.127570286975083630e-02
-5.389444823103949067e-02
-7.066746817820845905e-02
-3.792008041058590739e-02
1.328569466014383089e-02
3.862576488496123617e-02
4.886631977290833984e-02
6.634918749513317449e-02
7.534874877966421525e-02
5.231731053853270336e-02
1.156850733903661867e-02
-2.240689430267907983e-02
-4.539657942618771647e-02
-5.282491167057897646e-02
-1.535411531655826375e-02
7.756816522601642228e-02
1.056757271277216081e-01
-3.082088109223691044e-02
-1.386868585477196436e-01
-5.126123929066605384e-02
4.479143854639974776e-02
2.816507495937254149e-02
2.507717965280487418e-02
5.229404021514483247e-02
3.312906653555962311e-02
-5.166269962038456086e-03
-2.733945037190890770e-02
-4.259999114467219461e-02
-3.270452296463220720e-02
1.231071056226019575e-02
3.622354252826412435e-02
-7.930104725072311539e-03
-6.384372434631344073e-02
-5.393841397487139644e-02
-8.860693936404559143e-03
7.001437078394877507e-03
1.578649353948999301e-02
5.061446538263837669e-02
6.504193831655559477e-02
1.892811081419658314e-02
-4.095654240979009625e-02
-5.746788855872796142e-02
-2.941582531261252922e-02
2.455784152984186175e-02
7.164589930854804722e-02
6.806370147969155460e-02
2.267909859614145388e-02
-1.079911720556271486e-02
-9.843099645609271892e-03
2.373424413372062121e-03
2.338184502953386500e-03
-8.103134076891766943e-03
-2.436719110235190111e-02
-3.642619180046366423e-02
-2.076398264074777802e-02
-6.300456984098539055e-04
-2.402762789532782509e-02
-4.717522812483285199e-02
4.632348168683788833e-03
7.502605682976604129e-02
6.448951534997650337e-02
1.642983924195211276e-02
9.506880832976028969e-03
-1.550590155890283449e-03
-5.639630598206660933e-02
-9.946825931519506780e-02
-9.879241460082882620e-02
-6.825979562532656642e-02
-1.315251374156484014e-02
4.673289408881422385e-02
5.882561751701772396e-02
-1.971716542293912994e-03
-3.178592331663233211e-02
6.924396594870191324e-02
1.481238114194384503e-01
6.025083503747773184e-02
-3.041788897235989109e-02
-5.930736624798378653e-04
3.738012310131119675e-02
2.936457829122265245e-02
2.087315592919360835e-02
5.670249021515194610e-05
-4.284142404393138231e-02
-5.402616628149355810e-02
-3.965200350854435063e-02
-7.471651377818470940e-02
-1.249282042091224426e-01
-9.856578829344063430e-02
-2.975906330100584404e-02
2.455889542986681995e-02
8.882541195885615415e-02
1.509377558556867782e-01
1.592428404906984507e-01
1.250345268237722518e-01
7.816507658047783247e-02
1.362332660371242017e-02
-4.344948989472803558e-02
-7.304659046907707731e-02
-1.307027509902850826e-01
-1.697018593834704325e-01
-6.039519714620912583e-02
6.982751209681067883e-02
3.311340222826400503e-02
-4.525956145727703939e-02
-3.560397303529362623e-02
-1.975763927081244584e-02
-2.726574409725123979e-02
-9.335553331714404116e-03
1.093014811237433270e-02
-7.603107495351091316e-03
-2.951123646965003733e-02
-4.548465733757075732e-03
3.297732006322761505e-02
4.442132206875789441e-02
6.745889437217646167e-02
9.629353016403996435e-02
7.723622336455741866e-02
4.328889140819079662e-02
3.524218677090107388e-02
1.736410311838033210e-02
-1.169965285580425174e-02
-1.906811814849728587e-02
-1.378432476631029358e-02
-4.471069170372959922e-03
5.999283026681141023e-04
-2.536108910406109640e-02
-6.337567367411471586e-02
-6.774240009177003030e-02
-3.854167445077681664e-02
-4.562503521861497463e-03
1.081243080058482027e-02
8.256708248589256574e-03
1.173769063672246322e-02
2.150901661746083132e-02
1.413969229808269799e-02
-1.191601230458682985e-02
-4.667993285975059747e-02
-7.491069459163361699e-02
-6.596809074276388518e-02
-2.906118256934309488e-02
-1.377716498933570857e-02
-1.677665764240424129e-02
2.130254212781306292e-03
2.347942408957436403e-02
1.805874276715199733e-02
3.697160260781560959e-02
9.284453823753711921e-02
8.656422736683039298e-02
6.185601558648605447e-03
-3.352756478793106343e-02
-8.556269279510397494e-03
-2.914890207721832632e-04
-3.201560935395729446e-02
-5.036520075178188560e-02
-3.788403066106572209e-02
-3.396718629471013468e-02
-2.896861896035672276e-02
1.945314698605878079e-02
7.628042765821742288e-02
9.207997002062723313e-02
8.061500306001519178e-02
5.880983095287698609e-02
4.047346344875867030e-02
3.993391158834087157e-02
2.254141756099544910e-02
-1.348268953707522540e-02
9.473416276940609462e-03
7.854175630086657200e-02
8.381905121211294385e-02
4.345088482390187939e-02
5.744644709815554390e-02
4.688858318971723255e-02
-9.980393829043562870e-02
-2.191254251534570929e-01
-1.625185034754551006e-01
-8.857068393449490928e-02
-9.899683802611572436e-02
-9.076038282523866962e-02
-5.535781892422381167e-02
-6.434553398653417022e-02
-8.961194239517408788e-02
-7.297499043549743325e-02
-3.402725369685534462e-02
-9.791029649329090201e-03
2.754000759047288069e-02
9.092969816704156438e-02
1.268950223186959270e-01
1.224990381564809439e-01
9.751232400640136300e-02
3.704372489345001546e-02
-2.071800591691115578e-02
2.461415995803281631e-04
6.064577946226785976e-02
6.553557805910219247e-02
3.323900261097657155e-02
3.904708863310696332e-02
6.648871170372309958e-02
4.778508075498957147e-02
-7.341816606328994965e-04
-1.336754898622835586e-02
-1.014317779794097346e-02
-3.814163466651893791e-02
-6.132598451600394796e-02
-6.837316177954017027e-02
-9.726218217618252948e-02
-9.304657174343473891e-02
-2.882623104091437682e-02
-1.907501628451605327e-02
-3.408776294879568847e-02
7.823502578622756887e-02
2.035954297543143832e-01
1.687165786041774362e-01
5.118116290291068599e-02
-7.214626487629390017e-02
-1.507729606639279241e-01
-8.469723033591688988e-02
2.822494596834038139e-02
2.491603586470549775e-02
-3.449799667504627187e-02
-4.823328021928213749e-02
-2.840084309370691576e-02
-6.752288078203775440e-03
4.869484962019684712e-04
-1.295128490703748025e-04
1.585019755433556693e-02
2.907959935137668234e-02
1.091696116533355174e-02
-1.298455662037238320e-02
-2.220215588656851771e-02
-2.507750935816336138e-02
-1.392344581807298740e-02
1.357520984747725805e-02
3.384662325867240917e-02
3.295575736198910755e-02
2.697917335573553343e-02
2.292419844923830607e-02
4.333696293387333254e-03
-3.822418655621013378e-03
2.207350483482781872e-02
1.894241533641830011e-02
-2.535332376436431542e-02
-2.395295643143232484e-02
7.336252736536361119e-04
-3.077003678144896170e-02
-5.097900681024074288e-02
-5.908727131281241857e-03
1.693182967858596760e-02
-7.043779962494866806e-03
-8.544669331693803896e-03
1.089994500445798722e-02
8.511241245349038947e-03
-1.004281957818252760e-02
-1.567899854651632133e-02
1.025781658769732603e-02
4.904485769775315113e-02
5.157713735914967734e-02
1.320835210307305663e-02
-1.803861107261334890e-02
-2.574225813470218394e-02
-3.352787018285625920e-02
-4.080129042814167883e-02
-3.732088042906753916e-02
-2.770485727150464456e-02
-8.500964223595764042e-04
3.286506855496709734e-02
3.206356769967565190e-02
1.375234704509004265e-02
2.192758558633382468e-02
3.485572830461926980e-02
1.560824244324964492e-02
-2.133014374439589841e-02
-3.656976236665939600e-02
-2.617493872567194790e-02
-2.856325960476643888e-02
-3.507307039801829673e-02
7.347436022490698264e-03
7.076948028860671758e-02
8.839707458766009329e-02
7.505011066762852512e-02
6.329637396014814454e-02
3.701986447663712515e-02
2.186729625386303177e-03
-4.986579736900358974e-03
-3.831857869245926251e-04
-2.429703487125332330e-03
3.620905104769988475e-02
6.764500694755878896e-02
-2.633542578036244391e-02
-1.312744179452625670e-01
-7.425748116011343658e-02
2.429184423250866504e-02
5.270685612976656192e-03
-6.168287642855787428e-02
-9.168219678449079924e-02
-1.169472602019630131e-01
-1.222558921250835040e-01
-5.240140469068913648e-02
1.619432627613237932e-02
7.325630174805124878e-03
-5.066000531033232335e-03
2.394898312054659709e-02
3.838988046605507770e-02
1.807777829420779969e-02
-5.283938784891971038e-03
-5.897076211134730586e-03
1.478168456553108703e-02
2.427164791195455390e-02
2.493993068953550760e-02
6.167430462666908392e-02
1.050272779232921810e-01
9.046409668531767145e-02
5.873371753999174355e-02
7.066217873715448239e-02
8.444840746233246709e-02
5.488910412567498537e-02
9.510965041434851774e-03
-3.900085770377240135e-02
-1.080764964566517106e-01
-1.647650127606399006e-01
-1.458939891313177917e-01
-4.618909731618650594e-02
6.080440548663437750e-02
8.877722838844549769e-02
3.745338192165224150e-02
-1.393867259582864948e-02
-2.416503434697359065e-02
-1.806637519512156037e-02
-1.924411309344077961e-02
-2.637988545013033453e-02
-1.479527795361591964e-02
3.088212488281283016e-02
5.974809495968420869e-02
2.634204231754910808e-02
-1.382672188242690947e-02
-5.650659998675241179e-03
1.631927246883227781e-02
1.234560949442562068e-02
-1.698181483897536273e-02
-4.532121353469138747e-02
-3.140593352190538395e-02
5.709461413827840795e-03
9.929206807690568390e-03
-2.751420101475821750e-03
-1.883537634402018823e-02
-5.928991010571232206e-02
-6.240153579877338874e-02
1.512976221760405082e-02
8.326952844725606095e-02
8.193571722492386245e-02
5.617382072950803662e-02
3.721951869904370491e-02
6.630922256287419270e-03
-4.179128348992484920e-02
-6.479089557210843120e-02
-2.837055052723753273e-02
1.105303908962953705e-02
-1.656563754300293886e-02
-6.402045242743341358e-02
-4.837563059267205312e-02
9.729431004067553776e-04
2.543808291838803304e-02
4.600145579539451773e-02
6.727864586725842977e-02
4.562668466062355654e-02
5.493795068685515710e-03
8.917267232946939071e-03
2.866429724204199586e-02
1.720024645746938766e-02
1.206391375610601537e-02
3.016530172727921108e-02
1.760572625172136113e-02
-2.461055562153378201e-02
-4.288882759374879061e-02
-3.449008768680172227e-02
-3.206888977854508577e-02
-3.783751145361701623e-02
-2.231773418558727698e-02
1.325743454961771962e-02
2.162173177641244989e-02
-8.791960260409566880e-03
-4.047003318015296447e-02
-5.578367493537730870e-02
-5.471760128247658145e-02
-2.997807661595097359e-02
9.013056212152535315e-03
3.824120354211169026e-02
5.338243473468444467e-02
6.268249286509040841e-02
5.272789497238699469e-02
8.971391099932722255e-04
-6.858033923990089487e-02
-8.918223811286195291e-02
-4.551877373990811937e-02
1.009967041852300254e-02
5.021218136646431185e-02
7.623565051880126786e-02
6.088835439074696126e-02
-5.047399709539430838e-03
-6.315604369885499669e-02
-5.917948757137014848e-02
-9.628972195711337292e-03
3.802556514946316135e-02
6.399762812304443660e-02
7.922530824510201630e-02
8.691141728100894304e-02
7.129277471956657619e-02
3.773521786555056323e-02
9.899438157142559369e-03
9.722763205547418214e-04
1.316811530628146133e-02
6.557481619933568442e-03
-5.909471586457383518e-02
-1.200778247998802173e-01
-1.006273604283247358e-01
-5.221185919985646406e-02
-5.177250469747259054e-02
-6.638318605708963538e-02
-2.515862384209555103e-02
5.165792153018193555e-02
8.271489985186783467e-02
4.765262509109171457e-02
-6.667275298581529577e-03
-4.179119309153850326e-02
-4.225295238115728963e-02
-2.142934608462489232e-02
-2.331648690023448503e-02
-4.832772497653815141e-02
-4.296314387127016243e-02
-4.086023106429955386e-03
1.731014858346458657e-02
1.255366635154621553e-02
1.376049730690936251e-02
4.052654433800886857e-02
8.956894414010574401e-02
1.153268218353517144e-01
7.160148903820595656e-02
1.685530111958782277e-03
-2.312086525088214578e-02
-7.606067008157670062e-03
1.087865556253433952e-02
1.873235895491488778e-02
1.486857403007241923e-02
6.001770169384520320e-03
1.334469447542839179e-03
-1.278180502386636400e-02
-5.385240588552037827e-02
-8.576152487549733305e-02
-7.138583848211471627e-02
-4.762455093022088803e-02
-2.503185796698472951e-02
1.800366807242823400e-02
1.481727447609487713e-02
-1.548983926837136163e-02
6.037610501593124873e-02
1.362470038814704854e-01
5.969505048674826619e-02
-9.827079134780574571e-03
1.962654091962344818e-02
1.152007190719620856e-02
-3.715025783739136361e-02
-5.003161491738600253e-02
-5.575197203204666080e-02
-5.932656618072568167e-02
-3.835860523709085784e-02
-2.356190923926357317e-02
-1.878438622002001623e-02
-5.973489339894326455e-03
-5.347128354047559103e-03
-7.223715732057918969e-03
2.009906470329941852e-02
4.720893841750619518e-02
4.756713156655497515e-02
5.157933662575952399e-02
5.254111719118504525e-02
1.066797615019766422e-02
-3.576958357685385004e-02
-2.902621848389973919e-02
-4.180817689654860864e-03
-1.943955396195234248e-02
-5.233475830862097111e-02
-4.250562266836224734e-02
-6.198204194314392394e-03
-6.051175154521718988e-03
-9.755246424066721378e-03
4.457176471844120913e-02
8.818000584573248979e-02
3.798243224909679527e-02
-2.722511925144167899e-02
-2.748350335762676441e-03
4.860916637227474801e-02
2.465089769274800280e-02
-2.681278277936679361e-02
-2.201437826700911732e-02
9.529274038696879806e-03
1.892475410004573408e-02
2.345957750212048637e-02
3.422890727787088888e-02
3.085789132311514416e-02
1.558715766381148227e-02
-1.046821137775506838e-02
-4.935097001813865125e-02
-4.489483243443774529e-02
-1.621874200888558104e-02
-8.727178767695431549e-02
-1.695151333731928223e-01
-9.173187094228750504e-02
6.002045788901400926e-03
1.680930168644326206e-02
9.705893822654461378e-02
1.946227575909696694e-01
1.265461192074506525e-01
1.416015683202303047e-02
6.150694186308515443e-05
-2.030402211208510305e-02
-7.532792115760403306e-02
-3.691046079323331147e-02
1.214065582170769167e-02
-1.171368212234808887e-01
-2.049473116381310966e-01
1.019920481508525961e-02
1.984859655962024905e-01
7.179754251597474102e-02
-7.755531471520729636e-02
-4.266634044540212889e-02
3.692687851497947205e-02
8.123168333318027401e-02
7.515930970402766309e-02
3.527411033581144204e-03
-4.620544110342957034e-02
-3.979206047384051259e-02
-7.030340791620083574e-02
-9.291771855012197212e-02
2.351195501722924339e-02
1.550755996243877166e-01
1.235831082863718677e-01
3.501639502542651383e-02
1.389204952449299424e-02
5.232172523231742867e-03
-2.000102179308942824e-02
-4.614350885958699855e-02
-8.148893361256923096e-02
-8.281016254989825853e-02
-2.546896841557955149e-02
5.719081247958563395e-03
-2.733407797562069017e-02
-3.877309713789091339e-02
-1.077427563499012801e-03
2.074491755980481869e-02
2.374220856836514737e-02
3.144930418557673191e-02
2.348647311274183747e-02
5.304790794696439930e-03
4.971819984250442151e-04
2.537329453663196566e-02
6.850000911074557997e-02
9.300394544128696983e-02
1.300750341773152796e-01
1.232062334865537817e-01
-6.872756862446448289e-02
-2.494320029480040779e-01
-1.674715843399438575e-01
-2.687879583475093204e-02
-1.734027259025558432e-02
-3.401296164833724628e-03
6.596301816360444770e-02
9.133991521050668916e-02
4.967390859904952105e-02
-1.125499410862800323e-02
-4.352666541414334372e-02
-3.650852095761368543e-02
-3.060246524418332517e-02
-5.094334480288658512e-02
-7.960664745027029587e-02
-9.738052071711747470e-02
-7.278315816723879284e-02
9.580442235039923066e-03
7.543825162698870879e-02
5.519421736678947060e-02
1.118882772715860605e-02
4.032949636026662149e-02
1.146140761463732699e-01
1.344015203572055395e-01
9.992283440762511626e-02
7.176027952512366304e-02
2.354975527366212629e-02
-6.122845083240694569e-02
-1.028347388975334176e-01
-8.051228294806138386e-02
-4.717304299139443713e-02
-6.731054634269069761e-03
3.228968488365119294e-02
2.643162538512280890e-02
-2.529491232478122721e-03
2.152677170178703137e-04
1.691649628891282037e-02
1.319481747122063821e-03
-4.008884191843220535e-02
-6.609329572927141738e-02
-4.800560412932749349e-02
-1.238147153999975825e-02
-1.371389588502851253e-02
-1.894000638546882928e-02
4.176262797098857782e-02
1.102512071383366515e-01
8.863642299328895746e-02
6.248499310116556807e-03
-5.047676782492591108e-02
-5.730119956441381834e-02
-4.228223618973761533e-02
-3.082095366824145338e-02
-1.994408651478821529e-02
5.050919530809780747e-03
3.341122501949599782e-02
3.425064776161407948e-02
7.173889114102740411e-03
-2.035241411867875702e-02
-3.398630592984153154e-02
-2.181428466996911814e-02
1.496806402992690785e-02
3.586715262574336621e-02
2.034744133438411151e-02
-4.839538920568403624e-03
-1.875835726902036829e-02
-1.601489792031671883e-02
9.098824482330872439e-04
8.149180635814294235e-03
-1.245979587283170716e-02
-3.625956269649902031e-02
-3.458397673669203615e-02
-2.427158200034158428e-02
-2.193281933145482809e-02
-8.687870131066286611e-03
2.190224650617941804e-02
5.613136347432401418e-02
8.762757338532367601e-02
1.034802875614457829e-01
8.561597013697447300e-02
4.143669226763323221e-02
9.627470274001239184e-03
1.471771676145574789e-02
2.176109002634175199e-02
-3.745262415620221469e-04
-1.943693076362325300e-02
-1.908427504910191475e-02
-2.461300631828167856e-02
-3.057570423857574118e-02
-2.031080887533162974e-02
-1.750766237346705265e-02
-4.094376847387198870e-02
-6.033056703751981525e-02
-5.658945702495387503e-02
-6.979916280168109444e-02
-1.136675937831598954e-01
-1.210599744333718392e-01
-6.424737940952032766e-02
-1.323294528030098324e-02
-4.300405073242079268e-03
-5.998304963184160343e-04
1.768762273285466244e-02
5.310319599625486220e-02
9.626227700917540375e-02
9.237583112056116375e-02
3.004144272692686052e-02
4.746505664143908310e-04
4.711083122219522634e-02
8.867497352767386709e-02
7.840281877292945567e-02
7.165977850245260072e-02
8.813482352919259355e-02
7.653156820045732556e-02
2.289687690851444427e-02
-2.823427094798143869e-02
-4.046824726448437076e-02
-2.853794582311303119e-02
-2.833080901046248698e-02
-3.791038972395559259e-02
-4.717702125928047857e-02
-6.519021067438873773e-02
-7.034772115569307149e-02
-3.851659428287136644e-02
3.844343223209083227e-03
2.493092993511699870e-02
3.224460224883349962e-02
4.783887864057344286e-02
2.754896363391711941e-02
-8.331881848556398074e-02
-1.578810186599554355e-01
-5.855248838799316513e-02
7.594674114526704656e-02
8.668585345114848684e-02
4.209802136940518635e-02
2.220915793692369855e-02
5.680310904274633518e-03
-1.805014778090500982e-02
-3.679515959261580454e-02
-5.132758527747703636e-02
-5.928330716568441100e-02
-6.380115084850898621e-02
-7.283251051645261986e-02
-5.828423521728164775e-02
1.581885990537877738e-03
6.210292012882662888e-02
7.266833723945674561e-02
3.532722706215244562e-02
-4.165441433330372215e-03
-7.500416728542477415e-03
-1.592667833909146985e-02
-6.298590133526160706e-02
-5.205123310198399994e-02
6.616695432915528641e-02
1.749347671281853978e-01
2.108670496513375681e-01
1.916608379739489498e-01
9.801970068402182656e-02
-1.572479916872837613e-02
-6.059235668000705066e-02
-6.290712622707902990e-02
-6.743839091697056976e-02
-7.018060970295016132e-02
-4.767320971758830933e-02
3.263781745856426941e-02
8.239391238987317512e-02
-3.863335807557015389e-02
-1.812658741221715719e-01
-1.096525286513864161e-01
2.949907293111565798e-02
2.558805765355175871e-02
-6.284589276810848696e-03
2.800342097094241436e-02
2.831394203681440735e-02
-8.973584145658321937e-03
-8.738558840110590906e-03
-1.093232228944736664e-02
-5.195718281839908914e-02
-6.302034021953314968e-02
-1.406965054597471981e-02
2.370489027699331300e-02
1.403675596564783745e-03
-2.668964869556545577e-02
-2.485657031783774455e-03
2.605343924180428955e-02
4.366384902655971734e-03
-1.488222108913852051e-02
1.491699813143974353e-02
4.192913066208105166e-02
8.327293025912519894e-03
-6.796527564642043662e-02
-7.048018455344701172e-02
6.641645456248834734e-02
1.594850033633268827e-01
7.183481213394343756e-02
-1.293222288024030442e-02
1.740137926662763124e-02
3.014410553330081760e-02
-1.509730499658558552e-02
-3.591540581640120106e-02
4.682153300323219081e-03
8.620182389131025857e-02
7.914895802248196610e-02
-9.754331866691108577e-02
-2.047014418722026552e-01
-6.837309221045945185e-02
4.793902984881458218e-02
-2.142279378383848618e-02
-6.207263315297619627e-02
2.062142524422468093e-02
7.916943658071286249e-02
6.780254540303951027e-02
6.629752077067660454e-02
7.625697555244211057e-02
4.624517976041003786e-02
-4.739096099726919907e-04
-2.622516497803360422e-02
-5.491607558760368962e-02
-9.042687370543452119e-02
-7.982107612566553823e-02
-1.719590482789295355e-02
7.833993353382882885e-03
-4.925713309633145132e-02
-9.047051624326539476e-02
-4.648522208580950499e-02
1.729337520991582056e-02
5.964225445498175238e-02
9.861289472612612406e-02
1.080682855815881110e-01
7.165254026496684081e-02
2.194880941039221642e-02
-2.387507441364436489e-02
-4.509851794555205101e-02
-2.276055620488839915e-02
-9.620695046438677844e-03
-5.743723618209914394e-02
-1.081758327666772490e-01
-8.727046642605244819e-02
-2.281392521341130478e-02
3.758720418311479322e-02
9.421090357291621309e-02
1.199194430793281974e-01
9.180274092868026536e-02
6.240332420715279105e-02
5.865804768499983252e-02
4.903302384849691359e-02
3.139926681760307758e-02
-5.643910789012288043e-03
-7.620322932782498671e-02
-1.103834034123574309e-01
-7.488427443710124476e-02
-5.207150730678536399e-02
-6.715244128918664013e-02
-5.123391749508268006e-02
-3.886828129496345337e-04
2.844057681268359616e-02
3.748818062536515144e-02
4.591511757925077764e-02
2.028517286144651890e-02
-3.735784169479323957e-02
-6.664588181589319038e-02
-4.834484017582605514e-02
-1.714435300342932213e-04
5.678441675572321046e-02
7.795487278960455679e-02
5.181637580853269698e-02
1.723575470479195640e-02
-2.152220495784927523e-02
-6.164441455578003465e-02
-5.189037944139153480e-02
-2.929064291359060462e-03
1.031618425373806436e-02
-8.443632290506994723e-03
-6.599628199483301150e-03
1.874160716033839227e-02
5.151840107343728242e-02
6.293730795944270373e-02
1.874544037964863755e-02
-3.151473818031345214e-02
-9.431122833838965006e-03
4.544796912523414029e-02
4.447306081386871029e-02
1.585219191376563592e-03
-9.803677409874832216e-03
1.771163413350478055e-02
3.817731417543611394e-02
3.973387874221245841e-02
2.895755930915654836e-02
-7.532888676910578542e-03
-4.912972766047239703e-02
-6.042919512868188958e-02
-7.004837601462907126e-02
-9.067803906181798324e-02
-7.425372012573423774e-02
-3.061027108105658645e-02
-6.384401569032253226e-04
2.041519029679914748e-02
1.465519646703630774e-02
9.470668710470347279e-03
8.339677404510342784e-02
1.317395016983833045e-01
2.919056228515624907e-02
-7.754727806755634667e-02
-6.508325565753683706e-02
-3.460081444885127616e-02
-4.174279205531756382e-02
-2.817936796309416375e-02
1.285575299627694269e-02
2.947764369877429319e-02
2.159069966402072868e-02
2.848658440637859973e-02
3.130301467786572589e-02
1.132702510679592031e-02
5.781868335800082956e-03
6.904207066583963916e-03
-2.067803064493180937e-02
-4.448190989649470489e-02
-2.143334386618701154e-02
1.521717568256206535e-02
2.593900565041378382e-03
-1.969012059275669461e-03
1.010839552477926923e-01
1.775165302855722937e-01
6.031496796621237805e-02
-9.783375861816991093e-02
-1.212798868656025653e-01
-9.190876261031372119e-02
-7.895248963210310666e-02
-2.564735411550780539e-02
4.688363700829201175e-02
4.832314011530890879e-02
-5.932908946005944345e-03
-3.301813125457266768e-02
-2.053138016190721171e-02
3.520887948710113395e-03
1.168700324811428742e-02
-2.628741317786936760e-02
-3.063868558969034400e-02
9.165441682756951536e-02
1.744426057161880816e-01
5.471348357002128737e-02
-8.732275140835792093e-02
-7.679545488915578977e-02
-1.319013505515029619e-02
-8.939022459657946715e-03
-3.990548569146523672e-02
-3.987472094911961862e-02
5.902040471587387087e-03
3.914909712486971949e-02
3.555044769352478512e-02
4.812626212630333883e-02
6.812666942203919607e-02
3.324420078293387898e-02
-2.084923406614414693e-02
-2.863529026632564978e-02
-1.874592818813086009e-02
-3.039971668990758963e-02
-4.614708084794285486e-02
-5.341926486010447478e-02
-5.670010907315319038e-02
-5.061612766511160849e-02
-3.664674832691273976e-02
-1.392885954848881343e-02
3.008784264583233559e-02
7.710775441924269669e-02
7.890045705420416222e-02
2.507360888313343861e-02
-2.676722315479556843e-02
-4.533135436199581259e-02
-8.028778279134150819e-02
-8.932224196225078960e-02
3.944737577051353472e-02
1.772023568622922707e-01
1.330006006084024639e-01
2.975787860650304026e-02
2.065736123872372043e-02
2.854052064621490775e-02
1.107267946877346296e-02
9.184520045136944366e-03
-1.677170349062193783e-02
-7.277234387864740806e-02
-7.027027575929678527e-02
-1.074693200900588355e-02
6.409806210478155401e-03
-3.056999511437404754e-02
-5.107028207129488823e-02
-4.099415680301244508e-02
-2.574823520102498958e-02
-5.657331824629889365e-03
1.238317625595600560e-02
1.734867585945386662e-02
1.302923597043331022e-02
-3.145634366184737497e-03
-1.363723487160245149e-02
-4.057622816185702669e-03
-1.791949828429127353e-02
-4.613959766569056264e-02
-8.792254604957590314e-03
5.383042821389152216e-02
4.280101605379512536e-02
4.600254159168730081e-03
3.515736090755642793e-03
-1.355322360989330739e-02
-5.558934220015679384e-02
-3.399191218646240714e-02
6.557593331962115191e-02
1.555416027886156460e-01
1.868948276760751537e-01
1.608372031801325319e-01
6.006784856785274407e-02
-8.014383209338138414e-02
-1.514310114865127510e-01
-1.334091804705931916e-01
-1.078981312700998535e-01
-9.600801437446856990e-02
-6.247044332795232552e-02
-2.126403292589745808e-02
1.080981459566539293e-03
1.729619135590127615e-02
3.482274052076463067e-02
3.580898824633776262e-02
1.080420287719207825e-02
-1.749589810633107173e-02
-2.051855326565225554e-02
-8.388967911974408095e-03
9.923220757856090340e-04
2.072732854158255283e-02
4.956505487181712966e-02
5.982695904307668705e-02
4.884986285114496785e-02
3.594068724272246607e-02
2.445788648321822051e-02
1.030038703031739382e-02
-4.740365436016911668e-04
-1.064176290332643528e-02
-3.174058717953287534e-02
-4.463128311616603588e-02
-2.371234154959963453e-02
-3.514727274659497011e-03
-1.529082837699211397e-02
-1.971377189103227720e-02
-1.296260206074222737e-02
-3.272128645270257902e-02
-3.560318752133957709e-02
1.500876064564323625e-02
5.023566209905075408e-02
3.517971103552116480e-02
1.582610836447896283e-02
3.057923778231386169e-03
-1.016476648001317894e-02
-3.385680121481768941e-03
6.919056381202853823e-05
-3.236504011078709248e-02
-5.605842236029519310e-02
-3.841759117875940405e-02
-1.625158564554127216e-02
-1.016165453967819363e-02
-1.117732326694163489e-02
-7.958589832743391893e-03
2.056952234613949534e-02
6.017482259929388816e-02
6.804567279742171348e-02
5.273713479674033838e-02
3.831430384795172367e-02
2.250837412867699380e-02
2.343321345681128459e-02
2.965565551783235637e-02
-1.323300612921900557e-02
-7.524782138116942187e-02
-8.234033133597726262e-02
-4.625976432284102657e-02
4.548694290558898817e-04
5.881685144518859765e-02
9.556963146665828357e-02
7.535603279313832226e-02
3.417301935777904837e-02
1.649026719432019478e-02
1.530294339453366556e-02
8.446610329189079003e-03
-1.580122607994948261e-02
-4.156571044453527541e-02
-4.134472030875070009e-02
-3.501892313858269434e-02
-3.812487314482941592e-02
-1.700976839667104473e-02
3.102224303507642410e-03
-4.224851732655598990e-02
-1.096999347065102104e-01
-1.185088382354093361e-01
-8.779020949914920213e-02
-6.590067767560518763e-02
-4.152189270425132861e-02
9.222824752509618113e-03
6.056423560793996325e-02
6.919690221644655970e-02
4.457854614004209959e-02
1.638177667138476096e-02
-1.424098794115262467e-02
-2.109652018372249957e-02
3.028565482715517287e-02
1.044187381442888973e-01
1.384030457477432030e-01
1.004170900502633357e-01
4.130345389108396742e-02
7.577027693108071005e-02
1.422816939248514601e-01
6.603615973260332228e-02
-6.355194768447380849e-02
-7.147835222352899587e-02
-4.103101588532919591e-02
-7.841595177516388904e-02
-1.041892723782116142e-01
-4.003427476479044789e-02
5.733341138982858687e-02
5.720427455221967217e-02
-6.395283259679719612e-02
-1.235681274262313001e-01
-2.703170835749723125e-02
5.227451910446612171e-02
2.319611818006941592e-02
-1.349858864901624413e-02
-9.589700462472825274e-03
2.593411372805216539e-02
3.514078249735752557e-02
-5.854364194195844917e-02
-1.353985185104041866e-01
-5.211460153052560607e-02
5.750602039650547920e-02
4.476174259262715588e-02
-1.854965829897096963e-02
-4.184939510288068765e-02
-3.024816989142040460e-02
-1.024953069638287299e-02
-2.486147286630333367e-03
-1.466883026058051452e-02
-2.045358557274361624e-02
1.002812734911723291e-02
5.821606244255418672e-02
8.484852667059274156e-02
8.089281408720676303e-02
5.157177620665856499e-02
1.490375429917180014e-02
2.246940455730967942e-03
-4.011924313573410339e-03
-3.800018472931048635e-02
-5.487371767592945371e-02
-7.494841061678463034e-03
4.714285070526930826e-02
3.562502178822778837e-02
-1.158625005835360947e-02
-1.554353699656412305e-02
2.195111606750937971e-02
3.264622613678944824e-02
7.392422585519560843e-03
2.034421554989216709e-03
1.339285280684490015e-02
-8.973513415703942425e-03
-4.039460962512012032e-02
-3.545388912446945096e-02
-2.587989514897640758e-02
-2.817427050235466954e-02
4.480506347543784101e-03
4.374860881015513875e-02
-1.703108709329163167e-03
-8.058765148656052424e-02
-6.625782148650968817e-02
3.099808694682583063e-03
2.384909167246015288e-02
2.876603459654594047e-02
7.664523995114870536e-02
1.049508978110277185e-01
4.348630932188633780e-02
-3.983418496791199526e-02
-4.078459629339961645e-02
6.079312978419720154e-03
1.184383059421308809e-03
-4.626237660235694299e-02
-6.183588175030944878e-02
-3.427782714110270967e-02
-1.106155864910628303e-03
1.917359145545177029e-02
2.938879747935375236e-02
2.677861510563963460e-02
7.925114840455244059e-03
-1.470453271965376646e-02
-3.051965068596956820e-02
-4.424330062117357715e-02
-5.032817098134871603e-02
-3.360653114466757851e-02
-4.660153212732108183e-03
1.694724541129390832e-02
3.100252262324075525e-02
3.522361654608494735e-02
2.885827542549171398e-02
2.055645915959852452e-02
1.239702568886209486e-02
1.546548510067114433e-02
3.338657021996848523e-02
4.231442352287174968e-02
3.979485778159225218e-02
3.334253520815676219e-02
4.851546970920149818e-03
-3.513654333231029658e-02
-5.005624880683229305e-02
-4.077424350154178895e-02
-2.232408818134170442e-02
7.937506365522299483e-04
6.277278182371538728e-03
-1.777815014414899433e-02
-2.596506115403116738e-02
2.150100422939910799e-02
5.816190210455577519e-02
-8.048337480242893222e-03
-1.083440348892608374e-01
-1.127442750934872923e-01
-6.944504342364427041e-02
-4.834291536339359319e-02
2.660388566701919061e-02
1.195310380848117193e-01
9.402220801770172498e-02
2.275282896569507871e-02
2.830680271835055509e-02
5.057261021519714184e-02
3.246312467471111629e-02
2.287126585961033950e-02
4.987235235814006795e-02
8.548505899121366935e-02
9.237971496229800683e-02
4.800936042921077201e-02
-3.575769727193216230e-02
-1.115021426524080289e-01
-1.421506741228085458e-01
-1.347909070120467956e-01
-9.566885640916554523e-02
-2.545162697281507652e-02
2.372630724718167994e-02
2.639584370852195855e-02
3.370340910468644369e-02
3.045829405479383301e-02
-3.081672551586173148e-02
-7.085720183884272605e-02
-2.603351275669506248e-02
2.752095053901935928e-02
3.971023825157103671e-02
3.465988081828824674e-02
2.517880708011896451e-02
3.186257980600940010e-02
5.428873784394482732e-02
4.130113232340980323e-02
7.209682608585303923e-03
1.554064228098240089e-02
2.921395600948804849e-02
-3.326517816810882575e-03
-2.831280656895343237e-02
-1.601115973209881957e-02
-9.533470561656539471e-03
-2.152572088656920166e-02
-4.020499489052159481e-02
-4.936389150173343260e-02
-3.071188987750618493e-02
-1.723169492776045059e-02
-2.268286755396731191e-02
1.022934807153665776e-02
6.433510893605273728e-02
6.061194958997215970e-02
1.812288121680995581e-02
-8.467246140667211707e-03
-2.713572494221981601e-02
-3.848351984655045549e-02
-1.261127000932545442e-02
2.241009642013408465e-02
-1.086978931367119788e-02
-8.887368440952765625e-02
-9.257634303245299012e-02
-1.900598154214051816e-02
1.598795271017880437e-02
-4.188820071500667583e-03
9.887938687308060054e-03
7.755244716652665016e-02
1.311716918262648413e-01
1.240628243563541844e-01
6.499036379812350717e-02
6.335881100937635658e-03
-1.201889943271833294e-05
1.272875244269980333e-02
-1.637124670260449791e-02
-5.162139325606038970e-02
-3.970002599185068481e-02
3.096836672750137229e-03
5.017595401651926690e-02
7.207097651474332622e-02
4.924217272240917487e-02
1.783141491118572439e-02
-9.389585337262213588e-04
-3.293789518942245170e-02
-8.189805892707867352e-02
-1.277184462897896500e-01
-1.483935587010600521e-01
-1.200491109233235293e-01
-5.088995111416858008e-02
5.179630188255840775e-03
1.146469154346341918e-02
1.574371018442632247e-02
6.880212820891418168e-02
7.898428166111519377e-02
-4.146150354049236986e-02
-1.424266886218623629e-01
-7.743083535138312046e-02
3.282413615145615693e-02
7.065653505361281506e-02
9.696457612525552494e-02
1.450134296001999168e-01
1.552328094358593202e-01
1.011233980498062734e-01
3.267136725858994784e-02
-3.167293797617355688e-03
-2.073118373113749802e-02
-3.357405983499346658e-02
-2.953066514912567816e-02
-2.301180896909587117e-02
-2.828797677393855500e-02
-4.346936909044706032e-02
-7.708434688721987893e-02
-9.348464134607162301e-02
-4.777995309486178510e-02
-6.180865449720218327e-03
-9.710538608973490887e-03
4.236611847674492254e-02
1.042977757639730191e-01
6.982514845620124699e-06
-1.193386446078756880e-01
-1.893995277987498352e-02
1.165000709174854737e-01
8.343091700598961880e-02
1.037006441736829793e-02
-2.706002411697994159e-03
-9.786676670955897842e-03
-2.396821137707626226e-02
-2.436118797626563720e-02
-1.359800639840104755e-02
-7.443369165737539171e-03
-2.375852632374593487e-02
-3.447710504378024426e-02
2.825633264290458579e-03
4.159047533241410494e-02
1.694844419745115960e-02
-2.722745942268319300e-02
-2.376819172186543649e-02
8.043834407293868477e-03
1.818731812230087869e-02
-1.268734341413360611e-02
-5.572633861043793657e-02
-4.848568388160146708e-02
2.691519004659816659e-03
2.759626696242530389e-02
3.522222749385939961e-02
6.770866564960104084e-02
7.777121965355052180e-02
2.996235665527552730e-02
-2.134087228905006545e-02
-3.726258955095181763e-02
-3.376672070650196117e-02
-2.654689056466375333e-02
-1.239885180297271329e-02
1.589630831279713677e-02
3.667822393223510447e-02
1.859049228233673745e-02
-1.095744211907367406e-02
-1.258744700459667881e-02
-6.613197432802617876e-03
-4.779112664162790160e-03
1.130066449955643114e-02
2.360780820141610351e-02
1.265480681182796358e-02
-1.273173823750564778e-03
-8.492446100286259181e-03
-2.520690217914067430e-02
-5.186228685223227136e-02
-5.286826413205322761e-02
-4.897187630283053074e-03
4.494944042893544989e-02
4.709079304289346540e-02
3.426901697949798209e-02
4.448057555929723489e-02
5.631909473849926184e-02
4.675190874207524327e-02
1.486067181870984188e-02
-2.009258011172602304e-02
-3.015907651645455961e-02
-3.606833863127201223e-02
-6.372189102700878682e-02
-6.798867393872748410e-02
-2.709260328505420923e-02
-2.287891508764637420e-03
-1.710585643076825008e-02
-3.279929473836276643e-02
-4.883141975719010319e-02
-6.977220326750843693e-02
-4.401673635808824037e-02
3.469076414899248395e-02
7.745480338216553795e-02
4.186173313302734428e-02
-6.118359440943207592e-03
-1.777486223035644464e-02
-1.345030535954367355e-02
-2.761769803283876338e-03
3.026188954264771858e-02
6.865690131781455874e-02
7.704541538329195971e-02
6.809283820247008512e-02
6.667285859882778054e-02
5.243882676325010289e-02
2.459210418737728387e-02
-1.300871146007497384e-02
-1.066650808846146270e-01
-1.735918378113346372e-01
-5.593049880518562861e-02
1.110271177095850798e-01
1.077966155325585373e-01
3.193159923287892943e-02
1.072689483834443624e-02
-2.530512410239862259e-02
-8.831804566181838956e-02
-9.901029006521989972e-02
-5.869177401717334819e-02
-2.475960890478866652e-02
-8.864156278902763503e-03
2.309368234510698892e-02
8.034821967081326455e-02
1.148286583907080216e-01
8.539801074710230699e-02
1.871859573356765907e-02
-2.980909107756088416e-02
-4.714016236074124871e-02
-6.670285998275897466e-02
-9.212425599410384303e-02
-7.450792921880121378e-02
-2.712937177211855941e-02
-2.446997370448299181e-02
-3.950630229417152750e-02
6.003109459891569667e-03
7.386211656587032826e-02
8.897791789410450236e-02
6.338056040147543868e-02
4.496707996840394739e-02
4.959531292475724551e-02
4.936299070838737202e-02
1.858686258189561416e-02
-8.417288983699453692e-03
-3.673075906331384546e-03
-8.348916310343262870e-05
-6.607187647644468045e-03
5.445521821307213253e-04
1.051418328983257794e-02
-3.616762525932478703e-04
-3.662005814555483602e-02
-6.935368966298263715e-02
-5.307337608942928192e-02
-1.683851189553538241e-02
-3.419051308935127514e-02
-8.307419426292267373e-02
-8.582677988443750128e-02
-3.396760390570706389e-02
2.946429741058172180e-02
6.832418311462573612e-02
6.810964174052802633e-02
4.025226776377099219e-02
1.254398741651905139e-02
5.054901847066110496e-03
5.179631009726442387e-03
7.170656446352228260e-04
1.188235047587431030e-02
2.955347359732415913e-02
1.489760082377891703e-02
-2.247253751676730679e-02
-4.746641234596049586e-02
-5.358963038377138194e-02
-3.860189072792293008e-02
3.316068058623776113e-03
4.524934074107671983e-02
5.684424977638871668e-02
5.054759492493171580e-02
3.906056607154591992e-02
1.945259478729268604e-02
-4.489424444598982301e-03
-3.631288509972457890e-02
-4.204819859847884478e-02
2.093744077048947938e-02
6.811503520775170906e-02
1.460291549937514644e-02
-4.386808261945283893e-02
-2.661491627866120063e-02
-6.436222692442910426e-03
-1.336380991878705765e-02
1.015495400029359403e-02
5.783298387209922370e-02
7.900054243429663337e-02
5.976818387704003338e-02
1.339457489569730736e-02
-1.957497342507269131e-02
-1.209437146730927247e-02
-5.166203325818548645e-03
-3.672070675286670527e-02
-7.858870982237807501e-02
-9.298570969340871906e-02
-8.295675987116740702e-02
-7.416964317044831556e-02
-6.385502000065866601e-02
-2.291178251178623004e-02
1.801851464766109773e-02
-4.883632732899066686e-04
-2.668744527140592959e-02
1.333388856745925527e-02
5.178492848821274197e-02
2.273355231971236137e-02
-6.450496744801331728e-04
3.959756438310775561e-02
9.099223620158924941e-02
9.297559801256008449e-02
5.612768041374448930e-02
3.818457895843857530e-02
5.353504952959474428e-02
5.112388256648459084e-02
9.489263629779448594e-03
-3.962245399670133450e-02
-6.964853238846967221e-02
-6.627693545374674366e-02
-3.540431455198785049e-02
-2.144528362504445618e-02
-2.891828457594042973e-02
1.439212191420200827e-02
4.764733389651948370e-02
-8.752556542709097331e-02
-1.955164252219196708e-01
-8.774103206229330598e-04
1.989088037301487699e-01
9.658916897775551846e-02
-4.050728930621412538e-02
-2.169433866733663438e-02
-3.399883910127490978e-03
-2.003072240598586379e-02
1.235671186869997593e-03
3.398628753666194102e-02
3.520167111106859564e-02
-3.722789808808147412e-03
-4.313326697127816550e-02
-2.765022345548411725e-02
4.773044038460412530e-04
-2.069163530071643428e-03
2.589665546193498785e-02
6.825542785424260073e-02
3.218794411880827183e-02
-2.827900731822527089e-02
-2.018059121192366731e-02
5.124890359980254807e-03
-9.198262232627433393e-03
-3.255203442074045689e-02
-4.485525018997076757e-02
-4.667297630953564508e-02
-2.577086157953219908e-02
-3.112358756855281971e-05
-1.968070151297298190e-03
-1.356972478095163151e-02
1.634433169267962300e-03
3.073880981880065116e-02
2.370449405029569773e-02
-2.065814479007839835e-02
-2.802002709533000374e-02
9.860286675485189709e-03
2.598815010432395812e-03
-3.159618816075244335e-02
9.062326398465925942e-03
6.321939348805985515e-02
1.921038776639769768e-02
-1.157961742471861656e-02
9.837745320688408290e-02
1.860408272310842825e-01
9.230521900111079980e-02
-4.379746974199819759e-02
-6.628083334408851890e-02
-2.025791341225272740e-03
2.642671904393784077e-02
-6.350774121431243535e-02
-1.441936809423832455e-01
-8.078875806962658446e-02
-3.123194185337165030e-04
-3.160631561053249550e-04
7.289421607673884224e-03
