-1.354343347542818488e-01
-8.724051173592760333e-02
9.618111818556336623e-02
2.474408312370258711e-01
2.034527559284768083e-01
1.687361122522827023e-03
-1.152465961380935988e-01
-5.498292183179151471e-02
-1.749805028058768960e-03
-3.899655272133133177e-02
-6.459075396214247755e-02
-4.186848929262176194e-02
-4.423818784862651801e-03
1.691071753089070512e-02
-6.588215250705083993e-03
-3.829755134343573730e-02
-2.905725646371778298e-02
-2.146729763035657920e-02
-3.607197674688879252e-02
-3.951625772802959402e-02
-6.549035760845808851e-02
-7.155316172574362199e-02
7.392082001728969565e-02
2.429321086270197771e-01
2.138369653478464361e-01
9.616817654121115333e-02
5.699927462040034476e-02
3.612288919670791909e-02
-1.774870212554274795e-02
-7.640136160221386308e-02
-1.294708946651553227e-01
-1.357203608112108051e-01
-7.670769393609483400e-02
-2.082898258693827512e-02
6.927657892039813803e-04
1.584601610258965648e-02
2.215791933812194525e-02
1.706339955080082849e-02
1.438663522438323947e-02
4.332584954392579291e-03
-1.410240647444961637e-02
-2.176071840954262732e-02
-1.875521263637234051e-02
-5.394246790621547508e-03
2.561735200660972961e-02
4.871069868892306115e-02
4.599490952223819762e-02
3.877259383518939090e-02
2.313406380187395250e-02
-1.306538871156306784e-02
-5.707592841240624604e-02
-1.078377412782965394e-01
-1.319110353339608410e-01
-8.076291209229666257e-02
2.071835671990465179e-03
5.350338564008482595e-02
8.322734468608646019e-02
1.088773728465725482e-01
1.231135361951330859e-01
1.121540737049719905e-01
7.553010834265341811e-02
3.989597624612539056e-02
7.680109751280460653e-03
-3.852668562869082658e-02
-6.853611279519636335e-02
-4.590483028761103979e-02
5.772428102348944878e-03
2.736402212601393713e-02
-8.326787133146608746e-03
-6.124584737616946967e-02
-7.971219000107734876e-02
-6.729569997707515738e-02
-6.266444919533085967e-02
-7.508152803215754900e-02
-5.639014082823893409e-02
1.211377595851220387e-02
4.212702211000904362e-02
-4.412290569131806922e-03
-1.770234875930905977e-02
3.275483185429944877e-02
4.634777677897987391e-02
2.366310198153970951e-02
2.449960103865005470e-02
1.360836612319776470e-02
-1.680174854586129196e-02
-1.212306711989919600e-02
3.603576744569056411e-04
-2.942866950303653015e-02
-5.661803792229645749e-02
-2.808049025012991640e-02
2.473280212352636093e-02
4.458961210858387869e-02
3.170470879770920930e-02
2.372189233029160793e-02
4.026365264570657548e-02
7.255195676813276651e-02
8.506610989454105320e-02
5.705679701193511894e-02
2.060610470720866325e-02
3.249711219370669812e-03
-8.848980974448548975e-03
-3.481088743254975165e-02
-7.481312555045262214e-02
-1.002347370499730439e-01
-6.912118457949720240e-02
2.192227547742770649e-02
1.109193111992243796e-01
1.291272713407807249e-01
7.601707111707985132e-02
-6.154303508493847580e-03
-7.567659165288047329e-02
-9.743182782593548530e-02
-8.494170317475888132e-02
-7.730188780537225468e-02
-5.900066612760984652e-02
-1.707043659855729881e-02
3.532164022958816235e-03
-6.073978050578006035e-03
-6.395323027381423150e-03
4.082101730733143571e-03
9.606877737724835858e-03
8.294403854152932951e-03
-1.183538817291543768e-02
-3.223648690908344910e-02
-3.442288112582409052e-03
6.448216551022845078e-02
1.135890501385183604e-01
1.221536324280166619e-01
1.098838542237358384e-01
9.743338067477672060e-02
7.329833674496420703e-02
1.008793633282843716e-02
-7.262704867602715053e-02
-1.249146971897173442e-01
-1.465622561313798533e-01
-1.622372287155452453e-01
-1.556336841435801421e-01
-1.212996078059772331e-01
-8.426004411299600760e-02
-1.708512486824656507e-02
9.843173904468938140e-02
1.675080095618521614e-01
1.255331509450607896e-01
6.688305841512431904e-02
8.258717766751715039e-02
1.059137126454842426e-01
3.991344649696671604e-02
-7.420590800565064760e-02
-1.289693155780644862e-01
-9.696424479999229962e-02
-1.894700979975947122e-02
6.371621077302321023e-02
1.039779071182568848e-01
6.016393440508108204e-02
-3.821484411077456095e-02
-1.102137483231278026e-01
-1.146573175601176275e-01
-5.038577607238399481e-02
6.816974311787817042e-02
1.654281052112377137e-01
1.406529702782556845e-01
2.498502509263285723e-02
-2.641012048051093533e-02
2.529348971027770010e-02
5.797760310745232737e-02
1.863672987226356464e-02
-3.053785687445194352e-02
-5.370663715471793442e-02
-6.105075713391612535e-02
-6.014579299084106545e-02
-4.674657540213347784e-02
-3.415254225374172309e-02
-5.904612338379769398e-02
-8.955751262606091723e-02
-4.806498442302677143e-02
2.305613976164178416e-02
3.270420040869098655e-02
1.180540955019111424e-02
1.625230906915205858e-02
2.412708632777624956e-02
1.644398160982042320e-02
1.170847263882818928e-02
1.487760682326009359e-02
1.564052463193560741e-02
2.564942310178707635e-02
4.540974040255212063e-02
3.529043527017587667e-02
-7.966094614185863579e-03
-4.215278107160078114e-02
-6.145111545944544756e-02
-7.720230850104982390e-02
-6.867267739789492675e-02
-2.545643762966750406e-02
2.410320228899996003e-02
5.402725683243473492e-02
6.194444512969311811e-02
5.026215740235331214e-02
2.870835011030417605e-02
2.062803885254322830e-02
3.246507959990160147e-02
4.114803614577443314e-02
3.100589830105986849e-02
1.167926618686949795e-02
-8.880173183518856247e-03
-3.680249925362773927e-02
-8.009576633113602018e-02
-1.279493620582870250e-01
-1.363085270027006579e-01
-7.854491114111071537e-02
3.706999651692088893e-02
2.002130113273456191e-01
2.891333550203058489e-01
1.584401572384029622e-01
-2.198605463830256151e-02
-1.589699491520168984e-02
4.609675327297682590e-02
3.555889031468149278e-03
-4.537074658518781139e-02
-4.638981333779093608e-02
-6.725524256697920644e-02
-9.407344369878101187e-02
-7.288060615666375197e-02
-4.374835968801554092e-02
-6.092611449135615365e-02
-8.745340376526733461e-02
-8.587411720816449934e-02
-7.785750871328175893e-02
-5.573339909064142089e-02
-6.889467889745008386e-03
3.038378943812722333e-02
5.767323115688106905e-02
9.753752386492485493e-02
1.036242770763993321e-01
6.061454298779021810e-02
3.146162992367423222e-02
3.004816787293197733e-02
1.443470148333933674e-02
-1.111561492789929842e-02
-1.273104065696077994e-02
4.904923054105734051e-03
9.089981179463572925e-03
-2.349897357207255191e-02
-7.014521823871242012e-02
-7.290280798288908959e-02
-3.458761280629926715e-02
-5.414001578954517890e-03
2.942708253684850686e-02
9.129525566509043288e-02
1.146408596626433407e-01
6.085811899652932705e-02
6.183948553470993738e-03
7.340145922383351298e-03
2.025897351234538096e-02
9.230254636295270182e-03
-1.167768241803675972e-02
-2.957683761814218493e-02
-2.677488734795571007e-02
-5.392972279604512503e-03
-1.971332014290756718e-02
-8.039215842934997747e-02
-1.073870795819749230e-01
-5.492074361891650242e-02
2.711008513445276394e-02
7.783419513549569291e-02
8.554793933031903941e-02
6.261042525268536996e-02
1.791236790750063562e-02
-2.507365563781861414e-02
-4.838475324582514753e-02
-6.202690731847211592e-02
-4.580973097347855461e-02
8.991918790095225142e-03
2.362027007780624632e-02
-2.665761218891607096e-02
-4.813505932457456948e-02
-1.702210960472017726e-02
-3.342028032315261937e-03
-7.532137401405956598e-03
1.712767085404340306e-02
4.650060605711579115e-02
3.738323163307432501e-02
3.492792203569514142e-02
9.281482318923091335e-02
1.118285856851127802e-01
-8.477998420287366152e-03
-1.082140637378274234e-01
-3.244615119884879106e-02
5.892629927144559659e-02
2.777416571839107923e-02
-2.074285490035015014e-02
-2.350711969051244576e-02
-1.409243264433420254e-02
5.938103818963001712e-03
6.857877530639807338e-03
-3.325319804852807509e-02
-5.125818864174822020e-02
-1.185985268593821827e-02
3.814452896111125008e-02
3.903140841691773305e-02
-3.359168633791279057e-02
-1.243946610409998182e-01
-1.456942328137548481e-01
-1.042746748103762638e-01
-6.442512835161637308e-02
-1.754019345908226779e-02
7.189432801356365754e-02
1.576983504706322148e-01
1.787311973130450427e-01
1.465575306337749961e-01
7.297487216908446483e-02
-5.470748221538263012e-02
-1.791147186891355880e-01
-2.030490797047512230e-01
-9.546434624340864594e-02
9.214265202835740520e-02
2.280831002845815358e-01
1.974721632568730567e-01
6.682839732162219881e-02
-1.084054890395068707e-02
-1.111157903764171950e-02
-6.929276588260278869e-04
-1.381416240458043648e-02
-5.120048311013268572e-02
-8.977233380105238691e-02
-9.611315007884911610e-02
-7.279387899887934665e-02
-3.652848781154542646e-02
1.301009463169150102e-02
5.502317127415449344e-02
5.922675794215839784e-02
2.325200990616942825e-02
-3.768382896670843807e-02
-7.207419375050808097e-02
-3.071619637751438897e-02
4.197171600668440222e-02
7.479825156818052656e-02
6.176116369666707906e-02
2.396416151510212533e-02
-8.958985609603439815e-03
-1.308671191049370214e-02
-7.540518720970636017e-03
-5.849263889047457560e-03
7.299274909680253560e-03
1.414818597817482822e-02
-1.197580412690636524e-02
-3.754245242058186494e-02
-2.883153014667550612e-02
-2.476731622124849971e-02
-4.957408220151018896e-02
-4.611787307355795507e-02
4.426502143552289541e-03
4.027768101884163232e-02
5.379169161678212796e-02
7.542093614257187884e-02
6.038451415012963813e-02
-1.935560668841716098e-02
-8.744559250664822592e-02
-7.897084961254932645e-02
-2.221160493262692992e-02
2.203630896626818797e-02
2.561684721229945394e-02
-1.845286058225704441e-03
-4.273284702132662538e-02
-9.021130588031414654e-02
-1.146947662063890760e-01
-5.747319477385817721e-02
7.069013091405634830e-02
1.594261581242086279e-01
1.372303005336948933e-01
6.175778631546875730e-02
3.150581325562728380e-02
4.656419404701595682e-02
3.142624840645647649e-02
-1.483035563547594436e-02
-4.525683125133641432e-02
-7.015888298898323439e-02
-8.544240564227370549e-02
-5.015616778897535183e-02
2.101909801061709049e-02
7.339831692486448178e-02
8.211563644655441030e-02
6.416021802100212168e-02
4.560385520549253141e-02
2.277653042038732187e-02
-1.734677682514509239e-02
-6.076069028153345541e-02
-8.922921406024444946e-02
-8.765237151235975854e-02
-3.530639178024453512e-02
4.385944411072698057e-02
8.192690299930319164e-02
5.451971126901366399e-02
-1.506367991007064380e-03
-4.287985927446911344e-02
-4.313142887288065608e-02
-3.891839419099804576e-03
2.989127634306569525e-02
1.685142698289377600e-02
-2.666681882305138931e-02
-6.815827502915645930e-02
-9.462786537860051750e-02
-8.953885209092567188e-02
-6.002275069452255030e-02
-2.148555114145248718e-02
4.727624916710118641e-02
8.214832669634226925e-02
-7.934056987292759794e-03
-7.742752380418330138e-02
1.296095324072801293e-02
9.670877870382557639e-02
6.472912977592226724e-02
3.325983384318485780e-02
2.447216199467552866e-02
-1.553541556352711593e-02
-5.926257824348876019e-02
-9.704892341643864273e-02
-8.833412161120271500e-02
6.140742208624969112e-02
2.378705803730014057e-01
2.324312901208734627e-01
1.112040245619849155e-01
3.564901142661446726e-02
-1.001934889171213899e-02
-6.458503718039468322e-02
-9.165082967780018020e-02
-7.879601764018176469e-02
-5.078055731240481430e-02
-2.729326763391384802e-02
-1.945932068035651982e-02
-2.948996221989670999e-02
-3.880356464765691293e-02
-2.686619733782718081e-02
-1.509651906821001845e-02
-3.088439484769239796e-02
-4.721132124488639642e-02
-4.526942481567717419e-02
-4.804487782443719879e-02
-3.827317100859811694e-02
1.981957756761482115e-02
9.162324101212031280e-02
1.177695024627000153e-01
9.044661669781792201e-02
3.673740090024206484e-02
-1.071853050321627636e-02
-2.759756328510227022e-02
-2.037677514034934301e-02
-5.656904498537403125e-03
1.681297816097380299e-02
2.940611926945428667e-02
8.030041916927944945e-03
-2.021433214079404461e-02
-2.385417834495445755e-02
-2.383856554631381269e-02
-3.705392663061712888e-02
-4.302915049647895729e-02
-2.536181989779615759e-02
8.455172813032752616e-03
3.232218501906460040e-02
3.596990018510497905e-02
4.675237310043644373e-02
5.477445639271374955e-02
1.564804302377117290e-02
-3.416496931152382399e-02
-3.659886689604542609e-02
-2.188195255647313806e-02
-3.119868067500933262e-02
-5.677811406660279725e-02
-6.678022056389130989e-02
-2.833268664167153117e-02
3.329714699634830216e-02
5.919622186777458855e-02
5.218822785234490669e-02
8.427183739309340726e-03
-1.091907338596093541e-01
-1.679806067389879032e-01
6.455476293189054554e-03
2.145463774845248750e-01
1.710492565652825259e-01
3.718576313937346084e-02
2.946193119099394658e-02
2.702828154484681125e-03
-1.128801735644495291e-01
-1.325111654363205771e-01
-4.079389575682201147e-02
1.433023116795641844e-02
3.816225984853848646e-02
7.344235475899868471e-02
5.470992822339078993e-02
-1.387609614488492099e-02
-4.826460897096900710e-02
-3.739240107027352877e-02
-3.436513341887144010e-03
2.757996784855214559e-02
1.135540149968965531e-02
-6.240216867270319615e-03
5.644237697360324907e-02
1.307347366145316381e-01
9.636635594722330056e-02
-9.654379209042603799e-03
-6.875315447432001070e-02
-6.903775112161843197e-02
-6.569305423467143579e-02
-6.540530943525532659e-02
-6.534582534842156565e-02
-5.693842860309301923e-02
9.869113694642096986e-04
7.021840669226372955e-02
6.131126440868207850e-02
1.875536631968655055e-03
-3.461638359512945323e-02
-4.217866808407923912e-02
-1.978146610777033881e-02
2.504471823996507612e-02
4.670668327914032081e-02
3.850932898257739684e-02
3.441333447489994257e-02
2.722480082725433834e-02
-1.428429483952078048e-02
-7.094086917740731468e-02
-1.006764068949397573e-01
-1.055857420701689642e-01
-8.688976708406644101e-02
-1.385307474297389416e-02
9.562929625131243172e-02
1.623105726667699589e-01
1.311951772796743909e-01
3.617460925004199052e-02
-2.105504319250513234e-02
-1.998662816714454754e-03
1.343769036007159273e-02
-2.473812487175660463e-02
-5.976632332147210902e-02
-5.230974640688128285e-02
-3.413114000780340801e-02
-2.545308589645425487e-02
-1.666735736999649942e-02
-1.501091580365845543e-02
-2.492420115349431795e-02
-2.340979316155447285e-02
-2.183607299775018259e-02
-6.821951980176164942e-02
-1.312075521986005300e-01
-8.706774257063491784e-02
9.761091639888011540e-02
2.635006110821100922e-01
2.783923796468947276e-01
2.138644294240247545e-01
1.587422138070087585e-01
9.313779901289227781e-02
3.426389554112077573e-03
-7.450189106993879151e-02
-1.073766452498297608e-01
-9.845254299948266730e-02
-7.899738422651958469e-02
-7.064604475756469659e-02
-8.038771533405382475e-02
-1.076078143189594938e-01
-1.270089576270289344e-01
-1.031623164575643375e-01
-4.378432856532583906e-02
-6.868674155473090959e-04
-3.781657674533853153e-05
-1.063793188888175617e-02
4.196923660589831073e-03
3.945885645375910022e-02
5.681535295445747091e-02
3.173314630308131379e-02
9.309376847349282169e-04
6.042641636344756040e-03
1.361741458896812904e-02
-5.326672304349459874e-04
-9.614754249128465782e-03
-2.935177715953828786e-02
-3.318572851435400151e-02
7.602734301493722924e-02
1.848965879320507433e-01
8.713073933239598445e-02
-5.418113696068641016e-02
9.853160478311966120e-03
1.152628433937270130e-01
4.846765365919977753e-02
-7.845183022480609059e-02
-1.098127645051844847e-01
-6.301925400942542943e-02
-1.822165085469078585e-02
-4.821904402526736889e-03
-2.028623327046498188e-03
1.017542842478469552e-03
7.882870124694711308e-04
6.979194142049694252e-03
1.455775484400092731e-02
-1.318818705363383401e-03
-3.160193140636315123e-02
-3.892053929704584331e-02
-2.825385292804300646e-02
-3.069497921634349591e-02
-2.797963674274250162e-02
1.675000516077511294e-03
2.486825294637121792e-02
3.154268682183235945e-02
4.543497579839766293e-02
3.906858990426516354e-02
-9.890899872912160828e-03
-4.366515267872551204e-02
-2.022070266637907357e-02
1.464329299863195016e-02
9.339274861511450559e-03
-2.203349508392887443e-02
-3.095931340567381618e-02
1.911942919692924923e-03
3.932975610965322444e-02
5.066957309368570056e-02
6.076309409000265477e-02
6.790628085907067513e-02
3.752015347489313923e-02
-4.930659432090447186e-03
-2.229921730937943838e-02
-2.259113529867003145e-02
-5.107694184611447086e-03
1.415691836132598747e-02
-1.319289790485790766e-02
-5.901786199453681880e-02
-6.006214137356349902e-02
-6.322041617260729107e-02
-1.115106693947281874e-01
-1.075596947755667887e-01
9.519409681944103127e-03
1.390025205055644697e-01
1.835619154712920253e-01
1.501742905492763624e-01
7.561130994844750264e-02
-1.082498857728842476e-03
-3.884876891045276059e-02
-3.523170859426874579e-02
-9.413527485345315679e-03
2.957738737098895843e-02
3.672241464559011792e-02
-6.097050609459997439e-02
-2.173342331406692418e-01
-2.597041331784710749e-01
-1.688682350323705006e-01
-1.087482223443445861e-01
-5.760445338765697587e-02
1.056549007420440056e-01
2.086905270188108841e-01
1.091319170250864556e-01
3.369871436362120026e-02
1.054784149788948744e-01
1.414833127580274463e-01
7.659800114287064476e-02
3.082646008996434497e-02
3.550842555751350382e-02
2.421389510442224779e-02
-1.101638440398772581e-02
-2.115884174908981910e-02
-1.337106876281527260e-02
-3.717214864335015301e-02
-8.074672741095517692e-02
-1.174798477958300114e-01
-1.567695407480575176e-01
-1.205072340796630864e-01
6.415591726699032549e-02
2.188156464597532103e-01
1.645200315490537857e-01
3.320535784225932263e-02
-2.104585621481882066e-02
-4.316729753436214512e-02
-7.321909495287037828e-02
-7.729242731583174653e-02
-3.889623642253711711e-02
3.133519817779745198e-02
8.237807012694950415e-02
4.736621143142071000e-02
-4.597324161530785824e-02
-8.077493301983634799e-02
-3.910586172945365591e-02
-4.295455886932125072e-02
-7.956288215897958094e-02
7.144868879965892219e-03
1.523534162638932321e-01
1.750001501305755713e-01
8.901491368586500474e-02
-4.467658924315268121e-02
-1.513824973471194768e-01
-7.051048835061821118e-02
1.414482804565525831e-01
1.878295375578805659e-01
2.178791957965822701e-02
-9.730997871581614778e-02
-7.225596804088840752e-02
-2.478611888454569645e-02
-1.575418503539429207e-02
-4.449113240908550426e-02
-9.797654259850607783e-02
-1.248119986351891586e-01
-9.955563079168983087e-02
-3.225183745665888974e-02
4.712027046255225227e-02
6.788373204467350319e-02
4.175756540805371925e-03
-6.912742558780152202e-02
-7.666300031878804655e-02
-3.891294873024866811e-03
9.014543707599607936e-02
9.953834835082192578e-02
6.854882349924958096e-02
1.466709418573070856e-01
2.289767550037961896e-01
1.265201201011653398e-01
-3.096007549853922042e-02
-7.188274617002897438e-02
-7.980825774295427499e-02
-1.472344447819226299e-01
-2.013647332209630991e-01
-1.381038122310966898e-01
8.343133162923144566e-03
9.988851432471890224e-02
1.005009321202545436e-01
8.467528126528199584e-02
7.292558465269695367e-02
3.552477270377808055e-02
-1.648657327375743428e-02
-3.705604647379494299e-02
-5.763969119397745894e-03
2.869516838451274116e-02
1.739499243981121324e-02
3.104352709582444778e-03
1.471163458227090978e-02
-2.314885055292891652e-02
-1.132379236523858163e-01
-1.150923524937101788e-01
3.025560896254679902e-03
8.791925474946915564e-02
6.955694013009428023e-02
3.716089736945796945e-02
2.518866578462693184e-02
-1.172443970352140576e-02
-5.951231189579675451e-02
-8.574107649403890641e-02
-1.030973241845454108e-01
-9.760040550057107189e-02
-4.570715315326542155e-02
6.488682719414429027e-03
1.499331442682084320e-02
9.647020432151754560e-03
1.104156592524543033e-02
-2.439547381643824425e-03
-1.982159976630933768e-02
-8.152220735189865536e-03
1.214583709295547452e-02
1.995218071716684666e-03
3.198197421589867723e-02
1.804827499649607203e-01
2.796744233081326914e-01
1.574674797158261141e-01
-1.322648578042594572e-02
-4.396090348567986694e-02
-1.841725193813489175e-02
-2.660604529745882324e-02
-3.659284677774983507e-02
-3.226918801794616265e-02
-3.972212980086332890e-02
-6.796979761954666244e-02
-8.866164331519355013e-02
-6.847445677673412445e-02
-3.005318242769394743e-02
-1.571275173367531544e-02
6.756690081605952122e-03
3.946499951514824411e-02
-2.539414988874805212e-04
-5.783364112698977794e-02
-1.817356756231801665e-02
3.387852229015464456e-02
1.369925330178224307e-02
-1.150517620318704075e-02
-2.132927344697187547e-02
-3.721600617209053913e-02
-2.436424692787463389e-02
1.217966733355231937e-02
1.529781970390555954e-02
-1.612561489511904825e-02
-3.293331457324452649e-02
4.445951841615508257e-03
9.656366304813945867e-02
1.709786170495136703e-01
1.442930635321886812e-01
4.316439709179686890e-02
-2.759068306597802639e-02
-2.751677654074142707e-02
-1.657597568315867173e-02
-4.123509250386908631e-02
-7.026393930996024939e-02
-7.524349859770167182e-02
-6.280946266883075113e-02
-3.452455137632633175e-02
-1.273840267944417737e-02
-1.799433689404710338e-02
-7.015545248475829956e-03
3.140817853723627817e-02
3.422003173459314124e-02
8.095286187957004276e-03
9.836101713157305651e-03
1.026595427808617463e-02
-2.473003890752957512e-02
-4.381140313074177728e-02
-1.669759256713555448e-02
1.667288449019398849e-02
2.682219391135653649e-02
2.218750067293100495e-02
2.316792900548163975e-02
3.947588752346908175e-02
5.566397840229808658e-02
5.535998180447787576e-02
3.507692881623558634e-02
-1.300378058777459933e-02
-7.565368329397176295e-02
-1.027202871311017063e-01
-6.519051103013637216e-02
1.314074334152711722e-03
3.472949810107442414e-02
2.478184831499889718e-02
2.530964388241405127e-02
6.610752061515909328e-02
9.835809605061503202e-02
6.726897698126553526e-02
-5.695490290591515362e-03
-6.907632328715446191e-02
-1.109799190403046587e-01
-1.168126856930934293e-01
-6.625050004798371805e-02
-9.461185954444490884e-03
-9.592835365022520100e-03
-4.623467363547247022e-02
-7.104372568870719051e-02
-6.009159663881648294e-02
6.989038273922535197e-03
1.135706846622286381e-01
1.729361412175746127e-01
1.164283816379616115e-01
5.870981445864374010e-03
-2.611605006740402857e-02
4.650589952119492387e-02
1.180522611015098894e-01
9.478137061222971504e-02
-1.949294668285613333e-02
-1.408036209346892609e-01
-1.696472777032436707e-01
-9.510136162832114048e-02
-3.195175502484137384e-03
5.087341541847839599e-02
7.182617762406263984e-02
4.210877256926440909e-02
-3.385825825741720085e-02
-7.443822017556761539e-02
-4.863883228891051347e-02
-2.029564539039697968e-02
1.736913341366849370e-03
5.193691392238879850e-02
7.704109106330360446e-02
3.920330487155461452e-02
1.718186560303221200e-02
3.913649913534779368e-02
2.788984968680386159e-02
-1.864767661066798338e-02
-3.370861672142585336e-02
-3.617163244977541353e-02
-6.495084906244065481e-02
-7.260469196318726504e-02
-3.106089902393971425e-02
9.802495387721651271e-03
3.397836509439580710e-02
6.739351556563749623e-02
8.173071090132719152e-02
4.722127877742861302e-02
9.376722184413183170e-03
5.131073003456416461e-03
1.367994719230672916e-02
-1.979741810532481550e-03
-5.947958517415002921e-02
-9.558086254505782087e-02
-3.797661970628028044e-02
3.372093691592638331e-02
1.655878870530005931e-02
-2.875869305383468161e-02
-2.941212853370778202e-02
-2.976994413605214135e-02
-4.808199146211681457e-02
-3.536799513255900473e-02
9.185223447568203808e-04
2.227050958129809730e-02
3.498493916837148998e-02
4.778708744023348054e-02
7.042669338802122481e-02
1.028851074109169705e-01
8.324642962859364614e-02
-1.730891696361900461e-03
-6.271749199163088873e-02
-7.393711863168178633e-02
-7.972118441923255194e-02
-7.171497804356243011e-02
-4.617579700558262917e-02
-3.419684970914051853e-02
-2.635323629353256147e-02
-9.112811641662625986e-03
5.706043000147558233e-04
1.212175015282036805e-02
6.540205937279251758e-02
1.571639894294163675e-01
1.980416147257794413e-01
1.217853208688679661e-01
8.430510163326741455e-03
-2.723109136491318888e-02
-4.885204089483258239e-03
-1.569433804406831362e-02
-6.023220371446286886e-02
-6.955163033362722624e-02
-3.803767484360001672e-02
-1.676553152898821800e-02
-2.437016783555375626e-02
-4.967500908727085634e-02
-8.728018784825326837e-02
-1.154594801484306460e-01
-9.127131513076949809e-02
-2.022509305423171241e-02
2.958801577865773080e-02
2.656952710723087946e-02
1.416784592005896834e-02
2.746133027586325492e-02
4.491850415313566186e-02
4.835443291547057015e-02
5.488215916956363377e-02
5.582384483786018148e-02
2.354328424710450812e-02
-2.077703303055090933e-02
-3.954694212997089675e-02
-3.120477500685272729e-02
-3.760747512326089587e-02
-9.882561825881902573e-02
-1.147159635194312938e-01
6.405880073482493609e-02
3.011021184538069662e-01
2.920917935895754880e-01
5.895327128216656248e-02
-8.285036981201818196e-02
-3.994653387793014460e-02
-1.020590939274383310e-02
-7.003479726598579869e-02
-1.123323927961327878e-01
-9.887021200296566836e-02
-6.539273169892038939e-02
-2.707001412510283769e-02
4.530583269918122061e-03
8.328467023456931698e-03
-1.883845741316557409e-02
-4.033662947650745734e-02
-3.158085888991370854e-02
-2.555564886571489586e-02
-4.223760034265944957e-02
-4.165880475772075486e-02
1.049583280532566561e-02
8.116598839594738046e-02
1.090657433888354566e-01
9.589094248089594097e-02
8.595545919692672288e-02
6.888533537160863862e-02
1.673166778187524031e-02
-3.639261606279683287e-02
-5.948993610872491816e-02
-7.244878303334448266e-02
-7.294725860527592753e-02
-4.058301048397229549e-02
-2.722552612829138609e-03
1.633119194358764389e-02
3.559202803877206667e-02
5.478654819357355044e-02
4.862690627387316472e-02
1.912005304871982475e-02
-4.306514532875219646e-03
-6.045751002411292770e-03
6.912448246760898030e-03
3.016952934514503457e-02
4.409851004222906101e-02
2.175618218801615017e-02
-6.461716099750263766e-03
-6.312863555427785517e-03
-1.728704928736104346e-02
-5.297879099179825940e-02
-4.936957991528417855e-02
-7.424758617859678403e-03
-2.044565417596176660e-02
-1.004746408437521277e-01
-1.416452184901155764e-01
-9.658390894816704098e-02
-4.430028041845304743e-02
-2.654872544776144122e-02
2.741651107844438398e-02
1.297175680757243765e-01
1.796227832993671780e-01
1.426276700242868345e-01
7.780227192244021373e-02
4.612708361380812513e-03
-6.358383604412025381e-02
-7.025379284374265454e-02
-3.943637226878835000e-02
-4.532955960875423296e-02
-5.122063354043746713e-02
-9.757293834480941161e-03
1.876580312517175941e-02
1.314063000782697554e-03
-8.519309019702435079e-03
2.295931146612483625e-02
6.594471147041276737e-02
7.511753586032118846e-02
4.821336146354279761e-02
1.794544512320363910e-02
2.179131495770683137e-03
-3.824884999656373921e-03
-6.750287508655218420e-03
-1.881399010993631098e-03
2.077570910701855879e-03
-1.378531464949129745e-02
-1.711971806475195979e-02
1.602466110961253687e-02
1.578784567065286831e-02
-5.253356164207795276e-02
-1.056550929213564555e-01
-8.996897846677529009e-02
-3.634646561186777314e-02
2.787791564581956066e-02
7.517938823481695731e-02
7.441621177646748353e-02
4.825804198300334691e-02
3.029975406745619507e-02
5.486157639737221717e-03
-3.156595918420564140e-02
-4.499874651848956991e-02
-2.652028764830784840e-02
-1.124021248919097882e-02
-1.395327768142013911e-02
-1.979879416115144092e-02
-2.122044247051625351e-02
-2.804445407719461519e-02
-5.599588232129236454e-02
-8.151723061322847796e-02
-3.864162414722130401e-02
6.959296590678487604e-02
1.317303953112423931e-01
8.065993523819572908e-02
4.479262169519840353e-03
1.085769523492378930e-02
6.261008602234285902e-02
5.934016484916465606e-02
-1.063565667091148116e-02
-9.075489864527601369e-02
-1.345007060999107440e-01
-1.105582021142020310e-01
-2.495984149667229007e-02
4.027966241141141962e-02
3.149433892455462403e-02
1.776125510268744198e-02
3.583371505487470410e-02
1.371494885390212720e-02
-3.420107818247199866e-02
-2.554693819147104555e-02
-3.426976966246575787e-03
2.584585639494043491e-02
1.606989446134664268e-01
2.778938461968229467e-01
1.873217181025080280e-01
3.417484375713317896e-02
-3.692991454816822727e-03
1.011146264367941694e-04
-9.598412398442616317e-03
-1.529245951199530856e-02
-3.355399434799366531e-02
-3.504405995359827913e-02
-6.201516558756037939e-02
-2.228752355378350314e-01
-3.526948223530605442e-01
-2.463362870947912175e-01
-8.563637884875874295e-02
-4.937494759214214324e-02
-1.705334008715678890e-02
6.506016179430082480e-02
1.043732749472759264e-01
9.802808792947345640e-02
9.851925303658273791e-02
1.000304408191861616e-01
7.675789880729924630e-02
4.030876701899299003e-02
1.843908041981259099e-02
4.775236696186490812e-03
-2.144220944604139506e-02
-5.942574331480209027e-02
-9.733525629917595678e-02
-9.298232250447333036e-02
-4.526448696784323572e-03
1.062972579708275495e-01
1.459381101470552666e-01
1.292331253778588596e-01
9.972510527891653709e-02
5.726624490409143453e-02
2.908846898751174873e-02
2.407756135993789279e-02
-8.760288593460421186e-03
-4.828754047165054186e-02
-3.270806564384449999e-02
-1.336038129697747490e-02
-4.703026677815948242e-02
-8.123783167383136217e-02
-7.339611232747299263e-02
-4.710679432326882188e-02
-2.625327761620977959e-02
-2.444705879368119436e-02
-4.667386789850441059e-02
-5.558754411612374519e-02
-2.154508859739604626e-02
3.689894946040854148e-03
-1.233602170676620195e-02
-2.811969955137459676e-03
4.781915484046347919e-02
6.196091088453591078e-02
4.819067359737226608e-02
7.234415913195184344e-02
8.315161362129923350e-02
2.209452109230983924e-02
-2.827910043814156962e-02
-1.278058596722168525e-02
-1.185138562104744164e-02
-5.047334242483866862e-02
-4.691983812127212966e-02
5.177424280130207140e-04
1.368950840337068882e-02
-6.710064734747098192e-03
-7.167697339996934036e-03
2.528943379447218080e-03
-9.320438581428463001e-03
-1.382492566010453880e-02
1.726216295215609112e-02
3.961895398782305788e-02
1.632691216037873011e-02
-4.666573849177363224e-03
1.744239107907894631e-02
3.447051113524807892e-02
1.687294575997775291e-03
-5.305703355679944333e-02
-9.290258108515569990e-02
-9.310920303223542416e-02
-2.636787715695074891e-02
8.268030043429759612e-02
1.491451055054146269e-01
1.244390830821293092e-01
5.696746745409150825e-02
8.692183156533554375e-03
-3.379563340739002303e-02
-7.682203179093990975e-02
-7.767247754063628939e-02
-4.813229865433968357e-02
-1.971460073028842228e-02
2.478319144838095345e-02
6.233547641360485947e-02
4.611908766471744386e-02
-6.168606791356452679e-03
-6.961675154925375808e-02
-1.296331713705881350e-01
-1.479453058634885021e-01
-1.143694300927512592e-01
-3.909601236460664292e-02
6.214425652988876669e-02
1.161427942839645538e-01
8.485450746003864175e-02
4.911612162112012625e-02
6.359205983540595908e-02
8.426897459804078006e-02
8.024688818709400928e-02
5.864404179931855671e-02
1.717103074706555557e-02
-3.239581100402889186e-02
-6.150620850673481355e-02
-7.072117877657582707e-02
-8.835274866451217624e-02
-1.172939206743981028e-01
-1.056504554791051209e-01
-1.577710576171494766e-02
9.426161050478863712e-02
1.351231858319986712e-01
1.044418242089012461e-01
5.766734227867604395e-02
1.246414686373010020e-02
-2.416260123408164179e-02
-2.143696437934929783e-02
1.064216341549989453e-02
2.412624735443950549e-02
7.762356628691809320e-03
-9.466049301696224244e-03
-5.754130883303138627e-03
6.534470965630293296e-03
-7.324417857652025521e-03
-6.564309453257938243e-02
-1.264297009721500054e-01
-1.061240804427498463e-01
8.286527180426720568e-03
1.198250443652129488e-01
1.309571601060032231e-01
4.562461075687361534e-02
-2.930199914790871524e-02
-1.160424466474115762e-02
3.230206183268920228e-02
9.851800408863770064e-03
-4.040252071992503358e-02
-6.024817696200681499e-02
-7.264658338873514198e-02
-7.608649538484912878e-02
-3.380683558328754362e-02
2.011480246272374234e-02
3.636511337527192911e-02
4.101185474594062907e-02
4.419216176533186796e-02
-7.870682680838561249e-03
-9.522729509096834744e-02
-1.115143905541566977e-01
-4.092225466614916179e-02
2.118966735496839379e-02
1.609350280645600526e-02
1.174220168419138656e-02
9.173525324231182609e-02
1.561542864663529873e-01
9.706124107920731381e-02
3.250844416221924937e-02
3.872562308788444346e-02
2.907823638212129330e-02
-4.167449869689412653e-03
-2.256712922376533439e-02
-5.984181726485328368e-02
-1.073621857920665501e-01
-9.049645328304850578e-02
-9.163751100620808054e-03
4.371441242578337494e-02
1.536238583795142970e-02
-3.798584702058841606e-02
-3.831660656522276748e-02
5.031398527623112162e-03
3.071057298627940732e-02
3.436247606352556272e-02
5.920807165039949915e-02
1.080801612729338779e-01
1.306951542383895104e-01
8.683968209850764786e-02
-3.138302964956715593e-03
-9.150955117004778983e-02
-1.599038723285932662e-01
-1.873907892780440343e-01
-1.327026212188029408e-01
-1.159236935212595507e-02
9.263395559685373704e-02
1.259122933150592927e-01
1.081785430757069011e-01
8.013542152888802894e-02
4.984208293133154943e-02
-2.709496451729985055e-04
-6.883360627038469237e-02
-1.184958588158670084e-01
-1.217205634258057834e-01
-9.845875045758571698e-02
-8.230259294013418658e-02
-6.872523299899145621e-02
-2.611993094744211735e-02
3.854505787108838261e-02
6.832460591365455138e-02
3.468746669960953710e-02
-2.264048202365380458e-02
-5.374121038780522996e-02
-3.699902123186466635e-02
3.815584077946509306e-02
1.403030415075714743e-01
1.761599304774270069e-01
1.188398987107484595e-01
7.018442051677442617e-02
7.257035251825369460e-02
4.854912178519842081e-02
-3.131758788915412275e-03
-1.849037097806293176e-02
-2.489481665256650447e-02
-5.296579739197354586e-02
-6.451705883886330040e-02
-7.049300957397285072e-02
-9.867194564676146085e-02
-9.322046321000151958e-02
-2.929250382971231720e-02
1.603397539496310628e-02
4.707558766252001661e-03
-9.391971443347810547e-03
5.943495664235332564e-03
2.375441392060868157e-02
2.497941431822674890e-02
2.229994811109858172e-02
2.965653838330691711e-02
3.499107424383548354e-02
1.492087026820637999e-02
-2.322809778002091555e-02
-4.839745839095562635e-02
-5.248952335244062156e-02
-6.044221775611516301e-02
-7.566803782441532122e-02
-3.941422072666796866e-02
7.523867186241779692e-02
1.685984742075874454e-01
1.453134610365896529e-01
5.732552876382407403e-02
-1.079799639209702740e-02
-4.701620290929584001e-02
-4.715269196115830230e-02
-2.343304385678766921e-02
-1.465438868353168347e-02
-5.669786197777545653e-03
1.755980605447460263e-02
1.152816934186952705e-02
-2.305136416456699325e-02
-4.705048454214176556e-02
-5.690703574303131868e-02
-4.536922621426039970e-02
-1.029907367829032382e-02
1.357424816032998249e-02
1.578154082910811565e-02
1.858703890023438374e-02
2.002616310748900688e-02
-8.733021984680278821e-04
-3.125695611702348359e-02
-2.185759838672655941e-02
1.438043760064963879e-02
-6.923203085856028186e-03
-3.259734428130918460e-02
7.699017897344813399e-02
2.005466767008445839e-01
1.368631268931894684e-01
-1.948103982779796420e-03
-5.567416750328312014e-02
-9.106373640316661744e-02
-1.708402320690161069e-01
-2.309395250101252128e-01
-1.902190449486011181e-01
-4.127753115830062880e-02
1.066900331821291903e-01
1.610376392009643387e-01
1.416232336905735856e-01
5.336498861671400834e-02
-3.643931630419117162e-02
3.490977640569994239e-02
1.716360224028685433e-01
1.408746354657220146e-01
3.079607974751819716e-02
1.274454735300922792e-02
1.763901503452218467e-02
-4.124720665289477450e-02
-1.319178255385153042e-01
-2.014553668480391913e-01
-1.938327715598469059e-01
-7.117287190704732480e-02
1.056007645298744635e-01
1.987839351152636547e-01
1.343462156959918108e-01
-2.336617899182288904e-02
-1.326644866989682148e-01
-1.014819415920874546e-01
1.030283341695253235e-02
6.465187629604901565e-02
3.046016837669846336e-02
-1.059100420344918914e-02
-3.512222204176618928e-02
-8.649097625864518579e-02
-8.383520537261623939e-02
6.478100887733276303e-02
1.772952605778235768e-01
8.839485017835652103e-02
-3.312998026758005865e-02
-5.545103665501509987e-02
-6.743426748769802692e-02
-8.076442262834243602e-02
-3.941340423239948765e-02
1.582196947280327046e-02
5.481790850195258913e-02
1.025242596745133405e-01
1.217277438320681082e-01
7.189781570565666191e-02
1.466164589917257934e-02
-7.091353761607860004e-03
-2.816700691389713990e-02
-3.915023630866703436e-02
-1.856211747781712565e-02
-2.445952819252514635e-02
-8.035632379412195603e-02
-1.067824399693460824e-01
-5.988882979410288521e-02
1.895026446090596279e-03
1.998589166392227695e-02
5.652049452915081443e-03
-3.134097857888200334e-04
1.079282694743869883e-02
1.414227748492683998e-02
4.416507961610893415e-03
7.333795492320931142e-03
2.500334657662673862e-02
2.857018424495498532e-02
1.168461555866087687e-02
-2.254793209298354851e-03
-1.114559302170500636e-03
-4.149830518504031562e-03
-2.356651826404839237e-02
-2.570425187722936641e-02
1.105089191952376287e-02
5.315745000837435175e-02
6.731328271331402102e-02
3.925400569760831987e-02
-1.663614860448990942e-02
-3.152794251060193204e-02
1.340435960902639119e-02
2.848925276571479676e-02
-1.289252304208151310e-02
-2.837079737522380310e-02
-1.276874127666540945e-02
-2.536811550378352542e-02
-3.116440664923407489e-02
2.100459437514433023e-02
7.353920925041695922e-02
6.823516953261894724e-02
4.768372132969631028e-02
3.941074821248230498e-02
-1.226640678647109191e-02
-9.975816036694780398e-02
-1.312019556263670228e-01
-1.060451736608588880e-01
-8.450474054311971073e-02
-4.525588494130629302e-02
2.673872817477822295e-02
6.126957760004245190e-02
2.869374880522327503e-02
-3.729738215227344431e-03
1.337442474234787869e-02
4.792051986380137241e-02
6.379304160727992945e-02
7.027727996367090502e-02
5.983004043097252256e-02
4.509157246553869083e-03
-6.021341781075176952e-02
-7.631831776097228182e-02
-5.965291469688800696e-02
-4.161864694274196308e-02
-1.822244581551477061e-02
-2.777665405192872436e-04
1.221431333127446367e-02
4.285313158303966086e-02
7.853727403103330507e-02
9.681080341780803900e-02
6.755412790257603328e-02
-3.559332315357394139e-02
-1.060012176818847657e-01
-4.207248331293030746e-02
3.390353586391753327e-02
6.093158697024547016e-03
-4.854772826830029697e-02
-6.006700876489391022e-02
-4.229769573119898651e-02
1.712391076175254559e-02
1.156114876877736425e-01
1.662516522723109236e-01
1.156980392254039758e-01
2.797550525219876308e-02
-3.043279424360648133e-02
-7.271271163393390469e-02
-1.132866136132000406e-01
-1.173775505949921222e-01
-7.101813575654886135e-02
-1.661377212985440735e-02
3.858746545292467134e-03
-3.950544025372095328e-03
-2.099438504722989443e-03
9.609941529860978326e-03
-9.910306367750847806e-03
-4.201269799400991073e-02
-3.783881001754960810e-02
-2.741046788573773749e-02
-3.336825081593731285e-02
-2.357530947363076050e-03
7.331923831044463713e-02
1.271529404238577743e-01
1.250504730545709819e-01
9.044817503939235614e-02
4.668750254867008037e-02
3.549810870957492356e-03
-2.441295195187670464e-02
-3.844681521036208416e-02
-5.335246191024703433e-02
-5.685601004695545885e-02
-3.390265353691052086e-02
-1.588799683788752123e-02
-2.546243445857820920e-02
-2.048188491928923036e-02
1.227283819522115293e-02
1.179026293941927081e-02
-2.342505535856636428e-02
-1.933364673297671352e-02
1.723901070290347753e-02
2.192421772831505342e-02
1.537297575933371449e-02
4.338495668063963723e-02
8.034652603424578821e-02
8.173612346234329640e-02
2.836187270923937187e-02
-5.076453849000588797e-02
-8.131828801131699147e-02
-5.620936039370217491e-02
-5.057453473374471514e-02
-6.611739135341419826e-02
-2.509958150810330524e-02
7.048809549637927163e-02
1.253983149830280586e-01
7.753523334882944651e-02
-3.614123696904929239e-02
-1.220081529505647328e-01
-1.314810848187976666e-01
-9.302092262590846983e-02
-4.575832805075837062e-02
-1.628993316768842861e-02
-9.581403950329404201e-03
1.248726047365759234e-02
5.374790681161796535e-02
6.961955081147055968e-02
6.917439674090192225e-02
7.931040548380551003e-02
8.038770967294130154e-02
5.840562140764947452e-02
2.009470887657436450e-02
-4.428934336107451589e-03
1.114437684233622779e-02
1.114958895800338169e-02
-3.752672074305437450e-02
-4.860779963414869898e-02
1.040826565375692347e-03
3.738609024177166895e-02
6.329839728993917614e-02
5.829196799861001421e-02
-5.334167524929574883e-02
-1.488501215140408673e-01
-8.228400813303385353e-02
1.623238032445470380e-02
2.100996242023994709e-02
-1.222708287525080262e-02
-4.174684534516708012e-02
-4.547750524563972524e-02
1.251037430271865428e-03
3.830087228159550355e-02
9.805400094948412554e-03
-2.241384331648865746e-02
1.444202286340383334e-02
7.331726045109156209e-02
6.795073417132968530e-02
1.238373628879957389e-02
-3.224382955381936700e-02
-6.080836076018782815e-02
-7.083708678429531669e-02
-2.487725991551623106e-02
5.642034951396568410e-02
8.316422787198490818e-02
2.940480818616645828e-02
-3.762730104770788814e-02
-7.586198589409517967e-02
-8.623006357075796435e-02
-4.438233672816382230e-02
4.969641509082550757e-02
1.125718462930950098e-01
8.393544261776875182e-02
2.606855328592794230e-02
1.442272562882820908e-02
9.601584549415401876e-03
-4.164588213563982788e-02
-7.900200821659118799e-02
-4.744372811054804046e-02
-1.736156253301714483e-02
-4.105967056260245024e-02
-5.261902644179523858e-02
-1.284779470867760190e-02
2.355868177576922809e-02
1.608805266278701823e-02
-1.386295271119522728e-02
-4.350585508030024862e-02
-7.518003635070634461e-02
-4.577806952703293575e-02
1.107732827743810738e-01
2.313052226066287242e-01
1.422582859896447671e-01
3.204147882468495051e-03
-1.671013679060400284e-02
5.613872203714641296e-04
1.061442985349276766e-02
5.679098058784984998e-02
9.932385774586235949e-02
9.563768410050431379e-02
5.883332482861258761e-02
-1.048159405461962165e-02
-9.818485932251230786e-02
-1.521626127719649668e-01
-1.455327182580324619e-01
-1.077708932076975323e-01
-8.388660542148151933e-02
-7.317990798784712592e-02
-4.254195575129812723e-02
-8.234914091946545292e-03
-1.059230916016344268e-02
-1.588816904214455580e-02
2.559288924691295944e-02
6.969925152059328055e-02
7.026773792245949446e-02
6.686788036609261909e-02
6.273701815643069335e-02
2.029953453280188350e-02
-2.248421510974326146e-02
-5.474106905953998042e-02
-1.174290338228433650e-01
-1.321626704006655939e-01
-1.853533371215285164e-02
1.091930257039167018e-01
1.230342470102626373e-01
6.764282514546415825e-02
3.366288554274369377e-02
2.674313629105268611e-02
2.609731603369046596e-02
3.640790323059275857e-02
3.647537462772235811e-02
-3.129723565473086812e-03
-5.025253389342564797e-02
-6.185696076499606205e-02
-4.175936108889299891e-02
-1.209291587994885953e-02
6.834514973437171015e-03
1.294770934012050637e-02
1.377770167803952714e-02
-1.473350502900818435e-03
-2.303237101472117160e-02
-2.297904322768022645e-02
-1.572594992293111643e-02
-1.435667271486116420e-02
-7.692946162301528105e-03
-1.448046600509744937e-02
-2.002476627231065259e-02
2.847095475102559906e-02
7.958112093029531819e-02
5.582896677116569450e-02
1.865647782521403369e-02
3.112672779410161419e-02
2.901442705142901618e-02
-2.835456619393415117e-02
-7.934141379139660055e-02
-7.870353313451576571e-02
-4.807591597178411530e-02
-1.660591981753327742e-02
1.385886217111719637e-02
4.005263403506807707e-02
4.182792140276027359e-02
2.620899663952365455e-02
1.745762980270935960e-02
4.648422655911688822e-03
-1.967385871661569280e-02
-2.411577564971228646e-02
5.892164943238873374e-03
3.138553670272972718e-02
1.235625401603201307e-02
-2.844252440122488693e-02
-5.113551995765197589e-02
-6.207806020074996961e-02
-6.552793174520386843e-02
-3.961614207225119810e-02
2.173683473973677879e-02
9.568709316063522818e-02
1.266743974665859862e-01
7.654486365631561762e-02
-6.334708446442643796e-03
-4.844652973059906248e-02
-3.970493993757268081e-02
-1.234883445123694662e-02
3.273060740127441918e-03
-7.149381086751628242e-03
-2.306932655833470944e-02
-1.015452807034873846e-02
1.553434782860383355e-02
8.927311568361073757e-03
-1.701729195040589671e-02
-1.049206071304959950e-02
1.757508811424343675e-02
2.056779587863383739e-03
-5.361442121277035233e-02
-6.741301667635633821e-02
-8.691324187111795080e-03
5.944804177320577032e-02
7.292536429795519470e-02
4.972543165328233844e-02
4.431221828885573144e-02
4.533743296763276254e-02
1.719078891443560561e-02
-1.865107387533947517e-02
-3.383243207303059108e-02
-3.320739371824812936e-02
-2.964571345224652210e-02
-2.441258011250902263e-02
-5.096815461913534531e-03
2.045608472385584270e-02
2.209989261244930600e-02
-3.271689291113986583e-03
-2.961294023694006211e-02
-3.751926851925195538e-02
-2.519991917714890783e-02
1.299592295003392829e-03
2.119781613843326612e-02
4.276556271330190021e-04
-4.284199893102203643e-02
-4.653696180308803526e-02
-2.175437777644785575e-02
4.297855386749874045e-03
7.902847901749593396e-02
1.354085207213299169e-01
1.696579957573148001e-02
-1.662259082278608746e-01
-1.911225592452680255e-01
-1.109030595806301811e-01
-3.197538644743138508e-02
9.983560086622185470e-02
2.419055844669412147e-01
2.229459170603973750e-01
3.893161164938328117e-02
-1.023544548420523836e-01
-7.223903739036575955e-02
3.463740268283105328e-02
9.539877579656499962e-02
8.272276708557488312e-02
6.291992606103259320e-03
-7.760653179897838982e-02
-1.012321296610063370e-01
-8.451812978778991403e-02
-6.749377205441457750e-02
-3.144616001708912256e-02
2.397345245665523025e-02
5.286986680672101785e-02
4.147484851310354048e-02
2.456691110856642352e-02
1.957920040705619924e-02
5.460109684619432208e-04
-3.754885946717743256e-02
-4.976615210447903059e-02
-1.856592243578698842e-02
2.111325769924948456e-02
4.507425914791743371e-02
5.170593157034484438e-02
3.348968578369410781e-02
-1.151818905934463670e-02
-4.506897385950112828e-02
-3.241173317310481333e-02
-2.043974775534517993e-02
-4.271626138169715842e-02
-3.908718267354261561e-02
1.964678950230076132e-04
2.134671352068887029e-02
3.627512316737715320e-02
5.685707509628447343e-02
4.066130256043024027e-02
-1.210847079291106979e-02
-4.631281732154719083e-02
-2.193159506755164648e-02
3.609499277216789148e-02
5.302283339239691196e-02
1.095932395808721024e-02
-3.086171377911623229e-02
-4.480214167371934786e-02
-4.786538770402609666e-02
-5.512590930353545443e-02
-8.890443420305366162e-02
-1.235425319616163808e-01
-6.866633966879506779e-02
6.964118230164377532e-02
1.606085904168641498e-01
1.454933049258697042e-01
8.743356107335099880e-02
3.964094469972670454e-02
4.352759410798819756e-03
-1.625306540517078985e-02
-2.656255693639742593e-02
-5.222774943195742509e-02
-8.250026658663070500e-02
-7.185938966823858520e-02
-1.949669950121123846e-02
3.330532177409083888e-02
5.340836349310472408e-02
3.724179899616114620e-02
1.796514441790474786e-02
2.880076221263057693e-02
6.070246322923247839e-02
7.349238443201511206e-02
4.425009944052175903e-02
1.254238399497584547e-02
2.927435121206686808e-02
5.666312552923472023e-02
3.485845842643314069e-02
1.510234022847811372e-05
-2.859328289732792835e-03
-1.173881548927674726e-02
-6.270660216199680503e-02
-1.246188760458847300e-01
-1.387255994946413051e-01
-9.438566355067133651e-02
-5.807896309657076261e-02
-6.817955738226059992e-02
-7.584183833178764766e-02
-6.600545325965771759e-02
-6.449726432984101421e-02
-3.722547750553396873e-02
2.729268684803424008e-02
6.968853880434121295e-02
7.573800486278667310e-02
7.959650852828938083e-02
8.712641264099588168e-02
7.911690297525253435e-02
5.069760222283357931e-02
2.503347332616656998e-02
1.138947497732308717e-02
-5.524897596572391281e-03
-1.399512246832536680e-02
-1.048474338692604972e-02
-3.888836055311101908e-02
-8.053746647564669070e-02
-4.128603951861802013e-02
7.448042428165725648e-02
1.584839821979385777e-01
1.605033003147400272e-01
1.006545228827313565e-01
1.379632545601565223e-02
-4.187529161163876246e-02
-4.385209066758766899e-02
-4.394928875062191487e-02
-6.605390277885081485e-02
-7.301432768252688610e-02
-5.068645639646259665e-02
-2.261906991433421457e-02
-6.076227765577981235e-03
-5.361669176626211383e-03
-2.582767036226708141e-02
-4.576164782406793446e-02
-1.908864208701579329e-02
-8.085635153408481102e-04
-7.300350903405716796e-02
-1.028062235632970223e-01
1.972069270065940003e-02
1.098158319796430915e-01
5.566709510628296137e-02
1.637464030661998915e-03
1.760490122947553845e-02
2.965174909339706594e-02
1.847751061971404304e-02
2.383485233566762229e-02
3.969749127532842814e-02
4.128097468813984178e-02
4.216996168651770960e-02
4.551053235519380430e-02
2.837355157809866996e-02
-7.595607949140330446e-03
-4.889358060699132424e-02
-9.496648973197566179e-02
-1.343475603441789956e-01
-1.380966984141094589e-01
-8.828357830735293621e-02
-7.087020615009159349e-03
6.253069327631366470e-02
1.039727470910725704e-01
1.176309932987867762e-01
9.067620107142808361e-02
1.607403998484701127e-02
-6.882002653492969024e-02
-9.673029274787600662e-02
-4.501107365944331806e-02
3.024268667115331127e-02
4.557307085727928947e-02
-2.183609235438813828e-02
-9.523490027617831366e-02
-7.775800522064665876e-02
3.966504908804086710e-02
1.630367569336357014e-01
1.816012889123017060e-01
8.901298939511013975e-02
-9.502914751551593854e-04
3.968266199427309543e-03
4.786785614519849935e-02
2.402815985916691849e-02
-4.758970130198636461e-02
-9.080862504884333608e-02
-1.019674536918297042e-01
-7.662623055827330609e-02
-1.517666258785735182e-02
1.110214647222560608e-02
-8.677892470782070863e-03
1.619464440686269741e-04
2.939762022595758875e-02
2.104508415162207463e-02
-3.590933249807366778e-03
-1.462954230577902942e-02
-2.670465761804844199e-02
-9.453318890127456603e-03
7.093953505428025885e-02
1.030869639448358105e-01
-1.181409355246181014e-02
-1.104539087131589520e-01
-5.943887268875472363e-02
-2.022006348079894572e-02
-6.375469262524925684e-02
-4.842916318894824323e-02
1.587762069964580164e-02
1.946156804377828856e-02
-9.805672856654092800e-03
-1.818911778486639527e-02
-1.864749238310079923e-02
-2.056627151813004983e-02
-1.796443229256484975e-02
-2.855360077633014530e-03
2.601250331760130569e-02
4.924883766423438641e-02
5.115924510465801045e-02
3.625752951711734562e-02
2.370289586266946177e-02
2.911881894707941260e-02
4.222191670050795542e-02
5.372473016930059964e-02
5.637183113366849019e-02
1.980209380274240011e-02
-4.655082207301924208e-02
-8.807697218422931573e-02
-8.883280939766960427e-02
-4.595603233427693335e-02
4.264017846123965838e-02
1.116522104068855548e-01
1.097019706475852452e-01
8.501020771207654092e-02
7.174043858458829803e-02
5.366726140708819037e-02
5.187111071730072381e-02
5.879771217530739558e-02
-2.025559921740739851e-03
-1.180185366486287413e-01
-1.808304403377464786e-01
-1.628305121181558568e-01
-1.202373029072181798e-01
-8.347510449280415301e-02
-4.240346465046707092e-02
1.424264988182132735e-02
4.987880934239423414e-02
2.247039191040684641e-02
-1.925288440211504401e-02
-2.872352380764676277e-02
-4.039730717542523719e-02
-4.093585240717226986e-02
1.083360214152789651e-02
5.927467335261443759e-02
5.011726639117816684e-02
2.360564978099057715e-02
2.296671609928475910e-02
3.160112386345793889e-02
2.462738766227453094e-02
1.534115372614998016e-02
1.646002540370141917e-02
3.195008975943484930e-03
-2.905754062792342829e-02
-3.621626610541422986e-02
-1.318602351141161776e-02
1.543292268242236510e-03
2.138780174977859133e-02
5.897669815508723573e-02
7.002655884552970444e-02
4.873480530745003675e-02
2.562649311557755119e-02
6.984724402692555831e-03
-1.676488321382922295e-03
3.911072737334207391e-03
1.680167082219807123e-02
1.393303234631157288e-02
-1.990030295429727827e-02
-4.075233516857704880e-02
-3.545505272441940720e-02
-7.179008465702006736e-02
-1.310986902589305614e-01
-9.873268276007600430e-02
3.107230716367787027e-02
1.461357787191030488e-01
1.693472854879926881e-01
9.906868451401754094e-02
-6.690606005570051348e-03
-6.261209989685237454e-02
-6.175621334028999487e-02
-6.510605662951679529e-02
-6.530949488441969986e-02
-3.101440338717554104e-02
-4.532224202573905195e-03
1.830975638115793155e-03
2.653314881767438599e-02
4.374766844252448578e-02
2.281586532179150778e-02
-1.149186053191018388e-03
-1.120877426717830846e-02
-2.989783771519713765e-02
-6.108228117477433605e-02
-7.008337628143893050e-02
-2.848550916224700316e-02
2.760487551525058272e-02
5.322040793216127608e-02
6.185388223868691637e-02
5.944087735063370570e-02
2.680903166707725854e-02
-1.210349729247554157e-02
-3.077183415064117106e-02
-4.351962670425315455e-02
-4.445516719338128003e-02
-3.965842677587819859e-02
-6.777471707949028756e-02
-4.717728207054434214e-02
1.004080922737564940e-01
1.828677849231195029e-01
6.870475208875109763e-02
-3.880560549619162247e-02
-2.303319219911372298e-02
2.314341303267962099e-03
-6.221106035054977702e-03
-1.232108979466705473e-02
2.383907358040484627e-03
4.367295688381973851e-02
6.698845998447977568e-02
3.302454846524473242e-02
-4.121283014147487326e-05
1.737533724116605699e-02
2.352502202668704800e-02
-2.613117624721593771e-02
-7.923301408339379626e-02
-1.046434448073789159e-01
-1.098507196680763576e-01
-4.023941524138988091e-02
1.293514688851966077e-01
2.136289219977463572e-01
5.003110179046975359e-02
-1.419267461187385393e-01
-1.151494089844719015e-01
-2.383281149842753077e-02
-3.871930450174663335e-02
-7.263749205529738961e-02
-7.284060089723137787e-02
-7.606706774378105274e-02
-6.765799462632345052e-02
-3.261171235022151949e-02
1.088450404981834707e-02
5.259182944074008992e-02
8.644044574418983939e-02
1.045153200446232444e-01
9.352968799544605916e-02
4.628324673914386428e-02
2.250882341886862627e-04
-8.660447536114685568e-03
-2.096257067716931696e-03
1.761831480692740981e-03
2.078230879842567214e-02
5.892054969181827889e-02
7.805924270743216931e-02
4.271514669218816340e-02
-5.184972470848163775e-03
-1.047179685122005821e-02
-1.303281626538497703e-02
-5.168664777371745345e-02
-7.042853138467823626e-02
-3.156936668991321138e-02
1.509091086455698408e-02
3.854516484477250177e-02
6.134075308779222274e-02
5.254748180905645383e-02
-8.874904892768986642e-03
-1.538852971588887050e-02
3.010873027418213208e-02
-4.331599210022957225e-02
-1.513009149428863886e-01
-7.784498577071974346e-02
2.992470977936894511e-02
-1.980232177663045906e-02
-6.712434640287251453e-02
6.591639443194890341e-03
5.928358016039803058e-02
2.619682268717304571e-02
-1.113787366110705404e-02
-4.422417748319187880e-02
-8.416316563129798423e-02
-6.303776282149053944e-02
2.801830093070562661e-02
1.089637487920750436e-01
1.224792523393025134e-01
6.083870464057043737e-02
-1.389224926016699446e-02
-1.799929856714546639e-02
1.589011674436452068e-02
2.354710235008674289e-03
-3.480838035468526021e-02
-3.691883193012712033e-02
-1.944689989527912527e-02
-1.169248768018966121e-02
-2.962654020303848862e-02
-6.597532799069023846e-02
-5.345614941358550060e-02
2.867518176553530279e-02
8.851055041236674525e-02
6.868424417599525156e-02
1.946339066531277417e-02
-1.429590736799785794e-02
-4.786715198941765559e-02
-7.590797739043014802e-02
-5.172719423780526571e-02
1.911353556722693303e-02
7.081171873300219632e-02
8.428676848128498211e-02
9.807102564031319747e-02
1.201411774056923704e-01
1.309389884263147397e-01
1.291916306991260921e-01
9.729669950157476821e-02
5.866966843140562077e-03
-1.140663112329580314e-01
-1.926377013279862438e-01
-2.033326081621005255e-01
-1.627892962477807126e-01
-9.539869572821986499e-02
-3.471797850274405128e-02
2.646541102520941907e-03
4.009765205009430122e-02
7.498432268834653858e-02
6.306725679313951449e-02
1.700241735635852833e-02
-2.622134143095177124e-03
-3.810448343657178369e-03
-3.483127901017481903e-02
-6.945873655609885455e-02
-5.372247693558489939e-02
-1.948350538604619667e-02
-2.840501601217472818e-02
-5.745652595950848790e-02
-3.408940641638381897e-02
5.300072171171904545e-02
1.270208577491529212e-01
1.272774555925325068e-01
9.346703617054683000e-02
6.815619591036631286e-02
3.388152682545285399e-02
7.124428013457818551e-03
1.433257501351065111e-02
8.439808035233880082e-03
-3.445561308010113705e-02
-5.530283655944636528e-02
-2.752256560809520497e-02
4.329156220134628211e-03
7.203485044342472325e-03
-1.605264994847939442e-02
-4.532254654678065375e-02
-5.202291438452583128e-02
-3.637588037235617300e-02
-1.609115218033688524e-02
1.331352001057533457e-02
2.257760899988450407e-02
-1.902932980752661957e-02
-4.384751492899750108e-02
-1.464996399317567213e-02
9.992087123308797392e-03
3.185896333089852789e-02
6.952153471254099437e-02
6.417711797865714718e-02
1.475597272692671762e-02
-9.547973401570942695e-03
-8.473741716851859035e-03
-1.537475945832336016e-02
-2.918149026743759034e-02
-4.932595882256931435e-02
-5.072423800975010139e-02
-3.849622659599951507e-03
4.164098934370209781e-02
4.584537067149910966e-02
4.219809972073852722e-02
4.202372095988871070e-02
3.856278722773644890e-02
3.408425631268670319e-02
7.991793052395067959e-03
-3.466189789346449390e-02
-5.624865536470279037e-02
-5.609757168996483412e-02
-4.991709444438283128e-02
-3.570857080023891184e-02
-3.551340438024606222e-02
-7.590271308687308871e-02
-1.130425307331164864e-01
-7.052605083209295689e-02
3.533656060220066730e-02
9.598021968085421185e-02
1.115485513273647838e-01
1.856590171535459910e-01
2.191761256705721250e-01
5.943167549362206314e-02
-1.139100504883609338e-01
-1.020904296612901996e-01
-3.329143489429355063e-02
-3.401613069085394903e-02
-3.414395333016447681e-02
-2.345925342991952295e-02
-8.047984898519000563e-02
-1.058769137682689099e-01
4.570148801139772843e-02
1.964213461115669190e-01
1.358496003106185457e-01
2.162522083717368857e-02
9.744856989781247938e-03
-1.963653944193842829e-02
-1.291551798338702595e-01
-2.040617065362878846e-01
-1.908000960401358692e-01
-1.293960000168769275e-01
-1.633000349909712740e-02
1.336135041838231730e-01
2.229285823596757199e-01
2.144416082287938230e-01
1.540282771232707182e-01
5.422595791029502510e-02
-7.191657396288854420e-02
-1.553580583880350141e-01
-1.521283261492602790e-01
-9.016851335249362331e-02
-1.403818078754043817e-02
4.750158165513827802e-02
8.355021922510555421e-02
9.652444987542629917e-02
7.021129020505875729e-02
-1.020547606687126352e-02
-9.674422284494726965e-02
-1.114896725201950239e-01
-3.976085298437929960e-02
5.856185049268569642e-02
1.177218622216483074e-01
1.134296926911544379e-01
6.019595297856943777e-02
-8.336588736992243953e-03
-5.669876047832402705e-02
-7.059089878764396309e-02
-7.601001178710432848e-02
-9.181570887357358435e-02
-7.165900051789425573e-02
1.839164372506251269e-02
1.047887064536723589e-01
9.451374394674329216e-02
1.229230365417048262e-02
-3.062743775195570992e-02
1.076451234505599285e-02
5.596188282148745891e-02
2.169732445736966692e-02
-6.138570247435059385e-02
-1.032953452508618003e-01
-8.897487003865678368e-02
-8.295366155867518743e-02
-5.335743301745865530e-02
8.055002338688174723e-02
1.766591401367226255e-01
9.040792959722526723e-02
-1.739210180746002254e-02
-2.538181447979766595e-02
-3.007733915223495536e-02
-5.181897980810781096e-02
-4.292387662074510779e-02
-2.808797567260613512e-02
-1.950376425811872066e-02
1.664260068792962300e-03
2.855354215486595459e-02
4.144816338407148609e-02
2.120284176766449799e-02
-2.171313398538677469e-02
-3.390774747790558513e-02
-2.870704016771776640e-02
-8.132036452679752836e-02
-9.828749087821188335e-02
5.513301539399131923e-02
1.894616248701578853e-01
1.161950597757969578e-01
3.332964768532246935e-02
7.218951600228570853e-02
7.278848645254737404e-02
2.615985069860007461e-03
-2.183511599500903219e-02
-1.411131206682745415e-02
-3.948100646668145641e-02
-6.466755570178789325e-02
-4.193443658905657290e-02
4.104691612908595993e-03
3.160536241012040087e-02
3.698421551605373531e-02
2.471369457548695803e-02
-2.164221121918640661e-02
-1.087573892187713304e-01
-1.790716479365936364e-01
-1.349580947765204597e-01
1.391366374169116828e-02
1.240794652852763719e-01
1.305786835673410917e-01
1.173331151760479418e-01
1.256433830793907414e-01
9.889085052344433191e-02
1.707146495543290093e-02
-7.483838101022188827e-02
-1.357222415514666991e-01
-1.506925940808112874e-01
-1.281294379494361257e-01
-9.049097631338294534e-02
-5.094746558372559297e-02
-1.182818387739265932e-02
1.577415756590837270e-02
1.797715767384213542e-02
3.709631703803745878e-03
-5.384076261245566639e-03
9.507650697388476263e-04
4.207139161369434499e-02
1.180047288810480571e-01
1.294841289708775212e-01
1.765667957150815828e-02
-6.344817252560605580e-02
-4.025142248433172254e-03
6.226794428871650078e-02
4.971303623779743663e-02
3.298714831157533584e-02
3.657270628782639810e-02
3.789393040973255966e-02
4.432511085275172430e-02
2.555520413281084022e-02
-4.719105382526888465e-02
-1.009167919720312945e-01
-6.471080900322799534e-02
2.316515653435295349e-03
9.078107281427938435e-03
-3.165328739744033976e-02
-5.022147462787333871e-02
-3.609206755088346236e-02
-2.072641938693638511e-02
-5.670181139808707846e-03
7.211731252118423231e-03
7.990301962802403776e-03
8.781849931516108598e-03
1.900494953920154641e-03
-1.202241137695340446e-02
7.848213952792781889e-03
3.795208777852933368e-02
9.774141870855269920e-03
-5.197894669388131161e-02
-5.479197562018638806e-02
3.925316450789248512e-02
1.491648064032843890e-01
1.516121690956825363e-01
4.406288911857850210e-02
-7.517623010184888710e-02
-1.406918349035619076e-01
-1.358272063412908071e-01
-9.476442360757081351e-02
-6.876002208907777691e-02
-3.668991241539291959e-02
1.275037947103459940e-02
1.183703317720069363e-02
-4.001104516494482718e-03
9.275899293227149456e-02
2.155057829793783075e-01
1.738503167245018521e-01
4.924255936054627164e-02
1.359673984520686635e-02
1.798230448815593685e-02
-1.728049030191173424e-02
-4.607820656180761087e-02
-5.806340123391515173e-02
-9.426780303056701837e-02
-1.199767527621710128e-01
-9.318108714184922259e-02
-5.136710221092762041e-02
-3.280328894087328195e-02
-2.301344878273292247e-02
1.768966737507772155e-02
8.823052154775974654e-02
1.315618265891509986e-01
1.337477636758380717e-01
1.094992252412140266e-01
2.594777284280476090e-02
-8.733242277222136307e-02
-1.266557968505344356e-01
-8.847081932308943630e-02
-1.488114186254633348e-02
1.072374601242840342e-01
1.654625199730022089e-01
1.870679787460279020e-02
-1.542122336342409694e-01
-1.470017210545286335e-01
-9.523038828902044561e-02
-1.033422999170124784e-01
-5.955299721901745336e-02
3.117558601305017371e-02
5.519465340270876541e-02
2.545572673085995385e-02
-1.061524623515094912e-03
-3.982537874195184874e-02
-4.887077422723933029e-02
6.367210609897264173e-02
2.200849789990739769e-01
2.554169552792924236e-01
1.716021034943968626e-01
5.664703522881372327e-02
-6.221427224139636225e-02
-1.431642663232923773e-01
-1.354191242502500447e-01
-9.138771115452701266e-02
-8.874383979069760953e-02
-9.558864346596571138e-02
-6.649747716976020517e-02
-4.463213712713163389e-02
-4.249794337224171298e-02
-4.316304526882641657e-04
7.838529825821630159e-02
1.258846138125399305e-01
1.292912961564867680e-01
1.236119840514852131e-01
1.059838488420034586e-01
5.928691782743131938e-02
5.409751707632741435e-03
-2.151427099357560574e-02
-1.092225578897106086e-03
1.217896284124409152e-02
-7.701190959387652080e-02
-1.743495591767416364e-01
-1.155365307610106973e-01
-1.064547060259967218e-02
-2.196236299408075784e-02
-6.739896068323791845e-02
-6.190698363958671568e-02
-5.281388180359484347e-02
-3.667604373883322916e-02
1.513119820070923764e-02
4.886777032836003842e-02
5.538419784728317030e-02
9.829979079575394685e-02
1.441823159766558449e-01
1.072265519617857515e-01
1.720897724771036988e-02
-4.652169041026497920e-02
-6.758976158520660360e-02
-6.217166831613443745e-02
-6.072154920171717735e-02
-8.660086702958307014e-02
-9.263628850756920607e-02
-3.236123573317156721e-02
3.080582207477915169e-02
3.560027622457635765e-02
2.241738747055838088e-02
1.415903631668497843e-02
2.576540889002753350e-03
2.965705276932588744e-02
9.819554833366332669e-02
1.342285994870006938e-01
1.037391647914150672e-01
5.179449175407355166e-02
3.271084491365025548e-02
3.881035665683666563e-02
2.741858886639395379e-02
-8.472607219148903940e-03
-6.188383065206187750e-02
-1.186209060879872268e-01
-1.247369872484201947e-01
-6.733789590341233977e-02
-2.113260072336401937e-02
-2.895518917628655403e-02
-3.929760012739165476e-02
-4.188611111461304666e-03
3.571703366606038266e-02
2.700566316709818865e-02
6.652083516561848459e-03
1.280472606904423279e-02
1.315812298995800399e-02
9.601980207147144467e-03
2.434822450316534090e-02
2.630280053272056676e-02
1.040203119485550234e-02
-2.431514211492111222e-03
-3.102265934934249347e-02
-6.566950982400501791e-02
-6.453232456069873946e-02
-4.019264376846606174e-02
-2.046859666695107632e-02
-5.496565201820795450e-03
-1.030915161919269095e-03
4.675018130255465670e-04
1.509964957027631546e-02
4.926166508867207972e-02
1.169157555131473403e-01
1.414567775347513323e-01
1.221156931605509206e-02
-1.326824522414646046e-01
-8.807309096119769753e-02
4.092219313662690677e-02
7.781241584246724463e-02
5.557234400795216939e-02
3.314164645129774600e-02
-2.896975557599423649e-03
-4.368707494479211889e-02
-7.010931139434700698e-02
-9.057022580580013915e-02
-1.038488388627935854e-01
-7.865621915164804079e-02
9.751455048375790371e-03
1.272711364991111760e-01
1.866463955151024812e-01
1.458541588754864726e-01
6.016838232523408214e-02
-4.400794154058554515e-03
-3.706916747770373777e-02
-5.491269162196234926e-02
-7.435322116886237953e-02
-8.398667624809096066e-02
-5.617410683254438208e-02
-2.112004788569322306e-02
-3.440799252645796585e-02
-6.503784603552961729e-02
-4.834559858116970615e-02
-5.822577311357853350e-03
6.961420833022103835e-03
-7.836601053125296160e-03
-2.311102580069159668e-02
-2.059841528720193077e-02
1.954536523056354252e-02
7.947636584719014463e-02
1.078430506391472032e-01
1.110398425490309315e-01
1.238517455736846823e-01
1.072260683543168891e-01
2.560134861886117705e-02
-5.129509405167155534e-02
-5.888688144599493746e-02
-4.147455009040010993e-02
-4.614750724082492678e-02
-5.049981395084358199e-02
-5.477879556036863162e-02
-7.721000286755645703e-02
-7.566684829985238780e-02
-2.994362785109972933e-02
2.523098064297994540e-03
5.336529399121601666e-03
3.967321613186217122e-02
1.140029769847091951e-01
1.393134096681478695e-01
6.187475142940514206e-02
-5.432401045321254979e-02
-1.200276548560742090e-01
-1.192205299949237879e-01
-7.334015770305096771e-02
1.211188016010925593e-02
9.078736707083982782e-02
8.228370259831738198e-02
5.160790484677692247e-03
-6.099395485998911071e-02
-1.064470920438244234e-01
-1.125860406666499419e-01
-2.216661602058902364e-02
1.094552810493395478e-01
1.570578687234980841e-01
1.137116678890275900e-01
7.008662821681650723e-02
6.528938573927209332e-02
6.168302379020559889e-02
1.678543345156873964e-02
-8.037951646213981061e-02
-1.747006060506547387e-01
-1.865448053556606478e-01
-1.477125393770545025e-01
-9.097683649922963522e-02
4.419982875095565533e-02
1.539948220791084454e-01
8.801416311941093196e-02
-3.881430635296882758e-03
1.649940357678029990e-02
3.369293365151652259e-02
1.127495683628263259e-02
2.365347723435441696e-02
4.234396539081718147e-02
3.841108786599139319e-02
5.464022171315125603e-02
7.732136640889088197e-02
3.965320750149807505e-02
-4.956732139416791111e-02
-9.407732455870287946e-02
-4.548327822764239303e-02
3.074616565294484294e-02
6.248993275442191186e-02
4.116762775564884735e-02
-3.011693007554625684e-02
-1.298414824622136088e-01
-1.740956180055038827e-01
-1.070799043243048365e-01
9.267405019362361801e-03
7.907156221914142524e-02
6.945891857372542277e-02
1.770158364544382676e-02
-1.325473230148434788e-03
2.803408038274046027e-02
3.533413525934094024e-02
5.438748005027819500e-03
3.034230528037357502e-03
1.875596955274915975e-02
-1.042357999977378512e-02
-5.128422999485175021e-02
-4.424150633651543346e-02
-5.254009858555901136e-02
-1.384137770808665235e-01
-1.607690873451839420e-01
1.541829693143502086e-02
2.024585147640484417e-01
1.793257983106830988e-01
6.222539666170885664e-02
2.701109698946211127e-02
4.504645668099583472e-02
6.059843736026569727e-02
6.309306385696375474e-02
1.061502375652092871e-02
-8.102567316843450884e-02
-1.108595529806049029e-01
-7.455329788527038926e-02
-7.017119632238291715e-02
-8.276640135489843342e-02
-1.618883814982067723e-02
9.184744969123045943e-02
1.376759098502418621e-01
1.286697614358541519e-01
1.191579699401884296e-01
1.013971383206051652e-01
3.852340549615984600e-02
-5.497434541479580966e-02
-1.086595188760667990e-01
-9.746453035802310483e-02
-7.383045726864517766e-02
-6.055606013660461834e-02
-2.856314450828960003e-02
1.036310241044446044e-02
1.901228496077129321e-02
1.853097393774037760e-02
3.378153720627558726e-02
2.218963963012678120e-02
-3.835671157401256137e-02
-9.622113119070267728e-02
-1.183040008431854168e-01
-1.247720006153381217e-01
-1.207068031971987448e-01
-8.041921548046332413e-02
-7.011067183409564613e-03
5.770196639038717434e-02
9.396181058508801254e-02
1.045539176555608379e-01
7.955884796316729790e-02
3.854353650597641678e-02
2.905616137201996740e-02
5.003030973042454227e-02
6.710416517638943812e-02
6.064642302043835032e-02
2.373380932969026968e-02
-2.057164087129201291e-02
-3.966853219277401144e-02
-3.845706223629612869e-02
-1.558835051546742130e-02
4.644252082808118798e-02
1.030075495016073567e-01
9.499262010429951331e-02
5.321670332549648108e-02
3.043009543238850423e-02
1.692015651276394111e-02
-8.798379020013133781e-03
-4.600395339856436228e-02
-8.207877585622436190e-02
-8.507257810454867120e-02
-5.445714725936226519e-02
-4.745027422603313727e-02
-6.941712184293624688e-02
-5.763224836487817332e-02
-1.246976004116850424e-02
1.097902960895802416e-02
4.470519245061567448e-03
-5.308223527568278061e-03
-4.753109131213659883e-03
-3.249594282576755144e-03
-1.810780977597091848e-02
-4.180998438186038502e-02
-4.571624446617290893e-02
-1.827638178781217440e-02
2.388067318645787501e-02
5.674084156393017359e-02
6.526677403609575101e-02
4.571038057179294123e-02
1.403689358351921379e-02
-3.010247357184327437e-03
-1.009397052685290577e-02
-2.633300819686611519e-02
-2.524830553435940955e-02
-8.461515705355335953e-04
-5.005106938521254253e-03
1.436679616463206605e-02
1.329300550891373278e-01
1.918375530089879155e-01
6.542613288189177978e-02
-6.464337904673728152e-02
-6.804449318455366158e-02
-4.209159690817031174e-02
-4.266388162905962456e-02
-3.057045220306577049e-02
1.211256019635737445e-03
1.307346565297569027e-02
-1.186590686943187097e-02
-3.364504718661122384e-02
-4.246711453667414982e-02
-7.100860381314037795e-02
-7.587430320627036595e-02
4.802685290540877928e-03
1.206689666974515296e-01
1.901128647581282749e-01
1.857541455631576688e-01
1.060176091521402991e-01
4.002789542172665790e-03
-4.106321807652738021e-02
-6.186250522528746743e-02
-1.399221272032131480e-01
-2.247242878759105889e-01
-2.229223943792584817e-01
-1.684530806642603185e-01
-1.311968165767631589e-01
-8.870067139936323175e-02
-3.968942251626913359e-03
7.426861777285093114e-02
7.925347603100250937e-02
6.432839202989261429e-02
1.328466563118541888e-01
2.029316239269534639e-01
1.245909176070850721e-01
2.732068498012232144e-02
1.019316848330456826e-01
1.768944273636058051e-01
7.075558370621973237e-02
-1.118431398887959581e-02
2.614735226698602921e-02
-4.430153245240740778e-02
-1.810844076343532394e-01
-1.464622211216359271e-01
-4.504904343160766322e-02
-4.804973453638923531e-02
-7.130123733986808154e-02
-6.091058996186180657e-02
-5.246477682053180686e-02
-1.926241422377054750e-03
9.762898536200806388e-02
1.469176406711252825e-01
1.059556460156612645e-01
3.752981482817325382e-02
-1.991812035308712474e-03
-5.361528616331288910e-03
-6.084430553814449208e-03
-4.246370977858417162e-02
-7.833624217649065580e-02
-4.975910333777077560e-02
3.105957091573048959e-03
1.716498807128276002e-03
-3.680587928987538726e-02
-4.700539600880976332e-02
-1.748788713926607841e-02
-1.230489639977325883e-02
-6.725629026130930388e-02
-7.677586470596835244e-02
4.965449697494702525e-02
1.860649741554753211e-01
1.726406194094244340e-01
6.537495239849354378e-02
7.346465730371500198e-03
1.123907337050224740e-02
3.854803658529491750e-03
-4.094428431852200484e-02
-9.001799735318084805e-02
-1.091819873967040389e-01
-9.351496225287111996e-02
-5.765393996589977810e-02
-3.034117105022564667e-02
-3.112212208977206337e-02
-2.538009312665327061e-02
1.485648853326721960e-02
3.056911903246311429e-02
-7.802739520578055865e-03
-9.861014358484330306e-03
6.600732485947204131e-02
1.157694842158212972e-01
8.098411445907735540e-02
4.678440449726366246e-02
5.715207749799456477e-02
4.834708060422050063e-02
5.984403247363906386e-03
-2.479228891275180729e-02
-3.810785682815041875e-02
-3.656514285680381726e-02
-1.732530932331064963e-02
-1.383820881016439505e-02
-4.601015758545962814e-02
-7.442098377890712935e-02
-5.597302241333625833e-02
-7.123195264266807790e-03
3.198995075126642718e-02
6.802377238623574796e-02
1.000055798027910670e-01
7.824736063030518496e-02
1.274176152390051053e-02
-2.621129613724127588e-02
-3.123364630859991331e-02
-3.098733387697708008e-02
-1.193005613650050326e-02
2.155220775185813162e-02
1.579414145034906819e-02
-2.867979850392424895e-02
-5.555569079231067325e-02
-7.362038829983411081e-02
-1.139791964188688611e-01
-1.298569102810603892e-01
-7.339587687659697435e-02
3.044066387869763524e-02
1.176812406176495213e-01
1.361989491786456397e-01
1.006104843812363481e-01
6.241192726181706008e-02
2.030046350518893358e-02
-3.269822308019373208e-02
-4.970600494207185610e-02
-2.117081147163630758e-02
1.065934200214143854e-02
3.473240560274153815e-02
3.947856535059270783e-02
4.208411683483325935e-03
-3.374843473716734182e-02
-3.751186727568098234e-02
-3.575030780642672601e-02
-5.725225744888810808e-02
-8.501547624175191664e-02
-7.452164937039801318e-02
-7.930901145203466188e-03
6.527789609663198211e-02
9.922224923987990608e-02
1.061158881740287829e-01
9.961070653238474071e-02
7.191080685426268215e-02
3.045928206308750816e-02
3.306845276373877873e-03
-8.418274525586955798e-03
-3.646144405498893959e-02
-6.919829689311327026e-02
-7.171466922960252621e-02
-6.647106089260261530e-02
-7.053068173399759666e-02
-5.755566644647738817e-02
-3.617898196018898282e-02
-3.296282854560904363e-02
-2.650854900967846567e-02
1.206972808904830524e-02
5.252545437519033633e-02
5.130735488499818531e-02
4.616830174652654384e-02
8.417887901161216768e-02
1.019228500767057760e-01
3.758792540760017009e-02
-3.594705708281053375e-02
-2.623787944205099865e-02
2.931787025203770949e-02
2.818173287629429855e-02
-3.361221702567879915e-02
-7.249489131478392689e-02
-6.978035178548733231e-02
-3.594763763032519932e-02
7.590627509766070813e-02
1.724039476906510937e-01
7.012871134300630027e-02
-9.504389163621029812e-02
-8.554959102549336558e-02
-1.382066902207972070e-02
-2.937534947524293033e-02
-4.130820806729658401e-02
2.918005811977923691e-03
2.547870620164287975e-02
3.963770820066245953e-03
-7.632879626077257278e-03
-2.564759478440678791e-03
-1.361977683195662869e-02
-2.871890247175950053e-02
-3.675380761440115440e-02
-5.251250927018978609e-02
-4.990172772871082768e-02
4.756998603864395032e-04
6.402559812999457367e-02
8.428923526488980855e-02
3.293427135335791345e-02
-6.445595582057185580e-02
-1.246662223398164876e-01
-9.207079694452999230e-02
-9.452420617884517429e-05
8.307236923994842925e-02
1.094272138276522338e-01
7.862489622414423063e-02
3.830899692170785381e-02
2.640713135849004009e-02
4.078420602330842804e-02
4.380001846551593442e-02
-3.352760924469230103e-03
-5.945391186478107132e-02
-5.600961090460319924e-02
-1.489207045119963352e-02
2.153518250143848789e-02
5.169562428273041105e-02
5.425313654662509977e-02
1.684986031043424204e-02
-2.507514416216034131e-02
-5.066736957044667283e-02
-5.798140077316705360e-02
-2.283971204890710566e-02
3.904504349248248685e-02
4.838721489339969928e-02
-7.781668146848309819e-03
-5.470495666058272644e-02
-6.644476920822396659e-02
-7.116039809964044838e-02
-5.811792630188583608e-02
9.844948356463295580e-03
1.147572148685492149e-01
1.603299749616631520e-01
8.752985039390967503e-02
-2.211960428394080941e-02
-5.824286752783906784e-02
-2.069532281178566510e-02
2.259206495946423573e-02
2.444842420523955090e-02
-2.676516656774009101e-02
-1.037750836818898958e-01
-1.431729619807695086e-01
-1.132845221826710436e-01
-4.197012504172584202e-02
3.954290350730087222e-02
9.845627973996348703e-02
9.731178663246753402e-02
4.140770272242722677e-02
-3.515412451320280851e-02
-8.803712724248689836e-02
-5.928945764564474974e-02
1.941720672357806141e-02
2.361504011583110893e-02
-9.661819491657050452e-03
7.876276502258200418e-02
1.945054093298679843e-01
1.432800745358821515e-01
1.546499578462216459e-02
-5.195800982902251675e-02
-9.805122646510196216e-02
-1.217229625656596620e-01
-8.101366216265529219e-02
-2.572146132084134756e-02
3.957058640146265266e-03
1.620317827797346233e-02
1.333735419356846946e-03
-1.868237979145038336e-02
1.583759125014562452e-02
8.538261318645405662e-02
1.021986164891975080e-01
6.053390422130547344e-02
3.161171485310673018e-02
1.752991848644581963e-02
-3.012474698449824767e-02
-8.837417831661716072e-02
-1.003414884593617495e-01
-6.740308540006595406e-02
-3.036600193634266323e-02
-2.149701186858176544e-02
-4.413912200711928024e-02
-6.855069616886830253e-02
-5.713834130247973098e-02
7.701435291153001413e-03
1.125203098894221460e-01
2.008636849853082107e-01
2.070605989256314172e-01
1.385541536548107466e-01
6.354488114652391550e-02
1.966619952156608425e-02
-1.089975398196520173e-02
-6.997193296521551920e-02
-1.536543241930953263e-01
-1.872387809822528837e-01
-1.353035784072038616e-01
-5.322349161876587659e-02
4.327518451799064123e-03
2.758928246434583231e-02
2.210227013426039819e-02
6.945802842261289411e-05
-2.700731516853299014e-02
-5.486391421102293497e-02
-6.087518036693833484e-02
-3.096268633340997986e-02
