-5.735722424049348109e-03
6.429075039518009765e-03
-2.209348393272042924e-02
-6.719731766812603313e-02
-9.326552816718082506e-02
-8.162905300058645452e-02
-3.972187752331350630e-02
-1.381130105151333679e-02
-1.897931626073513095e-02
-1.729024379603884623e-02
7.554910884668281090e-05
6.272374274710976888e-03
-7.114371388813834837e-03
-3.952354800094040610e-02
-8.752947834062786703e-02
-1.084330673717766591e-01
-6.420459816999367353e-02
5.988953591075303270e-03
5.187956585823465250e-02
9.240466994532436917e-02
1.460447043382913368e-01
1.507705402380287996e-01
5.224782637379482564e-02
-7.074023001802542954e-02
-1.075378194022984929e-01
-8.186123217239842098e-02
-6.045743179539124490e-02
-1.944096752778646034e-02
6.293806424937445354e-02
1.231510283899049374e-01
1.046616108395267558e-01
1.717550451381769094e-02
-1.024162650927390589e-01
-1.804522940205997572e-01
-1.339363742107764210e-01
-4.631064523906887331e-04
1.021133991719961331e-01
1.461174530370436819e-01
1.475656276290953639e-01
8.154607204583075308e-02
-1.648451966922886286e-02
-6.668595370779133169e-02
-7.579279998318740053e-02
-6.546357022887547283e-02
-6.707483004176797992e-03
4.517119158510476268e-02
-1.418195190460458388e-02
-1.181820580614098559e-01
-1.099907907592244660e-01
-1.140453806867685119e-03
7.701534966669083826e-02
7.005857229911183204e-02
1.935269339784635029e-02
-4.284587189922552802e-03
2.961687269253601706e-02
5.890424634730475478e-02
3.090147657372212253e-02
1.203714143809267272e-02
4.457335626164881520e-02
4.749392214748381774e-02
-3.332165327992800234e-03
-3.416523920261817227e-02
-2.731548681935236020e-02
3.185958967438784484e-03
5.658383016991849757e-02
7.399504743565073206e-02
1.635627263826648636e-05
-1.175362404617939921e-01
-1.769390454469218499e-01
-1.155660878638574696e-01
2.418039972935823873e-02
1.458635495000022431e-01
2.076826311456341223e-01
1.715439168714636142e-01
1.716629048014470249e-02
-1.300241538043175327e-01
-1.517576846351699205e-01
-1.170921071100166078e-01
-1.330239240927579558e-01
-1.866618195870106689e-01
-1.854506994232251182e-01
-1.023145669993099360e-01
-3.963096443062931462e-02
-5.107587432644561387e-02
-3.109671582315451724e-02
8.820529854162414973e-02
2.242485653991357908e-01
2.930371136193313797e-01
3.045254552847916352e-01
2.936169573456888782e-01
2.442717930267501725e-01
1.300704895490051860e-01
-3.586861317103260532e-03
-1.016758056352111139e-01
-1.789816997531727127e-01
-2.337143790202781402e-01
-2.341164478649739589e-01
-2.234268526258593734e-01
-2.409273073865822457e-01
-2.166173237964643672e-01
-1.057880146443294506e-01
2.818288448016690456e-02
1.268120062760088596e-01
1.724187492708206815e-01
1.634181547707470317e-01
1.409496727037435615e-01
1.296084064552995296e-01
9.404423786144823494e-02
4.598214420104373285e-02
4.063850569864225354e-02
5.433237733820150961e-02
3.962709074973232160e-02
1.653168665968789142e-02
-3.245101070501962143e-03
-3.455536575755287915e-02
-4.780648917519118857e-02
-2.807754821329566663e-02
-2.620146354054557480e-02
-6.567282559163711841e-02
-1.165094356288983446e-01
-1.468332761462124436e-01
-1.214930700600861391e-01
-3.532854674485996771e-02
5.209038147582919359e-02
9.012451593117874749e-02
7.760816806663781153e-02
2.138905042169358256e-02
-4.136429082198193885e-02
-4.586799975050609435e-02
-8.670896366078418432e-03
-1.462603697356956722e-03
-2.075617350801859176e-02
-3.021890506560878653e-02
-3.089928026079142437e-02
-1.644556756200909672e-02
1.697127454104233046e-02
4.345835292334349065e-02
5.912291537768844807e-02
7.788191857687552788e-02
7.273965936632943718e-02
3.374299472637770636e-02
2.268623528389404273e-02
4.819283944808321757e-02
4.419089046755089040e-02
1.605219230186009580e-02
-6.039124623167059502e-03
-4.225216109323826075e-02
-6.354735309919370967e-02
-3.346054396208161114e-02
-5.737932717317343820e-03
-2.213063141127434574e-02
-5.320310416590194602e-02
-5.432587832787363902e-02
2.210625234960353173e-04
6.047423370354781252e-02
5.198288492705397529e-02
1.475114300802943430e-02
3.302665887615908926e-03
-2.886649791400233006e-02
-7.924457513860652669e-02
-7.391149693328798176e-02
-1.899503248912706027e-02
4.007990964773203157e-02
8.234610404991744848e-02
6.521524892383107064e-02
-8.887384820308265668e-03
-5.447743647783781507e-02
-2.753095082031731256e-02
4.131994938823629893e-02
1.012995423498503772e-01
9.210627846208388481e-02
5.323622057406834571e-03
-8.673802117833276371e-02
-1.101352883797851595e-01
-4.127889705994387815e-02
5.701989170926770323e-02
7.006054401566697010e-02
-8.715963709332280596e-03
-7.129637547545636389e-02
-7.071238709854703319e-02
-4.609213584718262202e-02
-1.964763662869932134e-02
-2.967864258927871510e-03
-2.026059206541576049e-02
-4.206993321588840123e-02
-3.094372128539610647e-02
-3.037761856452834280e-02
-2.301716012261411509e-02
6.694364345981411446e-02
1.304317040798340932e-01
6.534356807799851508e-02
1.173378373499990926e-02
3.726715308879640504e-02
5.243657680523532150e-02
4.601951332123661170e-02
1.238824355737149115e-02
-9.457560905528193673e-02
-2.066212864965820961e-01
-1.730331528609879155e-01
3.602401950587853785e-02
2.416889700434905197e-01
2.505500687014916017e-01
1.002747563915558360e-01
-3.708551444400269570e-02
-9.543075376726861681e-02
-9.707520630731528155e-02
-7.566444213292135290e-02
-8.849936081025634727e-02
-9.141756866987524321e-02
2.511507872172854053e-02
1.385512264555628648e-01
8.852004043418097712e-02
3.139073353325434745e-02
9.311158034243920134e-02
1.222550322520613991e-01
4.593563496441260136e-02
-3.515544460886519534e-02
-5.828803617773902629e-02
-1.951592638366386051e-02
4.674988435377591678e-02
6.970431050779665738e-02
5.020026202449866942e-02
4.642630275883674607e-02
1.142105496398292119e-02
-1.026601040095290324e-01
-1.385967621914012127e-01
-1.627359851467248195e-02
9.459864990887734831e-03
-2.103338450888675992e-01
-4.510375163134073828e-01
-5.243067811566474168e-01
-4.522867229626182373e-01
-2.632539065316728544e-01
2.044104915066757844e-02
3.161020994184003952e-01
5.208772995141431883e-01
5.676144557584137385e-01
4.804873577297937848e-01
3.436917151949783200e-01
2.051861195355688394e-01
8.356150691063972402e-02
-9.494593023781014440e-03
-9.842463249533325853e-02
-1.901015682903734183e-01
-2.317569079426176903e-01
-2.096914088484501670e-01
-1.875334657615682632e-01
-1.813432774933264602e-01
-1.285261877811397779e-01
-2.781058759047735918e-02
4.744980608933187238e-02
8.511826239045104658e-02
1.171834064143812137e-01
1.214432104936104262e-01
8.136310737466795340e-02
4.816325759198082646e-02
5.704469139007203177e-02
9.294307819807251514e-02
1.421427465242351695e-01
1.297142167919810296e-01
-2.630748433544394943e-02
-1.689159512147449249e-01
-1.180707716451095679e-01
-2.908732075866520689e-02
-4.873325296358938657e-02
-5.823739840695083686e-02
-2.026059399261811653e-02
-2.278081160703872288e-02
-5.076562934364122620e-02
-6.580712206949908272e-02
-7.103836909417124423e-02
-4.953580942699563339e-02
-1.977179400659261066e-02
-1.872418867654327898e-02
-2.006466820794189365e-02
-5.437331625139674510e-03
1.031154035783647845e-02
5.660869124321242507e-02
1.389607687889502785e-01
1.642360020387015895e-01
8.378764402172046710e-02
-1.502483793006735742e-02
-5.926987775688037641e-02
-7.497185816693148486e-02
-7.931006044957193690e-02
-4.953798111338658661e-02
-5.938957745162398716e-03
8.316534106033016994e-04
-2.081640466680068080e-02
-1.932514932719437556e-02
1.353276421142558979e-02
4.772303377021785281e-02
6.387089752338272197e-02
5.413616228321686819e-02
2.833169385677023616e-02
1.656560205621713383e-02
3.206399486624134099e-02
5.207397390484263394e-02
4.532291069316576881e-02
7.249886393489441208e-03
-4.789625365056868200e-02
-1.051435701247303428e-01
-1.165656117811575410e-01
-3.659192407816804632e-02
6.081348721691366699e-02
5.271037624891482254e-02
-3.134162062545203103e-02
-5.700875511083731279e-02
4.820018424825159992e-03
7.202664576591095991e-02
9.819799957737808394e-02
1.087626184894094072e-01
1.010540713034239063e-01
2.521220683284799285e-02
-8.443263072320737750e-02
-1.268228116617889367e-01
-1.048167400984060665e-01
-8.426337501146895226e-02
-6.989836623533521309e-02
-4.876368985738459977e-02
-2.184882872126393816e-02
1.120225390202587469e-02
3.235884796142367292e-02
3.685425197092788430e-02
3.500303062363959578e-02
-6.484379603082604006e-03
-9.629856344301158944e-02
-1.481317851627793059e-01
-8.552811361826702374e-02
6.530185131636760676e-02
1.833527266561136293e-01
1.516903782470870043e-01
3.454887416000236577e-02
9.639322011894671527e-03
6.752025849791246093e-02
5.278954158426046872e-02
-2.747396713107700880e-02
-4.080471033110658063e-02
1.991298174087441711e-02
4.768118727503985882e-02
-7.803900958402458857e-03
-9.826839925614271054e-02
-1.627358520937823849e-01
-1.635713064237291625e-01
-7.370492199564099289e-02
4.638454603082019928e-02
9.344639291525920488e-02
1.099611486273535110e-01
1.693722709930148562e-01
1.802590094291663669e-01
6.589701010417861604e-02
-8.801554651612020219e-02
-1.727461119565890657e-01
-1.310428065836802269e-01
3.175510209757811259e-02
1.814437448152444732e-01
1.820499603234425612e-01
9.660959284400487401e-02
4.821101164550215673e-02
4.397576790830740046e-02
7.564728306146312198e-02
8.842056158633912477e-02
-2.962178471048813183e-02
-1.624024812949260710e-01
-1.195622821325860868e-01
-4.158595798591296910e-02
-1.081493361914034057e-01
-2.040652114864155153e-01
-1.971187532878892479e-01
-1.297663091789511558e-01
-8.307760090532372022e-02
-8.558753232084244378e-02
-1.154899583614936720e-01
-1.402918253073482946e-01
-1.544851710044524151e-01
-1.469639823030197134e-01
-8.249803545788904346e-02
4.442124550845715641e-02
1.936422690453121764e-01
3.275739942889441814e-01
4.506542495179212682e-01
5.647330993280015310e-01
5.747444442213136551e-01
3.860924215455142638e-01
8.052115801598434819e-02
-2.049209625517846023e-01
-4.210284235654244700e-01
-5.202252124989664717e-01
-4.835772087787376661e-01
-3.884433626852901167e-01
-2.846028208267097903e-01
-1.506291780003097269e-01
6.176584605604096972e-03
1.381680399445257834e-01
2.239409155327186096e-01
2.681174934231055351e-01
2.601846814174494371e-01
2.116061879810557378e-01
1.776459000284414946e-01
1.719804448653080298e-01
1.373174347853499955e-01
4.280973240895215998e-02
-5.144444057841603135e-02
-7.738376595362389532e-02
-6.191176385546488803e-02
-6.899345008256482781e-02
-9.143868399846495632e-02
-9.548837419934126658e-02
-1.008669588122158844e-01
-1.217126307304232657e-01
-1.211294079156304687e-01
-7.981122958388035815e-02
-2.115486074189375926e-02
1.978842492273926931e-02
2.056605616047308543e-02
2.135246495511958220e-03
-4.173211330518691864e-03
-9.332147217265628070e-03
-1.803269403735987403e-02
3.513741697301685923e-03
5.578878090284889596e-02
8.326128088158210594e-02
6.124632063486691591e-02
3.182965942414532623e-02
1.781051601256403508e-02
-9.960410762538469270e-03
-4.229139376672831629e-02
-3.956906311374971952e-02
-3.214339244253296146e-02
-5.664934789203907722e-02
-6.312536880385767601e-02
-2.546174604254733062e-03
9.393460230487568619e-02
1.542916261687601598e-01
1.337178468456082514e-01
6.029393411042925643e-02
5.303305672868941466e-03
3.441137911882587164e-03
1.651005230525017659e-02
-1.305286995024283400e-02
-7.088337465271540849e-02
-9.551376517665750854e-02
-8.350011839698280591e-02
-7.154007987117720624e-02
-5.720157578209910526e-02
-2.978652669366754768e-02
-1.097107104143056795e-02
3.255614085008330660e-03
3.134061996040667791e-02
2.647447049454071388e-02
-2.413788638766283662e-02
-1.775282012586806499e-02
6.873604259978224884e-02
1.079219917205186952e-01
4.861775903746641536e-02
-2.204364922440835844e-02
-3.940362557972735408e-02
-1.072213336949255115e-02
3.085629724582137148e-02
4.228210691396995513e-02
2.672913345245784417e-02
3.994065388061431715e-02
3.257934717899953897e-02
-7.575422845129366201e-02
-1.253803338235855436e-01
3.290513612154079282e-03
8.533115092964202453e-02
1.548679965084657703e-02
-1.728858373763182688e-02
5.522721800470359668e-03
-3.064145977957911937e-02
-5.838715322452051742e-02
-4.489460458319046582e-03
3.928450085193766622e-02
-1.828106021765389319e-03
-6.786648004531002643e-02
-7.064620807028483551e-02
-2.275019982517745981e-02
-6.828627303169514107e-03
-3.410809625572350234e-02
-2.977191297565625130e-02
3.306312935163160938e-02
7.704312904120425021e-02
4.863017825129176130e-02
2.019665891643167982e-02
5.239101312138264716e-02
6.125403400409366872e-02
-2.725037973400677022e-02
-8.571493564444611357e-02
4.273586232916080918e-02
1.922367322596822137e-01
8.216073452819246115e-02
-1.380451402346967449e-01
-1.682440314623359634e-01
-1.105270663819504923e-01
-1.211324904811368758e-01
-9.071348478059328146e-02
1.850992876857352268e-02
1.072703174950899035e-01
1.557366498417634970e-01
1.807088882984629052e-01
1.656502947681554594e-01
1.115520518858184179e-01
5.372638455498192356e-02
3.233818735226689361e-02
3.633882367948897130e-02
8.994980167216741831e-03
-6.518304508820318977e-02
-1.525617217798560521e-01
-2.025564843616705635e-01
-1.569095853533752916e-01
-4.489207534291111967e-02
9.331462986895119882e-03
-2.530958299576546375e-02
-6.561219667458922933e-02
-9.283491205538434154e-02
-1.471772322191708948e-01
-1.777574470852471278e-01
-9.541504805001348177e-02
5.878712508050065733e-02
1.859696156130659639e-01
2.618082695113507219e-01
2.639691274328124226e-01
2.127512446245420630e-01
2.202032847843696794e-01
2.157560679307728990e-01
3.024644654966787000e-02
-1.488477490840725836e-01
-1.053788376353677197e-01
-6.885557896713892512e-02
-2.027330758842000868e-01
-3.056908016083569879e-01
-2.962438873244112592e-01
-2.739651439921509390e-01
-1.999747477110462024e-01
6.340754948424169590e-03
2.124369439987287000e-01
2.239965500502318074e-01
1.342787647535587658e-01
1.500958712483213275e-01
1.964778869753061319e-01
1.365978441294581625e-01
4.400669467286331960e-02
-1.587955613004866581e-02
-5.724446752240966441e-02
-6.423087265100774212e-02
-5.925658289525358169e-02
-3.873164024701304664e-02
6.983754790847193639e-02
1.561647067233417896e-01
5.760409418157799027e-02
-7.831861452530969325e-02
-7.525167721237241425e-02
-2.896848507661923741e-02
-2.078988497623339773e-02
2.062800972750057204e-03
1.936299167244500546e-02
-1.948139398656954790e-02
-5.615382148670405860e-02
-4.378678700544509639e-02
-2.543223670315135007e-02
-1.662701871842894169e-02
-1.000350518942785816e-02
-2.815487197696492014e-02
-4.472552960136712275e-02
-1.502125596315915732e-02
3.062443313717353593e-02
5.563162796917038577e-02
6.047724783254275482e-02
3.928540436502265393e-02
-6.439484454495237112e-03
-5.872306949793922037e-02
-8.388916787211045389e-02
-4.186776934640672881e-02
2.786617850983671638e-02
4.275322802259733795e-02
2.836232628757646285e-02
3.997327656607723573e-02
4.199550061157520525e-02
1.330489892196519246e-02
-1.270587781549702491e-02
-1.133379212045763224e-02
2.459698036897511181e-02
4.354993453519361707e-02
-7.867319736694126930e-03
-5.416851217431869342e-02
-1.228384257571232645e-02
6.100722612926910704e-02
9.216322404759541564e-02
7.765713840074320307e-02
2.761334118507981564e-02
-2.988900024925448748e-02
-6.098549594031355686e-02
-7.741564301518205626e-02
-1.082441110244597993e-01
-1.508808558435485170e-01
-1.579145760106675511e-01
-1.202009362916146018e-01
-1.248688057305985533e-01
-1.304302692531634222e-01
2.984152468384388551e-02
2.242581512727125914e-01
2.149720269224074387e-01
1.481825627282029878e-01
1.838460625912276269e-01
1.763009106674608140e-01
8.085957423327917726e-02
3.108154262153320704e-02
2.675555216717500837e-02
-3.028334030883029354e-02
-1.316708209923987682e-01
-1.658827842605422598e-01
-7.613418788161727124e-02
4.058985677709246037e-02
4.712642142470266360e-02
-4.773253451547793125e-02
-1.067967745501511995e-01
-6.006506477492030288e-02
3.263544495229531855e-02
1.071597179929724003e-01
1.314168555245481262e-01
7.290870725321563217e-02
-3.711978480347217363e-02
-1.201841531415316633e-01
-1.459483548352724369e-01
-1.103988328777814609e-01
-2.880608183319028140e-02
3.617929088933512921e-02
3.776639541543392459e-02
-1.392981667733834798e-02
-6.353352908855645909e-02
-5.871196324295096386e-02
-2.135599684523921057e-02
2.394564653937820628e-03
1.508866008267745369e-02
2.822021057976996372e-02
3.946217528396062796e-02
5.531081638583583426e-02
8.372772832785127517e-02
1.118567813428217317e-01
1.108315084796329397e-01
7.179369336289109782e-02
3.318280019451322338e-02
4.008114841582671034e-02
6.139884622084648691e-02
2.503731557226330368e-02
-6.481390725255271879e-02
-1.496791730195315417e-01
-1.889484580666463132e-01
-1.472862157057043264e-01
-4.246973756511308179e-02
2.246401428103505724e-02
1.849157473078410011e-02
3.982098039285228430e-02
9.615573079942159318e-02
8.864753544154395370e-02
2.321112291253313309e-02
2.893703452937354797e-03
3.000903550913570222e-02
3.413294914974691202e-02
3.230788552236285582e-02
4.701650411186145823e-02
4.795626763783891917e-03
-1.001717672580420132e-01
-1.687075131375121162e-01
-1.746834724284242191e-01
-1.401431708326172365e-01
-4.934289393830668113e-02
5.581109516575433194e-02
8.060511648849158495e-02
2.094213391083306341e-02
-4.063277543644023410e-02
-5.500719968422983913e-02
-2.736606336363297046e-02
3.529036632120450406e-02
1.109436480830281457e-01
1.605617583802277371e-01
1.949074684049889039e-01
2.526970748068685935e-01
2.992641827781729047e-01
2.239374962095534161e-01
2.534684695610386722e-03
-1.950640313206105925e-01
-2.387895617089599298e-01
-2.217931566066923543e-01
-2.367057951535676275e-01
-2.600905025091246325e-01
-2.720891832736781479e-01
-2.576721344365260902e-01
-1.821604482374755418e-01
-2.380076370179174186e-02
1.807688898342472150e-01
3.200335853997613444e-01
3.254224829679744913e-01
2.522356885216104905e-01
1.763798025420363069e-01
1.064638357929064139e-01
3.242910857760501753e-02
-2.688553766683410284e-02
-7.004117031914230962e-02
-9.631793827318382850e-02
-5.990007945235531484e-02
-1.242213236078832175e-02
-7.507174780847659934e-02
-1.406862508343312002e-01
-4.588224626428988318e-02
5.896322748500763128e-02
1.115389337601811748e-02
-4.632539266426550367e-02
6.961791928659339691e-03
5.370423421537089820e-02
6.968751633267843137e-03
-4.179958481013901911e-02
-1.411252442573563554e-02
2.879725511175923111e-02
2.304658033743970519e-02
7.482222360509195591e-03
5.933304231449846623e-03
-2.615007885623065950e-02
-7.260540793677359994e-02
-5.516592611613265612e-02
2.331116042733030053e-02
7.535801026687735660e-02
6.281616153076942377e-02
4.122633867873130853e-02
4.353406249401840789e-02
2.244118341201989733e-02
-3.088333253899618741e-02
-5.537459017103477793e-02
-3.649354471309974174e-02
-7.663299405052949667e-03
1.655325783179225838e-02
2.586261759860106896e-02
1.843550040312345178e-02
1.277898568106691952e-02
1.241243572026275686e-02
8.071040905447871006e-03
-5.061367460164973610e-03
-2.730551922612662469e-02
-4.136787374606062245e-02
-3.494256462476209857e-02
-1.446957683730911229e-02
2.992574596761140432e-02
8.539859384796411046e-02
8.729982570592978441e-02
2.446625511758349775e-02
-4.114207948730810860e-02
-7.934117946845251068e-02
-8.867160339237595279e-02
-6.283858360676107535e-02
-4.071221606291882539e-02
-7.528540499000875574e-02
-1.318906844968798786e-01
-1.233123725605416166e-01
-3.609770906261774992e-02
6.060830473957685982e-02
9.772181468229287904e-02
6.532693197718589251e-02
5.527533872676053395e-02
1.454060223588405087e-01
2.160558732769605750e-01
1.539327580204405688e-01
8.588172488292206141e-02
9.610313985586461938e-02
5.479090289326356278e-02
-9.115175736070270374e-02
-2.067711446646654516e-01
-1.847988045812096192e-01
-7.439433258340789890e-02
1.381163181117121483e-02
4.972811499705204197e-02
6.472284752516103967e-02
4.861579791796347833e-02
-1.718282665339171053e-02
-8.375800856979033482e-02
-9.688856024836293990e-02
-6.403415213850856269e-02
-1.790809586226406458e-02
-4.056919497114411244e-06
-3.519222229783585537e-02
-6.833519908579442637e-02
-3.251062079831527896e-02
4.239510941339934280e-02
7.920358484825029688e-02
4.772386900508321372e-02
3.763676983071045229e-03
3.815615491352965238e-02
9.051587614509987167e-02
-2.126651753836991329e-03
-1.670585832666240944e-01
-1.906499706445372033e-01
-6.362602576174725133e-02
8.702358103697159508e-02
1.546673221810722920e-01
1.470379573222985181e-01
1.843575300423768992e-01
2.289477740996521127e-01
1.281009178962707051e-01
-5.675322184870623676e-02
-1.583649994871161315e-01
-1.428784197664225153e-01
-6.340376726672221352e-02
-2.660221513396774165e-02
-1.002435811923304693e-01
-1.369773243551186959e-01
-3.518423065948166062e-02
3.020663794445496014e-02
4.574147229968780759e-03
4.354500222550357347e-02
1.197204493565201533e-01
1.076907415814855051e-01
5.308435716540684662e-02
4.510881082147238930e-02
5.982516893629682281e-02
1.580924643962984197e-02
-1.038963612669138031e-01
-2.070849807795347441e-01
-1.948984897374581304e-01
-9.262184409860052536e-02
-1.332937416493884183e-02
-1.061068276703876906e-03
-1.198441939495041922e-02
-2.485271543034303643e-02
-3.478127285062296986e-02
-1.378968209082423978e-02
2.070851393718993461e-02
4.331087821220240552e-02
1.144147715847653457e-01
2.378124684433340075e-01
2.813161904168313132e-01
2.048305326010715355e-01
1.102543590380285210e-01
3.556259353675567114e-02
-5.542087707434746602e-02
-1.558979981458679664e-01
-2.269300957918309325e-01
-2.606528156599158819e-01
-2.652568534841445724e-01
-2.162099166684693374e-01
-1.114657986627012737e-01
-1.063593058436473372e-02
5.735189451148882400e-02
9.573809581913074462e-02
9.034388592432313070e-02
8.958975872767441229e-02
1.645623649717861958e-01
2.528962175157328240e-01
2.512698749010872090e-01
1.730968297247952314e-01
7.523192729222619168e-02
-1.061645686121343371e-02
-5.345229096312547473e-02
-6.130558596208345729e-02
-8.308485607325154232e-02
-1.209157987737023154e-01
-1.242923621742833273e-01
-9.134705177260817044e-02
-6.112003699973104359e-02
-1.294123467374067721e-02
2.630064732574999634e-02
-5.332195217175837026e-02
-1.425964811565388624e-01
-3.239524791200167064e-02
1.038818867210305474e-01
1.229918049103411598e-02
-1.144965930459726500e-01
-5.536118074803890454e-02
2.609101897858577546e-02
-4.314935845006771797e-03
-2.480873434307741959e-02
3.236598825102199317e-02
8.119438250426221082e-02
5.460216440245174024e-02
-1.182279535288017006e-02
-3.256519593072847163e-02
1.730686265141158364e-02
6.954248029301916822e-02
7.711508902874442128e-02
7.321777090065344218e-02
6.197961801699451018e-02
7.252585559447495035e-03
-4.639413623850064533e-02
-4.079871577695536045e-02
-1.662881267488231646e-02
-2.950064245969529972e-03
2.675572262838276164e-02
4.891909442749280829e-02
3.123915203340082644e-02
9.999280547222166166e-03
1.546938432780593092e-02
2.826571707803765543e-02
1.997349498725078942e-02
-2.597376742085379803e-02
-9.101664118053165442e-02
-1.334782249744791705e-01
-1.292692492797166970e-01
-6.453148191756780117e-02
3.438590375921844744e-02
7.709463004636354921e-02
1.880269415006459097e-02
-6.660084179572954566e-02
-8.594805134583671791e-02
-3.100528141345709754e-02
5.147825936298132399e-02
1.273934553610038822e-01
1.635191041057825201e-01
1.174877671514367866e-01
7.253685964023036045e-03
-8.128297218103459898e-02
-8.263858118974289069e-02
-1.891019618750235803e-03
5.035552325728318707e-02
-2.778154305238025867e-02
-1.016493421847139561e-01
-2.737574870173192787e-02
4.617156024511602508e-02
2.728164921328976242e-02
5.741627844796324404e-02
1.214898559949720291e-01
6.744449657545383003e-02
-6.812742708138012915e-02
-1.669398382313620477e-01
-1.988509614006134518e-01
-1.510864315095327426e-01
-5.674199891052632283e-02
1.219813592236084973e-03
3.915790774385391471e-02
1.176340625291611708e-01
1.808961816082835794e-01
1.494599484037261727e-01
6.218782468514577610e-02
-6.789549014443272724e-03
-6.203440376799141537e-02
-1.097946667421181299e-01
-8.279529876144089973e-02
3.441358639945555492e-02
1.303466975289829799e-01
1.245311376692896099e-01
6.450485402861605433e-02
4.459451298422909341e-03
-6.623539078341583730e-02
-1.302585749879292820e-01
-1.153341599104559523e-01
-1.191244581268384797e-02
8.669833105853642918e-02
9.161466589362612933e-02
-5.662570651390450710e-03
-1.390681640988503387e-01
-1.903037480982575635e-01
-8.197079600569959212e-02
8.936626783444789890e-02
1.525615498048527030e-01
1.154068591701322699e-01
9.795988293261163882e-02
1.060072544733338951e-01
9.465502875509272662e-02
6.153954525594231006e-02
-1.245919787998224330e-02
-1.168662364976185697e-01
-1.689453337969838709e-01
-1.388833451421606913e-01
-9.086137737050863084e-02
-5.400482666060522907e-02
-8.372372962826252207e-03
5.427539760200425500e-04
-6.664192661342904778e-02
-1.131984827742351929e-01
-6.219917085875852764e-02
1.017727918785977376e-03
1.190625547298860415e-02
3.669238841490320147e-02
1.012027366285114527e-01
1.385588758995505987e-01
1.298159637573975123e-01
1.133412965114579118e-01
1.154034423180482910e-01
1.543539827005073473e-01
1.959594844434685845e-01
1.562227195908792721e-01
3.974412255412776429e-02
-8.049983746599836953e-02
-2.025327259367493693e-01
-3.307349187869130236e-01
-3.863417379746087454e-01
-3.194734103945089942e-01
-1.970849103693589899e-01
-1.040979971955021122e-01
-2.570165855990584614e-02
9.019452739624614357e-02
2.084504224977414277e-01
2.605481612277028569e-01
2.515620820827202397e-01
2.210063576786767681e-01
1.797959025922386267e-01
1.300145172908406532e-01
7.540102250512115134e-02
1.251413337278364790e-03
-9.174923006240995327e-02
-1.506044280283558301e-01
-1.283029535531011733e-01
-4.445990451075712557e-02
3.480952668053519800e-02
4.589890507317335999e-02
-1.130772398022290848e-02
-6.495915313303934902e-02
-7.217748720228861492e-02
-6.667867674000932388e-02
-7.482500850813673943e-02
-7.677562046235532345e-02
-6.472605689076203761e-02
-5.451035275543451852e-02
-4.029303902184281500e-02
-1.345360266359391620e-02
1.442000898079353124e-02
5.266209167798473201e-02
9.478471349345352071e-02
9.082282258306192957e-02
6.387304359332934833e-02
8.100841804157285497e-02
9.446911501233642983e-02
3.981771917576300973e-02
-2.344609515248556944e-02
-3.861590131071910431e-02
-4.225372900865356079e-02
-5.832159960208174732e-02
-4.901914771860493153e-02
-6.204049017177809197e-03
1.088322758157159696e-02
-1.563449809604950530e-02
-3.190718297660613545e-02
-2.259874374602070107e-02
-1.120714688439094445e-03
4.281355557010631946e-02
7.542987062740695581e-02
4.827460781603598594e-02
-1.149932209997209590e-02
-5.138023326463228568e-02
-4.329319004191248960e-02
7.608464547855039659e-03
4.601406195615409533e-02
4.234847122700848010e-02
3.449110278212109276e-02
2.652167336286988253e-02
-1.681760454226408075e-02
-6.561199770158278322e-02
-5.584327462812100490e-02
-8.769727037139293108e-04
1.141173288969548304e-02
-6.145174684377333052e-02
-1.444589032101906700e-01
-1.428625817793845731e-01
-4.870599461337846159e-02
7.976901771024416665e-02
1.793878891665822983e-01
2.213135723617722650e-01
1.671123452424671807e-01
-2.949605679450949605e-03
-1.277196378441372293e-01
-6.294750622001475671e-02
1.585020685930241952e-02
-5.777696976428861597e-02
-1.390403673063132506e-01
-9.555951081329883134e-02
-4.169937518561468368e-03
4.653112966845338039e-02
5.180143197743786176e-02
5.060617708122201741e-02
8.076487125028039560e-02
9.696954996686875383e-02
4.136392223154417014e-02
-8.544430751977647245e-03
8.499534390777553974e-03
9.213580832159644005e-03
-2.533811898097280621e-02
-1.987162237655254460e-02
-1.762452732307432865e-03
-4.200309486111130503e-02
-1.061872270024403486e-01
-1.140747985461089964e-01
-5.201418126461618274e-02
1.837565438622388789e-02
4.066125339474780526e-02
2.576598436434533040e-02
1.381804114801007954e-02
1.351348926072138031e-02
1.473759122760284236e-02
2.309834999737499575e-02
3.102911949604992420e-02
1.871463667027720677e-03
-4.918744155600743295e-02
-3.840324111573568955e-02
3.743288646525004537e-02
7.177022782822314872e-02
5.244856884902249217e-02
6.577737524584603701e-02
8.321543692875353615e-02
3.690820611998997525e-02
-2.119211215478310900e-02
-4.773448505681617687e-02
-7.761447744395195969e-02
-1.107214527289022421e-01
-7.322861860901984377e-02
6.443941592196834878e-02
1.750011495326857236e-01
1.485118109256563235e-01
4.972634152639243688e-02
-5.471846575114573674e-02
-1.448707706850166921e-01
-1.727716762816974838e-01
-1.552205694149724202e-01
-1.423588132852678934e-01
-1.071444448690923035e-01
-5.732392330347429316e-02
-6.899660391376571944e-02
-7.403353037872699438e-02
5.291932662148347150e-02
1.762781821524196102e-01
1.362310336221849716e-01
6.904195858034795075e-02
8.504938267282742548e-02
9.853887373443802333e-02
9.739407919298405381e-02
1.286362160944638788e-01
1.540183062840337069e-01
1.517505807611016222e-01
1.550106374815048704e-01
1.440639428313886528e-01
6.490544450321306114e-02
-6.863987579759633917e-02
-2.037804807490994075e-01
-3.172188963601842993e-01
-3.788483288505556379e-01
-3.480004504442862912e-01
-2.444581931247358231e-01
-1.306526459048011901e-01
-3.112974387365506981e-02
6.822787118642881232e-02
1.577446328751305193e-01
2.010725568552596543e-01
1.925287025532964325e-01
1.529267697894086675e-01
1.092401200281417767e-01
1.023805282760517771e-01
1.225572044767015839e-01
9.839315389413297308e-02
1.649410420898814872e-02
-5.407367879564787400e-02
-5.386164851002703258e-02
-1.180710337713483660e-03
1.457675543100548851e-02
-5.108966238869232235e-02
-1.247547552263922055e-01
-1.355040904099449606e-01
-1.135899757583148928e-01
-9.249347411745284520e-02
-3.279484438617985553e-02
5.990928893207065481e-02
9.026537360858369330e-02
5.235895044532657555e-02
3.301113309491218728e-02
2.751762521199461672e-02
2.051594081398635562e-03
-1.370937255974992094e-02
-1.795754131983701846e-02
-2.393118817309218896e-02
-2.477599482186974150e-02
-1.939124997044303772e-02
1.918540723657933406e-02
5.396595494313573965e-02
-1.233925083794000857e-02
-8.583516819903180828e-02
-2.151231648069826946e-02
7.849199390698805012e-02
9.933159916782252630e-02
8.375170993099395611e-02
5.389056754170479246e-02
8.847788192749686531e-03
-2.844970934251689343e-02
-5.807730076906875150e-02
-6.358449660313787721e-02
-2.374860211977022906e-02
1.488416947525400373e-02
-2.419962880915707895e-03
-4.634867768803907495e-02
-5.027725967170723620e-02
-1.127941728223247168e-02
3.030445828648265644e-02
6.075974676777853162e-02
6.072839898334822517e-02
1.097494266285909369e-02
-4.375464457246231592e-02
-7.202013744718638311e-02
-9.853166992045150896e-02
-9.025174279887822337e-02
4.058724160901253791e-03
1.110511702825247166e-01
1.102018173992756478e-01
-7.099520056368987392e-03
-1.274300493192368766e-01
-1.208258517032213541e-01
1.188952713422647411e-02
1.312560952449274010e-01
1.503540906115153342e-01
1.111519415156619062e-01
5.238950646779597098e-02
-3.873266143604788686e-02
-1.159902297689525269e-01
-6.875357278044023912e-02
6.058500348102096450e-02
6.943439787579362699e-02
3.003752073485280519e-03
1.149073217639895311e-01
2.652624589112725362e-01
1.244328588541937786e-01
-1.412472890193685049e-01
-2.310209074232688342e-01
-2.154633183915936612e-01
-1.630411078252662349e-01
-5.857664062580759945e-02
-4.787224411980984390e-02
-1.217835449234643819e-01
-7.939872464485168979e-02
2.711093096399044833e-02
4.813391876607348019e-02
4.728531162818476463e-02
8.066251190440558438e-02
1.020718208125471066e-01
1.092639975730108765e-01
8.681912642709609107e-02
-1.249419614579332441e-02
-1.233561043288426001e-01
-1.262280809912884605e-01
-3.623232922301949932e-02
3.574550667045747060e-02
5.063316185878455333e-02
5.691620245469014572e-02
8.479134805826511745e-02
1.031440057015041711e-01
6.642697993471749496e-02
-1.831826043946177887e-02
-6.911887108629242993e-02
-1.826283006075989090e-02
8.947360201970543103e-02
1.490845831095160279e-01
1.146987774262237247e-01
2.354370168487168735e-02
-6.232315174469388319e-02
-1.040787820012785692e-01
-1.001725164655744155e-01
-6.034097375453664758e-02
1.051420069965027827e-02
6.363689967979989370e-02
3.741338043233263799e-02
-2.936701252657179101e-02
-5.756372204693997741e-02
-5.973568550573503388e-02
-7.111901259312085333e-02
-5.160839603652274399e-02
2.161674958061969576e-02
6.577829929545558896e-02
4.227389666021329900e-03
-1.081914679111523198e-01
-1.613574660391257909e-01
-1.402632514672089714e-01
-1.151254322398158614e-01
-1.083295050395951947e-01
-7.706157261690299576e-02
-1.968588635331896056e-02
1.991269647726586975e-02
4.271766260545143551e-02
8.429255079091863001e-02
1.426000187312984335e-01
1.964260590816600816e-01
2.468146535474869951e-01
2.901468529968453947e-01
3.030967612289796609e-01
2.627930119599049541e-01
1.594042510330702378e-01
1.326373976960521645e-02
-1.383372864641369548e-01
-2.710468212023544599e-01
-3.532348840035223203e-01
-3.549956077734932047e-01
-2.949733279167183753e-01
-2.144729241425035182e-01
-1.350470129041270451e-01
-6.097477284923393664e-02
2.285619654270350937e-02
1.277019712465909951e-01
2.118491623625530784e-01
2.230905091930104334e-01
1.807125223095407962e-01
1.273356756798402767e-01
6.776368109668061412e-02
2.385149574177056891e-02
2.607517073786806694e-02
4.674491101926901704e-02
5.081741390762042898e-02
4.147009849105463830e-02
1.867952938303677618e-02
-1.426750232729537445e-02
-3.829046463171090209e-02
-6.094455509477645500e-02
-9.687556589499071724e-02
-1.191437307579588101e-01
-1.100417701068331366e-01
-1.072652808445054284e-01
-1.278783594481924246e-01
-1.138295994987762322e-01
-1.819833628679837917e-02
1.088918424911439059e-01
1.707699077835949375e-01
1.351586553242634936e-01
5.173946864720959521e-02
-2.405060064569828834e-02
-5.726283511090160538e-02
-3.967888783509569695e-02
-3.273487199091484889e-02
-8.102541625714893003e-02
-1.143275683162735396e-01
-7.800646721083820401e-02
-1.434256926247017873e-02
3.844270612027822498e-02
6.585757307220684031e-02
6.973388633901354827e-02
8.342684478445960838e-02
1.007018875493917581e-01
9.416901672939594070e-02
8.775382011869320431e-02
7.900070272847188602e-02
3.188317208025875926e-02
-1.895048540112828986e-02
-3.550465997504455989e-02
-5.836032923806504236e-02
-8.528805476373267636e-02
-5.110393133874822913e-02
4.200630010689080165e-03
-1.008255273454966225e-02
-4.817856984431176381e-02
-3.270826131628204458e-02
1.633904102684386600e-02
7.715519065874537619e-02
1.268770102848026382e-01
1.011653550312978933e-01
4.095424666599329841e-03
-8.243310452606142369e-02
-1.131920311856767086e-01
-9.272544150763883941e-02
-3.902076091330237279e-02
9.911560617666480277e-03
1.790572229609968882e-02
-2.432787434700295348e-03
-1.501368453337009398e-02
-1.643481226984369603e-02
-2.821976262434330168e-02
-5.992875555896674811e-02
-8.555475097676459861e-02
-6.615859133515286650e-02
-6.916748955226851951e-03
5.705095370172401370e-02
1.028748004176440467e-01
1.113964748785332137e-01
8.199968570320310957e-02
4.747978123379333060e-02
2.573548727543530437e-02
1.274244804342256586e-02
3.391956268683763570e-02
9.111117280538201524e-02
8.904317289942302593e-02
-3.457765907680167283e-02
-1.782251717909475175e-01
-2.096531478245181601e-01
-1.340866451054800179e-01
-3.639893779677810803e-02
4.293380490728386512e-02
9.465470722999289044e-02
9.459700756335340244e-02
3.451731262306982628e-02
-5.373054153087524626e-02
-1.171386749522657228e-01
-1.107832396389753365e-01
-2.787258781426030924e-02
9.147096208546916241e-02
1.626324455210004238e-01
1.100069708532463997e-01
-2.031652518378384079e-02
-1.162530473805435671e-01
-1.538886372109603828e-01
-1.094344290315973217e-01
5.313382768663112155e-02
1.804891594790718479e-01
1.357348061749310553e-01
5.523296470968040023e-02
3.793173113998431212e-02
1.477441437309767736e-03
-5.855045246402700715e-02
-5.969421752330340142e-02
5.718525291958941742e-03
7.284083620788719959e-02
1.088255403862716242e-01
1.271580853452267124e-01
1.048797757429117128e-01
2.709674807443977415e-02
-6.109942233435321224e-02
-1.429440236567953992e-01
-1.841661820390788074e-01
-7.304428654938960319e-02
1.612444881396127294e-01
2.498644913370229592e-01
6.120673328455180501e-02
-1.445866908819693486e-01
-1.592253209513851409e-01
-1.341122475319917184e-01
-1.466519180554068102e-01
-8.329916990446545322e-02
-2.320063120943391052e-02
-9.960027217263513200e-02
-1.864405662959900123e-01
-1.333877960013757913e-01
-3.313523125301456873e-02
-2.779058413256793592e-02
-1.927507998233543574e-02
1.217868003363173357e-01
2.087240881740112242e-01
1.010008821599512052e-01
2.981754180928732068e-02
1.000263894868692466e-01
1.247445478913948441e-01
8.405323867969403950e-02
9.906522789716917798e-02
1.472790353394250185e-01
1.703745408125672545e-01
1.657275284790573344e-01
9.797882765808879624e-02
-3.725876304897550451e-02
-1.428426766014894156e-01
-1.750920820430575953e-01
-2.118304028079312229e-01
-2.583217095167099076e-01
-2.456194360276738597e-01
-2.229286936820702725e-01
-1.879411705191730286e-01
-4.060785147940802753e-03
2.121760601784150602e-01
2.204268119967880413e-01
1.404590933352334869e-01
1.582203610980467967e-01
1.696166197160390576e-01
1.129855457746714031e-01
9.923655133736658529e-02
9.491400100326964628e-02
-1.743288515139545733e-02
-1.192443604681567293e-01
-6.335170409946218328e-02
2.444836743787091871e-02
1.145920873343128296e-02
-3.949607267663592103e-02
-5.397732429854599362e-02
-3.386700749161304647e-02
-2.125382233596674261e-02
-5.088513075898232207e-02
-9.804006744429963338e-02
-1.259063097087116945e-01
-1.014246260252329862e-01
1.517698045484025537e-02
1.224440248762872357e-01
5.360165437247595144e-02
-7.502254806022121136e-02
-5.222254168227591364e-02
1.472150877645292573e-02
-1.844337947327281957e-02
-5.293717761890465168e-02
-3.092573428610131958e-02
-2.214898768406045951e-02
-3.605936173751613655e-02
-2.803626071746647894e-02
1.212573231693617887e-02
4.064704047319400715e-02
3.224769089353225759e-02
4.600891680361761382e-02
9.379792787165658341e-02
9.659526448281245681e-02
7.685911632087118195e-02
1.064874377698987740e-01
1.116461840904877795e-01
3.750867272194509383e-02
-2.024573583555635062e-02
-3.242581180764819021e-02
-5.849929779831350429e-02
-6.337343231580153113e-02
-6.599012573365935913e-03
3.037920953823421838e-02
-6.706379334658053165e-03
-4.819122256284753825e-02
-3.593794824035830004e-02
1.155569664786383968e-02
5.720570327393791760e-02
5.587642782646214112e-02
-4.042311471698437075e-03
-6.510718058702311128e-02
-9.385406104289370499e-02
-1.049272141800894620e-01
-8.620238090531955055e-02
-3.860250869509625898e-02
-1.267944096041283275e-02
-2.431568600678610942e-02
-4.291921826901907988e-02
-4.118117593374831520e-02
1.831306775773891560e-02
1.265208199994057869e-01
1.838710773311103830e-01
1.544227906053285693e-01
9.016096260501622883e-02
-1.696466164386224718e-02
-1.400690043472102853e-01
-1.546887583295435409e-01
-5.156513047987562604e-02
5.239137378242578191e-02
8.560882800071392684e-02
4.367648780513015694e-02
-1.055158403837528833e-02
5.529917083191950369e-03
5.391060168572233552e-02
2.865256817530068695e-02
-6.922302665041388248e-02
-1.397072908413976022e-01
-1.164307568874134169e-01
-4.250072368290314095e-02
5.029425695168270732e-04
1.456640419185895388e-02
3.606915413614922294e-02
3.436497897712890992e-02
-1.234682950490183749e-02
-3.370018775656141718e-02
2.624528519675626073e-02
9.572907577307902816e-02
1.005879261529386837e-01
9.171697826233494999e-02
8.192890763314598923e-02
-5.943807634336597742e-03
-1.214630803215969446e-01
-1.563103388233877122e-01
-1.487494459548734937e-01
-1.253106299574683891e-01
-3.474677591778240621e-02
5.454334339463431935e-02
8.551886509579907647e-02
1.486165971184083556e-01
1.972319173000910419e-01
1.127300260505574858e-01
2.196779322597161577e-02
3.143936141142919527e-02
4.094658591873796827e-02
3.249090381734167504e-02
4.329042286718767091e-02
2.168394766219688269e-02
-1.313121313245566371e-02
1.947616009138380261e-03
2.201107562943057511e-02
-7.210980979957760419e-03
-8.267687595814003643e-02
-1.777462084311886847e-01
-2.202931744566169192e-01
-1.804007278564795647e-01
-1.304319260500930722e-01
-9.518681394988705302e-02
-3.273544099277661545e-02
4.054794250862678306e-02
9.321323666407820008e-02
1.197005188676397991e-01
8.811327034825630622e-02
2.559906814071834930e-03
-6.201188100605630610e-02
-6.152520511229775391e-02
-1.914995113540622629e-02
2.184408098405052345e-02
3.514902917561651269e-02
2.858594807340370664e-02
3.286550415596790203e-02
7.955038810725434395e-02
1.722299305372827494e-01
2.592380782954980534e-01
2.653032470108683261e-01
1.676687102821309838e-01
5.811481464630089896e-03
-1.703906309252141149e-01
-2.946789558872437986e-01
-3.125610602228146573e-01
-2.764965171974980152e-01
-2.461390521559514433e-01
-1.597152906938592853e-01
-2.963974832897741524e-03
1.120053755579365345e-01
1.480390370227625818e-01
1.555223231062048683e-01
1.412488259034807847e-01
1.156299215470057706e-01
1.081097555695903489e-01
1.038767982620899394e-01
9.322228079509566057e-02
8.626369046871021351e-02
5.704134600206894196e-02
-1.469167383335834992e-02
-8.278092414645660257e-02
-8.938865503027862425e-02
-5.176401828181387277e-02
-2.054430524142777242e-02
-1.894645784915885249e-03
-2.280833623802033371e-04
-2.766612572030744538e-02
-6.170034154437376017e-02
-8.221920643820286589e-02
-7.591483486484042198e-02
-4.172779429824069464e-02
-3.279742243660559164e-02
-5.992876947459856163e-02
-5.145062582691378034e-02
-9.336984873196842519e-03
9.569198060522789151e-03
4.169141239906953844e-02
1.162761338426367141e-01
1.494666860036817091e-01
8.498021829768204194e-02
-1.923182425095669792e-02
-8.069217461367578226e-02
-7.206377596595041346e-02
-2.895612886116610135e-02
-1.362910661979519281e-02
-4.351016840816995107e-02
-5.767651454705789715e-02
-1.114625985743369213e-02
3.719534113436121642e-02
2.767751233797075688e-02
1.125275019727307348e-02
4.315005012052321176e-02
7.378951884631533564e-02
5.907281515042073911e-02
4.620932303306266031e-02
5.990007903354934576e-02
5.790835903082476588e-02
3.231865011414607886e-02
8.612815026535831919e-03
-1.955170228541852281e-02
-5.655211302803539453e-02
-7.426945862169950785e-02
-5.564556197142202926e-02
-2.698027053163085803e-02
-3.394039181613037887e-02
-6.822033108900088516e-02
-5.686354241214380129e-02
1.494521226689722072e-02
6.979413437409016929e-02
6.842654925804898813e-02
2.824481600802252260e-02
-4.678311836138071556e-02
-1.139681444346073852e-01
-9.395316752277796390e-02
-2.874995042969905393e-03
6.329461684547245393e-02
7.628874994521209207e-02
7.488487581839299578e-02
6.539196608701385027e-02
3.818816763598534975e-02
1.598076807691950832e-02
2.375808439162209809e-02
4.825953903862850725e-02
2.366486105735786383e-02
-6.892742643820518045e-02
-1.086396249791368451e-01
-2.768702640337771317e-02
4.476720530110372964e-02
1.034331273247046830e-02
-5.684284999872683125e-02
-7.276622872078616910e-02
-5.390220096354351315e-02
-4.570608258658192397e-02
-4.686580339759616881e-02
-3.506045904226269549e-02
9.817793950466776470e-03
7.930938392688835492e-02
7.143384044952852396e-02
-6.664619017049239202e-02
-1.869498427352854486e-01
-1.629915126065336617e-01
-4.843435229968767047e-02
8.253087142064023662e-02
1.994511654770557973e-01
2.607897093548425249e-01
2.410002046916273344e-01
1.609675955698263161e-01
6.841488362752071173e-02
-7.925284071874663661e-03
-8.526606504287906341e-02
-1.643532449187071476e-01
-1.939763590035484264e-01
-1.547215321645167563e-01
-8.868928752605355348e-02
-2.965692707283426252e-02
4.395669354294856612e-02
1.671850155144318228e-01
2.779583556236480124e-01
2.590037525736773594e-01
1.331633605487677896e-01
3.372748382728033012e-02
-1.347327420290361094e-02
-7.915103451139290924e-02
-1.539358459948346192e-01
-1.786096746116352663e-01
-1.782090570859078404e-01
-1.928994230256462772e-01
-1.709843610284606519e-01
-7.405114359189515771e-02
1.978982442000253028e-02
3.739363814471989567e-02
1.269099264133619759e-02
-1.578538925422164410e-02
-5.970505623967559128e-02
-1.024091303460256258e-01
-9.493373669935993575e-02
-2.632754904017392886e-02
5.669490520546266454e-02
1.113439289822148737e-01
1.679649242230731587e-01
2.936048984381086635e-01
4.613500340402496014e-01
4.757851252087302862e-01
2.104486590014963410e-01
-9.885028411853434560e-02
-1.979012401690384559e-01
-2.238909867083229699e-01
-3.273602722005639065e-01
-4.028879568942457245e-01
-3.975627831797459710e-01
-3.403695852012020850e-01
-2.046856414551702086e-01
-3.401129130272222134e-02
8.143043677820946402e-02
1.554646892994446250e-01
2.246762146668863092e-01
2.616241963331546461e-01
2.516287039910337087e-01
2.242665040273884580e-01
1.957308767900421409e-01
1.469939186758794647e-01
7.671290288550138003e-02
2.429142784704581975e-02
5.553042522416090643e-04
-2.414632455575599357e-02
-5.401419894878074085e-02
-7.811043186588859100e-02
-1.079443153512970044e-01
-1.466371598757185979e-01
-1.570175917180730851e-01
-1.104851295714512627e-01
-4.573766259002242512e-02
-7.796174109785180412e-03
7.020558219435191899e-03
2.034310381989952801e-03
-9.867214593676617435e-03
-2.084059721021214173e-03
1.626108494970881363e-03
-9.100127166013365770e-03
1.306179914390125617e-02
5.397357911767979022e-02
5.500076712572352089e-02
3.759781427789622710e-02
4.116731008376139228e-02
3.642884250476853547e-02
3.809852305306398942e-03
-2.080397919913779328e-02
-2.383350758634165262e-02
-3.985236127660356231e-02
-6.772903060679882903e-02
-4.671854844771537729e-02
2.931019867541481694e-02
9.081620639254663063e-02
1.099384877369555397e-01
8.046922362835498554e-02
-1.568551125700975643e-02
-1.030856470307454087e-01
-8.965390240553247625e-02
-3.075351170723193001e-02
-1.723540236401214717e-02
-3.353120582690953533e-02
-2.751827580801903539e-02
-2.720214911335912863e-03
-8.190984550189715080e-03
-4.266044463243080093e-02
-1.925842097821211726e-02
7.560924777524521967e-02
1.217777289255262824e-01
7.569165432221598711e-02
2.278783557897298695e-02
6.350224504016021426e-04
-1.075364141730195643e-02
-8.174524105421878545e-03
1.265583234198253484e-02
3.909713464096133129e-02
4.665864404571519464e-02
1.765533407240828939e-02
-3.746935823454261572e-02
-1.060895854955678924e-01
-1.618678838641253726e-01
-1.378332838996802201e-01
-1.995809808121426498e-02
8.734787544030366002e-02
1.024815503168078484e-01
7.403509366213691101e-02
3.065217139857721873e-02
-8.109804071855095109e-02
-1.663926436555167032e-01
-5.358725494585611648e-02
1.181244920484897654e-01
1.065890776350971875e-01
1.207799607306518641e-02
1.889017676467601159e-02
8.016903436105718428e-02
1.074969543094081298e-01
9.201155798908917938e-02
3.120477598411075179e-02
-5.234530992665507865e-02
-9.891182468798687122e-02
-1.003300383830569853e-01
-9.754897902974421497e-02
-8.497273405741995189e-02
-4.211150508305377960e-02
1.980355349577764268e-02
1.051358139689913818e-01
1.616901875633566243e-01
7.100394887168098856e-02
-9.566043989088969524e-02
-1.083760129562416352e-01
2.023494347365147050e-02
5.828440883812358725e-02
-4.158353419687024766e-02
-1.130400526948061590e-01
-6.654672061496691438e-02
1.861511968207184287e-02
5.279727029461592225e-02
4.316701740142059318e-02
3.622800097829603078e-02
5.397589993069044911e-02
7.012381145408586036e-02
3.929359519558533326e-02
-3.679917490038534487e-03
3.086604515055165615e-02
1.183205097937576056e-01
1.136621513895078595e-01
-2.871161438696189644e-02
-1.735948456104544901e-01
-2.080048707786609774e-01
-1.686951323067277797e-01
-1.184338262855661461e-01
-4.834527580682086711e-02
3.230919493466920256e-02
4.715226402204272110e-02
-1.707216398787759701e-02
-7.122336187813747832e-02
-6.107178407254068575e-02
-5.377853258020195634e-03
6.867431523640188384e-02
1.326223678306784615e-01
1.733889085141317454e-01
2.249114804375413890e-01
3.024521169904866857e-01
3.290582990727227153e-01
2.209831518269235184e-01
1.634423367672593191e-02
-1.826297041180939273e-01
-3.320998952882204813e-01
-4.090311167136391202e-01
-3.770697351611820847e-01
-2.785243303879620935e-01
-1.998834032038085684e-01
-1.319762166257874292e-01
-4.293655634956836803e-02
2.449021392377571937e-02
8.842649020524012693e-02
2.200320080911975507e-01
3.386674466492219926e-01
3.092907387098836614e-01
1.807195853140726172e-01
8.798613325681986508e-02
5.453532852194800662e-02
2.290858202459970794e-02
-3.668433090876979663e-02
-8.663922585486436012e-02
-7.297066330474785700e-02
-3.266073559291942513e-02
-4.747425646651747683e-02
-8.449794610119676364e-02
-5.557551095352576687e-02
1.038144714317930199e-02
2.145520846981607832e-02
-1.715323972503727395e-02
-2.225698568506598654e-02
1.986769369937641319e-02
3.514453250658950562e-02
-1.114043231573942638e-03
-2.860743203013457053e-02
-1.565393938957125586e-02
5.047671502247336704e-03
7.547879890535652558e-03
-3.940752580829427580e-03
-2.174904496985472641e-02
-3.651786955280752339e-02
-3.803012482994724136e-02
-2.994281586324805747e-02
-1.511043883738609137e-02
2.113412176632864514e-02
7.028667172577321431e-02
7.964486335978036846e-02
2.939587985916172763e-02
-2.426690438118500603e-02
-2.994761321795077341e-02
-9.560834418237101895e-03
-8.703807084760770488e-03
-1.532488719693165732e-02
7.495218581827233634e-03
3.782579497359990495e-02
2.722018769586434517e-02
-2.387440718289077918e-02
-6.833345462703654949e-02
-6.505383269319818529e-02
-3.024242800857267904e-02
-1.431011405401565531e-02
-2.914650799658828964e-02
-3.740976627745108002e-02
9.484952095883354695e-03
1.224208904150491384e-01
2.344487307539433463e-01
2.376611448746709931e-01
9.792898699629876136e-02
-7.358318172293759618e-02
-1.385147476958145940e-01
-1.102642328719438819e-01
-9.264670668172449164e-02
-1.022784312250785560e-01
-9.882461677010229151e-02
-1.036745016131103148e-01
-1.393632306295183865e-01
-1.390519655965527512e-01
-4.412613266734670414e-02
1.033091976871477746e-01
2.087232505594263932e-01
1.887060739504388962e-01
6.003136231698381203e-02
-3.614278276032195647e-02
-2.730718896607276652e-02
-2.111171073085783487e-02
-8.669512973327121730e-02
-9.266401328338082222e-02
3.965592640131221369e-02
1.439302099588245509e-01
1.267783527984102376e-01
1.104866392479919995e-01
1.019441559741812997e-01
1.105762455660122545e-02
-8.269448170111948215e-02
-7.445764709465260700e-02
-1.639987718736357625e-02
1.305362690219260755e-02
2.901165879732002170e-02
5.108886409211903928e-02
2.574992690573395943e-02
-4.404257572817499994e-02
-4.957184372129299493e-02
2.207440432862461249e-02
5.128887798896639844e-02
-5.386172157370259020e-03
-6.724072273109649167e-02
-5.696013258503638405e-02
2.605583369318012488e-02
1.018016026879941527e-01
8.672315517901871273e-02
6.817349959055255676e-03
-6.101075785031473409e-02
-1.131374486032174220e-01
-1.501120402468239245e-01
-1.328992422823331021e-01
-8.848703046362933755e-02
-6.776537630047368976e-02
-4.728281626594773440e-02
-2.173259429199484588e-02
-4.302046803613371329e-02
-7.940532298450453386e-02
-2.691444536135471216e-02
8.769482101764382309e-02
1.353983173952575114e-01
1.150466698143589317e-01
1.096974780941561284e-01
1.074917339268807587e-01
8.372800115205314420e-02
8.604128354718176830e-02
1.146809819677645503e-01
1.037049789571460184e-01
3.785380907828803099e-02
-4.661319483659110557e-02
-1.284415623176756172e-01
-1.930903964249603977e-01
-2.211037364835358177e-01
-2.165181180643035441e-01
-1.900201989813846137e-01
-1.107966071627241866e-01
4.102988804114353349e-02
1.808680071797903466e-01
2.143939810319688277e-01
1.835174263169628284e-01
1.590336243919286685e-01
1.142516719861346730e-01
3.901855651646631701e-02
6.736810721435507882e-03
4.802226159857490850e-02
8.535964416276321798e-02
4.654175921511037595e-02
-2.511353248637589880e-02
-5.663565522997038304e-02
-6.818668228328701730e-02
-9.512000722478504422e-02
-1.033327226404161248e-01
-6.960081745581468693e-02
-2.651318351826086744e-02
-6.827397718318320430e-03
-1.441879285438383597e-02
-3.910809100347058254e-02
-6.279435167219275804e-02
-5.399534735624249987e-02
-1.624933951554630857e-02
-4.483343739677295853e-03
-2.356092089728848218e-02
-3.206808884953406963e-02
-2.393332381380854426e-02
2.086271970819799162e-02
1.028093875631274079e-01
1.317283422044657204e-01
7.914431080768168092e-02
2.460229820473478629e-02
-1.419865643246858745e-03
-1.064335972679020248e-02
-6.499820127863834007e-03
-2.203123335009611605e-02
-5.782950345737562781e-02
-6.405027549833298972e-02
-4.406303107800799146e-02
-3.374991624488533903e-02
-2.125110122820772496e-02
5.396995345528589165e-03
2.271312101119142210e-02
3.698991858426588231e-02
7.192985675831872761e-02
9.759219537468961925e-02
7.864760373802849591e-02
3.231418581734431944e-02
-3.606851440335330158e-03
-1.115322969987932872e-02
-2.537150822960121399e-02
-7.830820056851926780e-02
-1.010737984619148183e-01
-4.210139728466934239e-02
-1.061599154472202267e-03
-4.554797164683280219e-02
-7.749092246928170058e-02
-2.635747759053077080e-02
4.482830141181455563e-02
6.940985938680227507e-02
5.314816186909071538e-02
3.788637619490255182e-02
3.892191751241647069e-02
3.413015242527418780e-02
3.529417025606377406e-02
7.281613969417330412e-02
1.130612927132437634e-01
1.077469241804631384e-01
5.229223259126433709e-02
-3.643799343923990325e-02
-1.105575541745596052e-01
-1.237434266309332259e-01
-9.081653234554892817e-02
-4.354507868845790275e-02
-8.327805303558160135e-03
-2.924685101687555383e-02
-9.357155537300647363e-02
-1.018367625807440197e-01
-1.527202867485233720e-02
6.755421798851900250e-02
7.309057560136261733e-02
4.018977144415168679e-02
-1.117249630587611661e-02
-6.988105767761179643e-02
-5.678572824691250492e-02
2.478256978426511895e-02
6.087130600824260107e-02
1.650786561620676274e-02
-5.673541137566776721e-02
-1.126780152482965008e-01
-1.179886495109893907e-01
-7.381328317754831669e-02
-9.634398477455083029e-03
5.636462367865349016e-02
1.060756229077062240e-01
1.172635410596443023e-01
1.004834472722575811e-01
1.062835504567944955e-01
1.605026272435700618e-01
2.060494543695064185e-01
1.558310670325898928e-01
1.044500232743883310e-02
-1.236199696110002466e-01
-1.679829740250151082e-01
-1.724713609404092962e-01
-2.089074413534172392e-01
-1.999559464955766863e-01
-2.891150507531459538e-02
1.884594701512156412e-01
2.481699981209505301e-01
1.790521511504096774e-01
1.163613817402668615e-01
8.036671936515549231e-02
3.024140367306036442e-02
-4.110499515329767151e-02
-9.199081094265910974e-02
-9.325931742648899125e-02
-7.554590033282923556e-02
-7.343522913174191369e-02
-9.573772789326726040e-02
-1.418378428507859335e-01
-1.648060752472686463e-01
-1.088407823441458755e-01
-4.759191602096625451e-02
-7.371455377523400410e-02
-7.686784136033862624e-02
2.406879024873267992e-02
7.495351736459454628e-02
2.076315480112361431e-02
-5.406544877803391713e-03
3.202075560975137236e-02
1.001313444624411381e-01
1.990274867010118076e-01
2.822273474327862686e-01
2.998548563944454792e-01
2.679888594495245524e-01
2.261367225861689034e-01
1.796190747012272049e-01
3.621458183118415192e-02
-2.468806395099952811e-01
-4.605276463155726918e-01
-4.554051030496778507e-01
-3.985945621159110441e-01
-3.820386048018621361e-01
-2.836159878009237301e-01
-1.114050299931105964e-01
1.996575388116194477e-02
1.240027092584704282e-01
2.497927411341260562e-01
3.500455156780880595e-01
3.561163917198415518e-01
2.730272303813555679e-01
1.735275879444032610e-01
1.002532584485992528e-01
3.325113413607207885e-02
-1.423519811840515126e-02
-1.078440884113260334e-02
-6.659895037503978099e-03
-6.656112954146382876e-02
-1.500912157744631048e-01
-1.574516348323803383e-01
-6.913005270981151251e-02
2.685118205214044595e-02
6.044303127301401540e-02
4.415907301220264869e-02
-6.348487767375986419e-03
-8.000291919556999642e-02
-1.131962115964916804e-01
-7.305629466958216134e-02
-1.772702584993039385e-02
1.422313630879604510e-02
4.047964435083328816e-02
5.591733047462756068e-02
3.699555879935670366e-02
-9.627544391991489647e-04
-1.747136382738226010e-02
-1.609728196222468682e-02
-3.632332564278027698e-02
-6.322224359911966796e-02
-5.853980227807414893e-02
-4.426065137920532494e-02
-3.323290338982404224e-02
1.506160902962138878e-02
1.015317733164634445e-01
1.533862344380535758e-01
1.156808748790476155e-01
3.993633647883957499e-02
7.159979953796608877e-03
-5.557327359603101563e-03
-3.826843474834140668e-02
-5.133985153601251794e-02
-4.332344815008255801e-02
-6.296513992166109797e-02
-8.538896761555815618e-02
-5.922372869784040678e-02
-6.006885921209626812e-03
2.945109212945731109e-02
4.727744808031127816e-02
6.219792679499333565e-02
5.792758402406728013e-02
2.618809025935403545e-02
5.880875594017241463e-03
1.992576465604447081e-02
3.453350825798390950e-02
5.306087135839450929e-03
-7.017474142489599220e-02
-1.216326817878939093e-01
-8.264822777802130482e-02
-1.351483370586470042e-03
4.002539552442987980e-02
3.780154310533363760e-02
9.783182130352818459e-03
-3.314394522722088898e-02
-3.822754904628967998e-02
3.142581653813173587e-02
1.326640022473731528e-01
1.985907267331115111e-01
1.745380995480563247e-01
3.589741295047175346e-02
-1.393022078785122742e-01
-2.227379860276564039e-01
-1.835666098180681050e-01
-6.385067732401367158e-02
8.738582284477348916e-02
1.651988523987224233e-01
1.028020193031738416e-01
2.887026412385904073e-03
-3.720273005120822846e-02
-5.279304909056944245e-02
-6.931221030958766016e-02
-8.357471716907492743e-02
-9.654801576882257597e-02
-6.395970707531173360e-02
-1.450768180600419668e-04
2.097807965964337135e-02
4.602206692839943408e-02
1.275211321046473001e-01
1.441202586522508933e-01
1.630924900637526972e-02
-1.067319669869890436e-01
-8.588657011257666563e-02
-1.634583274649534582e-02
-4.247743001155514231e-02
-1.191160888496547166e-01
-1.146053825445164792e-01
-1.740613852806833714e-02
9.219362707903119847e-02
1.654353453826579723e-01
1.690784649675534657e-01
7.044595537088074733e-02
-7.219808519361300969e-02
-1.435748898219025294e-01
-9.546032205240961854e-02
4.929930675973225040e-02
1.682261082219530246e-01
1.057101386829559647e-01
-1.351593018256349796e-02
6.306443536236640279e-02
1.759897645430043844e-01
5.368988893209462876e-02
-1.122439967832347257e-01
-7.660717278355096138e-02
3.109612718940307427e-02
4.754728151185604046e-02
-1.110744614705693606e-02
-7.820718592726481899e-02
-9.159968222430701912e-02
-8.085155028086704609e-02
-1.352495623845032802e-01
-1.476418397380447334e-01
2.198264771109469107e-02
1.705744454762717632e-01
1.029051076517779884e-01
-4.758339136104138695e-03
-2.031461517716587339e-02
-3.960295113865096306e-02
-8.484009024825531209e-02
-1.072385689733683645e-01
-1.119061680611359577e-01
-9.769390239255867914e-02
-4.515375890310576595e-02
3.405242904343774163e-02
1.135512573213993820e-01
1.887638962030973866e-01
2.448046122500093236e-01
2.459917910873835045e-01
2.040763194652074897e-01
1.330616786878868196e-01
-1.882968042698904970e-02
-2.244106110704829071e-01
-3.423716270087882041e-01
-3.276270980025056123e-01
-2.510941335844422140e-01
-1.576801431503088435e-01
-6.727541243515894331e-02
-1.294662053850870534e-02
-5.561167210739095118e-03
8.340216466860839173e-05
5.239294771305585269e-02
1.296304287714442338e-01
1.929354852038828727e-01
2.355637901046980232e-01
2.393443154576674892e-01
2.018280388352679811e-01
1.614817489382331106e-01
1.287955684729241157e-01
8.180028494614459411e-02
9.397952238434998523e-03
-7.194173544591134228e-02
-1.098626811060437192e-01
-9.792428507160258477e-02
-1.072259606755260053e-01
-1.462005726399895345e-01
-1.493236723962411139e-01
-1.078015493855289803e-01
-6.222102069244309780e-02
-2.333425824063853349e-02
2.228719625671916546e-02
5.053834780256157011e-02
2.334627267819822799e-02
-2.446346928661435188e-02
-4.662671619689560953e-02
-5.975750545507753364e-02
-6.324677308929940733e-02
-3.616694148557105665e-02
-4.367040123696933757e-04
3.098951142915763041e-02
6.725001580787484667e-02
8.027830755968545784e-02
5.001495188047754004e-02
1.666592767175252565e-02
1.300222151091182977e-02
2.266018178975678921e-02
1.668351175344516893e-02
-1.950888922146036542e-02
-5.234846032450676118e-02
-2.525051746619133564e-02
3.998133362482214626e-02
8.232322501118158331e-02
9.708817323887611317e-02
7.623966786779377836e-02
7.135668215218530890e-03
-4.365693483339467412e-02
-2.634823466824460364e-02
-1.067508751083268669e-02
-5.873488894595021298e-02
-1.121869348068788297e-01
-1.016069622252970955e-01
-5.907371478514632929e-02
-3.376295571093389236e-02
-4.097454030999184496e-03
5.117573587568052806e-02
9.551717477919299815e-02
8.232961011652943639e-02
2.555611174005942982e-02
1.375191147497146875e-02
7.270270729569584811e-02
8.149398909120245116e-02
-1.188867385085059375e-02
-8.460153141440020230e-02
-7.744247960822021881e-02
-6.916440982894522804e-02
-8.983828591622054771e-02
-8.156856915364502081e-02
-2.517078978776938689e-02
1.130611333022387560e-02
-7.947213207565168025e-03
5.878107381886417057e-03
1.089867519878654212e-01
1.809287417583088087e-01
1.148972958641777675e-01
-1.037732767243719489e-03
-8.217900756399305895e-02
-1.812612426362633089e-01
-2.225732759849601838e-01
-3.721438095454885492e-02
2.043969762000581447e-01
2.231046646696140390e-01
1.402057916673690730e-01
1.339194191994765859e-01
9.672793976947999250e-02
-5.878372187378223812e-03
-5.038054706916188230e-02
-4.375945564393445009e-02
-6.925688296821724821e-02
-1.186238840859598076e-01
-1.495823265838799321e-01
-1.525507158515190254e-01
-1.270217514191654684e-01
-3.801694769380856154e-02
1.263482055553981909e-01
2.040758788773471277e-01
4.279760506798865882e-02
-1.457755052529863538e-01
-1.044958464510106488e-01
5.470981924164380200e-03
-6.817333590027084556e-03
-5.533801998191653984e-03
3.569344724924745221e-02
-7.498223391372974000e-02
-1.929546681316831880e-01
-2.305402386903820586e-02
2.056253324497790136e-01
1.836351047849950346e-01
9.510902593535550120e-02
8.674239701165240013e-02
3.421441237303422811e-02
-4.296079066096468446e-02
-3.789678353946222822e-02
1.924187582254823989e-02
5.320516870023832973e-02
3.312998747269707556e-02
-9.579976779315529239e-03
-2.266765354859342357e-02
-7.260683672610053138e-03
2.345890306407640361e-02
6.355515612693694860e-02
7.257201511348260192e-02
4.830053141041196901e-02
4.323585493494071230e-02
3.960453856505576076e-02
-1.462997503025655413e-02
-8.530743072371692326e-02
-1.379961296542895066e-01
-1.978351634240992085e-01
-2.409639068112022220e-01
-2.211234238140286079e-01
-1.722638460078381728e-01
-1.348651383530413694e-01
-8.376947212945555499e-02
8.098920846528016859e-04
9.324760970775959612e-02
1.706233451985006144e-01
2.279590948441615750e-01
2.661731988746200983e-01
2.998651442156471947e-01
3.165931600758417064e-01
2.614994947315132934e-01
1.252260565854878271e-01
-4.274814841661372239e-02
-1.923508270119783370e-01
-2.610390936723422373e-01
-2.275890219412983473e-01
-1.917141686350516128e-01
-2.163503923493465264e-01
-1.996821692282772231e-01
-9.458865140172585673e-02
-1.548170843259362613e-02
6.001882129184066272e-04
2.757455379983606708e-02
6.077543174703124718e-02
7.873183408634917835e-02
1.247798723275230365e-01
1.710417048038952725e-01
1.555062844188205007e-01
1.277462252370807627e-01
1.250603903146071672e-01
8.981315257000334340e-02
3.070337132440369848e-02
1.342413283991756787e-02
1.239620411176259665e-02
-2.521496587592144539e-02
-8.104086015851817704e-02
-1.190656825507074024e-01
-1.275819029728607612e-01
-1.067624205414389876e-01
-7.607647824579416573e-02
-7.467184571719499842e-02
-1.110481716013643344e-01
-1.233005398244676198e-01
-6.754519415377355229e-02
-1.059216838589161457e-02
2.247707215156257918e-02
1.195871989764022147e-01
2.121984502851077814e-01
1.383468642463703824e-01
-2.616091448674001674e-03
-4.664262276787417560e-02
-4.666041698825334344e-02
-5.725658886927420532e-02
-2.187834930832153330e-02
5.976176354205336994e-02
1.007960949527557937e-01
6.197077753173287074e-02
5.324826585845038665e-03
-1.312505578662820187e-02
-9.795388875059502648e-03
-1.242176035539465685e-02
-1.853287730501811809e-02
-3.616429165078306057e-02
-8.287692884651975955e-02
-6.678406154331696654e-02
1.030543371516527279e-01
2.442578749358055579e-01
1.674173840596194507e-01
1.229112873064926864e-02
-6.603282392826263780e-02
-1.064656127228751220e-01
-1.263132811341458883e-01
-9.334879369090709478e-02
-4.381641771951583220e-02
-4.274890564932810194e-02
-8.415907941271906501e-02
-1.050074920601147543e-01
-8.867418071272417657e-02
-6.146107002383507240e-02
-4.504998445673069271e-03
9.131964186490917901e-02
1.502289574832047225e-01
1.546671019590356577e-01
2.032625151910329719e-01
2.526949366013171994e-01
1.282313557280900795e-01
-7.742553219740574977e-02
-1.272517679591898543e-01
-8.972784773042420670e-02
-1.160117226388395623e-01
-1.220486789555141616e-01
-5.255587848810236440e-02
-4.315551392601219699e-03
-1.284552766664494652e-02
-5.501064313683103058e-02
-1.246418628189462918e-01
-1.438730691069405876e-01
-6.465791780049211235e-02
-1.862658665293596624e-02
-3.082188851568563523e-02
6.002927037394563403e-02
1.623891642566732407e-01
8.500295628210767507e-02
-7.279989585558359344e-03
4.582223919850229865e-02
1.050457710999315453e-01
7.916897723630123007e-02
2.103094680660185650e-02
-1.330581368961281791e-02
3.754018820799123746e-02
1.450356830453806978e-01
1.474502279047252840e-01
-1.787384650158098734e-02
-1.779642595898436319e-01
-1.589103071740352036e-01
-4.483829582189003543e-02
-6.365991761347962637e-03
-1.192730018847803011e-02
1.983445895419289409e-02
1.857974212543850659e-02
-3.742851348068874928e-02
-2.219531993703145398e-02
8.396373542708120141e-02
1.362431650247363790e-01
7.715422101448637937e-02
-4.637043470754742026e-03
-4.065538112472665694e-02
-2.221194289840365543e-02
4.955642651803286031e-02
1.441194526672293919e-01
1.909258914788962980e-01
1.426157609359881284e-01
2.612299879394937296e-02
-9.008461669765835400e-02
-1.349056757974558540e-01
-8.253078471882097089e-02
-4.532369070411798595e-02
-1.648584156924340627e-01
-3.699503598179940123e-01
-4.854079629698851983e-01
-4.895725568550068907e-01
-4.224059138770577815e-01
-2.474490037274686693e-01
1.940853871437528411e-02
2.690619246717718127e-01
4.329645160210839894e-01
4.903175935995749413e-01
4.542761348867601634e-01
4.146799862391196689e-01
4.171938724253695940e-01
3.763769603488643090e-01
2.316543386043082575e-01
3.705090930361645135e-02
-1.390613062405887113e-01
-2.742012179402538163e-01
-3.629511334310079329e-01
-3.980881740600015761e-01
-3.703749681673367822e-01
-2.830497655226987264e-01
-1.717231848096777147e-01
-7.069902298821836850e-02
1.799836218934539045e-02
7.479954781543196596e-02
7.953499035130470740e-02
8.868044596450963546e-02
1.361941612846322425e-01
1.657205470101571487e-01
1.614144410898430693e-01
1.367026036308628678e-01
1.017383102863530092e-01
1.280017544268505780e-01
1.835477496847992274e-01
1.232856681436158841e-01
-8.724023670404531389e-03
-6.932533996095442685e-02
-9.220816618166377543e-02
-1.406221314617640827e-01
-1.629794877312147616e-01
-1.392440452562251629e-01
-1.078425193676169902e-01
-7.882150802490063557e-02
-5.290039798953043160e-02
-1.978491030834266667e-02
3.437922713214177500e-02
6.301732367139623037e-02
3.473286703966778355e-02
1.801000970490579736e-02
5.130117046279262377e-02
6.189721052989488603e-02
7.797604372306889825e-03
-4.662608130811172341e-02
-5.046485363428434429e-02
-3.567533230534858379e-02
-2.975148075684745652e-02
-1.077334481813759133e-02
1.334553678569447982e-02
-3.289671866045593834e-04
-3.012723408563765248e-02
-2.191208535981354483e-02
1.001549884531633197e-02
3.346342134933551205e-02
4.938140875832219140e-02
4.726100025955101008e-02
1.653737257671552760e-02
-2.176462667421278502e-02
-3.973149892867742367e-02
-2.257331670243259425e-02
1.694653136975223656e-02
4.132401931551364649e-02
4.232876326207397899e-02
4.569417126681742103e-02
5.077467221364614924e-02
3.500043536672359235e-02
4.446198906969359155e-03
-1.154782737903572477e-02
-1.261829175671025371e-02
-3.203112378536972227e-02
-7.793791340691491598e-02
-1.142580652015114384e-01
-9.476324781211355186e-02
-8.520395816630468161e-03
8.708357603496687249e-02
1.030832370469790538e-01
1.521900846579455832e-02
-7.831803801187836589e-02
-7.024418904711664247e-02
-5.414813122967022940e-03
2.408147654992660869e-02
3.712548971549076149e-02
5.980338810904741592e-02
6.021520844645528170e-02
3.629935485216187474e-02
2.951529469524460589e-04
-3.632516126275675550e-02
-4.702330183263365992e-02
-5.988029836966143188e-02
-5.267243049960056850e-02
7.766464278220334971e-02
1.949949580953049544e-01
1.154967907824982487e-01
4.838681478971408600e-02
1.147631227983558072e-01
5.592414551688329460e-02
-1.231743682917399718e-01
-1.767927268246426153e-01
-1.558890194977082810e-01
-1.597243492847230939e-01
-1.169252731363655123e-01
-5.690024900292405680e-02
-4.216720271185717128e-02
-1.048902362173645755e-02
6.416419624331891336e-02
1.187274436428197716e-01
1.077534212681202641e-01
5.032694466640143249e-02
-2.298280479719355153e-03
-6.770700064329820966e-02
-1.671433893726111120e-01
-1.551079660196963139e-01
4.848693803941207109e-02
2.049967681246435414e-01
1.379199709544120245e-01
4.955347971937591744e-03
-4.877628609646997987e-02
-4.029714859285674078e-02
2.725491732911021828e-02
1.399489887784130249e-01
2.037518220757713605e-01
1.367798099323790928e-01
-2.591274583833437853e-02
-1.557256546249790596e-01
-1.738594609678383029e-01
-1.003810702783263786e-01
2.498696706280247731e-02
1.291561181821625492e-01
1.118535938574982957e-01
3.282093395502470867e-02
5.679984303730992168e-02
9.675138209037631443e-02
-3.487844520590700770e-02
-1.701213312721518711e-01
-1.032668988626661566e-01
-1.862970374379240360e-02
-6.494697488703314592e-02
-9.357708772528611219e-02
-4.113477131420717470e-02
-1.234395341551234627e-02
-2.968080010354070750e-02
-4.373108219074765129e-02
-6.165261040176922558e-02
-8.541519241366885007e-02
-8.309693623157302089e-02
-8.370940510105463750e-02
-7.601514237561426968e-02
3.447373620085578128e-02
1.737903277788074019e-01
1.912786553944307300e-01
1.596367572297395787e-01
1.802458328009343691e-01
1.960621877471238061e-01
1.772865572351453867e-01
1.522278301967557035e-01
1.000991227831462549e-01
-1.438829512569721886e-03
-1.275687526496145918e-01
-2.351636761039717083e-01
-2.896831522109787338e-01
-3.003703661658816970e-01
-2.969621880147653714e-01
-2.548264394898821505e-01
-1.349232341178657479e-01
3.306256984524941905e-02
1.767260920565574267e-01
2.423007429422459613e-01
2.352892372994072057e-01
2.098184511338019309e-01
1.786203213255665168e-01
1.080360749565462131e-01
2.395759094763504765e-02
-1.459685161694282418e-02
-2.615107500055028483e-02
-5.956502004893625413e-02
-9.348870157778332857e-02
-6.781735609511028995e-02
2.668947467675512192e-02
1.177266359547550351e-01
1.158811157941087994e-01
2.273394524784934020e-02
-7.141078086372405764e-02
-1.119962583554494906e-01
-1.200431937505225533e-01
-1.109644893408096300e-01
-8.195248666188610642e-02
-6.200838294044308530e-02
-6.577276426289646594e-02
-4.429169877281077805e-02
1.360298076509039965e-02
3.782591319925545509e-02
2.563715314519373137e-02
4.567045427675142655e-02
7.061878039193780765e-02
4.535494014548355213e-02
3.112605127832904217e-02
6.666262801092986967e-02
6.828881210109155608e-02
3.561288411272379995e-03
-4.446608699479426274e-02
-3.691526020075745762e-02
-1.079869927163898055e-02
2.719201487472281201e-02
6.532663894727848419e-02
4.003353624308192416e-02
-3.260035376695481074e-02
-4.661353188384913943e-02
6.947554298302302880e-03
4.120049170219108881e-02
2.577216308911555245e-02
-8.182095382460657235e-03
-3.584596196305615129e-02
-5.499575223538846758e-02
-6.618468383881734307e-02
-4.984630296780031417e-02
8.612529192443471593e-04
4.793887958058827559e-02
5.183954151733362326e-02
1.422548354229288478e-02
-2.609481955465461217e-02
-2.740546921648703838e-02
2.285518837774156743e-03
1.343506105352968751e-02
-7.160915802832945425e-03
-4.010620454895423570e-02
-9.384302509174484441e-02
-1.511674150499961455e-01
-1.237702559835604232e-01
2.676641491002420756e-02
1.972973387710147131e-01
2.627752612528816423e-01
2.210259318798016570e-01
1.334777387253830994e-01
1.729334488355996000e-02
-1.056358792839719035e-01
-1.663344811120367472e-01
-1.324777444688749473e-01
-5.923877748697846390e-02
-2.442396288654062608e-02
-3.665316893929579378e-02
-4.936208465749852142e-02
-5.853181397760275073e-02
-8.866574908481240913e-02
-9.811035250674383923e-02
-2.109849834605031713e-02
1.158808985134178182e-01
2.149111091169530752e-01
2.112686612807175845e-01
1.147860171675313401e-01
6.619874410048662543e-04
-6.023983190710216484e-02
-9.783592731872098325e-02
-1.669990555041327152e-01
-1.682780845546034409e-01
1.310545092475600207e-02
2.056914741871517238e-01
1.791269401694132457e-01
3.717163103097078508e-02
-1.588521384902380831e-02
-5.866229903337825263e-03
-2.300601553401715460e-02
-3.204974579370381549e-02
-6.105991933574392988e-04
-6.586283707560427851e-03
-6.614313431701096535e-02
-5.789720491684509363e-02
-4.378016155998681186e-03
-7.359229293654798165e-02
-1.586181367673723253e-01
-3.136438085664421116e-02
1.532040304262748953e-01
1.484063593381832191e-01
5.528031485390514504e-02
2.591983807726168723e-02
9.188834144431154427e-03
-3.773749543111901139e-02
-6.596861279493380914e-02
-7.051428784420397944e-02
-8.295042439075248075e-02
-7.158893185118511693e-02
1.062912403688862084e-02
1.442074429188311968e-01
2.704344026866136175e-01
2.761387454397708496e-01
8.218120897204138353e-02
-1.188124679023235680e-01
-1.039477054850340976e-01
-3.392602175306182188e-02
-1.172659043664708439e-01
-2.243662763770690183e-01
-2.191331677792001664e-01
-1.810212487734949582e-01
-1.468224256126179905e-01
-5.599128669672131381e-02
5.762181967417895345e-02
9.661950430878826768e-02
5.970648840213080982e-02
2.755557180770646861e-02
4.746929498356927679e-02
1.043377735497741099e-01
1.651437932887038773e-01
2.028738810486747646e-01
2.027646288192377633e-01
1.743325193966530628e-01
1.405711452025542318e-01
1.005785476793351341e-01
2.694072008193634099e-02
-7.545008993419739796e-02
-1.588647398204326433e-01
-2.115280699662726305e-01
-2.596062653911810347e-01
-2.819122186178818490e-01
-2.546286307025498741e-01
-2.239615339939565186e-01
-1.666960310151024693e-01
4.296511874844755052e-04
1.600531419132994460e-01
1.630590253588692362e-01
1.373813356316453405e-01
1.941698398846207763e-01
2.195761854847144423e-01
1.654237563810728728e-01
1.117516180610996640e-01
8.346685982292639805e-02
5.520130067879174679e-02
2.068161270399191190e-02
-1.199258513453168445e-02
-3.954727310536606394e-02
-7.609029444401681219e-02
-1.216831618295874384e-01
-1.301208992807519338e-01
-6.515626081237424483e-02
4.268137025536622442e-02
1.132018390433530697e-01
7.777315854141925167e-02
-3.209360943496700203e-02
-1.039522685042900685e-01
-1.028094722291155311e-01
-9.418698205722168815e-02
-9.463057579810527087e-02
-6.869622714368944782e-02
-4.295371928941191936e-02
-4.507021146609311441e-02
-2.598001858923727758e-02
3.539416406815417554e-02
8.530596522211512933e-02
8.695797370680870275e-02
5.752320586058203011e-02
4.197542353242877944e-02
7.331536681481980178e-02
1.135166419283414191e-01
9.649621875809936966e-02
4.093603357940190507e-02
-5.353888977293479873e-03
-5.356748158172854740e-02
-8.634780680006216846e-02
-5.812300491991807122e-02
-1.470920925457776599e-02
-1.939171825460540149e-02
-4.335349327443712569e-02
-5.151636882696454534e-02
-5.200781501533636303e-02
-2.839375047872416680e-02
3.213282920261335829e-02
6.745006392174965337e-02
2.742842158602448038e-02
-3.409077646482488316e-02
-4.989471849401182907e-02
-3.558315975040673984e-02
-4.389845664262619074e-02
-3.638316822701383874e-02
7.946867170261431856e-02
2.031573043654808230e-01
1.535379403372694740e-01
1.841974009840253307e-02
-3.266869538185622479e-02
-3.321022684546014181e-02
-3.221211758002281988e-02
2.485116519867439783e-04
1.145549547521319475e-02
-6.811553405597089994e-02
-1.645327719538895728e-01
-1.740339491995695764e-01
-8.864090635861938960e-02
7.182449562802767362e-02
2.472755131401108697e-01
3.000573808231615791e-01
1.803731815010867490e-01
8.939873055729021314e-03
-9.083269067427549026e-02
-1.029346161340268795e-01
-9.325265517721012531e-02
-1.344552541681260927e-01
-1.788133012282323575e-01
-1.285327068818120366e-01
-4.518107616312476427e-02
-2.744304568570104033e-02
-1.257342586885249608e-02
5.914234906168275296e-02
1.161527217008664764e-01
1.122519138819493834e-01
8.826914251630554875e-02
6.259063149226376521e-02
2.225282457314167392e-02
-1.034277608270740834e-02
-1.403113389456665631e-02
-2.194713096475874037e-02
-5.762151357953596703e-02
-7.477479150961030552e-02
-3.432811715503938932e-02
7.529198824107064675e-03
-1.686043816662460837e-02
-5.925601852191200725e-02
-4.145390292260392462e-02
1.048415627156603844e-02
5.075836845494906269e-02
9.349903396458468519e-02
1.292574301576190909e-01
1.141700022657329006e-01
5.638549073556372443e-02
1.167378458339953309e-02
