2.054310132871204481e-02
5.061067415833835764e-02
5.671665069220509225e-02
4.143488014761082666e-02
3.360242956842948714e-02
5.073602381874155881e-02
6.248281552414554352e-02
3.187675378320517505e-02
1.243439430343175854e-03
4.067983152308544958e-02
9.877738076753514451e-02
7.488775485661387787e-02
8.834318629732332978e-03
-5.400923731163626354e-03
1.835950436698791099e-02
2.374914618793559640e-02
1.158229834605860320e-03
-2.033069402157519634e-02
-2.989937349361244945e-02
-7.528611854560007810e-02
-1.572815276687255792e-01
-2.014995184397306849e-01
-2.066762857482196403e-01
-1.763884824294727482e-01
-6.553904476427672987e-02
1.129671869969817513e-02
-4.716567682438333603e-02
-6.847371957823170097e-02
2.602477375040101321e-02
7.231944125118490441e-02
5.090132438270196513e-02
6.729753559990579725e-02
1.024919656689648600e-01
1.236833767540700263e-01
1.657175109756032771e-01
2.020538806849449809e-01
1.629493572993157835e-01
6.866118206817037328e-02
-7.216191860624370652e-03
-6.102616469065805238e-02
-1.278371197456353858e-01
-1.749115756464962312e-01
-1.359203226903622497e-01
-2.493871312190628839e-02
8.241583319923596884e-02
1.636505002995803926e-01
2.312107824740700368e-01
2.408270750125318105e-01
1.812031406969527580e-01
1.311604281987519827e-01
8.071410067085472984e-02
-2.215620563240340915e-02
-9.657115357219567264e-02
-1.377095359871682578e-01
-2.256707980802571678e-01
-2.452617461078837324e-01
-1.355994743841694994e-01
-9.460250866359661004e-02
-1.896771943265765925e-01
-2.616612761401155840e-01
-2.416298271202294567e-01
-1.985419454184590149e-01
-1.753075816418495358e-01
-1.703454360040933813e-01
-1.692057025678141147e-01
-6.554357855995962545e-02
2.168915668272984598e-01
4.840246275726252101e-01
5.335142373108833214e-01
4.523630242630327647e-01
3.475332615190993568e-01
2.057260968795605049e-01
5.442891658051417225e-02
-8.104811810016818163e-02
-1.871281788530335666e-01
-1.916954502590607623e-01
-1.107293132773812805e-01
-6.893912403258009580e-02
-8.539908554105782312e-02
-8.435170833314398209e-02
-5.249861872384019301e-02
-2.536128030630171656e-02
-8.339926486331698113e-03
3.170465441651530020e-02
8.998793408623050050e-02
9.433018345563781715e-02
3.268260960240759738e-02
-1.495176448068243416e-02
-8.941795131831256627e-03
2.663626617011625314e-02
5.208467065771336946e-02
2.435412886331870738e-02
-4.067174254005582329e-02
-6.939531174269876479e-02
-5.496695616912430915e-02
-6.528542860599864661e-02
-1.040620935281474924e-01
-1.037313155957625688e-01
-6.270161573643798225e-02
-2.947927009092763534e-02
-4.104496276987171927e-03
8.826116609739594054e-03
1.427700512073027533e-02
6.666070012018168733e-02
9.553740158382105496e-02
2.970846384896114190e-04
-5.639639367059039871e-02
5.346110884188343820e-02
1.386806833115100945e-01
9.810062787479430224e-02
7.476201332399008692e-02
9.318053416560261037e-02
5.271118952011515091e-02
-1.292472887755867494e-02
-1.719790541794313093e-02
9.685068906401146649e-04
1.864292752724625718e-03
2.167203985959654730e-02
2.752381832799116052e-02
-1.528118572978777803e-02
-4.285860495097862377e-02
-8.328184292526173704e-02
-2.236524665036196957e-01
-3.654364242671526153e-01
-3.663357405184982651e-01
-2.655169961722696481e-01
-1.721997560869533428e-01
-1.102175152462167435e-01
-3.068142352893530461e-02
8.944894831798386181e-02
2.085248248942711824e-01
2.935174184444253043e-01
3.477760947259501134e-01
3.727081069640799660e-01
3.741920484853752948e-01
3.559019017535433038e-01
2.995848541476020532e-01
1.943196354731321351e-01
6.339991362498040295e-02
-4.366576654255253931e-02
-1.044493019692217667e-01
-1.459789077178816896e-01
-1.753900267147837089e-01
-1.821859007532382613e-01
-2.005184246293265360e-01
-2.499719536050822588e-01
-2.835384362103021139e-01
-2.678873472066076733e-01
-2.175481117840390166e-01
-1.422953055202654249e-01
-8.504082796855073900e-02
-1.028023386007428097e-01
-6.982298974131731506e-02
1.544037014219252768e-01
3.390823999290172863e-01
2.475275159011437465e-01
1.008121103375745620e-01
1.168433104315217130e-01
1.575760926728162203e-01
1.040676717902016130e-01
2.501214692908452705e-02
-2.254556934319984843e-02
-3.837317682534012453e-02
-1.767466724216619489e-02
2.531479163508981375e-02
4.481063156025306277e-02
2.557501506176660180e-02
-4.774686383630615330e-03
-3.267023444047727210e-02
-6.273924306175848731e-02
-9.102906330999549489e-02
-1.100292790054556574e-01
-1.134359957509960271e-01
-1.071991396795507201e-01
-1.038000853087052561e-01
-8.551190195601388044e-02
-4.231773204708060010e-02
-2.486244570634563167e-02
-5.705987156006402800e-02
-6.984662308521649710e-02
-1.314419755304712355e-02
7.027480890459757157e-02
1.251734528891746134e-01
1.602224298800269398e-01
2.334076204154147127e-01
3.170860232926897004e-01
2.779631526875469549e-01
1.489628611960948645e-01
1.109125738515511078e-01
1.367493267289520975e-01
8.032851834195009477e-02
-2.406255456226490119e-02
-6.329855536709491637e-02
-6.135556986942826418e-02
-1.385013848708363526e-01
-2.945810374898080175e-01
-3.713850913484816330e-01
-3.040459130970511459e-01
-2.245639071497278205e-01
-2.331988853263163575e-01
-2.665447602621472956e-01
-2.355685266108182296e-01
-1.232768856196958529e-01
2.650770020040591618e-02
1.487127261517879329e-01
2.412661652035347215e-01
3.091518466078963523e-01
2.836020511698766899e-01
1.905477654374782559e-01
1.678455498689659930e-01
2.119974672439201846e-01
2.128724230249407212e-01
1.785429196267883656e-01
1.627070463761198238e-01
1.258740127833022915e-01
3.656101356777393535e-02
-6.623940323351584780e-02
-1.573379327238306757e-01
-2.236557838477228888e-01
-2.453031765627934346e-01
-2.413209130834408356e-01
-2.257687952270247544e-01
-1.736196335049899897e-01
-1.070768711379698618e-01
-8.028376321458249865e-02
-6.363400392526728788e-02
-1.651696042505425288e-02
4.638929611594105190e-03
1.949067372680055032e-02
1.349687653184356018e-01
2.411237894965200801e-01
1.892415930348682607e-01
1.254574525987151579e-01
1.596531718288641266e-01
1.751717842227909494e-01
1.470346289747796742e-01
1.347085974956397370e-01
8.991348100979909552e-02
-2.363233929276619197e-02
-1.390555740710473775e-01
-2.140575576122822066e-01
-2.710014029281186398e-01
-3.066536598647517931e-01
-2.874309354148523177e-01
-2.117914487400139878e-01
-1.177964307703086855e-01
-4.766910151224081071e-02
-1.933880280641496474e-02
-2.234741692646140254e-02
-1.842750420763927116e-02
2.855492948808037793e-02
1.093277210530491927e-01
1.970006371185911709e-01
2.632185838981612735e-01
2.637172304630883701e-01
2.102185676282742610e-01
1.990435882012238089e-01
2.598926810281896316e-01
2.546682674406783864e-01
1.075447394957741443e-01
1.080387577899188933e-04
2.732753936007423917e-02
-6.427996396956368874e-03
-1.561181006365209845e-01
-2.467105908941535364e-01
-2.629189420575320790e-01
-2.896925931422936751e-01
-2.775415006100664383e-01
-1.876499628895558491e-01
-8.891548035584243004e-02
-2.965198500015320954e-02
4.783995645788317874e-03
3.425015418606248974e-02
5.011992990211790178e-02
4.234538383493260949e-02
2.375447258257973662e-02
-9.801993515135651314e-03
-5.685141558731344330e-02
-6.489351405987857369e-02
-1.296507164713238056e-02
6.180966554096099796e-02
1.576226250752154889e-01
2.728656157499877999e-01
3.101162905392721436e-01
2.129105709015001457e-01
1.117928894423258213e-01
8.397281546208486269e-02
-8.135120652024797894e-03
-1.853897458965782508e-01
-2.829105086524909551e-01
-3.013838873157378417e-01
-3.010999654570992723e-01
-1.858841920407867665e-01
-1.806147811451348957e-03
6.698115022324485635e-02
6.319342227052637817e-02
8.465519697256403131e-02
6.918012538701619196e-02
6.322738883479490923e-02
1.821339927750123544e-01
2.545114556643854886e-01
8.934157704504552822e-02
-9.189703232173596081e-02
-7.119688349556757556e-02
-2.326613165561502994e-02
-7.203627721898869796e-02
-1.068696431249546164e-01
-1.169841892936212685e-01
-1.512232080655043498e-01
-1.768868185772566048e-01
-1.898780159277656532e-01
-1.342340063809800976e-01
7.929762100139238490e-02
2.837635333843344099e-01
2.859125213373041596e-01
2.394309893469580008e-01
2.978870962262335498e-01
3.523416892605659712e-01
3.319237966567325504e-01
2.793224735730615582e-01
2.073847065364827769e-01
1.219205519000496479e-01
-4.613941355491926744e-02
-3.541878823757002581e-01
-5.397193932251403981e-01
-4.115774004620889048e-01
-3.005895602252003362e-01
-4.181693109409544418e-01
-4.930743780652574459e-01
-3.819189977381372558e-01
-2.559911992736338959e-01
-2.183708511435205613e-01
-1.652737789761810072e-01
8.499199658155945358e-03
2.237012069957899918e-01
4.054262885673289851e-01
6.040928295120636671e-01
6.834115150927501103e-01
4.716362605328885405e-01
2.460706084821891182e-01
2.572064022155207130e-01
2.294494689371927298e-01
7.282751335340530152e-03
-1.498099691594015903e-01
-1.577340174963733632e-01
-1.829066855339335773e-01
-2.632743986034812300e-01
-3.253634983484552379e-01
-3.322428448766931997e-01
-2.660379145901785591e-01
-1.514512617805280625e-01
-5.968612325598991047e-02
-7.761746735936242425e-03
3.902523604816372782e-02
8.701684182306680670e-02
1.380624017683690641e-01
1.985388009629301398e-01
2.232986114814637102e-01
1.893789754995911789e-01
1.599440343442834755e-01
1.501934792466220470e-01
1.076747147357029200e-01
4.641698062077987547e-02
-4.384717180074871462e-03
-7.280090693358270970e-02
-1.457723893539282223e-01
-1.658058202684032367e-01
-1.366405071278647132e-01
-1.140665554773314383e-01
-1.249638661325082473e-01
-1.420701968782579760e-01
-1.363466690754893129e-01
-1.218350785227027278e-01
-1.014173786347778994e-01
-3.889014992884451405e-02
6.264270890745049503e-02
1.405809518417860948e-01
1.483126404937737119e-01
1.075084872898309507e-01
7.326930755554983410e-02
5.444460663767671654e-02
8.179138688527083298e-03
-7.675557473172445189e-02
-1.107782492431171883e-01
-2.022695626550575360e-02
7.734560056860734223e-02
7.784641547278618734e-02
9.640647106358146701e-02
1.778644795495839814e-01
2.089776562004847515e-01
1.874069890809685890e-01
1.528393284297936972e-01
9.104099745983523784e-02
6.209753002215956386e-02
3.714276517156793467e-02
-1.134989534616847318e-01
-2.425790523452749647e-01
-1.819761876843350445e-01
-1.438080633115292051e-01
-2.448693346210494837e-01
-3.031258401437288974e-01
-2.776911758473553093e-01
-2.273943051519000391e-01
-1.167467238675444219e-01
6.221679325648439562e-03
3.198417169364644458e-02
1.027801288525934109e-03
1.258843643283447805e-02
4.515310665224587378e-02
6.479250677551763593e-02
1.214351240580003322e-01
2.086059741223241226e-01
2.651112945229153195e-01
2.964932065201547617e-01
2.938390676952881697e-01
2.234206442599053211e-01
1.574771842271220079e-01
1.488749972438470348e-01
1.046409774246331581e-01
9.841499488655036654e-04
-5.901260899099614043e-02
-8.756111730417459604e-02
-1.674951896507453075e-01
-2.400993685999121274e-01
-2.374602561288957359e-01
-2.237553213046007405e-01
-2.265969391671124600e-01
-1.840187477264390581e-01
-1.071288017862394859e-01
-7.079701590604413342e-02
-7.780153440937465081e-02
-7.261240666969932811e-02
-3.196014944939415403e-02
1.747321145409921200e-02
4.688976855546478362e-02
7.017947985289885171e-02
1.031907126622121640e-01
1.176191761334139801e-01
9.695218328810037423e-02
5.381482264866647991e-02
1.751925932514968379e-02
5.444761595121765108e-02
1.093938244553350758e-01
2.209464199537842719e-02
-6.546588530489265423e-02
1.037294680023061189e-01
3.279378276489835486e-01
3.153146468306733952e-01
2.128065129297095626e-01
2.026872667592849175e-01
1.791844040288833317e-01
9.174719068668506228e-02
5.537090705115681188e-02
-2.794218945774140650e-03
-2.687605857323717151e-01
-5.533203038344605140e-01
-5.348749428826176100e-01
-3.456338066507927964e-01
-2.701390386766185370e-01
-2.938004374199691959e-01
-3.001898876088461288e-01
-2.361460314674684313e-01
-9.378580130656399838e-02
4.189303280687053932e-02
1.126597081975301423e-01
1.978374988264904877e-01
3.240932171298844255e-01
3.693525614230741549e-01
2.850061695348944935e-01
1.887661920149253381e-01
1.557699925792174200e-01
1.298530859715454344e-01
9.589976726220210412e-02
8.654235736986647110e-02
1.215644148569461347e-02
-1.671770358213008345e-01
-2.165509823363783448e-01
-4.268147909983532884e-03
1.816722054363866246e-01
1.166649006892700180e-01
-1.753576500911952288e-02
-4.774005901587840411e-02
-3.958050579315068596e-02
-4.751813963180241684e-02
-3.809806410171857893e-02
-9.825069669854807550e-03
-1.846823984423028378e-04
-1.758337159205145689e-02
-3.914762901341885259e-02
-5.434808468817782512e-02
-5.079327928468522352e-02
-1.526572269660119927e-02
1.284704791945100177e-02
-3.021858230595579620e-03
-1.557016590634936054e-02
2.068427736730482636e-02
6.481910239915840422e-02
7.378036508451576991e-02
7.621079876677841480e-02
8.979358158762104636e-02
5.061330069566147283e-02
-8.151049156476049273e-02
-2.189517768852232149e-01
-2.797954232053162515e-01
-3.172749487661463696e-01
-3.267857267612069294e-01
-1.912943393991859975e-01
-5.275199501960996587e-03
2.377483346759148852e-02
-1.963904587462222961e-02
2.872238222813179587e-02
1.077651268343614022e-01
1.475081182149549364e-01
1.877083271743177628e-01
2.375123488433348584e-01
2.672893727973910116e-01
2.741013723872829932e-01
2.782485954423855601e-01
2.791995116452976600e-01
2.367862123137968178e-01
1.414534446495292197e-01
4.969808536585703512e-02
-7.740678244790417939e-03
-6.170242432362053886e-02
-1.389573986987459320e-01
-2.324088659186377415e-01
-3.026140588327761449e-01
-3.209965591653795580e-01
-3.155370097392536932e-01
-2.901499496726744343e-01
-2.052299228368865969e-01
-9.910427304402899540e-02
-3.932644297552363721e-02
3.589546787591373078e-03
7.145176300132712044e-02
1.250282252797533522e-01
1.312686768356061684e-01
1.331764198049457670e-01
1.516516139971358923e-01
1.316963554851604545e-01
6.653665911035522296e-02
8.560003188592514925e-03
-3.736512858278567828e-02
-5.268436020334813646e-02
1.233759354067826691e-02
1.008522706388082918e-01
1.131982818594984563e-01
7.550532862412495660e-02
6.047494324286938061e-02
6.450131371132995783e-02
7.412519635288437880e-02
9.657664225546411241e-02
9.721485295902151935e-02
4.030369380951229902e-02
-4.996410205543444505e-02
-1.306113633587243639e-01
-1.814382539505545178e-01
-2.041859866378680777e-01
-2.178046366375571974e-01
-2.397874000592072896e-01
-2.508008281312217869e-01
-2.037018877637634118e-01
-1.017089897909759788e-01
-1.843610426468957064e-02
1.194416429596419776e-02
4.892068590976586528e-02
1.355354246869848178e-01
2.292278453968016882e-01
2.718240386761715532e-01
2.543213607718663449e-01
2.211147575095749884e-01
2.050357583168602726e-01
1.624235948679353947e-01
6.438774539334475577e-02
-2.681326683436551644e-02
-8.072844157447583990e-02
-1.395068999977646385e-01
-1.908308516817617817e-01
-2.032414517475128746e-01
-2.301798214970272316e-01
-2.831851210423230736e-01
-2.673633241525780746e-01
-1.645238322435023381e-01
-5.089978771447129652e-02
6.512825676563321897e-02
2.085438711603981865e-01
3.394418243325963980e-01
4.119894170861206906e-01
4.360629535064277640e-01
4.363193330621107924e-01
3.699151826385588260e-01
1.850627087612322363e-01
-1.659376225793566390e-02
-6.950276640614905244e-02
9.828825444790481591e-03
-4.419789058281449468e-03
-2.529936663576531908e-01
-5.141434247943209579e-01
-5.408310235382451925e-01
-4.542535542394650627e-01
-3.962215527018891348e-01
-2.949994692760586346e-01
-1.503983604392553353e-01
-5.632016282936654072e-02
-3.697027421778757705e-02
-6.232100959777885085e-02
-7.100312083577198230e-02
-2.475047645265160412e-02
3.821660049832410755e-02
1.039324545338184413e-01
2.047919280747552973e-01
3.087676766783654103e-01
3.363318796795656263e-01
2.798831294685955595e-01
2.320455972645195930e-01
2.507014658992255396e-01
2.769251322858279907e-01
2.662667905112106048e-01
2.391802086969237739e-01
1.962711036512417295e-01
1.298609169087628357e-01
4.046742026144210802e-02
-7.599922686298224428e-02
-1.839014161636017275e-01
-2.379331931326656713e-01
-2.697765184959514118e-01
-3.202121207222881072e-01
-3.372386367564464416e-01
-2.702414817883030396e-01
-1.716583366713345382e-01
-1.110918486621909063e-01
-8.297520882451427104e-02
-5.375926819151811281e-02
-3.301619186281429946e-02
-3.189723981558825749e-02
-5.395846028535718208e-03
5.928489153956658514e-02
8.670907086734286340e-02
7.979867064081155870e-02
1.459805245936380835e-01
2.155991054552581498e-01
1.223757542274021698e-01
9.706113596883319400e-03
8.250647968882116046e-02
1.749048602914204109e-01
1.127897329121433923e-01
2.140144199746961406e-02
2.160892000668084706e-03
-1.663323935664387521e-03
-2.207299883865152662e-02
-3.477628330293165704e-02
-2.789121897252140950e-02
-3.713319287952225947e-03
3.487120052933088965e-02
6.450301590359265591e-02
6.784412069707694559e-02
7.953789918095149902e-02
8.656578773511523772e-02
-2.683282442453918670e-02
-2.709665688337777878e-01
-4.767859572649784106e-01
-5.419637632399338933e-01
-5.127525932937765374e-01
-4.227672934807704674e-01
-2.595083977953580590e-01
-4.489062947829072781e-02
1.346765840032205230e-01
2.194962393645514265e-01
3.283295684433887307e-01
5.586334031454546212e-01
6.867517871673312069e-01
5.524873019382924300e-01
3.893223197904531752e-01
3.354698638941751021e-01
2.467997713222152834e-01
8.714180270624068136e-02
-6.217436947445208195e-02
-1.696561706025262739e-01
-2.131492680385248528e-01
-2.101443437757986032e-01
-2.311996841873211472e-01
-2.896096758519902670e-01
-3.291010536068655346e-01
-3.147246756559057279e-01
-2.718298369561658601e-01
-2.266200570077486209e-01
-1.532702751780603279e-01
-4.684819755221425464e-02
3.608534805349105506e-02
8.662440347108403549e-02
1.556350299306921148e-01
2.216333424046082190e-01
2.155069345780646073e-01
1.713299359427470914e-01
1.646340498704725874e-01
1.501084396526877196e-01
8.613637749500550889e-02
6.798071321184845361e-02
7.189206037063514132e-02
-5.977399668269947619e-02
-1.991505099379804744e-01
-1.246266004191490528e-01
2.320646012790625323e-03
-1.125781819322259174e-02
-4.765696874637685015e-02
-1.660644964373220178e-02
1.337403144642490722e-02
1.806210291772838983e-02
1.641455969724042382e-02
-1.323252148249209892e-02
-7.090520897312210802e-02
-1.027549194115592313e-01
-1.128666796105703418e-01
-1.568089927572414166e-01
-2.142678985699862648e-01
-2.449287822161556882e-01
-2.254474062974195503e-01
-1.079770906660391244e-01
2.761799147248213127e-02
4.098064908526971584e-02
8.734792154914267082e-03
4.291902962090887036e-02
8.282754590440163933e-02
1.149196156963021020e-01
2.071817568977389057e-01
3.177004261823612730e-01
3.751724482502000746e-01
4.075034628167117923e-01
4.428824080192350077e-01
4.620305393234795943e-01
4.549111957681648555e-01
3.900134674941811985e-01
2.276743719977789016e-01
4.234931012287779240e-03
-1.987367952652348002e-01
-3.161089772747821547e-01
-3.469173717986531180e-01
-4.035317692431849013e-01
-5.573098939691756293e-01
-6.778579907249125958e-01
-6.395492842689827206e-01
-5.126068049737000365e-01
-4.051753478757109672e-01
-3.327577532444976338e-01
-2.592338013521465756e-01
-1.215793945434605061e-01
9.279018136557375118e-02
2.457425378129038662e-01
2.526332714440459037e-01
3.000786367108956854e-01
4.818765436455193507e-01
5.588355101673374570e-01
4.732376266691694089e-01
4.910482036721247057e-01
5.455226435399722629e-01
2.375668155331697451e-01
-2.868962323669779768e-01
-4.259715563837545016e-01
-1.748755609162977454e-01
-1.334552917248320314e-02
1.900479116062344861e-02
1.185660397163554036e-01
1.315438920956107371e-01
-7.083006922995854771e-02
-2.900856644899413306e-01
-4.069919491743848594e-01
-4.615808288291115558e-01
-4.076857256367310001e-01
-2.266684224369744649e-01
-3.076128807216669397e-02
1.147842937749820047e-01
2.512934790806053420e-01
3.856615404942428382e-01
4.458918119160805715e-01
3.931140729453000415e-01
2.725362048533542803e-01
1.486886740103908477e-01
4.802224031057012593e-02
-3.593213231969406146e-02
-1.011278515990012561e-01
-1.330341722157407092e-01
-1.397952353566496164e-01
-1.450805954206262904e-01
-1.466284217800074563e-01
-1.148392283392523500e-01
-5.283250287717833338e-02
-3.101309994238751408e-02
-9.712928266396957111e-02
-1.862727742085353577e-01
-2.081874977446250552e-01
-1.724255313021185454e-01
-1.347965016885405709e-01
-8.714960150558052898e-02
4.741615985211410089e-03
1.255933637677937587e-01
2.273779326457974759e-01
2.594811457829900858e-01
2.070240146988524543e-01
1.270562839049063919e-01
8.063763821980882152e-02
5.658698784548400751e-02
2.649339776360902510e-02
6.156189993593928766e-03
6.067437662828290695e-03
7.018814254490326338e-03
4.953977668480331886e-03
-8.399139135123287470e-03
-4.608361927881270137e-02
-6.276974182668201840e-02
-1.527258953910267877e-02
5.716289757157977380e-02
9.449597546854927865e-02
7.857572810397070451e-02
4.032783351023948304e-02
1.517994911546359862e-02
-2.473263330064724014e-02
-1.115331953099060053e-01
-2.041010779274543829e-01
-2.651865963369074430e-01
-2.967052272907140242e-01
-2.799172434769385820e-01
-2.147365603778879084e-01
-1.367610674389773406e-01
-4.731170423938070579e-02
5.483676028106786171e-02
1.425971631762977254e-01
2.160162885968511248e-01
2.824036927779743356e-01
3.089072058189004100e-01
2.792811696313172720e-01
2.462239894092198567e-01
2.417366270396810735e-01
2.160630206368868433e-01
1.545324387695272139e-01
9.997445809948241058e-02
3.180106203260266162e-02
-7.555997973760680830e-02
-1.568007351210189138e-01
-1.744320257963249410e-01
-1.738099383343742477e-01
-1.786488281741426265e-01
-1.759912835715808921e-01
-1.601745774512406129e-01
-1.354325811724533257e-01
-1.025819455415627884e-01
-4.751004534775178645e-02
8.462356672967970284e-03
8.137252856436544279e-03
-1.482261653557480352e-02
2.948127222291622648e-02
1.123292272740521874e-01
1.410243221055626772e-01
1.013063183675720624e-01
2.181949253182641560e-02
-8.246219689462445934e-02
-2.024675801557560550e-01
-3.098223020278541573e-01
-3.617027248528340566e-01
-3.584421394513715997e-01
-3.013048402577697127e-01
-1.488594729835781838e-01
5.117427039679436906e-02
1.673851971250598092e-01
2.042565735384507530e-01
2.810409246880097855e-01
3.837748970484889388e-01
4.052282670684175803e-01
3.884955146686620564e-01
4.369618371731907591e-01
4.763598690440012939e-01
4.002174271138281836e-01
2.812755852055743855e-01
1.875542659180092497e-01
5.232789946548681292e-02
-1.228850302312975568e-01
-2.324835163520102554e-01
-2.711859992993525537e-01
-3.228305584439933318e-01
-3.758970222518468463e-01
-3.818849033612232158e-01
-3.925406141883321931e-01
-4.273781879588788857e-01
-4.164793556840018507e-01
-3.680379523294219912e-01
-3.695380331951224062e-01
-4.209715786099632040e-01
-3.587182195126883411e-01
-4.998740151869184717e-02
3.357951195525912813e-01
5.312206176638754052e-01
5.558243267826252776e-01
5.616697725255319629e-01
5.419429653411029779e-01
4.690439716136868276e-01
4.158503977431787235e-01
3.647719986703552575e-01
2.045389805149104567e-01
-4.547335441791318378e-02
-2.734976385172351865e-01
-4.155276469308863962e-01
-4.463489980294688131e-01
-3.833369215469708546e-01
-2.442733329062301006e-01
-5.801195788597755809e-02
4.014554257331628961e-02
7.305874904903197908e-04
-1.687742066827943935e-02
4.485725188769160848e-02
9.187509951143252307e-02
1.386539896265809590e-01
1.765784392737145547e-01
8.731022422837760033e-02
-3.508211001953999431e-02
-9.447184260658228472e-03
6.016338066301992610e-02
3.990476094426641251e-02
1.718536482379724034e-02
6.230466760029338552e-02
9.030896634521946853e-02
-5.270469769700634674e-03
-1.875365401083501637e-01
-3.180663510501666180e-01
-3.586572862835401554e-01
-3.304341759816491475e-01
-2.045625870855351525e-01
-3.666767237341284763e-02
4.992527055960002680e-02
5.678010095449086830e-02
5.236420738818847037e-02
4.374052262106615380e-02
4.039931884551996311e-02
9.850642349755392435e-02
2.067249068114762611e-01
2.489124938632771844e-01
2.160151053190711434e-01
2.511972677954247835e-01
3.120791297886113536e-01
1.968146562568279523e-01
1.159387258153940503e-02
7.491864139686187085e-03
6.754611949695130124e-02
-9.560662312791911449e-03
-1.103972114505879787e-01
-1.303137324071286240e-01
-1.614859624260327753e-01
-2.208542430990043659e-01
-2.408650993752834979e-01
-2.335884175538116558e-01
-2.126714617379883987e-01
-1.413477376861682899e-01
-4.102283159227732706e-02
2.099473368156420938e-02
4.425141971464163770e-02
6.369222714486261205e-02
7.243551175454873703e-02
7.504122196619890384e-02
9.678849920382127936e-02
1.118913611712839956e-01
9.355990630861918400e-02
6.478277152815525852e-02
4.426703422059703047e-02
4.867979128365386432e-02
8.837632073806414579e-02
1.094011002464447824e-01
5.504700991594793646e-02
-2.778549404217664498e-02
-3.985053240230604366e-02
2.003897431901196374e-03
-3.018622961140975114e-02
-9.205792187756989264e-02
-3.443748970065597242e-03
1.167578157229119257e-01
1.763346628935071048e-02
-1.865584042953772614e-01
-2.625219756036334395e-01
-2.315016608737151538e-01
-1.963108530432807752e-01
-1.688038188114014126e-01
-1.069014018054776083e-01
6.936133719171094780e-03
1.062670152151900804e-01
1.299846460570402984e-01
1.091305531551514107e-01
9.686430720599752131e-02
1.267465472778848412e-01
1.916480385865790836e-01
2.237386875151622934e-01
1.921043458136360571e-01
1.342359965269601385e-01
7.253927234530857526e-02
5.266676373685798968e-03
-7.167946837449119812e-02
-1.480832083216252204e-01
-2.099961531346432042e-01
-2.816629374714105793e-01
-3.106087105017723005e-01
-1.756258322461740351e-01
1.294244495578491388e-02
6.557181850940885237e-02
9.285774511651954943e-02
2.059175439087506942e-01
2.699095513377427480e-01
2.579359470816816602e-01
2.964076034349282240e-01
3.279362113459957095e-01
1.977453748105827691e-01
1.387214615156893115e-02
-1.443127006723789879e-02
3.051973043158482529e-02
-2.287904382190280445e-02
-1.482153665440767987e-01
-2.895039124146234211e-01
-4.195940917756125210e-01
-4.711331398611576238e-01
-4.340562571853233687e-01
-3.490415539022209135e-01
-2.501102501116700405e-01
-1.903460364565927043e-01
-1.635952611299139603e-01
-1.103073711093101594e-01
-5.249739805616496224e-02
4.485467797996600670e-02
3.007955005992268838e-01
5.607254125373429821e-01
5.917879532544679799e-01
5.355125403307220422e-01
5.306536559523158392e-01
4.314430515240301744e-01
2.104955579242951957e-01
1.519870661809062662e-02
-9.923410941889100612e-02
-1.708024596512232596e-01
-2.470679314577737540e-01
-3.305199114435830587e-01
-3.675125034026973103e-01
-3.365231750897144658e-01
-2.664602654744782084e-01
-1.813005431710300319e-01
-1.108446684210990935e-01
-8.211758399970073286e-02
-6.266539206131781226e-02
2.878646957723066113e-03
1.044660719715443525e-01
1.848168344865440682e-01
2.194718288284784602e-01
2.215174237370803878e-01
1.992174958750831948e-01
1.611195037024346632e-01
1.342575214411047269e-01
1.259541750072965816e-01
9.668049710170510680e-02
3.034412930449987417e-02
-1.361912001810960948e-03
4.662144071769830367e-02
3.208695392583744282e-02
-1.689670777098734589e-01
-3.360515302392726444e-01
-2.361428981858284259e-01
-7.821986509555028944e-02
-1.079130326265446277e-01
-1.820510747226398440e-01
-1.322476567808079928e-01
-4.656635893719122954e-02
-1.205096785555027916e-02
3.225555441324769179e-02
1.141245548126763876e-01
1.527799246456379989e-01
1.072287825645829584e-01
3.191950423315817464e-02
-1.637057639764985528e-02
-2.117530483244300932e-02
2.225340599863502751e-03
1.910742108921101301e-02
7.299847665009872623e-03
-3.005224710345593200e-02
-6.109297835037079405e-02
-5.079645351482205834e-02
-1.940627404849686391e-02
2.951142574952919390e-03
3.377758328519017694e-02
6.293941116809327607e-02
5.443389834066884869e-02
4.394533330118891717e-02
8.912782265969923512e-02
1.693359036072095702e-01
2.212674221677304875e-01
2.143840881762522632e-01
1.529526063047146611e-01
4.708889738158528182e-02
-6.944858000952991439e-02
-1.335388457081947144e-01
-1.398454874981328033e-01
-1.583660975616875410e-01
-2.051703961080552086e-01
-2.206906142817577909e-01
-1.925891777053797271e-01
-1.705030676258526556e-01
-1.731930517719879048e-01
-1.585104185648599229e-01
-8.232867792497994275e-02
2.432353501335422774e-02
9.716810405225517755e-02
1.792766056234548766e-01
3.288772795330119347e-01
3.890018825322698603e-01
2.267485776960453669e-01
6.919954877379974612e-02
9.852356985645314980e-02
1.134325372468069637e-01
-4.274839926650727401e-04
-8.367303534887976513e-02
-8.672921272296765793e-02
-8.603561078513745353e-02
-8.699545463581451199e-02
-8.297910937489388905e-02
-1.080553417643955322e-01
-1.650595482874529230e-01
-1.570092778949048196e-01
-1.221603660748640449e-02
9.672383246281382463e-02
9.492678324257257383e-03
-9.172546648077073428e-02
-5.430985850702639561e-02
-2.087612004079100400e-02
-5.999422139289228156e-02
-6.117991295413466313e-02
-2.396902507620929032e-03
3.694642653594240600e-02
3.146265872071919018e-02
3.078263534863780876e-02
5.889325559263648702e-02
6.042362298516081032e-02
1.906299213039005375e-02
1.688672776039839424e-02
5.933330917960857182e-02
5.592843295097482681e-02
3.883007338972377376e-02
6.607587721425348115e-02
2.979589614458023200e-02
-5.729034339951577515e-02
7.968000450529779538e-03
1.715690943498871246e-01
1.989548532510225787e-01
1.238628369147228570e-01
9.959842353690796790e-02
1.169369572764270143e-01
1.155822719976642154e-01
4.777490774691857400e-02
-1.009815994443772069e-01
-2.145508279579498856e-01
-2.146554900338354388e-01
-2.086414781302880495e-01
-2.574262552813641469e-01
-2.668584117236422748e-01
-1.949043418148537765e-01
-1.294446634566301935e-01
-1.338920898434615425e-01
-1.448101352645846940e-01
-1.034423411791480091e-01
-7.193921081489219882e-02
-3.738438720682164124e-02
1.275531809037069308e-01
3.106106989935506490e-01
2.749906145236450938e-01
1.471314833296115121e-01
1.716006433438611589e-01
2.539292150642491475e-01
2.356491737204581272e-01
1.732886237304701316e-01
1.195092635225318833e-01
4.984550916192027892e-02
2.652538190147851749e-03
-4.871910675083281073e-03
-4.858160128505470410e-02
-1.257709199968135294e-01
-1.533564008698943271e-01
-1.369982229819330100e-01
-1.045742219958125663e-01
-4.356879107204066764e-02
-3.466431600332530068e-03
-2.321372167634048328e-02
-5.090452237535535163e-02
-5.673940692825812232e-02
-4.627083656833412550e-02
-2.239607122557267863e-02
-2.165391558092749635e-02
-3.898295394782149564e-02
9.843077078590639628e-03
1.241528777809103590e-01
1.820064665951301175e-01
1.465117031173000239e-01
1.088647806109851179e-01
7.897612630858892591e-02
-1.604217751768377553e-02
-1.329993416762477454e-01
-1.925664764891542591e-01
-2.395370224624154831e-01
-2.935225416742776039e-01
-2.709016334456232911e-01
-1.801704441372366239e-01
-1.283741370879842858e-01
-1.247863254337372163e-01
-9.812567688627610307e-02
-2.753196947446937340e-02
7.513990909821542663e-02
1.987237888248038764e-01
3.093494378403047196e-01
3.714638705708677158e-01
3.844019925461473197e-01
3.806397421650605239e-01
3.651327635904660363e-01
3.033439352151350854e-01
2.272688759751682330e-01
1.776373453002465519e-01
7.463155479207882192e-02
-1.090158549486176104e-01
-2.601563049848933940e-01
-3.367481755362776163e-01
-3.756792436097060595e-01
-3.701159203961503219e-01
-3.301414372339745995e-01
-2.961414486267607837e-01
-2.719868911424423441e-01
-2.426277479936500281e-01
-1.839087146453317057e-01
-7.388887752893745497e-02
5.228635574220296539e-02
1.426461770334776225e-01
2.044112840286673449e-01
2.499983965929837015e-01
2.507098379979278424e-01
2.160619598808933839e-01
2.004243408291441486e-01
1.903249577147262950e-01
1.253847385365478850e-01
3.139289824274472951e-02
-1.818751390586185318e-02
-2.445101677687815112e-02
-2.722660885714849738e-02
-3.631997512384461946e-02
-3.521797095659956467e-02
4.274148028557994694e-03
6.132072125066483775e-02
6.616755483150997541e-02
1.926180946032344382e-02
-1.707107981537204361e-02
-3.807312262332822328e-02
-7.726981416504653810e-02
-1.238313638109642678e-01
-1.512253658058511363e-01
-1.637304665017578764e-01
-1.679359023630686010e-01
-1.744414479400290541e-01
-1.983133898575841214e-01
-1.927632291784358576e-01
-1.101569772572611877e-01
-1.660467699239316641e-02
1.952025057185947932e-02
4.948894766938177064e-02
1.231053354371318964e-01
1.816742467353563706e-01
1.921843536827087529e-01
2.232188611103290699e-01
2.384716812043584100e-01
1.186155403803757502e-01
-2.131539945153704957e-02
-4.273636001367812909e-03
6.753978882541615547e-02
6.961648377207782512e-02
5.627604922060619463e-02
5.374711322531564028e-02
6.242973576617111275e-02
1.343012529591336712e-01
2.239209852040717208e-01
2.132539404785106230e-01
1.174399765651936711e-01
3.895851144041520553e-02
-3.395403369389524140e-03
-5.098660396577305715e-02
-1.148369853003013141e-01
-2.054112824608340104e-01
-3.538416538533563638e-01
-5.012874625382429672e-01
-5.198129941461238079e-01
-4.146284962017178222e-01
-2.815336977719353206e-01
-1.460464817288424089e-01
-4.534089275486131998e-02
-3.102019142492869197e-02
-3.212878035309725544e-02
3.634558222889565371e-02
1.409859058161938850e-01
2.485605528054780078e-01
3.773071805945240054e-01
4.899282076566392474e-01
5.155757045044804254e-01
4.680834036252664032e-01
3.888931333867562956e-01
2.288272785258277098e-01
-1.729975447658896326e-02
-2.055474713368840023e-01
-2.718571416528745011e-01
-3.055023038196803542e-01
-3.277526263705516918e-01
-3.038720952157227262e-01
-2.621360819537401632e-01
-2.001632393798983556e-01
-1.135102653626867686e-01
-8.065142983428882917e-02
-4.880821885129021931e-02
1.240529119346244491e-01
2.838377761897612483e-01
2.308106662430135791e-01
1.506771651381152710e-01
2.040035066571739553e-01
2.302893017648921792e-01
1.535497961810199097e-01
6.852857937190555415e-02
-8.671008699972358735e-03
-8.503174561267515252e-02
-1.252962759766536316e-01
-1.406064244616583303e-01
-1.717129588227020720e-01
-2.281337784250773437e-01
-2.324985825944076157e-01
-1.010866693973487274e-01
2.315421962895068686e-02
-3.406678802063714540e-02
-1.183658132378915540e-01
-5.258025476997071901e-02
4.230062515612256768e-02
6.021311126438125272e-02
9.136618543098812273e-02
1.680796626507186642e-01
2.009859785889938077e-01
1.750276333085525882e-01
1.440139322018899326e-01
1.039008069911048909e-01
4.582794785890311612e-02
-4.073680330912661518e-03
-4.227885081043254722e-02
-6.182483966676290826e-02
-7.503227502685258510e-02
-1.416257419925226746e-01
-1.909923792844232804e-01
-7.515695061570276669e-02
1.038422454524394883e-01
1.493729104387107043e-01
1.044659148573295337e-01
6.479254926981325990e-02
9.169015782342601270e-03
-6.926786463832879104e-02
-1.583335853871653820e-01
-2.472706036549501274e-01
-2.875290320140019285e-01
-2.647799395988745252e-01
-2.013549563154725941e-01
-1.054584575182113820e-01
-2.456773947964577959e-02
5.530737028827351076e-02
2.393413607878414617e-01
3.971166844027456677e-01
3.011630299341956918e-01
1.385540608168790710e-01
1.800317124731900809e-01
2.671138347019263448e-01
2.046751016682040181e-01
1.001513884610002597e-01
5.855263260767337025e-02
3.988218516459812735e-02
3.221673615875442209e-03
-5.817491541948746625e-02
-1.189395194140772660e-01
-1.506433387434538695e-01
-1.853684669649598993e-01
-2.350167351991067077e-01
-2.327437097703435043e-01
-1.719145925726733859e-01
-1.322155936443795143e-01
-1.185814734745407467e-01
-8.146060426171117252e-02
-4.585701627012347958e-02
-2.636648240728813042e-02
3.601439011982955629e-02
1.262629429071467080e-01
1.490210909364698411e-01
1.157683275213007429e-01
1.271061685956352549e-01
1.729056166088603075e-01
1.583377008812612563e-01
8.992582799869316967e-02
4.308179513013067619e-02
2.256376924419410679e-02
-1.015767920154800677e-02
-6.890132201104980092e-02
-1.342940328989468135e-01
-1.497853868173377179e-01
-9.899031108487280073e-02
-6.032784140194954320e-02
-7.350019434850042777e-02
-7.456651779720961659e-02
-2.566998372642116666e-02
3.649485529982554599e-02
5.782480381218860210e-02
8.757379636820307456e-03
-7.118876691396379408e-02
-1.263003620378700120e-01
-1.591495328147375377e-01
-1.506679037120742803e-01
-7.364392895643681602e-02
3.000564437916749573e-03
4.865153513742319358e-02
1.462451005294493345e-01
2.823924289111204855e-01
3.451932638618023796e-01
3.451210147778477344e-01
3.484762224330444358e-01
3.089722051497809097e-01
2.117076354617610789e-01
1.676550942663138366e-01
1.526067942179649140e-01
-1.155810074682497163e-02
-2.621880977539348123e-01
-3.640349947300458577e-01
-3.340308594876403858e-01
-3.120212672269050969e-01
-2.929254993818711794e-01
-2.582857394650044380e-01
-2.580635287314012594e-01
-3.205317609599663831e-01
-3.867835132175374002e-01
-3.412321098367159244e-01
-1.653576312285667538e-01
4.383278583035930820e-02
2.191906685217639428e-01
3.311146856256199644e-01
3.602384055215234748e-01
3.492811327164544455e-01
3.472808537602194434e-01
3.350582015477240327e-01
2.900512884264688229e-01
2.286435537870237511e-01
1.567725648611146549e-01
6.600152140046686156e-02
-3.188576558752271445e-02
-1.094454509668205816e-01
-1.570359872048285865e-01
-1.927426105163073111e-01
-2.112011614156732164e-01
-1.772815018082052607e-01
-1.055489476782981995e-01
-5.295799892151151905e-02
-2.456000265633439400e-02
2.275784849108499971e-02
7.218900821258604494e-02
3.788625772600831554e-02
-8.205779801088838865e-02
-1.936123078068850423e-01
-2.661357970032590115e-01
-2.703048680508505219e-01
-1.369918693835161794e-01
2.411599890629067058e-02
6.370401305413325721e-02
7.075764059931113903e-02
1.249254327020146160e-01
1.584574099080581777e-01
1.754580109434207280e-01
2.066558847921881603e-01
2.105337204430741405e-01
1.858422455550036989e-01
1.686213851860847435e-01
1.631223414504827107e-01
1.608819371617623284e-01
1.308991144822027608e-01
5.060260177848353857e-02
-3.913793755795305640e-02
-1.221745016550468965e-01
-2.250854513226282216e-01
-2.960549497516065109e-01
-2.739880300795045631e-01
-2.154413155401107560e-01
-1.861594833583506969e-01
-1.642337217746899780e-01
-1.167317509927246755e-01
-5.501007153644522918e-02
-9.156370032441935036e-03
1.535246659902374938e-02
4.427146448112205535e-02
8.349081807793451437e-02
1.141315339790828776e-01
1.167713118944376377e-01
7.142696559164958547e-02
2.732860535782398112e-02
5.263268358807030728e-02
9.478730957861700168e-02
1.063716825013440448e-01
1.047385437707220174e-01
7.030480681941686516e-02
3.754917350541255722e-02
5.466117162334133139e-02
6.057991104475829447e-02
3.187220523038473280e-02
1.954782272764412146e-02
2.907748339838716820e-02
3.891044315905631268e-02
2.290588489259150901e-02
-3.172317588171338215e-02
-7.569721022690804879e-02
-9.502052741186083062e-02
-1.557920513979859645e-01
-2.393636764866579614e-01
-2.527706336073013427e-01
-2.102273425244211014e-01
-1.742454338909849021e-01
-1.165669885270479156e-01
-1.130517707227488358e-02
7.515122990072531373e-02
1.055566508698374817e-01
1.383569003239875639e-01
1.977151777020303425e-01
2.311658735611798743e-01
2.298172857095949484e-01
2.309219573476805898e-01
2.155308501413406574e-01
1.481770697229322920e-01
6.115474335806773271e-02
-6.505494856138251125e-03
-7.743545404047197378e-02
-1.662143127978314983e-01
-2.190095544803165872e-01
-2.149526101900743336e-01
-2.285792214347370788e-01
-2.883859420427706266e-01
-3.130567533000039870e-01
-2.467600778412167850e-01
-1.248495621352174040e-01
-8.605417509322588199e-03
7.457957462126629800e-02
1.451585640713333736e-01
2.339166194245420605e-01
3.368568601709719945e-01
4.320572900620525680e-01
4.989682440179290523e-01
4.908800206152544310e-01
3.785296055556334194e-01
2.263981750651842539e-01
1.005696945363886707e-01
-2.314462333204872491e-02
-1.573066512022318064e-01
-2.863885102944111472e-01
-4.467823529975332719e-01
-6.073667843635104369e-01
-6.370704590334973494e-01
-5.588923488601958978e-01
-5.215836913486563420e-01
-4.639679655005882752e-01
-2.429764995511684844e-01
4.079419252618135538e-03
1.135641390812656831e-01
2.032825425116496776e-01
3.615877836278043045e-01
4.910605860858459626e-01
5.530537200549048293e-01
5.829610741654684958e-01
5.731296048046784497e-01
4.935522235650129930e-01
3.270305008915315170e-01
1.008008017657025523e-01
-1.131210578620386181e-01
-2.647454233471174256e-01
-3.450290413872315609e-01
-3.677673199517258462e-01
-3.633609698303309488e-01
-3.351914487653984143e-01
-2.637688939572278568e-01
-1.673854507900428557e-01
-7.677144594343222883e-02
-4.594015011440126528e-03
2.587717258343565085e-02
2.796507496543432225e-02
7.845235717196719083e-02
1.870849497343156920e-01
2.472485690639767975e-01
2.056837604359124105e-01
1.447114318004063260e-01
1.194797634851063328e-01
8.091092735110731737e-02
1.704480009881102071e-02
-3.950127395129070240e-02
-1.050648657516630030e-01
-1.275833290033804857e-01
-3.199063378073974118e-02
2.777191097518339619e-02
-8.049168161899569740e-02
-1.783512595763012687e-01
-1.427744232291786874e-01
-8.788116849379745688e-02
-7.211431272742210852e-02
-5.666282064909462790e-02
-2.994249550720032294e-02
1.042560044626429996e-02
5.731569173720046928e-02
8.037757414220111918e-02
7.494830205963873282e-02
6.816073402247126156e-02
6.723502236676587307e-02
5.222779033760829165e-02
2.103232163655439912e-02
7.689474550954139044e-03
2.749086135268115696e-02
3.588189740868291677e-02
4.973741798021652505e-03
-2.741717558687297232e-02
-3.665639202443139733e-02
-3.321507943643902533e-02
-1.705934449464586652e-02
-2.685921205062506006e-03
-1.459771950837834842e-02
-1.476875228668065448e-02
4.449687126431025458e-02
1.091105645813693764e-01
1.241414927699684145e-01
1.467836325984316348e-01
1.823743915394985537e-01
1.147790907813406175e-01
-5.630154245170913840e-02
-1.768449397725980199e-01
-1.988125427563227632e-01
-2.096299328311582166e-01
-2.260768286860644904e-01
-2.013678577848334317e-01
-1.507281231828183632e-01
-9.881221392025441030e-02
-3.782314041670063742e-02
5.381911849126633229e-03
6.528901074331891485e-03
1.042783728936111029e-02
6.494814866987336233e-02
1.528652591306146336e-01
2.162063855629877129e-01
2.167438465280233095e-01
1.854015998971896839e-01
1.865335173076266007e-01
2.110694621974595897e-01
1.891693133811358785e-01
1.150783127517843729e-01
3.107703050306658346e-02
-5.972651375993304895e-02
-1.403638002223462633e-01
-1.767038176935334937e-01
-1.954085684441754511e-01
-2.026581984827096061e-01
-1.555972862704093629e-01
-9.385612560469316912e-02
-7.692861396792730067e-02
-6.230523606690617500e-02
-2.670409706836083391e-02
-2.126750890867453933e-02
-3.601632531968830542e-02
-1.606137438042723117e-02
2.344368118252052047e-02
4.788339810108677153e-02
5.892510583692772697e-02
4.985870224008719098e-02
2.370672438473492988e-02
1.322223110496584426e-02
2.462355903593172260e-02
3.048837572747605321e-02
2.698532626037739024e-02
3.830263349067575956e-02
3.986742141489776209e-02
-1.985409542169035146e-02
-8.618021635078423892e-02
-7.152504632186924838e-02
-3.301273572466992268e-02
-5.811487913296840835e-02
-9.510150896773560125e-02
-7.407960735900399885e-02
-2.164198332803096356e-02
3.427747965753104309e-02
1.095389266037247455e-01
1.973592523435369062e-01
2.619327162703461997e-01
2.910899645528483570e-01
2.895448769977367331e-01
2.379610599151600336e-01
1.357221381026697538e-01
3.736858320194082206e-02
-2.527227478942990768e-02
-8.541782645594293844e-02
-1.719953789964372703e-01
-2.605067346093438152e-01
-3.112836920587440104e-01
-3.253571061767754347e-01
-3.268386870936349498e-01
-3.074166662400755201e-01
-2.564640229856317011e-01
-1.992645960288393636e-01
-1.314825544474338970e-01
-3.519485857133421852e-02
4.414095564044299980e-02
9.409393834164168913e-02
1.704384664108062608e-01
2.606737602844007573e-01
3.133504275856841548e-01
3.381636527884275267e-01
3.355138750663274605e-01
2.645847692464976531e-01
1.410637230035976797e-01
4.028186965149196247e-02
-1.287366729390816700e-02
-4.880473464700695041e-02
-6.515361689577553461e-02
-3.799805523059769652e-02
-1.407293803046272274e-04
-1.961461381831063402e-02
-6.998862714066689250e-02
-5.911725685870880542e-02
-5.903635220269870532e-02
-1.793498206417969976e-01
-2.493795061931222412e-01
-1.302684828054968269e-01
-4.994625298223950675e-03
2.890190561938878189e-02
7.607554339336863869e-02
1.268953216312281307e-01
1.206880344163946822e-01
1.010939194546703473e-01
7.975850536981329841e-02
-6.463221363812329118e-03
-1.384698143397719849e-01
-2.209042526678469121e-01
-2.495980252620195183e-01
-2.765851439772548659e-01
-2.604294359293772843e-01
-1.483370566814159741e-01
-1.662006696303042902e-02
3.679506970397861815e-02
4.648663807290871752e-02
9.586841244161556364e-02
1.688228222514999155e-01
2.168255681249430522e-01
2.689388205467426740e-01
3.334741345525027434e-01
3.402398489229582212e-01
2.786900900379690182e-01
2.018884110591852854e-01
1.121905172623313546e-01
2.094146214744477263e-02
-2.231412177875340824e-02
-4.584152892926800921e-02
-1.097346577915054855e-01
-1.792493267883672747e-01
-2.092278333710588800e-01
-2.430741757751680998e-01
-3.000967974423579543e-01
-3.119587587535763706e-01
-2.655482530418168952e-01
-2.276589910543583006e-01
-1.878137870844585333e-01
-7.976538097152233164e-02
7.069241234015516406e-02
1.809123921858131756e-01
2.128974949838411124e-01
1.817641416379895403e-01
1.431928629498664673e-01
1.398237516421892146e-01
1.450622309204033789e-01
1.245862091679092593e-01
9.156167578403859308e-02
5.838788442483978935e-02
2.430116687814574614e-02
1.335367755773295140e-03
-8.963280131032206471e-03
-9.564442080820721032e-03
1.744679441682099597e-02
6.038779278959282432e-02
6.407476078203945546e-02
2.961595981095305544e-02
3.322448173833591339e-02
7.351065754872171398e-02
3.952240990921647434e-02
-7.238277284230204556e-02
-1.416805282353257034e-01
-1.713473226461381949e-01
-2.165373068844221593e-01
-2.036410502589143801e-01
-1.373494775626596942e-01
-1.400838547046339422e-01
-1.825678195902280532e-01
-1.572239467406856828e-01
-7.689068368638399265e-02
1.608505359227289933e-03
6.027623048185139221e-02
1.114192928183774800e-01
1.504003139010634815e-01
1.426870894320386995e-01
1.249807791326557616e-01
1.463574290190551852e-01
1.423821298099758881e-01
9.060115537964125165e-02
5.808967113552289396e-02
3.220125356264415262e-02
-5.688228965048183761e-05
1.548341312948511156e-02
4.289380820312339859e-02
3.512899888524630143e-02
6.452596582983785578e-02
1.339427777149788668e-01
1.510606495221519241e-01
1.355514455180753530e-01
1.348951898939396987e-01
1.051897515166710095e-01
4.405955547484662060e-02
-1.806392762326496440e-02
-1.104506214263082653e-01
-2.304260825342103469e-01
-3.241562114807752804e-01
-3.745093193277055366e-01
-3.927124587942533718e-01
-3.897866086756101023e-01
-3.274211649827049597e-01
-1.525727125488463010e-01
4.731024466707325904e-03
-1.492262241007176471e-02
-8.074922194796518848e-02
-2.187625223371270772e-02
1.198585332316699503e-01
2.912795254754879659e-01
4.606331226820333802e-01
5.553127631209979764e-01
5.891537470886485384e-01
5.517826270353808349e-01
3.285826272934034287e-01
3.246397372644389823e-02
-9.807768985497708480e-02
-1.607481103647864784e-01
-3.250887899113457102e-01
-4.572829463192844557e-01
-4.355804069823003277e-01
-3.529508929057007527e-01
-2.687831248225646119e-01
-1.471025854849197234e-01
-2.817192405182767853e-02
1.682287547023003649e-02
3.628337647002501110e-02
1.065063854491990203e-01
2.042674896532565287e-01
2.613344221058340744e-01
2.422459709410863249e-01
1.782406220310818468e-01
1.375476102682470225e-01
1.181052905750570314e-01
5.381609183405635516e-02
-5.219014729286319820e-02
-1.299800756690112358e-01
-1.555270105619369903e-01
-1.551343409513109284e-01
-1.517978443989635717e-01
-1.498848006827191992e-01
-1.362190904732434593e-01
-1.062013450669472142e-01
-7.295516020923048517e-02
-3.641403529860938459e-02
1.081409163259147363e-02
6.752964125049959465e-02
1.296418250898068725e-01
1.721917106185775759e-01
1.773065413825168912e-01
1.710329703033320325e-01
1.506266220897692631e-01
9.846789177505066437e-02
6.503893076114464211e-02
2.311409624414320282e-02
-1.195613349253463187e-01
-2.259288239971881107e-01
-1.442494067926763379e-01
-4.422678152100548155e-02
-5.177387028225751558e-02
-4.702798981166329828e-02
1.138274150954428528e-02
7.941416027822803536e-02
1.475088065000199899e-01
1.450296490104229230e-01
4.518764171518228900e-02
-4.533183165444309992e-02
-9.114462653555872873e-02
-1.475697515520853487e-01
-1.983937902073424353e-01
-2.085276742998098121e-01
-1.909286419821103753e-01
-1.434389960146656984e-01
-6.582614661549607282e-02
1.411276618716955644e-03
3.589188791845551035e-02
8.020482941194119475e-02
1.686678752871442755e-01
2.137013529463664963e-01
1.434226259568867623e-01
1.089404967129364576e-01
2.173929079830637934e-01
2.960699670691894769e-01
2.348909067043945531e-01
1.463718553281906365e-01
9.534972167262178999e-02
3.333773220296104567e-02
-6.812765846454285623e-02
-1.661513136588052553e-01
-1.928303300820679023e-01
-1.562537889235898203e-01
-1.368067089588978213e-01
-1.645975224118327029e-01
-1.952497560596261894e-01
-1.889935355893829771e-01
-1.436238774209737667e-01
-8.789663404054560980e-02
-5.506819785148671376e-02
-4.007373213209128315e-02
-1.312745898281512252e-02
3.336280119710589159e-02
7.232178855063381429e-02
7.334970517010522273e-02
5.473564339607925322e-02
5.444479876622677905e-02
5.464558878361210070e-02
2.807843702659701401e-02
-1.755510280898475543e-03
-2.348451104364137482e-02
-4.919486595575504884e-02
-5.437587943407291152e-02
-3.540408121803860497e-02
-3.638623277919639243e-02
5.532055080757239569e-03
1.850333516131716372e-01
3.385236009901602117e-01
2.822617869019068415e-01
1.891599707885233961e-01
2.411605947852838994e-01
3.112545904074164871e-01
2.781559008292155966e-01
1.922698110559684093e-01
8.195014316275428534e-02
-6.248530778015089909e-02
-1.946824037648919592e-01
-2.997378657274858971e-01
-4.177902925329748385e-01
-5.180731597078797046e-01
-5.424051743792984714e-01
-5.072585001157682294e-01
-4.432350288874716826e-01
-3.656029052203155216e-01
-2.867438134060996124e-01
-1.822791205089712430e-01
-5.463537406736503066e-02
4.755630184540698968e-02
1.712864669506945769e-01
3.682044781756468321e-01
4.951818688629315846e-01
4.785464107322109917e-01
5.170325522754295466e-01
6.677129957672526261e-01
6.916652590516353394e-01
4.958948072529081319e-01
2.488955468448206254e-01
6.361509522135701256e-02
-7.956855717191203825e-02
-1.830213027434169637e-01
-2.552231957832408193e-01
-3.605682561097540706e-01
-4.478200973159881526e-01
-3.924555511899940896e-01
-3.041599120701032333e-01
-3.378165255678296508e-01
-3.504065331106795966e-01
-2.089044731849588887e-01
-4.256520065078833737e-02
3.953307126357262502e-02
7.429920207894395723e-02
1.010605922429572007e-01
1.178713842045519544e-01
1.162757081885421595e-01
1.018066247165364258e-01
9.226115196265030627e-02
9.119185637887387841e-02
9.607389966413162896e-02
1.255778366695263770e-01
1.705955156853903310e-01
1.871020916826161007e-01
1.969512049012731580e-01
2.112971793277590160e-01
1.180499030294251128e-01
-9.208012768558582195e-02
-2.533870335788420691e-01
-3.264800898217884439e-01
-3.829412407963637133e-01
-3.865019551000384856e-01
-3.049296766814543203e-01
-2.052440142865289974e-01
-1.270703656024501915e-01
-5.823235104309112259e-02
1.922960485822175491e-02
1.406358708476291575e-01
2.962096745377604812e-01
4.027139172908118514e-01
4.351725878124187430e-01
4.313652845159586247e-01
3.831053230864258641e-01
2.825607950899775567e-01
1.417220980630582994e-01
-2.265367819607323752e-02
-1.304150640111806925e-01
-1.595354082927895600e-01
-2.170157825165015542e-01
-3.130854608876096346e-01
-3.417860918141882309e-01
-3.015946857591175201e-01
-2.701473932411492251e-01
-2.486839630260245515e-01
-1.898796782880238232e-01
-9.852918048724759736e-02
-1.148146205141635512e-02
7.372007250825582392e-02
1.722569971474586792e-01
2.571755929245007066e-01
2.880780198710798379e-01
2.570386629147091151e-01
1.922780638260562502e-01
1.384737034763225405e-01
1.132608842680384448e-01
8.905198157036897655e-02
3.995231625337242881e-02
-2.887531603303594360e-02
-7.810365340943159485e-02
-5.623171575602059491e-02
-8.828036263983533860e-03
-2.333548902783895429e-02
-2.208750872125077314e-02
3.931303280807374456e-02
-1.510742483510390914e-02
-1.720011866248045973e-01
-1.991447875621931429e-01
-1.458793683437029365e-01
-1.933732667790043769e-01
-2.622210297427683412e-01
-2.228157723845228810e-01
-1.291159631544113728e-01
-7.484426314569701810e-02
-4.993040326221454689e-02
-6.112331457750301567e-03
4.429904586117616033e-02
6.894728814681061468e-02
8.495933556305432233e-02
1.222482252919500356e-01
1.669941943939541318e-01
1.879399515646260621e-01
1.840640538910412460e-01
1.826651760676235303e-01
2.044150934198973590e-01
2.214811452738236763e-01
1.919715522193075896e-01
1.423741705552860615e-01
1.138338258934634417e-01
8.652664178781033222e-02
6.348910454325415453e-02
9.052172929265081547e-02
1.355496205808277288e-01
1.030992160619885745e-01
-2.057942214271499606e-02
-1.557991767136180927e-01
-2.577567742579520704e-01
-3.385774384349097832e-01
-3.800820164464301931e-01
-3.762425653531005221e-01
-3.832941828021309560e-01
-3.935997745244676493e-01
-3.333835861418407709e-01
-2.246696369772781532e-01
-1.300807918446755806e-01
-3.922812635306721640e-02
3.050376227728335277e-02
4.122792746276615627e-02
6.254914364237063040e-02
1.725176197242776488e-01
3.443127798239501436e-01
5.116105330864852974e-01
5.818681533567388042e-01
4.888760640228095311e-01
3.330908454324270629e-01
2.403794041331158704e-01
1.727907532313036620e-01
9.387627009178825532e-02
-1.582382630015699565e-04
-1.741051623961066275e-01
-3.172173680370975468e-01
-2.481975047498327369e-01
-1.210949504014709466e-01
-1.158617856363570731e-01
-9.467986203291375857e-02
7.941867183726466356e-03
2.716214214558293830e-02
-7.879007199116964955e-02
-1.896902228108979793e-01
-2.658918567268424571e-01
-3.292474559168939718e-01
-3.308513377305739578e-01
-2.361114659771630930e-01
-1.206644568582053295e-01
-5.187921153416515802e-02
9.316335648195596397e-03
1.028785774011904686e-01
1.851565753593191477e-01
2.241376290793218873e-01
2.482679565153600998e-01
2.580062477746769556e-01
2.423348207384806163e-01
2.279877178169805729e-01
2.090721426283818629e-01
1.747422738002539777e-01
1.450075483560839262e-01
8.750044692898199805e-02
-1.261060890868851564e-02
-9.016763460519763851e-02
-1.251564974187083235e-01
-1.401378149033890297e-01
-1.385566975724641658e-01
-1.520384691401019395e-01
-1.901843617492219862e-01
-1.841821060134726795e-01
-1.119049681838300003e-01
-5.220587483928713912e-02
-3.245572492192383418e-02
9.330355868286750037e-03
6.611201498063050408e-02
6.702105265413318969e-02
2.749788836566439965e-02
1.088919427526582537e-02
2.129592234890218677e-02
3.390169433774014446e-02
3.214574738226141926e-02
9.361748840519488676e-03
-1.774037428520634785e-02
-3.358385895121283188e-02
-3.826228273781046713e-02
-2.522699757484001687e-02
-1.091586451640080878e-04
1.770416529264825720e-02
3.073650298330277836e-02
3.012801034023411886e-02
4.373072726498920468e-03
2.006095843772579337e-02
1.073971189403789411e-01
1.411628132778622591e-01
7.548214951865062083e-02
5.597459950725507116e-02
1.063627751594317938e-01
8.590954461997701852e-02
1.589142788647572233e-02
1.527510617741411475e-02
1.302794576585010120e-02
-9.491180172198396270e-02
-2.143351013018844065e-01
-2.359637661913324136e-01
-2.035525015623301515e-01
-1.799536374881178791e-01
-1.516737665918507505e-01
-9.346417628467412753e-02
-1.938190007081016034e-02
2.636211804732257330e-02
1.463771579930506564e-02
-1.257968443040668668e-02
2.278628171332437724e-02
1.047348004903571883e-01
1.686483863675204697e-01
2.443686451992181652e-01
2.903053338589610122e-01
1.687714261682544681e-01
2.198386794865673025e-02
7.452475914742723306e-02
1.107658647884835618e-01
-1.020131785921979950e-01
-2.909911719640151384e-01
-2.261310028968449015e-01
-1.222564278032413077e-01
-1.286044338411106436e-01
-1.199421362460299373e-01
-3.775663752780286653e-02
6.256298496966175571e-02
1.589027405428526940e-01
2.514594487725669292e-01
3.211023613651590725e-01
3.332103003249216044e-01
2.819694224301182439e-01
1.984673090252480898e-01
9.114517274483718845e-02
-3.483750117243181177e-02
-1.410907280360061966e-01
-2.227704260081262155e-01
-3.204642461631077577e-01
-4.315638465164066684e-01
-4.894387637675107205e-01
-4.566088274275677539e-01
-3.795666596562933814e-01
-3.140659318148193990e-01
-2.479473980954085277e-01
-1.069545343091254930e-01
1.313942809601572337e-01
3.346925185878374953e-01
3.888006721692139900e-01
3.630050823193196607e-01
3.462692310882209967e-01
3.324570768725536585e-01
2.868098172702900905e-01
2.005606907163569874e-01
1.300124435593485450e-01
1.134800574106044624e-01
7.765961464888937460e-02
-1.478226453222043768e-02
-7.781963139668750251e-02
-7.942097764034460050e-02
-8.364382272892251224e-02
-9.278198129328969757e-02
-6.846771122103276208e-02
-4.177358696546595862e-02
-3.135503123574217427e-02
6.172841187966892143e-03
5.029651864387447990e-02
2.933091158142444796e-02
-3.250873853598178903e-02
-6.057320581190422937e-02
-6.748666023679830706e-02
-1.098645181520455094e-01
-1.715095404647508648e-01
-1.902877340400515038e-01
-1.601341079886677565e-01
-1.223270946961337036e-01
-8.879353163821974981e-02
-5.321678315106365131e-02
-3.033512869578626828e-02
-2.141888911648568566e-02
-6.355531889721762612e-03
2.191542968530767535e-02
7.116938351756038617e-02
1.390287990955392794e-01
1.806568905302707029e-01
1.677122648961759110e-01
1.391165727601332003e-01
1.345803723400801066e-01
1.230098884873431775e-01
5.362059406122025168e-02
-2.652299208055292415e-02
-7.584359772404764000e-03
9.180975264368848587e-02
1.309227047976635749e-01
7.420923416490836366e-02
1.380903556750744804e-02
-1.837657299462590321e-02
-6.119770166774213260e-02
-8.189643106710725595e-02
-3.013732732480329385e-02
7.581154292481415494e-03
-6.070693616630796347e-02
-1.555590749225305158e-01
-1.933134664386799428e-01
-2.239030430651869075e-01
-2.740653908334178546e-01
-2.847618997499468674e-01
-2.320986411608609301e-01
-1.359645403582060708e-01
-4.200814380002373949e-03
1.191417853048072073e-01
1.596324391572610246e-01
1.379542296313120142e-01
1.523409031447301720e-01
2.135804091704694707e-01
2.546736598026013709e-01
2.628492190632563674e-01
2.613016716965212427e-01
2.464037441444827947e-01
2.056413354820612049e-01
1.405508976154223877e-01
7.455875808764921009e-02
2.159592209796745016e-02
-3.354318703196305929e-02
-8.950101453486380976e-02
-1.305228163878858760e-01
-1.647788606930941924e-01
-2.125847969061616105e-01
-2.737720517845946833e-01
-3.059452998569670013e-01
-2.833497234504096518e-01
-2.449454972352231308e-01
-1.976413102663273635e-01
-1.194190214479552981e-01
-5.614432508747119882e-02
-2.890517560323888069e-02
9.338512973860561839e-03
5.261776931022219689e-02
6.390322441877739623e-02
6.688462897171909560e-02
9.322910243568466315e-02
1.078152192659261599e-01
8.041923516543632300e-02
7.316324371915264302e-02
1.291200737279895872e-01
1.827424012974650791e-01
2.047570923850437208e-01
2.589577097529017213e-01
3.573995335310540256e-01
4.337439101985725021e-01
4.345203060570854148e-01
3.403793432213247927e-01
1.912870939791534441e-01
6.099103813061202556e-02
-6.326650749672058094e-02
-1.864659113855426931e-01
-2.272456179655896469e-01
-2.780700966558221077e-01
-4.932667789817878345e-01
-6.924945057769086310e-01
-6.801267556837463646e-01
-6.003573722777253430e-01
-5.632013734407478323e-01
-4.781535358269356495e-01
-3.191951737907025022e-01
-1.520033725663916813e-01
-3.012641422060963192e-02
4.900558051688774786e-02
1.523495382263750364e-01
2.962481594453531542e-01
4.504879887417254647e-01
6.286913349023527386e-01
7.515780605665379754e-01
7.259880868745332005e-01
6.726128650353382366e-01
6.206519132901113789e-01
4.133387021554562057e-01
1.459007211115295188e-01
1.228728174874374468e-02
-7.048341812599551170e-02
-2.071826480169327023e-01
-3.324792807922959947e-01
-3.907342005060547852e-01
-3.874134199257145417e-01
-3.360250965985837057e-01
-2.785800151616084630e-01
-2.565472526366593953e-01
-2.527707454871155335e-01
-2.357791598341733297e-01
-2.132971238574269401e-01
-1.958926016101912027e-01
-1.565863449111456474e-01
-7.098843446912535271e-02
2.616609694193446078e-02
8.173835260161785299e-02
9.460256083459400722e-02
1.014732623348840457e-01
1.286738697731232006e-01
1.513751019106570617e-01
1.311058676886210084e-01
1.502573691636059361e-01
2.946259300900685996e-01
3.910075786065936310e-01
2.734317600287126115e-01
1.200702238655891457e-01
1.098567769608110589e-01
1.351335830614328049e-01
6.551835860792259991e-02
-7.245603409862619304e-02
-2.145265223336024207e-01
-3.562204413585143281e-01
-4.936739049212872099e-01
-5.563143532830129301e-01
-4.828172354364779206e-01
-3.137270716028230377e-01
-1.470834479235402226e-01
-1.471584017277225570e-02
1.315444010460290192e-01
2.765624980744867401e-01
3.437964587729935850e-01
3.630709212673052799e-01
4.068665089459878037e-01
4.399715680081233704e-01
4.125472321985113044e-01
3.410608246233763907e-01
2.421858212720226222e-01
1.180325415695424873e-01
-2.219479827939224714e-02
-1.722249763146252721e-01
-3.090876296453555216e-01
-3.889280620403317568e-01
-4.107534048680757666e-01
-4.072530312001367836e-01
-3.875852810011541916e-01
-3.547553515431367543e-01
-2.555660163785916095e-01
-3.810152468362967837e-02
1.274682059100811227e-01
9.680096162123291714e-02
7.421780272997499650e-02
2.017337711034751790e-01
3.051012544984913477e-01
2.967214785446044001e-01
2.589206068206115763e-01
1.958421490559061895e-01
1.005400010985707526e-01
4.305372309569999167e-02
3.404542997218289874e-02
1.867515458758869928e-02
-1.206828509749757056e-02
-3.657401638379582237e-02
-4.211104152396255573e-02
-3.179481542827561347e-02
-2.100440420552335263e-02
4.976334374111844594e-04
9.781222648842492762e-03
-6.382766555552248089e-02
-1.673379976410707681e-01
-1.922298806439715624e-01
-2.031499176596146816e-01
-2.663611787384014828e-01
-2.758429949547145932e-01
-2.080108736572772732e-01
-1.845068173335045469e-01
-1.943754370379466578e-01
-1.168623443094088388e-01
3.001924735941398359e-02
1.236800393167744871e-01
1.576556906180240913e-01
2.371139328628534271e-01
3.353489157726783354e-01
3.282283936193510776e-01
2.997826553445682718e-01
3.964495106157394644e-01
5.017008894216523629e-01
4.674706372035534740e-01
3.859917650117439258e-01
3.546716623345314567e-01
2.560403195304163382e-01
1.905966919383908498e-02
-1.735933658987367512e-01
-2.608945299761460390e-01
-4.200684901952034811e-01
-5.936873242212993285e-01
-6.158948964514624480e-01
-6.155575886842503675e-01
-6.548686265579157784e-01
-5.842244526517487158e-01
-4.460703997098891538e-01
-3.581465929803978043e-01
-2.377651429298671404e-01
-1.569778705811432362e-02
2.079330383206412503e-01
3.285021283050082452e-01
3.588695946285643257e-01
3.644836760460748448e-01
3.916109406162134876e-01
4.543892904329880911e-01
5.093287110957482877e-01
5.028829857558807515e-01
4.344605942787730379e-01
3.086840225865719600e-01
1.479924008293685422e-01
1.895068327372438632e-02
-7.414717199186246499e-02
-1.694201635455273580e-01
-2.358805564994609361e-01
-2.508061253416928871e-01
-2.497228840147159290e-01
-2.409629131618256648e-01
-2.093560058646520838e-01
-1.554801063366094971e-01
-7.828711313471803379e-02
1.125880916122228362e-02
7.523729569974416109e-02
1.045006259514712488e-01
1.239433924894715322e-01
9.523388247291993125e-02
-3.708826176366560035e-02
-1.909261759425560645e-01
-2.490406467340644525e-01
-2.431107800673074637e-01
-2.409429452470163435e-01
-2.010641324546901809e-01
-7.887426304781491870e-02
6.760385082956574254e-02
1.573252089622683703e-01
1.706796073118035106e-01
1.345093178325697525e-01
1.241690890843958062e-01
2.005720113123615755e-01
2.552108353957273645e-01
1.741554422380817702e-01
8.067819586930578823e-02
7.925614783877756031e-02
1.081058744924964787e-01
1.499703359220866394e-01
1.649634535160252602e-01
6.587177733501047017e-02
-7.106511559981212867e-02
-1.337706846252377235e-01
-1.696201098674961771e-01
-2.262349690132521574e-01
-2.550284494986754802e-01
-2.355324596380592439e-01
-1.959053459973017774e-01
-1.603239328349800596e-01
-1.485445707598135878e-01
-1.408441491248786093e-01
-8.845559875388241122e-02
2.718220635667192853e-03
8.939521391968231756e-02
1.629573108441439155e-01
2.214900276503029564e-01
2.265135304108564229e-01
1.723581669823215923e-01
1.279516106592393510e-01
1.169343656052985181e-01
7.573510108029365973e-02
2.246344938458494020e-03
-2.787589681632584790e-02
-1.178491501739439493e-02
-1.268016005644006031e-02
-3.519436872677610129e-02
-3.873646620218935271e-02
-2.824811662272235652e-02
-2.296980540256478298e-02
3.999617801770902724e-03
2.916882566273591715e-02
-2.147565117507196572e-02
-5.344587877681034743e-02
7.148825440964282074e-02
1.839187442663354211e-01
8.497950178998142645e-02
-5.168394089204675357e-02
-4.763456205424441980e-02
-5.312176296391810104e-02
-1.771780325613395712e-01
-2.600474918986342421e-01
-2.093529925090195642e-01
-1.480315749335180397e-01
-1.280642567726454628e-01
-6.919743335967400155e-02
2.369745067572714622e-02
7.977879619428460134e-02
9.231177363250095413e-02
8.349093988071998318e-02
7.348478555691634329e-02
8.447506171940462327e-02
1.044756520958288332e-01
1.167459573633339159e-01
1.346784038932567484e-01
1.535342458673298882e-01
1.514830488376948670e-01
1.264723143145441708e-01
8.075892316740293508e-02
1.365001441853595093e-02
-6.444745736895346466e-02
-1.175948758065848143e-01
-1.230152992028938491e-01
-1.309404029033964800e-01
-1.766082192859770306e-01
-2.126764648906522281e-01
-2.195293667559871931e-01
-2.144229941309151177e-01
-1.792844673681408263e-01
-1.046703808902586658e-01
-3.639221348292764197e-03
1.107607812556507948e-01
2.194004265838868373e-01
3.165520718572095715e-01
3.848292525787034846e-01
4.120238957856771078e-01
4.311868409058586260e-01
3.989709705486965685e-01
2.502884907770790979e-01
7.530013148009372104e-02
-6.589226997304836742e-02
-2.025589300286114169e-01
-2.738162146409265918e-01
-2.709350543525835819e-01
-2.848082875616314014e-01
-3.277858369521629567e-01
-3.721989221033558670e-01
-3.879771713158886581e-01
-3.555479782552750101e-01
-3.325935269218828205e-01
-3.364533572490125413e-01
-2.989373533563919327e-01
-2.178187819996930397e-01
-1.243480590810922548e-01
1.110246910928801289e-02
1.877313031015608868e-01
3.518808770223402771e-01
4.846143882853353180e-01
5.778402030985431148e-01
5.928216858060355587e-01
5.305582061518546722e-01
4.566350543335979673e-01
3.994499391227780971e-01
3.361832909244854006e-01
2.624791856591782713e-01
1.159391565335897711e-01
-1.546083102339021187e-01
-3.521948192343318795e-01
-3.154594428022009511e-01
-2.464266520803565230e-01
-2.975073793573539960e-01
-3.470626497201096949e-01
-3.449106985108379986e-01
-3.328685856490314898e-01
-2.914625160249570968e-01
-2.213812044896976694e-01
-1.392101875969571634e-01
-5.797482028696142320e-02
-3.110537527450546458e-02
-4.524831511005181217e-02
-9.095145683483560339e-03
7.843257864302688454e-02
1.471932061829945015e-01
2.005302391586384347e-01
2.722783460764658936e-01
2.817515976895272889e-01
1.545970716515254195e-01
5.492781605298909658e-02
1.293552434892629999e-01
2.095135002978592009e-01
1.442901779419299979e-01
3.471196001583491675e-02
-1.729246067662337100e-02
-2.671935002825685107e-02
-3.931794826379449159e-02
-6.913919332426558817e-02
-7.351883436791048498e-02
-1.995541956617928950e-02
4.506583613097786545e-02
6.287380902884773248e-02
4.711100460865528389e-02
1.620332386142573494e-02
-8.240237980969865317e-02
-2.579759049892981770e-01
-4.054642368087883475e-01
-4.551767238468998333e-01
-4.319558063223061795e-01
-3.434365259851262508e-01
-1.912750543920967716e-01
-4.721420666716856507e-02
3.305635711229791551e-02
1.119166808506730226e-01
2.565701266250763890e-01
3.729035820398206580e-01
3.616205722277648915e-01
3.570801683029629636e-01
4.774731073947330318e-01
5.538203937922414610e-01
4.531698559500346724e-01
3.098483005916259914e-01
2.048809463328638558e-01
2.865866597802310678e-02
-2.031877892536843588e-01
-3.097807319283796823e-01
-3.136096323827192167e-01
-3.967509226968086722e-01
-4.678900232749094723e-01
-3.329628188754085727e-01
-1.692287253898875077e-01
-1.988089034750801232e-01
-2.564515956982688638e-01
-1.749419408023971112e-01
-5.459734805459945384e-02
1.792507958949478286e-02
6.767734406750149090e-02
1.240683876802029101e-01
1.901484035611184231e-01
2.382856370341282781e-01
2.456705632837223874e-01
2.234827647535339579e-01
1.790772594829138364e-01
1.155915333028248310e-01
6.340856073690130656e-02
3.110544864077443780e-02
-1.963927489610758220e-02
-9.119162543491501904e-02
-1.314694978122268321e-01
-1.085187344714052815e-01
-5.929225516951068531e-02
-5.156823385237086638e-02
-4.309355088268935347e-02
5.599040170343844158e-02
1.288895798268092918e-01
3.837048952856417228e-02
-7.463555052576845150e-02
-7.627923619202606198e-02
-6.635498108307442966e-02
-1.277099711053261699e-01
-2.092080766666442881e-01
-2.481208357366711525e-01
-2.227237451170800686e-01
-1.547580469862298580e-01
-9.023253536762403104e-02
-3.560975381377941978e-02
4.888345901146285560e-02
1.709820962234331332e-01
2.724725919687728259e-01
3.165460592558745900e-01
3.464902664729920811e-01
3.952375539370388546e-01
4.277154464691832469e-01
4.062800568469815965e-01
3.239607477881040754e-01
1.935608366041618733e-01
3.940389665739171127e-02
-1.192317144318033040e-01
-2.467000487056044689e-01
-3.094383606273239939e-01
-3.517261370963968847e-01
-4.284348378316543693e-01
-4.908993023225513008e-01
-4.699501996884257737e-01
-3.918147613808576346e-01
-3.187435996400140858e-01
-2.586054092759097478e-01
-1.860940925083773845e-01
-8.887680020457855434e-02
3.801830100773612164e-02
1.964970390987928195e-01
3.425628091250798590e-01
4.135784606627984084e-01
4.366338887937959434e-01
4.543390762101685021e-01
4.105504119359028592e-01
2.937024831827560467e-01
1.859135840232949699e-01
1.089305415818401374e-01
3.167311217899511366e-02
-5.423359697394818102e-02
-1.356876297034388390e-01
-1.917717439830734227e-01
-2.192948865306006967e-01
-1.791273511708803001e-01
-4.016518569367415192e-02
5.744859990840521513e-02
5.932454236492863686e-03
-6.370805865046678951e-02
-7.879905181277625792e-02
-1.345608916628897034e-01
-2.356456495828329611e-01
-2.921960084998984075e-01
-2.750886565263708783e-01
-2.095522159484746738e-01
-1.107478265408337187e-01
9.830722546444028986e-03
1.048812362874461390e-01
1.373727927012372008e-01
1.516543043435127081e-01
2.000781014086024379e-01
2.524932272172079606e-01
2.719261892430188676e-01
2.793010830303817027e-01
2.838735851372246044e-01
2.517811310095642297e-01
1.605056918623145312e-01
4.052844808187738151e-02
-5.856041771022213460e-02
-1.393635769143626579e-01
-2.177647718693981327e-01
-2.483619538202844756e-01
-2.136710824548726240e-01
-1.935225400185377476e-01
-2.130711572173619173e-01
-1.906793769570982178e-01
-1.300259745313123994e-01
-1.125389417346047277e-01
-1.065581453839914844e-01
-4.052170749982803022e-02
5.370531040540972578e-02
1.211780410288509219e-01
1.564281928017159651e-01
1.630165758641745066e-01
1.437904238669745483e-01
1.239558020462831617e-01
1.206708629196522331e-01
9.888434945716703672e-02
3.564987912678420356e-02
-1.646399590094670823e-02
-2.325644381369420394e-02
-2.024165420106077001e-02
-1.656035859084885320e-02
1.668830041266381944e-02
5.531401048020428285e-02
4.946321707518198940e-02
3.559322246034284098e-02
6.979241066728235354e-02
8.374954687987029578e-02
1.436313236720803375e-02
-5.998975878538986145e-02
-1.096751895957311096e-01
-1.920071453267436778e-01
-2.543621439882312041e-01
-2.375271768956710994e-01
-2.024005270296377890e-01
-1.660864952635864034e-01
-9.318762048630291339e-02
-1.846232091078569768e-02
2.653946853729666211e-02
6.947768059127530649e-02
1.222643506132858049e-01
1.731209311749529745e-01
2.182310020894767943e-01
2.465137685081115193e-01
2.461824954675469468e-01
2.158868410225660561e-01
1.626453838461559553e-01
1.247905709459454365e-01
1.278141997018188147e-01
1.149748415797897660e-01
3.766576207338037663e-02
-3.905619721570275510e-02
-5.825630521160995307e-02
-1.289855816333165817e-01
-3.361347721828764623e-01
-4.760155680564960301e-01
-3.662370688804723051e-01
-1.991971461184630088e-01
-1.667180319252573872e-01
-1.530399286410048243e-01
-5.299153269900436919e-02
6.126601117033426275e-02
1.415600216263887545e-01
2.061045488037248075e-01
2.268783410688514079e-01
1.750021945090471931e-01
1.025654801274801520e-01
6.172016674782192930e-02
3.317652684946172797e-02
-8.123093550370037372e-03
-3.889398874468352751e-02
-4.063463101410574180e-02
-4.704169833531272882e-02
-7.900538052300817848e-02
-9.443485557250282103e-02
-8.005375703489199524e-02
-8.073249715431236873e-02
-7.665930104966442449e-02
-1.098951855949854318e-02
8.476711248980388358e-02
1.695061445905859665e-01
2.629814175260783982e-01
3.627316903176049379e-01
4.223293904397065202e-01
3.957995345852062252e-01
3.095112605217978929e-01
2.390387630600212532e-01
9.526489177681474185e-02
-2.381174296240564647e-01
-4.866610309036693005e-01
-3.713865017357175780e-01
-2.155622513796826567e-01
-3.593667169270408079e-01
-5.508339417721866971e-01
-5.298938461786616427e-01
-4.233152620127970667e-01
-3.554595034331883840e-01
-3.015759111734115372e-01
-2.174301441634115539e-01
-7.236823123922232759e-02
9.293079059402870046e-02
2.273621880226024405e-01
3.758638939420323455e-01
5.439043512041482620e-01
6.440343353417261607e-01
6.523040204877954551e-01
6.034097320141089682e-01
4.948100150958332222e-01
3.392571970311665797e-01
2.001539951360890024e-01
8.080821893106412968e-02
-7.509422910241228544e-02
-2.287322418092864740e-01
-3.208586887889619543e-01
-4.055757356497323718e-01
-4.536695610606182316e-01
-3.577087542995037728e-01
-2.484469446236808043e-01
-2.777222793711667248e-01
-2.835345621315634723e-01
-1.407014214379832540e-01
1.936918138100407472e-02
9.728954206629564228e-02
1.081032670670667301e-01
8.368479278772630869e-02
5.664495497719262279e-02
3.760383465687734683e-02
3.540657708124313185e-02
5.885932521542584783e-02
7.388875287849125395e-02
7.197667764461268547e-02
1.032044082208683489e-01
1.676461574161783874e-01
2.088202579358088562e-01
1.972710348124090685e-01
1.267485411705412124e-01
1.528109699106966479e-02
-1.006950909269732769e-01
-2.341631351173807107e-01
-3.478455398628444994e-01
-2.997901756233221082e-01
-1.629019400674005247e-01
-1.793788691570356586e-01
-2.319729888743143620e-01
-7.227752303190049243e-02
1.091633897254899455e-01
8.475345463358972820e-02
2.829984523772975658e-02
1.097246931251330132e-01
2.611904034632694382e-01
3.840193347511921540e-01
4.098328472926610067e-01
3.386641811355437515e-01
2.621828362491135933e-01
1.947352324672704527e-01
6.560448054290385356e-02
-9.683385160302515615e-02
-1.975430986889391005e-01
-2.162614910727356787e-01
-2.112515579449625869e-01
-2.505174251434306165e-01
-3.141889171083100951e-01
-3.110411690017090280e-01
-2.363568561124938239e-01
-1.709749595013549395e-01
-1.378222335461099513e-01
-8.647610603548155916e-02
1.343488843972797525e-02
1.223603827879203576e-01
1.815649605238517650e-01
1.969104357671073724e-01
2.225772506873596734e-01
2.602436375641122845e-01
2.532230085498857752e-01
1.962840289229759727e-01
1.443765139953431809e-01
1.129496554533512692e-01
8.264998065867452948e-02
3.576467932055475696e-02
-5.164430636714745920e-02
-1.337619263943976566e-01
-1.331586947142631705e-01
-1.142375042896893456e-01
-1.717350691700668674e-01
-2.328956334373122328e-01
-2.011478565023383791e-01
-1.317964830960577094e-01
-1.157937131072969417e-01
-1.256993115238079772e-01
-1.023779167060502038e-01
-8.371284135693363160e-02
-1.007206550819559482e-01
-8.818134942538805032e-02
-2.746101473408254362e-02
1.708208528558962172e-02
4.562361828344815851e-02
7.690330622388984183e-02
7.397620318899093828e-02
1.147841037342469672e-01
2.878972837965571574e-01
3.870917430709204798e-01
2.365277937735356106e-01
6.083610430459143736e-02
5.815274988779300241e-02
7.980486407522749404e-02
-7.462953928645814361e-03
-8.424708000183478429e-02
-2.660631132029719209e-02
9.131776391438836682e-02
1.566748506233504867e-01
1.780012875956002438e-01
1.804704624838702476e-01
1.354387595091562368e-01
4.044115451705330988e-02
-7.162050393376481749e-02
-1.641446841622409281e-01
-2.061843559490660061e-01
-2.260778289337507241e-01
-2.728990943004790393e-01
-3.062520776649314547e-01
-2.862191698395262218e-01
-2.711389247619218068e-01
-2.524672680627045862e-01
-1.421674012870674797e-01
-4.728818865348036887e-02
-1.384015577591537483e-01
-2.459561280872626932e-01
-1.318667226489788069e-01
7.832565982172556840e-02
2.186701990507744497e-01
3.600334957633225530e-01
5.285643229134865395e-01
6.215321685232010340e-01
6.138384308197804007e-01
5.472484650557914998e-01
