-1.069189876611852164e+00
-1.325758940548782627e+00
-1.442482300990917121e+00
-1.545704235465102494e+00
-1.963667853446454892e+00
-2.388615592672853616e+00
-2.158020881319206996e+00
-1.786248297999225132e+00
-2.147907375895450333e+00
-2.293284748530263428e+00
-1.329807848962360817e+00
-6.120423314298537587e-01
-8.285697657212798273e-01
-6.148453714870927289e-01
2.996732233745908469e-01
7.730186735910081763e-01
7.819350990306274118e-01
1.138135246327460104e+00
1.798070679379897507e+00
2.099522084768645325e+00
1.915958414176058167e+00
1.730865793562420762e+00
1.818502439933868509e+00
1.918751397142189230e+00
1.616568371340712629e+00
9.251268710648212767e-01
3.688669347933412612e-01
1.825787963582863327e-01
7.099305877085015926e-02
-4.595121400111940035e-02
-2.076769523747296065e-02
-1.733576386543322911e-02
-1.958422952027740194e-01
-3.103759604162866781e-01
-2.274972562871906134e-01
-2.555893231304595670e-01
-6.089699472316046913e-01
-1.095031479055631696e+00
-1.395239919826322783e+00
-1.402307926104124247e+00
-1.333138348231176273e+00
-1.417579616260678854e+00
-1.616946007034717470e+00
-1.823512041312593146e+00
-1.957987512092144167e+00
-1.868879571889660696e+00
-1.528071380625926956e+00
-1.187940346960315363e+00
-1.090387805804717170e+00
-1.154705877513295231e+00
-1.098778187863621802e+00
-8.544935122543614314e-01
-6.585088583028212428e-01
-3.937830919898815951e-01
3.336179904351929681e-01
1.015542136919119542e+00
1.271228515518255220e+00
1.398539594359853533e+00
6.967458033581908072e-02
-1.187804440273549700e+00
4.572750693982072789e+00
1.519005450630256959e+01
1.735096094851129322e+01
9.523716954187447570e+00
3.723877775857078909e+00
2.663870643475223510e+00
2.274939572946533595e+00
7.715769712355209364e+00
1.355315272040832930e+01
-3.105036170870256740e+00
-3.341018936349611579e+01
-3.690352057588838619e+01
-1.063392030335038285e+01
8.109808655840872404e+00
1.701228175254511754e+00
-9.904619871498091754e+00
-2.934740069912329385e+00
1.214685967620660634e+01
8.181269245541326285e+00
-6.575615044910991358e+00
-5.814703361568009932e+00
3.020707946013609924e+00
7.184843512497960383e-01
-4.129503731566664726e+00
2.559181347392534001e-01
4.034581327792390759e+00
1.290294664838744554e+00
2.482656008956749538e-01
2.803613227673543151e-01
-2.444981879620659271e+00
-1.172203972210758893e+00
3.620211506178543370e+00
3.520746805339790342e+00
1.480146534735171659e+00
2.755019725124517205e+00
3.330765919709921086e+00
1.440833913450978443e+00
6.472116235954269436e-01
1.355984664317630539e+00
1.607149723855276768e+00
1.311359738279871179e+00
1.212619805618069480e+00
1.275561560908792025e+00
1.128387436703178759e+00
7.781622143893306420e-01
4.913766838727451347e-01
2.887361452376220328e-01
-2.688955196525377733e-02
-4.067454918741005843e-01
-5.812602444162806581e-01
-6.696643657905108071e-01
-1.002314948579894338e+00
-1.167967227298700950e+00
-1.026409974541497405e+00
-2.174746662518602047e+00
-4.463939367586180040e+00
-3.758453125983510112e+00
5.783006596628440521e-01
2.810217383860044826e+00
1.132115674586701370e+00
-2.788990066412107005e-01
-3.021519785246408185e-01
-3.643952769378825396e-01
-3.236569780264727525e-01
-1.222974185483936882e+00
-3.476865968278311403e+00
-4.129446148813245010e+00
-2.570912299015335911e+00
-1.080529911937379683e+00
1.289110655734790889e-01
1.281513468953657364e+00
2.629464728958156083e+00
4.711106907356382933e+00
4.873949411270954712e+00
1.848648085656221296e+00
-4.074623992646687620e-01
-2.809087082942606783e-01
-1.255374322502667561e-01
-4.003776716396086344e-01
-3.580263368244750999e-01
-4.658311049159370998e-01
-8.906660946382253252e-01
-1.177354541293334167e+00
-1.267254251888400240e+00
-1.203705685575358064e+00
-1.117721980804762039e+00
-1.260127803425553195e+00
-1.039357624915824729e+00
-1.028890354721977429e-01
3.935687609471721915e-01
3.741502348947308709e-01
9.793008353833279056e-01
1.522736044789107179e+00
1.414528261777422635e+00
2.187382333757632580e+00
4.497250256834487203e+00
6.143647407060213617e+00
4.609656850117549887e+00
1.389714800949801488e+00
-1.011752538601030649e-01
-2.666144506745973253e-01
-1.897267638113068644e+00
-5.478255280003860861e+00
-7.012020397574605823e+00
-2.508090898235223243e+00
3.363651137748732811e+00
1.449243735220342444e+00
-5.975937864030653301e+00
-6.320084135236808009e+00
-1.204725331122206367e+00
-3.438781657966349936e+00
-5.616989727544938305e+00
2.318537000935661396e+00
6.384388896946568082e+00
2.261561272280348422e+00
3.115844167793722974e+00
5.844005402722153519e+00
3.209946985475046866e+00
1.132211460517132062e+00
5.189217557061939212e-01
-1.491285392428779222e+00
-1.394986147075694793e+00
3.805815833779756518e-01
-7.529629623506049751e-02
-2.761900868922345653e-01
2.516473903553393399e+00
3.072637899495147984e+00
-1.949966399062203148e+00
-3.953182965249458558e+00
8.694080550194343004e-01
1.861489538058753279e+00
-2.202218008991738252e+00
-1.645206158913054661e+00
9.659605464842441203e-01
-4.237372362109863566e-01
-1.842937833367553013e+00
-8.980479009923492129e-01
6.114589265067044144e-02
-7.031489034634536006e-02
-1.863107520700174380e+00
-3.016784586177644556e+00
-1.257467842901327959e+00
-1.190716458204444939e+00
-3.566788296642758205e+00
-1.249610591893330680e+00
3.638292777514776422e+00
2.989261313105773699e+00
-7.707117443633160203e-02
3.389051780345356257e-01
1.559783343958661916e+00
1.006146136290677839e+00
7.129489639676549473e-01
1.202486045840268192e+00
1.094906748788304851e+00
5.619983301145893284e-01
4.082724637940142731e-01
4.507734149623572883e-01
3.756492260968383734e-01
3.339198050802194562e-01
3.891758602802943834e-01
3.971857537577905273e-01
3.626760912204841647e-01
3.355121360214315951e-01
2.472293137151773679e-01
1.847134266446290862e-01
1.899861761954514117e-01
-1.010311537090201051e-01
-4.604032029309897966e-01
2.026837737229928715e-01
1.343528565935864894e+00
8.658962576992168536e-01
-5.851909372990249381e-01
-4.150003200318593821e-01
9.046599648730715426e-01
9.976833942086651419e-01
-4.232237760390668013e-01
-1.265961085109208906e+00
-6.188264363255221445e-01
-1.402682716649676253e+00
-2.695913261569391928e+00
1.170634952208377877e+00
4.276852225966891297e+00
-2.459583849807274181e+00
-8.130785043609169094e+00
-4.326406673216284915e+00
-4.527993222792949801e+00
-7.574780183922442234e+00
1.363567836687548995e+00
6.947373997492285902e+00
-1.330578257882609527e+00
1.782318262870087322e+00
1.258908753206618769e+01
3.728889463995165965e+00
-7.691944626206350222e+00
-1.586120762028959685e+00
1.281485971257627421e+00
-5.837854513107019194e+00
-3.712071178041137287e+00
4.761587162107862703e+00
5.867312441626346242e+00
4.481818092211689475e+00
2.013562344561487638e+00
-2.170555575438934959e+00
4.416595564012916419e+00
1.348282396062493227e+01
5.046164028416061598e+00
-7.364222040385036472e+00
-6.468353178676783166e+00
-5.618264615841970233e-01
2.453829088856972707e+00
1.442714940314047345e+00
-2.669614088152641340e+00
-3.745645577016789129e+00
-2.083769369931148141e+00
-3.111683269623008119e+00
-4.966561465149979426e+00
-4.946846014897856136e+00
-2.269111791154784896e+00
3.920749605914870983e+00
6.672506137032810258e+00
-2.102630584601792307e-01
-7.781741472703481932e+00
-4.890758184414755405e+00
2.200954960110299119e+00
-7.222512519658740304e-01
-5.208205611770648780e+00
5.549432881621983782e+00
1.328885088419000304e+01
2.410467028165335535e+00
-1.244785448228369784e+00
7.669999098239718371e+00
3.714854181349584117e+00
-7.419596362574916171e+00
-7.101263987632512098e+00
-2.431203152447960480e+00
-1.356150553267860381e+00
3.475917207364466743e-01
2.656592670305314652e+00
2.673771794418875913e+00
1.870646215302677273e+00
1.358376370887059981e+00
2.884360536879430059e-01
-1.261325556618759558e+00
-3.802057214032664056e+00
-7.398785655726113575e+00
-6.884637322884589850e+00
-1.102856592722052831e+00
7.913816920838214752e-01
-4.674918670741967652e-02
4.105474403542718420e+00
3.313931874721819604e+00
-3.085579304653539356e+00
3.059154284146343716e+00
1.177190953673582108e+01
2.512984517573499055e+00
-9.129153196143613869e+00
-7.570208241776169800e+00
-3.749275745454284436e+00
-2.377263496418095645e+00
8.193375263290703092e-01
4.846819174329618285e+00
9.981954755060927553e+00
1.193311622481983747e+01
3.778505316835594208e+00
-5.897199756055595543e+00
-5.384812659628030573e+00
1.369460289246348328e+00
4.838495462155803395e+00
2.037562620966486548e+00
-3.311194895841322872e+00
-4.683732874324403106e+00
5.860743133268093707e-01
6.645170551733919240e+00
6.637189963724573261e+00
6.371710862739592418e-01
-8.642002054924146748e+00
-1.264049360856844473e+01
-3.523950992487073997e+00
3.239127629024718402e+00
-3.387504837606456931e+00
-2.024813853151014698e+00
9.879773960622674878e+00
5.520243787377561162e+00
-9.465157986545833069e+00
-9.421606801217809135e+00
-1.368583315957997870e+00
-1.832739365675382537e+00
-4.183915318310274856e+00
-6.540288082012025717e-01
2.912455622080536433e+00
2.960680766088104487e+00
2.621586247697575089e+00
2.940146607323518957e+00
2.807396752216587910e+00
2.313066574068764591e+00
1.801636711819340153e+00
1.199820402238928940e+00
6.501086779403190130e-01
3.307197219962923485e-01
2.134920252432001009e-01
2.537525506766682981e-01
4.414353365587362354e-01
7.177349277527909077e-01
8.835484437608072117e-01
7.821679971633332951e-01
5.928444521430316083e-01
4.883795194540241913e-01
2.778133103318001229e-01
-1.527139110639138542e-01
-5.837805994265274911e-01
-8.484265010964838760e-01
-9.806369799625711536e-01
-1.029750196604689805e+00
-1.006729400019239051e+00
-9.418544385360215765e-01
-8.813778675208807645e-01
-8.264928246301258552e-01
-7.363118612461366785e-01
-6.023790023170705332e-01
-4.720301445351597902e-01
-3.898167462677541995e-01
-3.484810519103844761e-01
-3.248914561721977790e-01
-3.125428932253895287e-01
-3.023640194465278541e-01
-2.945420778983235954e-01
-2.835029720820221311e-01
-2.298748816165959719e-01
-1.187013690864398702e-01
1.977280605594283758e-02
1.183886608888232994e-01
1.361542664263470093e-01
2.625437239322930827e-01
6.039048348607692906e-01
6.774969946355696715e-01
2.906927835342213995e-01
1.922729679854698059e-01
4.042091484376819088e-01
9.075135207732251685e-02
1.667101455623938855e-01
1.774771594106434147e+00
2.860903560991857386e+00
1.747634119525165675e+00
3.325955229062027008e-01
-3.503160893715412394e-02
-3.785620205769851809e-02
3.245443338464940042e-01
8.721304907079263646e-01
3.955146098269969879e-01
-2.760106875425705208e-01
8.967149842624322353e-02
-1.551296969579349039e+00
-5.090753043100352926e+00
-2.913301561507717352e+00
3.689040494416084837e+00
3.866283067014847141e+00
-6.811068878744339639e-01
-1.279143887470842733e+00
-3.933579594509456490e-01
-1.531986484074712829e+00
-1.836381442945702824e+00
-1.146778807341146011e+00
-8.541159096853947474e-01
2.550983659993478758e-01
1.685286452991663797e+00
1.116834666420578381e+00
-4.620290727147121079e-01
-3.843631046744541702e-01
1.363336429114521686e-01
-1.181692945980123755e+00
-2.514818459431270803e+00
-1.625177105357274554e+00
3.483359289051249363e-01
1.604835039776500327e+00
1.508934061744960253e+00
4.810723686106775920e-01
-1.885743437328891714e-01
-8.755551843614084451e-02
1.270833343292306628e-01
4.132637016359292370e-01
9.014399009315928746e-01
1.050386151059508277e+00
6.561757906928710193e-01
2.668165688931203317e-01
2.870725211459090875e-01
6.518687445768731603e-01
9.700219293309048085e-01
8.446606416702563402e-01
6.175952617293231084e-01
6.645957236239102839e-01
2.766846219995859890e-01
-8.075769958921393821e-01
-1.469512064241084159e+00
-1.207194184229709366e+00
-7.633202510956837994e-01
-5.950016114718005289e-01
-5.126876813664567045e-01
-3.795102362460313628e-01
-2.390049194036243940e-01
-1.141005262100372175e-01
-8.521983964778073739e-04
8.070703099677839498e-02
1.096291596915624778e-01
1.053648026646868685e-01
9.666568067942375719e-02
5.799978181065397476e-02
-2.526794807770893492e-02
-8.365709117491429425e-02
-8.009604393196489980e-02
-5.586794087775219519e-02
-1.216273354468296042e-02
6.242006684250817061e-02
1.263484316960691856e-01
1.684502970943031475e-01
2.120994320159892699e-01
2.404888231740064941e-01
2.402652610723623461e-01
2.345774708928746732e-01
1.800043769284151440e-01
1.520908446337201729e-02
-1.327637047053386032e-01
-1.265368911443378597e-01
-9.166442989147628728e-02
-1.434524117255944475e-01
-1.724442469022547109e-01
-1.070588344598406572e-01
-3.349999107990762198e-02
-2.703979994826045952e-02
-5.223531987557020195e-02
-3.129801564797146662e-02
2.840685257956675203e-02
5.075814478239423777e-02
3.733022352571432889e-02
4.881861627075081977e-02
4.419042783504232436e-02
-4.550141619698570838e-02
-1.102631481105731392e-01
-2.167198744034344940e-02
1.010826677791954870e-01
9.964619451043806031e-02
3.597666776666654659e-02
1.961328243235191740e-02
4.561783423418030309e-02
6.441260757884170740e-02
3.399682033663010972e-02
-1.421361018519599895e-02
-4.207732835239131816e-03
1.764045342843454170e-02
-1.204135194513654937e-02
-1.979700614446802329e-02
8.213226776891874303e-03
-1.501001251407123489e-02
-6.180658746496842104e-02
-6.194410436352619509e-02
-5.670654425846526764e-02
-6.690325769611811524e-02
-3.969931589477846551e-02
-5.570845329292288366e-03
-3.265717235832558962e-02
-6.323056345176017445e-02
-1.898018393189352185e-02
4.889853120021497163e-02
5.951504762542322857e-02
1.901354550499254406e-02
-1.686386079955530179e-02
-5.447895517573674365e-03
2.796886881729710589e-02
1.155374984846764194e-02
-1.399689419257643327e-03
1.084995781707471935e-01
2.212300656922178144e-01
1.229238597198241828e-01
-8.829280178075828156e-02
-1.548792485767609972e-01
-6.668969286285864051e-02
1.877687600523651398e-02
3.459838863656390651e-02
-3.403776526162950039e-02
-7.564578092479265492e-02
6.967205058723159594e-02
6.516919483633339116e-02
-3.173325484561196896e-01
-2.888471480941059988e-01
3.661037197741046079e-01
4.566837037826298462e-01
-1.812887275002043053e-01
-3.428198917468214812e-01
8.744385481148875261e-02
2.491309567380901313e-01
3.971496063197517412e-02
-1.437130572845091714e-01
-1.820135986816711626e-01
-2.295719812979577640e-02
2.015952623242389663e-01
1.012531837506121801e-01
-1.791952984327346843e-01
-1.128262191445643242e-01
1.525254732918153167e-01
1.377084488887777292e-01
-4.142692394702525427e-02
-5.640358461252488464e-02
3.280570144530377263e-03
-1.826085047683592005e-02
-8.603112093072410455e-03
6.853149181981045557e-02
5.551972948476453090e-02
-6.604515803035883315e-02
-1.147874014321538794e-01
-2.980467537774099396e-02
-3.540646449479348257e-02
-1.789129505567909340e-01
-7.892177497085878235e-02
2.397799586476328515e-01
2.483771543533727644e-01
7.560168796073366004e-03
-9.550877888699577101e-02
-1.215531212447245324e-01
-7.188660987408494740e-02
9.566475669326875153e-02
8.506999923814623221e-02
-6.435919115710189709e-02
-4.778413906682172502e-03
9.816080604524551889e-02
-7.810578945989632427e-03
-6.839878116797623586e-02
5.923780013486671520e-02
1.093917609511411149e-01
-8.204648181938369034e-03
-9.824625030758710187e-02
-6.575502585582350401e-02
4.393303227861193594e-02
1.577348222104296704e-01
1.700771444455654313e-01
4.453800228001317946e-02
-8.786236350002969708e-02
-9.762173508632582264e-02
-4.305870721055396477e-02
-3.450227453631272978e-02
-5.965354780571825721e-02
-7.314027670903278100e-02
-9.170264428628942255e-02
-1.097906379198869131e-01
-6.471851713210441392e-02
-1.468779281955433919e-02
-9.982484740926107769e-02
-1.877971834372207383e-01
-7.514062516826211513e-02
7.203737801429657694e-02
1.003741977069996238e-01
1.633845854566955969e-01
2.561136366011741994e-01
1.862270379958825828e-01
2.387151470710435069e-02
-2.937979367166566880e-02
-3.859360272788998902e-03
-5.469950523208467336e-03
5.448829871599194380e-03
6.573593935595545279e-02
1.357239498819832468e-01
2.217784236263475317e-01
2.878878464009118066e-01
1.588151018732715247e-01
-1.658866397429499817e-01
-3.548275090036028812e-01
-2.541563025748195259e-01
-1.308680962942842529e-01
-1.531910363365909244e-01
-1.797287907465978385e-01
-1.045229631382609548e-01
9.496366682817534294e-03
4.187006533271789982e-02
-2.216579934392387541e-02
-5.541241384134330816e-02
-3.229219036289225631e-02
-3.633711203694990621e-02
-1.796950406378865217e-02
6.991427273576832080e-02
1.169351042779340905e-01
8.560903514406263681e-02
6.369304161550190524e-02
6.912558590801631819e-02
6.919811969637285065e-02
7.107311162013607575e-02
8.113090510568662928e-02
8.365049560831508413e-02
6.039307393864030288e-02
2.188946845817960410e-02
2.139476639623022480e-03
-2.448622464541936120e-02
-8.925755832902232401e-02
-1.225657012292071663e-01
-9.324991136496277311e-02
-6.616069552225442574e-02
-4.600353344469253897e-02
-2.063118734490992923e-02
-2.088717682798389014e-02
-6.036924027829668193e-03
5.805904995284773273e-02
8.656428033476623596e-02
3.944609442636674151e-02
1.944730952269613927e-02
8.124260748510059305e-02
9.664344726401760677e-02
-1.200523620629818065e-02
-1.059403472544821201e-01
-1.142419633213805907e-01
-1.069483186557378673e-01
-5.438451208511951157e-02
4.918318797397282227e-02
6.968813965463928339e-02
-5.937579515117460960e-03
-3.124193949136638143e-02
3.483155136804338969e-02
8.384183103497089284e-02
5.027629982184635138e-02
-1.964519504736648992e-02
-5.146825056327068715e-02
-2.231767863395506951e-02
1.388684379006311850e-02
1.492612169270732085e-02
9.925236355860882903e-03
1.245953181307869750e-02
1.293354523500172062e-02
1.979980252456657597e-02
1.267488982850098131e-02
-1.868800318428753479e-02
-2.925757153681051576e-02
-5.569465189342559866e-03
1.209936674272069253e-02
-2.057827978980738409e-03
-3.272341581022086832e-02
-4.171675979043778376e-02
-2.341833709505374006e-02
-2.351702154589729171e-02
-4.746657365062646738e-02
-3.529443347760181232e-02
9.856789744412982127e-03
3.020657761215311127e-02
4.896666120109992304e-02
7.872562417446998806e-02
4.262769310749349450e-02
-3.221766446914972604e-02
-2.888160447513076629e-02
2.446125574264430835e-02
3.249912300007547911e-02
1.398258728605943427e-02
1.515861647312089638e-02
2.633318658405373741e-02
4.237627278619979232e-02
5.104828186078604751e-02
1.295156052588932599e-02
-3.465704035799384991e-02
-1.170830569124757699e-02
2.632356738939004709e-02
-1.752332051020702441e-02
-8.436521838356869640e-02
-7.501202649452520799e-02
-9.986942935802092455e-03
1.222427980639198900e-02
-5.562121451232530239e-02
-1.101141014624095193e-01
-6.165313031120799037e-02
-8.708002238905634268e-03
-8.841370048891562111e-03
1.633826828353149990e-02
4.295964568513487014e-02
4.408070244745328214e-03
-2.729406195167769639e-02
-4.324609497864586455e-05
1.856904105338658476e-02
1.325360959475599919e-02
3.343295101663020658e-02
5.684794909189278683e-02
5.004703686964229875e-02
4.051701955431110530e-02
3.507787624140263488e-02
1.620014871702758416e-02
-4.968386651239097354e-03
-8.734037938287302072e-03
6.468017005750359774e-03
1.558390657621516219e-02
7.147313241517709234e-03
1.842052445783738321e-02
5.355374587686252685e-02
5.702087070156508508e-02
2.740206378636547355e-02
1.918786748645253531e-02
3.179395775878035568e-02
2.982748235959225766e-02
2.249614114489676200e-02
2.281031117751576229e-02
5.951456324590360600e-03
-2.765813639693972745e-02
-3.318910366999587580e-02
-1.299189563285698540e-04
2.757116212052555457e-02
2.056113274185145112e-02
-8.505606105024994534e-03
-2.079464736575097408e-02
1.671658698864881762e-02
3.074571526031523450e-02
-9.032649218699377591e-02
-2.236690214994138948e-01
-1.646128345873307808e-01
-5.390510319335428679e-02
-1.160448437457544252e-01
-1.644257528308339655e-01
-9.797970421575818989e-03
7.074968566400241521e-02
-7.745761036303790148e-02
-1.522274177038842324e-01
-7.282365385034295091e-02
-7.381217822196554923e-02
-1.121754888916210446e-01
-5.105892584916119081e-02
-1.222871033662415868e-01
-4.740216618324987752e-01
-6.807518728839778710e-01
-3.797410800744106529e-01
6.479759255164625753e-02
1.508419551622684207e-01
-4.114228883489240429e-02
-1.763623519997020161e-01
-1.469023156321963564e-01
1.249943235414586844e-02
2.407954841610841501e-01
4.688522638792765873e-01
7.174595514484629621e-01
9.588226103726505967e-01
1.031173876013481649e+00
1.072487475862277995e+00
1.399814946754031508e+00
1.658145098702919151e+00
1.156870387839145087e+00
1.470275936455822108e-01
-3.982010705686647722e-01
-2.605532996023045555e-01
-6.752879584439241967e-02
-6.128090012038411860e-02
3.186472939368177604e-02
2.518246676181194466e-01
3.795888271169292616e-01
3.565704897927155503e-01
3.568496427213288524e-01
4.343937880483651481e-01
4.033051617883537387e-01
1.889792416869973124e-01
-1.682830128280354276e-01
-6.762955495177820353e-01
-1.176474950104677841e+00
-1.535003807053078706e+00
-2.054369561906534525e+00
-2.904861736619839707e+00
-3.519409309667443697e+00
-3.332323278804586675e+00
-2.649608560966878024e+00
-2.226459130239370143e+00
-2.098393288092349263e+00
-1.472635567383456356e+00
-3.375499062357117386e-01
1.233480857564753785e-01
-4.278879567249352922e-01
-9.665025272143518142e-01
-1.076581457238331208e+00
-1.516360346758502509e+00
-2.540423346292880247e+00
-2.902983753853926707e+00
-1.357064181484176846e+00
1.320369085068861859e+00
3.734977453873043363e+00
6.688741291609206385e+00
1.024708411806402175e+01
1.069124361519308763e+01
7.176192145147568979e+00
4.754637643342417341e+00
5.515672489831650260e+00
6.312152427448428860e+00
5.556699623593846837e+00
4.249285833380126221e+00
2.891044488639055832e+00
1.193548735098665325e+00
-5.664309744466049512e-01
-1.417617407577837385e+00
-1.940941279075587778e+00
-4.739493750398230176e+00
-9.964139587689148314e+00
-1.351674766883954604e+01
-1.305011062913974840e+01
-1.133059287277072613e+01
-1.063691268571623816e+01
-9.375831934229742259e+00
-6.294130772315887690e+00
-2.081480253288114923e+00
2.861217173977918637e+00
6.457138911769146894e+00
6.063282663161650987e+00
5.231136292783416408e+00
5.796718604863087876e+00
7.309954560979363691e-01
-2.071107076940800873e+00
1.277581882689798221e+01
1.994511124037891747e+01
-2.207115506033676233e+00
-8.384778718363929073e+00
2.064167065918876887e+01
2.677876413310355019e+01
-4.300006546874988622e+00
-2.094579204587629206e+01
-1.092018565853270928e+01
-1.891686373955241862e+00
-2.842145128703167933e-01
-4.135534019545987205e-01
-4.148335782265235139e+00
-8.216826702138709138e+00
-1.080653376674150756e+01
-1.458211199047468654e+01
-1.077479103952957651e+01
1.011833901994788398e+00
4.573460428744498429e+00
1.947650677723475887e-01
4.473663723973952955e-04
2.943466653830161928e+00
3.968929627762328938e+00
3.935272496119091024e+00
3.881325873218589351e+00
3.641131706311998784e+00
3.404336191501772024e+00
3.063214375326368089e+00
2.591238080702106927e+00
2.359741345121949330e+00
2.325292414591126011e+00
2.207254530104187928e+00
2.081973457700727170e+00
1.937762471913814899e+00
1.504554996435233605e+00
8.204401299098095235e-01
1.472885086043459468e-01
-3.882200202856989080e-01
-6.044663902680208478e-01
-4.366703106000551227e-01
-4.077306405130796119e-01
-9.717674646866167887e-01
-1.811208895220030701e+00
-2.564399467682466405e+00
-2.600891402681449804e+00
-8.088351843559290488e-01
1.462319525061582137e+00
1.036466095653672426e+00
-1.241961265862227215e+00
-1.725949708027128882e+00
-4.517234412940643318e-01
9.918520693133586752e-02
-2.146375986512989997e-01
-9.030253803284965519e-02
4.890841804807283255e-01
7.067135111057107899e-01
4.123863816825885653e-01
8.612717042070450191e-02
-1.207265293659814387e-01
-5.067314711863120102e-01
-9.305264343185073450e-01
-9.053199706597873098e-01
-6.463526670198417312e-01
-6.202738571484941454e-01
-4.935803325370493044e-01
4.415887023660869382e-02
2.317503385200258559e-01
-3.195555128066917550e-01
-3.866424547235949305e-01
1.817142761277301122e-01
-4.198491663365285231e-01
-1.309126148779804044e+00
2.407585375400448369e-01
2.239050792793488842e+00
1.263116440368754034e+00
-4.361804262086483863e-01
2.761181898626541287e-01
1.512452893903710516e+00
1.085174669801544756e+00
4.213851766676373067e-01
6.193533652854263938e-01
4.586073506593577043e-01
-3.995092017257203532e-01
-9.508132528370059067e-01
-1.310002810849760779e+00
-2.306207093257420127e+00
-3.442983373287577198e+00
-3.250834002982412763e+00
-1.516526633092802001e+00
1.116777604573122584e-01
2.980671031639954838e-01
-2.388523142896944451e-01
-1.015031190615362511e-01
6.752628179867107283e-01
1.282710995500832674e+00
1.790284890495894121e+00
2.530984117331828820e+00
2.904443418122919507e+00
2.311234048663356688e+00
1.498752513129388175e+00
1.277314003386939456e+00
8.701437159518307096e-01
-2.016643134696447515e-01
-5.410698029154871191e-01
3.182456518402607681e-01
5.529755593210290421e-01
-5.598985297583358722e-01
-1.310988809625824425e+00
-6.725978349101693343e-01
1.681753507400982062e-01
2.817072909127869840e-02
-5.316804360247198158e-01
-5.062181703797719035e-01
-8.911596655386293253e-02
7.280315824664848612e-02
3.221097570117602282e-02
2.465651049401978989e-02
2.189735565837781783e-02
1.000609095280725336e-01
2.149240379023161784e-01
3.117559530757826880e-02
-3.498616661879753731e-01
-3.891952471218705356e-01
-1.433951677240727918e-01
-2.115733894817473648e-01
-5.645945051797816028e-01
-5.395688953059175619e-01
-6.612603902809996437e-02
1.399934424361149177e-01
-1.803060335550056570e-01
-4.216573139701628725e-01
-3.546426594326732018e-01
-5.103523609462221611e-01
-9.668247544401389337e-01
-1.303062209744149547e+00
-1.582777348393530792e+00
-1.808501614152544068e+00
-1.622249011159707432e+00
-1.656560554305379851e+00
-2.457606063792852513e+00
-2.147367297321272961e+00
7.042805563062077834e-01
3.563881802307779623e+00
3.628536971950693690e+00
2.134604300896362439e+00
1.598673860373443167e+00
1.936527999448261372e+00
1.791785084788637850e+00
1.113883915697135185e+00
5.202732353922376873e-01
1.066231026182801189e-02
-4.293892352340480389e-01
-4.593302974168904096e-01
-6.361132221251669661e-02
4.585063452609850487e-01
8.461974211235014920e-01
8.953497614696552809e-01
7.786808092696759775e-01
8.672558089229750466e-01
9.591357347629027030e-01
7.130571386343064200e-01
3.603030967031644050e-01
2.504568038168891730e-02
-4.905582196114582905e-01
-9.312218526978517374e-01
-9.739681567054352396e-01
-9.236191706601841744e-01
-9.928608866509864850e-01
-9.029504397965589790e-01
-7.428845847225050703e-01
-9.356488699005870435e-01
-1.206557660342732152e+00
-1.001061851694435179e+00
-6.217278239630018577e-01
-5.910460622353532756e-01
-7.285336961710013881e-01
-7.310196245375766289e-01
-5.409720059327642883e-01
-1.376831872123446265e-01
2.729528371887612881e-01
4.906687930535144626e-01
6.655190611056861494e-01
8.604505182727377743e-01
8.595613865705173939e-01
5.688167928881970870e-01
2.406773024504196279e-01
1.756393631811084266e-01
2.234269605058313291e-01
7.280394640867898781e-02
-3.505681612501986705e-02
2.766781607826419576e-01
6.530961890923963065e-01
5.506122763403957787e-01
2.200615460930247513e-01
1.079966158853120084e-01
-5.565596575978937199e-03
-3.163571067695147843e-01
-4.958783234397440287e-01
-4.768820412987671009e-01
-5.276857995532520107e-01
-5.538781531151533155e-01
-3.818533141462627789e-01
-1.795293985889662158e-01
-5.207426315880966938e-02
5.191891442333102652e-02
1.136775373560541258e-01
1.422770918625918812e-01
1.134142032521923416e-01
-1.403888567862669225e-02
-6.100962601825269532e-02
4.924607576543654774e-02
1.325143272657187954e-01
1.928231705806922047e-01
2.214496477592541035e-01
-2.613738072475429997e-02
-4.065835561634256745e-01
-5.569758388070651378e-01
-6.000607507534578833e-01
-6.296630022827518491e-01
-3.753093382249028664e-01
4.794163643830259142e-02
2.414282823252840160e-01
3.244632425758718353e-01
6.556954415346145648e-01
1.115727290532720684e+00
1.255176281125462312e+00
9.036468528215128027e-01
3.711574917338895108e-01
8.268720091328898847e-02
1.707553280226762615e-01
4.476025001868050301e-01
5.591886845199451894e-01
3.241652935235272426e-01
3.397053143639462702e-02
1.319287603711291612e-03
2.017173922672892417e-01
6.362743146270296579e-01
1.145674517973835016e+00
1.180879546467931807e+00
4.417094999985128889e-01
-7.025064015305311216e-01
-1.357169373242863575e+00
-9.624513249325754582e-01
-8.288186672714573100e-02
6.342267707372331031e-01
1.300037167059661769e+00
1.755421098237674782e+00
1.482020791501735379e+00
6.826042515241821373e-01
-2.649414573432137820e-03
-3.893689050597940460e-01
-6.649998872941846884e-01
-1.008701248226627101e+00
-1.499416706211989414e+00
-1.962968172600399352e+00
-2.088292482179482601e+00
-2.106778240068483576e+00
-2.605250149054162190e+00
-3.274157907306549653e+00
-3.279125993241282622e+00
-2.896948972142554979e+00
-3.035060882600372434e+00
-3.898851516086677016e+00
-4.956726684433260033e+00
-4.909443606335520904e+00
-3.185980380389371369e+00
-1.699771243107830010e+00
-1.810346588506884569e+00
-1.881379744198532045e+00
-4.447025333680795778e-01
1.838788359448600307e+00
3.975882691480248532e+00
6.098016221519813485e+00
8.307768741739957719e+00
9.222989872895139385e+00
9.121770608490617605e+00
1.077381905537170859e+01
1.294318871717391417e+01
1.172424600664233196e+01
8.236313313835452732e+00
5.399380321705951502e+00
2.902681070572307842e+00
6.470474825038809996e-01
1.115922872729431248e-01
1.416521419131626658e-01
-3.595220006485067010e+00
-1.219263682766487022e+01
-2.087509306207537207e+01
-2.440054570791869537e+01
-2.056039808201792241e+01
-1.075418866750849389e+01
-5.727227113853250451e-02
6.978783159887502308e+00
1.016841200177823801e+01
1.130287907431056205e+01
1.074065653641501683e+01
8.383482198581219791e+00
5.617116583036214195e+00
3.629702375899444000e+00
1.665211280580044750e+00
-9.113976519918667307e-01
-3.192843839781759563e+00
-4.505706205110572959e+00
-5.210078184268525980e+00
-5.517752681490390998e+00
-5.239574425267471192e+00
-4.528272381420348935e+00
-3.861154424748946656e+00
-3.856725502577497355e+00
-5.031507946722959090e+00
-5.953518994011789189e+00
-3.924895733080352223e+00
4.649067899872150189e-02
2.739419658339191876e+00
5.291055229544884497e+00
8.634519242839507669e+00
9.777636018111218519e+00
1.228351383172147493e+01
1.956194123187744438e+01
1.875474982751934050e+01
8.874743928019399597e-01
-1.913615814792029823e+01
-2.030983551699809198e+01
-1.783954113873647884e+00
1.039645468277782037e+01
-2.486630227408558991e+00
-2.239459047647354595e+01
-2.228037248422780436e+01
-1.105426193186640482e+00
1.311360185797144240e+01
2.017371898489726867e+00
-8.314662586071614570e+00
2.650312753723433445e+00
1.135830858339938310e+01
5.256744858710652224e+00
2.033328383402357886e+00
5.573718857166629626e+00
5.687550085258587629e+00
3.134092211261309213e+00
2.363624900440054688e+00
1.920179406061624405e+00
8.495096193071830504e-01
1.960157030701008551e-01
-1.144927529163880520e-01
-4.603964155407549441e-01
-1.050462508949311591e+00
-1.891274125134846829e+00
-1.892142048825460776e+00
-1.077971279624174716e+00
-1.676600919252767996e+00
-3.222958035111705311e+00
-2.518761133268754282e+00
-7.239716952456936028e-01
-1.234995647957692011e+00
-2.423696632459164224e+00
-1.660615224247017574e+00
-3.565169598682521590e-01
-1.698974506850814414e-02
-4.423495746615202506e-02
5.167438249824374275e-02
1.544151950558892428e-01
2.472734446632917638e-01
4.086150139915895041e-01
5.921454593236233910e-01
6.897578175248282317e-01
7.270821227675725584e-01
7.954540876970622731e-01
8.847448210769118804e-01
9.361038485947250631e-01
9.229337343270160865e-01
8.333381234982178976e-01
6.889780014412433262e-01
5.415709165490540933e-01
3.994804386895737247e-01
2.376806786598644194e-01
7.185939360041102009e-02
-6.228487486913786286e-02
-1.661309678839214821e-01
-2.539896013495289151e-01
-3.323937729462664858e-01
-4.087808844607215830e-01
-4.633853675484319590e-01
-4.762145040155459919e-01
-4.791322927799821496e-01
-4.902808503489161085e-01
-4.853894315680311045e-01
-4.717396268446288343e-01
-4.647111827709307641e-01
-4.465435876828518502e-01
-4.116418168845653036e-01
-3.562654567944408823e-01
-2.715921324477991172e-01
-1.839400333576177715e-01
-1.075966206609732245e-01
-1.358824110138408259e-02
1.076259991098222207e-01
2.324551654468012818e-01
3.356613239775798618e-01
4.018847157409641824e-01
4.419538499440554546e-01
4.772035542999685243e-01
4.935307126505487085e-01
4.715696074581171016e-01
4.424436460828343187e-01
4.279426048571243757e-01
3.892261807018710384e-01
3.185772866930779990e-01
2.659294075977878258e-01
2.176359474975745056e-01
1.145658466704539830e-01
1.226396624269569802e-02
-6.965436669763278021e-03
-5.490959003848115694e-02
-2.435649470324842136e-01
-4.021479533307361076e-01
-3.758878215997298877e-01
-3.083327889969421087e-01
-3.265336228140842678e-01
-3.567721444986107771e-01
-3.464384612460228441e-01
-3.222839655238979306e-01
-2.906240560104841886e-01
-2.454457443079910983e-01
-1.899646371924441357e-01
-1.302888779599875591e-01
-7.479039609508175701e-02
-1.440667414458857154e-02
5.896075632967955060e-02
1.200852836156802855e-01
1.552625607253496631e-01
1.885698120204675754e-01
2.168372896990324039e-01
2.034668075052160630e-01
1.708957941689723814e-01
1.770967391517181688e-01
1.994892329550655707e-01
1.829907965937512260e-01
1.464842010647361970e-01
1.267478946619621238e-01
1.071158553244201256e-01
7.261232890063726297e-02
3.935059961268338319e-02
8.557406135836879979e-03
-1.508491749622455080e-02
-1.377092689599614117e-02
-1.765322957927048519e-02
-5.565439631309973545e-02
-7.931248911028643267e-02
-6.061895846657293363e-02
-5.746504925819157644e-02
-9.939690307185251872e-02
-1.360580285647684240e-01
-1.324637944016582025e-01
-1.123816092066857730e-01
-1.022320213889052753e-01
-9.609703106502735792e-02
-8.586085508966517787e-02
-7.825996784294679542e-02
-5.929340935982832517e-02
-1.980882796277254679e-02
-9.063814642347123307e-03
-3.902769647130605035e-02
-2.572803876363399106e-02
4.698296528542521971e-02
8.534928159635411793e-02
7.893206316245598986e-02
9.706253581996417135e-02
1.143191698993950012e-01
8.072383375463523802e-02
4.941383360227478982e-02
6.769504946970425485e-02
9.362150990136793027e-02
8.530319283305649869e-02
5.392510772801922120e-02
2.177114657574677828e-02
5.471600075268569230e-03
1.051874996643825666e-02
4.435753760007970364e-03
-2.435700082311727591e-02
-2.626686974230474370e-02
-1.405706074990381582e-03
-1.322003753581534567e-02
-5.258286538893892220e-02
-6.151108537453485459e-02
-5.661647849959500212e-02
-6.555017531080332971e-02
-5.014456903584177394e-02
-1.850678148069092102e-02
-2.876030283810673133e-02
-4.661128686520232822e-02
-2.256475415437858567e-02
-8.022788388819937500e-03
-2.160713437276558582e-02
-1.326619381009663291e-02
9.949191609948679696e-04
-9.832661537080712721e-03
-6.989934238716180234e-03
2.018875126216461424e-02
2.740640708772856121e-02
1.411606488124684221e-02
1.479386245080243668e-02
1.958876226322067010e-02
1.025960916486733446e-02
1.799341586153458544e-02
5.203701282824633317e-02
6.749398266670013358e-02
4.983980642296335917e-02
2.026250845170830817e-02
-1.127007425511028504e-03
8.182651357689108354e-03
3.380077486492032157e-02
3.668892751490230447e-02
2.013931198748507637e-02
-8.345608591364198081e-04
-2.025251189401484561e-02
-1.433654034098038633e-02
4.497365968612819856e-03
-1.165758075428917351e-02
-4.533063203925037643e-02
-4.237040947916068806e-02
-2.000038907866365928e-02
-2.814011566450252272e-02
-4.992589302572307541e-02
-4.424494945020725906e-02
-3.096764434304109109e-02
-3.578048893844259365e-02
-3.133439970913257794e-02
-3.808701930101927174e-03
1.122241357530847500e-02
-8.233234355230670265e-03
-3.064308010913682767e-02
-1.744690785793963708e-02
2.137897287695833190e-02
5.105526039474531097e-02
5.225924983464988460e-02
2.899322269975482952e-02
2.480789177819048286e-02
6.201958146217123602e-02
6.908428303433997164e-02
1.155862173846473537e-02
-2.396229980743511817e-02
-5.804666001667227113e-03
3.903876389197346794e-03
7.242808548263021673e-03
2.782794837697954299e-02
2.072396732147305590e-02
-2.003072798494775347e-02
-4.069019881974868247e-02
-3.220701733152132873e-02
-2.392496497937035907e-02
-3.089834427358896518e-02
-4.225808375587843113e-02
-3.509791581017226991e-02
-6.737741432022264533e-03
2.632025124842509237e-02
4.065122970543920411e-02
2.049694555177043048e-02
-3.530674280142474461e-03
2.020655732200970535e-03
9.470848344429199164e-03
4.878957314332805183e-03
1.525775388299169949e-02
1.435465300742100499e-02
-2.234024912430624538e-02
-2.796315006833777206e-02
1.967605178961721532e-02
3.548554567564306261e-02
2.173871467594146525e-03
-6.427085850980413656e-03
8.723526207130728044e-03
-6.793976280261772738e-04
-1.028026565541586938e-02
-4.243080044357125380e-03
-1.692560246378448791e-02
-2.943549347360262247e-02
-1.139118733091237443e-02
5.813797960076877262e-03
6.111466796099347329e-03
6.569267770251404487e-03
3.084939817149174365e-03
-1.050578620589587807e-02
-1.503703158920733154e-02
4.985790940954809222e-03
2.178409107804996775e-02
4.521813557907315359e-03
-1.577344619288446187e-02
-1.009073136675155830e-02
-1.391471970947138689e-03
3.309087367311498978e-03
9.095801329632429572e-03
3.966960591722725783e-03
-5.449894923026724763e-03
-1.318146551641511191e-02
-2.276951821250298991e-02
-1.831261951848614858e-02
-5.729634881852839826e-05
1.521682640944860797e-02
2.850808626124647777e-02
3.026755441637874605e-02
1.226032361573935539e-02
3.228589522031015012e-04
6.485797915272119123e-03
7.350887939773376699e-03
-1.222133814597625365e-02
-3.082804406270678310e-02
-9.768363533706046764e-03
3.243100292870607082e-02
2.546251039534984731e-02
-1.584775537023699193e-02
-9.986203026640876057e-03
1.808481070996775450e-02
-4.792425262972556388e-03
-3.410882348785302526e-02
-1.148638079007210759e-02
1.289427355762357355e-02
3.363774566581174703e-03
-7.273482770541492108e-05
1.302807291186852505e-02
1.457071726563863995e-02
6.186525625687899071e-03
3.586815649242035709e-03
2.047824623110985291e-03
-3.031181084323581517e-04
9.590276602347434093e-03
1.781530428627957352e-02
-9.152195058802790884e-03
-4.240143606683190181e-02
-2.912194237178731410e-02
-2.754671367397215284e-03
-7.499514494577034368e-03
-1.517394788866940729e-02
-2.856935305465764779e-03
1.959618757912248710e-02
3.053996509960996142e-02
1.288921658962385690e-02
-3.081200899317561911e-03
4.801070196189272457e-03
4.845635300500242791e-03
-9.363007934276704192e-03
-1.117852510591695221e-02
2.515170337201574121e-03
1.358251821728788042e-02
7.069042176197271390e-03
-4.766856664145488476e-03
-5.023881130052382932e-04
5.845269725818644929e-03
-3.081815613686677766e-03
-1.215696104102809150e-02
-1.831901252260235632e-02
-3.248542616791565141e-02
-3.636911405087482618e-02
-1.324842025212408757e-02
1.230432764291955298e-02
1.123109110698005883e-02
1.299594319948626023e-03
1.269337897552304251e-02
3.172881890786067444e-02
3.723520120618820789e-02
1.915142684414261609e-02
-2.361720774438420475e-02
-4.284599822305691641e-02
-1.869307943086018914e-02
-2.274281055094200601e-02
-6.948448637445597820e-02
-7.085796918939157862e-02
-4.346326415540649815e-03
6.085779802772407071e-02
9.857119468212374724e-02
1.286022150195011426e-01
1.299794241212474943e-01
8.134061420455394875e-02
2.603022885945558904e-02
-4.391004961647442667e-04
-1.166195881710418991e-02
-1.277449629753315587e-02
-2.278764194057252696e-02
-6.750605903948816988e-02
-9.709821210605798503e-02
-7.166248141467175536e-02
-4.032309532030710353e-02
-3.353485389107403736e-02
-3.430059311270636235e-02
-3.102924542861231968e-02
-1.987628240635309212e-02
-9.170038309743709995e-03
4.118498421604277482e-03
2.676432144237210486e-02
3.049004408065683625e-02
1.559556562957835346e-02
1.337006983595516625e-02
3.697273885085671473e-04
-3.545847068415126230e-02
-3.765281965335021130e-02
2.585125332709661654e-03
1.750321769664917732e-02
-5.574421906832447218e-03
3.756510204167705976e-03
5.480659730355968984e-02
6.223260018381268632e-02
1.583206515848873189e-02
3.647008992326524965e-03
3.645489463700452015e-02
4.919043210619401807e-02
3.132736949651266506e-02
9.204542648967906776e-03
-1.492757435658764731e-02
-4.526739910857908999e-02
-6.146640025881429381e-02
-4.343560870372879801e-02
-1.991797042415546781e-02
-1.927522794250517701e-02
-1.708800698872556603e-02
-6.206084892856724485e-04
1.023242055092319497e-02
1.116600874324930222e-02
1.357746751952311481e-02
2.917769144432778849e-02
4.856082502738860024e-02
4.051980562207840864e-02
1.158284837031507176e-02
-4.670097535202730014e-03
-1.242279800071302912e-02
-2.466222083432331735e-02
-2.769987726389342569e-02
-1.344430912367224756e-02
-1.251306229910175523e-03
-1.194562721642679522e-02
-2.704791101485638782e-02
-1.667846245414719014e-02
4.475831882488549678e-03
8.155834614703580399e-03
-7.174126718591722005e-04
-4.000455064920010323e-03
-4.706439619905747156e-03
-1.427741410376761472e-02
-1.352653285342881283e-02
1.319625969907449806e-02
2.772382155303763571e-02
7.958538548374824093e-03
-3.413700955724381560e-03
1.108607377235644800e-02
1.377108709795813943e-02
-1.716689862938580377e-03
-8.710300903160614686e-03
-5.607787381115989823e-03
4.645783325206329431e-03
1.914588054210397683e-02
1.559018602707089481e-02
1.353673857204113580e-03
8.065890449013849578e-03
2.345451633961843571e-02
1.678633701724674410e-02
-1.108828324560001688e-02
-3.096834562280858377e-02
-1.561039000015253427e-02
8.810867553358270668e-03
4.425339353820100310e-03
-4.312750242541506587e-03
8.055015977102317030e-04
-4.949627986975669441e-03
-2.394590109006356979e-02
-3.608950166287334949e-02
-2.139734903141827377e-02
1.336192308660457718e-02
1.832903029803845119e-02
-6.965955403168305402e-03
-7.076127265286765410e-03
5.709920943293486130e-03
-2.530850012173085743e-03
-1.496977639069136615e-03
1.729159018144323101e-02
2.500780910427066045e-02
1.943239119875887419e-02
1.217759428936894366e-03
-1.792658752497721525e-02
-5.027954157319099865e-03
2.507985772334662966e-02
2.378053099795007091e-02
-7.542983372580637849e-03
-2.369770402710363877e-02
-1.093331801264699199e-02
-5.073676837254940779e-03
-2.405908990906276482e-02
-4.137923690627463846e-02
-3.220522272133160419e-02
-3.238647586805819961e-06
2.493706068377276458e-02
2.398700126726518306e-02
2.494723188464100655e-02
3.990911721704673565e-02
3.204797000394764978e-02
-2.193895660569751202e-03
-2.110987042685141118e-02
-1.069132328835790610e-02
8.914997262756713114e-03
9.988461186310049547e-03
-1.125946909641346860e-02
-1.158666341915671853e-02
2.248791903254927435e-02
3.657034365821796446e-02
1.290407905104354672e-02
-1.093163139797711722e-02
-2.061502543738127219e-02
-1.911265079852434920e-02
-9.631520619947233491e-03
-6.801950843449811046e-03
-1.149050677536338216e-02
-7.918567323552767531e-03
6.383993636772975627e-03
1.434876866897275872e-02
3.198465447761115674e-03
-1.452395099888469099e-02
-1.974725914372447294e-02
-7.863026399816269024e-03
1.047738199679959861e-02
1.121685676568925580e-02
-8.309464836984838121e-03
-1.788816743201918427e-02
-1.171437527236836827e-02
-1.055621485875431718e-02
-1.051946980912839454e-02
-4.013778758423194870e-03
-7.278503481284313154e-03
-2.448810664909519680e-02
-3.091992631827352594e-02
-5.236396498232399714e-03
3.022401554254139019e-02
3.536966968842075731e-02
2.519557389209946957e-02
3.217079417170050359e-02
3.531615074003947169e-02
1.515479283362778512e-02
-7.992198114817050669e-03
-1.876674369195276137e-02
-1.711170349437391922e-02
-3.748945718360894262e-03
1.590736087213104333e-02
2.395515171648514297e-02
1.619853322480966154e-02
2.687914151871254390e-02
5.227293740896053753e-02
2.818604196438536519e-02
-3.524478583019104161e-02
-5.463376783539836135e-02
-2.255701473207142455e-02
3.934191700120865005e-03
6.705503109510768320e-03
-4.300138062077916382e-04
-1.083380361453382089e-02
-2.120292934000867283e-02
-3.092723724423995096e-02
-3.727125824780230107e-02
-3.317668281850739975e-02
-2.117574153930206968e-02
-2.386842197977215481e-03
1.285481052472765666e-02
-9.834179473707342634e-04
-1.686211862942801204e-02
8.644372059823463017e-03
3.203908601881789303e-02
1.458967546644809876e-02
7.447638568339841683e-03
3.094893067954966603e-02
3.246614678204367416e-02
3.419369814795607948e-03
-4.919984880369668301e-03
1.734230538587148637e-02
2.578406680801013928e-02
9.666951280826535653e-03
3.814612901971655996e-03
6.514289557433324690e-03
-1.252060679769307489e-02
-3.434340869122910755e-02
-2.986309742293681221e-02
-1.726246435753404224e-02
-8.676963103317742593e-03
3.193931515808330190e-03
4.098551387963304468e-03
-6.071244266033306441e-03
1.089100903929941713e-03
2.054031272136825834e-02
2.467612261055243672e-02
8.993361330492053926e-03
-1.521899015819988196e-02
-1.520334313209401565e-02
1.264984437182980169e-02
3.638688662087310923e-03
-3.872256407683367235e-02
-3.327276023576498237e-02
5.258104626107359091e-03
1.190088730352123134e-02
-5.316045037019890770e-03
-1.358106620410148326e-02
-6.151656469321155861e-03
-7.116774651826878254e-03
-2.077126197023479795e-02
2.253697076508312525e-03
4.482786521978467803e-02
2.878187708061963682e-02
-1.324685793402111122e-02
9.998110816380467725e-04
3.990003590675810646e-02
2.542212023723956771e-02
-2.937560232786563114e-02
-4.677603730057878356e-02
-8.952069938410505551e-03
2.377382817507274135e-02
1.906963358379611811e-02
9.144481369239799637e-03
1.414709667906795774e-02
1.720970031155698646e-02
1.627189145420394889e-02
1.964207954905320547e-02
9.583071122916899179e-03
-2.292271663672619184e-02
-3.921634019519565362e-02
-7.499904968533060989e-03
3.101681021036364547e-02
2.798433954188921796e-02
1.401066894531237741e-02
2.418606054827531285e-02
2.758842442738147077e-02
-1.976041430553794435e-03
-3.907667046301843000e-02
-5.213971525235556320e-02
-4.578162809892157015e-02
-4.363300228849524565e-02
-5.331690234403287099e-02
-6.525998033290350553e-02
-5.682978950493664666e-02
-2.008783868995981867e-02
1.038994407210609532e-02
1.874062069986879089e-02
3.686887711359568970e-02
7.720285296780141082e-02
1.206471805992119228e-01
1.432710496810544187e-01
1.200381150274719977e-01
5.685923535519234184e-02
-3.892043987712544978e-04
-2.261944131997748603e-02
-3.551967466853825361e-02
-7.875653616024466674e-02
-1.396099260679381504e-01
-1.607687330898577016e-01
-1.206247053133070041e-01
-6.976245737157493743e-02
-5.645438094544719815e-02
-5.880333126702752544e-02
-3.794599896586018511e-02
3.588320518845382334e-03
4.627494816107426134e-02
7.817481025606722034e-02
9.761385820244600220e-02
1.096793773365805635e-01
1.147629635119099129e-01
1.136233039386304877e-01
1.003656156590534282e-01
5.721782345680280490e-02
-2.999220334696442794e-03
-3.675157462742580095e-02
-3.492033546332179439e-02
-3.382755083228662640e-02
-5.445577210629347353e-02
-6.741336676387972571e-02
-4.553333571080608183e-02
-1.163252505535584957e-02
1.429438855611306174e-02
3.965654653950903552e-02
5.248491290026803535e-02
4.022731681914350210e-02
9.268779525727750823e-03
-3.458666218200956433e-02
-6.239028110196714882e-02
-6.016688018997769227e-02
-7.310568843703146857e-02
-1.074222284830344543e-01
-9.812439660198432612e-02
-2.188426357082919049e-02
6.043128760304910391e-02
8.775725692092081753e-02
8.454758717217721042e-02
9.458519013353638982e-02
8.185254018916002239e-02
3.558492385067257152e-02
2.598943606907892778e-02
4.638914196900122827e-02
2.236378572396788625e-02
-3.000663958208614132e-02
-5.835994303621360596e-02
-7.377689977201577765e-02
-7.742860392217548737e-02
-4.701197702034863590e-02
-2.189795208975956961e-02
-4.041211615003330315e-02
-4.967098137751600750e-02
-9.403126314840566310e-03
3.458275779291210966e-02
5.673597088353900253e-02
7.353224749466738541e-02
5.849542638459812732e-02
3.819083111596724076e-03
-2.542379456716000255e-02
-2.411999731535310193e-02
-5.180145976627583554e-02
-7.981489754897636013e-02
-4.990229525126806120e-02
-8.541330023622539444e-03
-1.043991625086028788e-02
-1.398631439213949244e-02
1.837109318977011088e-02
4.889580791302768764e-02
5.393259610066246379e-02
6.013901111377297631e-02
8.215049863738621561e-02
9.326801299524359323e-02
5.542863350941549389e-02
-2.268990721645070333e-03
-1.292027720881565311e-02
-5.741040913133967083e-04
-1.878677155537926760e-02
-4.283774436499291488e-02
-4.454078743727044043e-02
-3.464208271746691686e-02
-1.567490858811566509e-02
8.997158062377460727e-03
1.381532008005953091e-02
-7.483056878134351775e-03
-1.949459894067902960e-02
-9.786894210412634340e-03
-4.383490378104762213e-03
-2.959105909734901195e-03
-3.772454540793127899e-03
-2.467199018777624028e-02
-3.589299654290533520e-02
-1.551337753417591885e-02
-1.299161409330763621e-02
-3.691159504456918705e-02
-3.576706007935148007e-02
-7.474906160725719104e-03
1.821160606631137130e-02
3.704333984363558652e-02
4.603714123512268885e-02
4.985180082930693035e-02
5.954699196479416867e-02
5.028786667343896483e-02
2.410754081545168556e-02
2.855950836662775327e-02
3.186023612580612258e-02
-1.341554706461459481e-02
-4.269058239005219663e-02
-2.635072405119096364e-02
-3.044264639149880936e-02
-4.794155933082016458e-02
-3.027548511425406930e-02
-2.138752472500308338e-02
-5.317993628119905419e-02
-6.136140522202041675e-02
-2.846499265676325635e-02
-2.067145135665960504e-02
-4.090028809011746203e-02
-2.745789462843318401e-02
1.859913950278567832e-02
3.895965736264866974e-02
2.435545329918795826e-02
2.617844609009702464e-02
6.203567181861478763e-02
8.621055321068693544e-02
7.462080612586191597e-02
5.775198423311311141e-02
5.161567351360123873e-02
4.212441524759954342e-02
2.559296953405739219e-02
1.402000149186994823e-03
-2.643236611446531797e-02
-3.753864317278975127e-02
-2.940468864765478571e-02
-1.732129386904032384e-02
-8.325833362701493337e-04
2.013980675434435055e-02
2.378173253804501119e-02
2.506104440452298215e-03
-1.066462043927744741e-02
-1.306591129691933584e-03
-2.029969974392751078e-02
-1.079708704069269332e-01
-2.008566770089245390e-01
-2.047900462594100524e-01
-1.492256439456480233e-01
-1.194749075036073277e-01
-7.595134825507292298e-02
5.947472149510211331e-02
2.189970629462576479e-01
2.792837305087794153e-01
2.429725705888844123e-01
1.862087589236627594e-01
1.221298872676987030e-01
2.535494487598261709e-02
-7.544158795052141597e-02
-1.134129181701019617e-01
-8.704583843363172813e-02
-5.301216405083201966e-02
-1.328653480418028228e-02
4.464124289905618131e-02
6.405419302945256077e-02
2.153387682395482144e-02
-3.723005210179559932e-02
-1.092579917173169823e-01
-1.859763416639041989e-01
-1.681869539448798412e-01
-4.701927235959762336e-02
6.294021198967204161e-04
-7.706415090488381858e-02
-9.716647544681006332e-02
-5.887149070513560643e-04
8.378302011583572961e-02
1.179323661553312724e-01
1.441155352238926435e-01
1.536806524343078406e-01
1.396577046566372937e-01
1.208550594094062874e-01
8.814258833938283522e-02
3.658279059637783298e-02
4.266923624325395792e-03
-6.029675098227466057e-03
-2.305753012737392360e-02
-7.238193430253135607e-03
6.022810837831710923e-02
9.456199339257609360e-02
5.128556540012964987e-02
-2.787869233899008606e-02
-1.096105397046653190e-01
-1.669576677517941032e-01
-1.825579630136821840e-01
-1.950759736070043493e-01
-2.327835855772046048e-01
-2.388005634222889195e-01
-1.606669340578688321e-01
-3.903177779103615685e-02
7.137119751400031187e-02
1.545044656109841319e-01
1.828195768614503669e-01
1.588564009290067969e-01
1.435132902759492790e-01
1.306341814102201515e-01
6.585006087339312364e-02
1.037833314378654170e-02
3.852963174193875517e-02
7.806258635883117636e-02
6.080739686118607351e-02
2.869582918941792488e-02
1.323781617658994353e-02
-1.090135529492100228e-02
-6.430773482231437466e-02
-1.176065239475292956e-01
-1.261955707016849670e-01
-1.064332077094772011e-01
-9.046294200118037976e-02
-6.446676969063985796e-02
-2.549314233794288537e-02
1.745613929025503427e-02
6.993728934035876865e-02
9.907343612521905818e-02
7.132183948684711616e-02
2.963723581102486321e-02
2.600879075163882795e-02
5.301907254705908595e-02
6.762813291689361017e-02
3.222171964844626479e-02
-2.813393644591961895e-02
-4.625902843899119127e-02
-2.425873233642737020e-02
-3.196552206341827379e-02
-8.854038667055685874e-02
-1.228732063159941740e-01
-7.867496451361247201e-02
-6.690914599401669854e-03
1.851465819660575579e-02
1.475111490994909791e-02
3.019002589260063110e-02
4.695966307744960100e-02
4.695013334927041621e-02
6.596702322318165335e-02
1.023861364120333128e-01
1.029792501148126538e-01
7.183560188065860053e-02
4.361161812586190900e-02
8.727241822523105347e-04
-4.401107102612082655e-02
-5.076849625897392193e-02
-5.517521700390386197e-02
-7.337269897929286910e-02
-6.760654661270627808e-02
-6.258399742111604713e-02
-6.963844136580026045e-02
-4.052880230832843489e-02
7.150514875899274293e-03
2.289460266144156125e-02
1.136391359393609801e-02
-1.306789553386878029e-02
-3.112058917909032649e-02
-5.273117338341544794e-03
4.738383244347554174e-02
6.493383597868850055e-02
4.046799484853879497e-02
7.307915296006547295e-04
-4.367525086559502501e-02
-5.107787967119183092e-02
1.851556574719834952e-03
3.880716084113078335e-02
1.646624347114494097e-02
6.458774769072009661e-03
3.052858424961737635e-02
3.280276875788252361e-02
2.362611795912856680e-02
2.837617944767274053e-02
2.163556495549994255e-02
2.389842816845225149e-02
4.611222262399284483e-02
1.819742271870867373e-02
-4.651148385111358863e-02
-5.038659334084490821e-02
-1.317359248754653919e-02
-2.380428131571453790e-02
-7.442292236352185397e-02
-9.982829937244935836e-02
-7.526474439895305957e-02
-2.097465095839833385e-02
1.584660149874424218e-02
2.407968228869118016e-02
6.605623146177348748e-02
1.070454897378754350e-01
2.444909693424684310e-02
-6.875569988738589045e-02
1.286246506547258223e-02
1.235878282245662235e-01
8.222632153086285867e-02
-3.439124950017776253e-03
-2.883432242990706385e-02
-4.485109071549829574e-02
-6.439667632192561109e-02
-5.516518070117969880e-02
-4.065413382291242772e-02
-3.774486979330841235e-02
-1.954200999174467851e-02
7.836337234787878886e-04
6.880086752502873049e-03
5.280117514702138692e-02
1.013022198284484754e-01
3.035687174515290521e-02
-5.266996985001873993e-02
2.434418211634060622e-02
1.176348131163996030e-01
6.866917391260797532e-02
-2.143151737061063482e-03
-7.802530231421484636e-03
-2.606073441460322535e-02
-7.221457722050078631e-02
-9.197148359296153375e-02
-9.110941158717972277e-02
-8.360903489811871703e-02
-4.932539274688572950e-02
-1.086006849372931314e-02
-3.284163368537047767e-03
1.337364564454792543e-04
1.072664171592077609e-02
-6.472877161101424012e-03
-2.021797320158643177e-02
2.147424494983791315e-02
5.671542434575746472e-02
3.711618311417663740e-02
3.772463884030502479e-02
8.195954403887437123e-02
9.541713492262768326e-02
7.068156596897394450e-02
5.952554587449584295e-02
4.820183641759208382e-02
2.059730221430723651e-03
-3.836003015411164341e-02
-3.859073095098160266e-02
-3.487731778645349057e-02
-3.631059089902501785e-02
-2.561353782445792079e-02
-2.653320240417779072e-02
-3.600471993276953969e-02
-2.571110530888839549e-02
-2.548006104883619033e-02
-5.129806367032525155e-02
-6.079101098278652526e-02
-5.422622145713347497e-02
-5.187938440751773544e-02
-2.578470140119798817e-02
1.743825561355937317e-02
3.707801826044078430e-02
4.614545007473309923e-02
5.373259403972541204e-02
3.816044918061898411e-02
1.993854400129821750e-02
2.255699439417521712e-02
3.014306394744228207e-02
2.638140485970346186e-02
-2.123286341790865412e-03
-3.500106411807930168e-02
-2.430864618267147143e-02
1.085655334983827436e-02
1.707475245042034545e-02
-2.326252207964249995e-03
-8.141434697752060468e-03
2.075925700491033921e-02
5.012654070226924691e-02
3.045234242727962864e-02
-7.390660969212166538e-03
-7.356752430241192756e-03
2.065687581603756554e-03
-4.997370971904235154e-03
6.673004346859733385e-03
1.949298905483216535e-02
-6.435529855131879098e-03
-2.879244576888256857e-02
-1.282036089123329663e-02
-4.720945462890393379e-03
-3.908163778613060746e-02
-7.413245885968787474e-02
-6.536343163153826574e-02
-3.320086989559038748e-02
-6.420389698122447308e-03
7.510478689154147930e-03
-4.285556029945606152e-03
-1.756417050039930927e-02
8.384754477716995641e-03
4.452971410504931449e-02
4.971870732844643759e-02
4.780934944121604385e-02
5.816937910609003282e-02
5.143482030193249899e-02
1.946747225992116054e-02
-7.860623477551925697e-03
-1.607223624384230762e-02
-1.014615199507649425e-02
-8.628952333346210507e-03
-2.841192206590493347e-02
-3.231579580099339793e-02
1.315740168887950118e-02
4.776038530043028724e-02
2.386937438943786960e-02
1.899109009433391955e-04
2.061314791890509618e-02
3.932295772503394127e-02
1.452496249319300270e-02
-3.604399706441795137e-02
-7.846995384141114416e-02
-9.118811277035926421e-02
-6.536267438366180627e-02
-2.197475866498246541e-02
-1.315233736774384411e-03
-1.219476353140369618e-02
-1.664620063499612501e-02
1.977256858023559646e-02
6.555218502379389633e-02
6.054961293009639145e-02
1.673789557751491353e-02
-1.571219140230066535e-02
-2.367316063227025910e-02
5.364758105909501508e-03
5.060343358449125722e-02
3.582265365297332416e-02
-1.807332960084973364e-02
-1.920723823138275471e-02
3.027814860104258848e-03
-9.703891224505392654e-03
-1.363343954810610457e-02
2.361720389605505288e-03
-5.512492614949221666e-03
-1.633953369253469609e-02
-8.357223529395047326e-03
-8.854430992463831543e-03
-5.721626794613573347e-03
2.453760259741472050e-02
5.536588632355914086e-02
5.707382047365947009e-02
1.763251680944164651e-02
-4.206662381050131627e-02
-6.301486282870517874e-02
-3.398821127752243987e-02
-4.323331155149500588e-03
-3.370569322148298397e-03
-1.493451469447672555e-02
5.413897185531449559e-03
5.564525607660155554e-02
5.830397013001059614e-02
3.272489554282035154e-03
-1.864721437754698896e-02
1.256423526570900340e-02
2.491049061074075699e-02
-6.365489714494193194e-03
-4.234499969104352918e-02
-5.994651196549758559e-02
-7.621053863091346858e-02
-9.411139515571266545e-02
-8.620220055958902061e-02
-6.550526341731005564e-02
-3.100190198629253560e-02
6.521295080898675822e-02
1.781242499950082270e-01
2.397610739762910670e-01
2.276459537153131818e-01
9.067152449846652140e-02
-7.591269565530260610e-02
-8.756346417634600088e-02
-5.745989673336435177e-03
1.002630646978068009e-02
-3.147943269577113679e-02
-6.614688507743134160e-02
-8.726740178856814967e-02
-9.425391147438108574e-02
-7.225230784579188270e-02
-4.320910786156650224e-02
-4.816404122987569258e-02
-6.246545547120956748e-02
-3.570579949185512247e-02
1.504502936586661968e-02
4.721877890974050807e-02
5.374828757015145259e-02
4.533634029654304287e-02
4.063267253537182488e-02
4.703863977939744950e-02
3.582237212135508386e-02
-3.155389456914150376e-03
-1.962704684942746108e-02
2.257739092794557034e-02
7.304229737191268723e-02
7.740769708729397514e-02
7.239636934202989260e-02
7.582693316875496747e-02
2.004559929286736653e-02
-9.479639665439051899e-02
-1.625322889390860281e-01
-1.337651462820649562e-01
-7.916507214344506438e-02
-6.485167375020882419e-02
-6.349159347348058702e-02
-1.893171044485408849e-02
7.432452754795512706e-02
1.506641147985327556e-01
1.324935575602078919e-01
4.266191803299379526e-02
-1.767578626985347179e-02
-1.486620516852063187e-02
-9.642190442578855644e-03
-3.119145370245882815e-02
-3.624817598216134584e-02
-2.410724849299565598e-02
-4.295743034901707003e-02
-7.537337728644938339e-02
-6.662093709808770969e-02
-1.262249519722728058e-02
4.807559657230819905e-02
7.115713417848748557e-02
6.266086173642415602e-02
6.257571395620284416e-02
5.073566028117970639e-02
1.716346800296945918e-02
2.001564329604122588e-02
4.171168558368672230e-02
2.089193792367042071e-02
-7.856682219900100114e-03
-1.443369812491132262e-02
-2.379597404219893284e-02
-3.206842255522193708e-02
-4.116260610018081245e-02
-5.998063083635228609e-02
-5.996055220902784394e-02
-4.285163586007303266e-02
-3.917230864073479452e-02
-3.488173174657192843e-02
-9.857783154183209773e-03
2.401838902827660438e-02
5.131755958467294765e-02
5.935137292789593316e-02
5.130782889146408288e-02
4.952381594806548604e-02
4.779033681877785378e-02
2.466411021015335256e-02
6.986069554754805594e-03
1.947196528392332662e-02
1.782634999633582809e-02
-2.231331736511164149e-02
-4.587544973177706820e-02
-1.847892072513040995e-02
2.555497243763781359e-02
4.557748283263288180e-02
3.283533229433042988e-02
4.242306861735888751e-03
-2.417774642909998467e-02
-4.137058124269585302e-02
-6.301604100696080180e-02
-1.523977773007877401e-01
-2.468209553691229907e-01
-1.742344026868175577e-01
-3.483811275397794699e-02
-4.205682353831612097e-02
-7.959158651697018083e-02
8.017587716428208056e-03
1.322667526220157874e-01
2.119500431829925979e-01
2.427623882441329317e-01
2.325402085572821909e-01
2.271458112009687724e-01
2.129241697718016746e-01
1.352885494379127695e-01
4.388165964621618814e-02
-1.056656249834007910e-02
-6.540842932272730725e-02
-1.291450383413347003e-01
-1.911809008657924802e-01
-2.508781269933123559e-01
-2.494391388396237919e-01
-1.658868740765570560e-01
-8.103611944936492395e-02
-3.446350253873515374e-02
3.244269910040207400e-03
4.645292774821174753e-02
9.714942086318635595e-02
1.382759469428009313e-01
1.236600758285316404e-01
6.007966587397245428e-02
2.601464840292693620e-02
4.310575896185830924e-02
4.004536513459173303e-02
-1.713050934076599391e-02
-7.110645158194377202e-02
-6.387066281044376237e-02
-1.998505463804779725e-02
-7.808258744988794825e-03
-3.714650081407368243e-02
-7.782718230947800742e-02
-1.270057696261216174e-01
-1.634222617715629100e-01
-1.486400649118405914e-01
-9.672084664804300735e-02
-2.869872862125336793e-02
6.393802836614463636e-02
1.570730127035752932e-01
2.158262108808360891e-01
2.576581719241695101e-01
2.898872028071304285e-01
2.623397262587745526e-01
1.596090027869040973e-01
4.907807925245361025e-02
-1.304590810251166771e-02
-5.226599539354011281e-02
-1.070504531619964894e-01
-1.545123480668946225e-01
-1.669171081877363627e-01
-1.556234713239865175e-01
-1.307878473862477131e-01
-1.083307153087867958e-01
-1.039147804746686776e-01
-8.801466089454088038e-02
-3.875527006784527939e-02
3.596453135026565773e-03
7.328305418930879805e-03
1.013954292040759528e-02
4.543968945766452272e-02
7.310585687644435837e-02
6.203118719424215166e-02
4.315035030891546664e-02
5.427908960819109729e-02
1.161136423567605824e-01
1.537194482882906221e-01
5.034053066417760319e-02
-6.832450728561995090e-02
-9.786013202519136533e-03
7.802235202481974663e-02
1.401011591258665735e-02
-6.904534568141593165e-02
-6.617698732960457242e-02
-7.059184888058840646e-02
-8.962874082803171105e-02
-4.011309565117095882e-02
3.168784863033856369e-02
3.417576346311822222e-02
5.419316593421808631e-03
4.657566921467834464e-03
-3.865593643386779684e-03
-4.402861610631881445e-02
-7.826275869928042694e-02
-8.692958684159790561e-02
-7.840892772366273022e-02
-6.817264071157648486e-02
-6.886418224954511669e-02
-5.242261569057950904e-02
1.755788341661194268e-02
9.855544725813109030e-02
1.140426591092312536e-01
8.324545408644803968e-02
7.951619454711539303e-02
9.801069479196863887e-02
8.687773586230054801e-02
4.074514453321564922e-02
1.082926970123598148e-02
3.718560493624471774e-02
6.757793559157154739e-02
3.660406763364595223e-02
-7.444269337329580821e-03
-1.629751432063161753e-03
1.437074344090144909e-02
-2.283468871427263985e-03
-2.877037502620493487e-02
-5.002290198074126060e-02
-6.810411441452948744e-02
-7.435699782734896124e-02
-7.599132810974534857e-02
-7.289444050647585216e-02
-4.882676955959319026e-02
-3.794297350249927619e-02
-5.882298736687342072e-02
-4.073255382398190821e-02
-3.974890949049771083e-03
-5.557413506194283648e-02
-1.023529586518340528e-01
-1.266289858576242350e-02
8.385006420372784208e-02
8.214196735919135350e-02
8.196995907468740405e-02
1.038301005509881941e-01
7.563417682245096585e-02
3.399583076710177565e-02
4.361000839122715356e-02
7.354851544513446582e-02
7.763045329264108008e-02
6.399375541320541372e-02
4.174164896083824156e-02
3.781797903712358355e-03
-2.643280510023772456e-02
-3.444519656907602673e-02
-4.904318181220480855e-02
-6.589591237870315310e-02
-6.817942286023855047e-02
-8.575330282530457815e-02
-1.037513917257631840e-01
-7.505196805119564163e-02
-3.644372630305625638e-02
-2.317375654233724824e-02
1.529211621940137350e-04
3.433842530220782008e-02
5.161895062252090660e-02
5.605723358399676559e-02
3.826365073261380617e-02
-4.814847447092688096e-03
-3.071946261132624603e-02
-1.738770870427508788e-02
1.771240617745218487e-02
4.410542488755165441e-02
2.959541401320217938e-02
-4.686415882183307506e-03
-8.728293250919453433e-03
-3.770820672750110208e-04
-1.429286526501335336e-02
-1.438655726615532468e-02
2.213729294557411492e-02
3.496296229825988922e-02
-4.299268556712455835e-03
-3.004780585854831959e-02
-1.449058114376382961e-04
3.371795244322117746e-02
9.638205452660291578e-03
-3.345739443691037734e-02
-7.448354295652437340e-03
5.945788620886899994e-02
6.906258705310891477e-02
2.456459940995527752e-02
-1.394634176405839046e-02
-3.078823769621247958e-02
-2.752623147686173929e-02
-1.371465617809394105e-02
-1.319542214616355007e-02
-2.493847103013496769e-02
-3.358347129716224982e-02
-4.220371809166703625e-02
-3.865412302472989725e-02
-4.790186139367368437e-03
2.375364188489986414e-02
1.526136000314340206e-02
1.204717879031019963e-03
-6.274279305309860954e-04
-4.970944587868928594e-03
-1.152996053254255922e-03
1.696044264692028389e-02
2.680849771846156859e-02
2.758753492824239650e-02
3.677323857285794140e-02
5.034360396849313357e-02
5.321659921212627126e-02
3.632399205010269222e-02
4.598085785841376366e-03
-2.776706617846244618e-02
-6.228676049687736221e-02
-9.008625537142704587e-02
-7.590806449215825591e-02
-3.070615099253265479e-02
1.261377664246151296e-03
2.146557690900732437e-02
2.885283842969354334e-02
1.268810922128380501e-02
1.088956201238334802e-02
2.855952145029916692e-02
2.170665325417947544e-02
7.335342767614022597e-03
1.953058046056745448e-02
2.691300652371739210e-02
6.970077784685961911e-03
-8.072786531848282626e-03
3.437466967309947552e-04
1.414432830439331726e-02
1.458840071974885216e-02
-4.970217859257000485e-03
-3.024016563573311833e-02
-3.776760474928704536e-02
-3.285801244943014482e-02
-3.198133996135877483e-02
-3.213647258532755652e-02
-3.507900656314703880e-02
-4.888244825627138801e-02
-6.355173213361321738e-02
-5.511714115741743469e-02
-8.887228159497733218e-03
3.784656033293577748e-02
3.538653835736257913e-02
2.065232643790377437e-02
3.750862040045578605e-02
4.542818142193624786e-02
3.646341797658362444e-02
5.671496782998675101e-02
8.358911556190136427e-02
6.975710583235501805e-02
4.405634335747084240e-02
4.087940702990532083e-02
3.737637521470667940e-02
2.089840872337219921e-02
-2.043482628677900648e-04
-3.410638623694829674e-02
-6.508344913716296309e-02
-6.196661189232686995e-02
-4.285313358338217748e-02
-4.551037317514092240e-02
-7.326029013709979554e-02
-8.569421415233137440e-02
-3.475489201734380251e-02
3.504371558477354515e-02
2.981019920800357867e-02
-1.070585002265374286e-02
8.870444578816975151e-03
4.664398195507592215e-02
4.031900110403242865e-02
3.297655596946585249e-02
3.922688570245928819e-02
1.534675686265152099e-02
-1.985587781784052194e-02
-2.465370616636270926e-02
-1.671784533521696731e-02
-1.645248561746772906e-02
-2.510528533945070168e-02
-5.803930107416945677e-02
-9.407806705867043096e-02
-8.175715726734164579e-02
-4.115383781016098558e-02
-2.501775390803460605e-02
-1.688623855655414091e-02
1.921544652757449512e-02
6.156297328684871839e-02
8.361502620206728853e-02
1.130631298844348431e-01
1.463970731727895214e-01
1.237850759964005815e-01
7.392781014601425282e-02
7.777276019786633077e-02
9.517884405109409973e-02
5.400851685084350623e-02
-2.049307955640195661e-03
-1.265480326947682720e-02
-4.892698399997993941e-03
-1.515247133972269511e-02
-2.180954151826104692e-02
-7.450566154845419953e-03
-1.039396726975123919e-03
-2.930197518858011080e-02
-9.114713635150377413e-02
-1.709600192050384770e-01
-2.356018369350384167e-01
-2.426897677294262701e-01
-1.824068513956605408e-01
-1.122345609282715678e-01
-9.180904991319775721e-02
-7.369635864612386622e-02
-3.671512977914528908e-03
3.332136024958858023e-02
-2.167013548697284409e-03
1.641502997816399190e-02
1.058428359739411184e-01
1.226883852936650199e-01
7.275048379484962136e-02
9.032886900381317807e-02
1.735833848657189205e-01
2.325017626124792625e-01
2.348189825302179623e-01
1.787751907210002045e-01
8.826233462185925638e-02
1.089775836766934680e-02
-4.413854952111886942e-02
-9.267156509727009217e-02
-1.348837210466023451e-01
-1.558646922745742236e-01
-1.331005897454806408e-01
-7.612024710967302266e-02
-2.781132171039242540e-02
2.678205110863295015e-03
3.379216964550577074e-02
6.459402804321820457e-02
9.013312116257650441e-02
1.098826653919509205e-01
1.104778033633950773e-01
8.280967409310512062e-02
5.107961446895441932e-02
3.942110390321677121e-02
2.894888836113601593e-02
-2.612122714840668138e-03
-5.439097800490804574e-02
-1.132443503820809438e-01
-1.476860448067605913e-01
-1.519331652974039437e-01
-1.499431379277626486e-01
-1.316605402605990627e-01
-9.602166467955912388e-02
-6.664082098951458477e-02
-1.941047861486709311e-02
4.558370159655855680e-02
6.138448664882498185e-02
2.497747018296031171e-02
-1.319738606989185464e-03
8.208951625517234285e-03
4.316458136871496876e-02
7.247567678664676438e-02
6.606022875667519334e-02
3.879714416648302744e-02
3.029488851109773950e-02
5.400126455311055756e-02
7.394858849606816831e-02
4.394729867745610086e-02
-1.387374654728685403e-02
-3.561822465830596224e-02
-2.373619733132332002e-02
-3.219929194387567695e-02
-6.611736266719886457e-02
-9.777667111532228894e-02
-1.198660775998593581e-01
-1.154269987114882740e-01
-7.393610003146955378e-02
-3.054637376646553854e-02
-3.038906464136679683e-03
3.984653731603213234e-02
1.082831488367919093e-01
1.714917406527325383e-01
2.025720946902522523e-01
2.051838809181041334e-01
2.090721352432846902e-01
2.064382813126491578e-01
1.483084638297402225e-01
5.921485915808143846e-02
-4.396337757661725187e-03
-8.143204223928585117e-02
-1.993299504259690436e-01
-2.728929349015624117e-01
-2.493282648199556528e-01
-2.099464418439384861e-01
-2.216841634261120797e-01
-2.100453829781139259e-01
-1.233868204641347249e-01
-5.094238837323296354e-02
-2.567733317176267016e-02
2.931643875997155813e-02
1.010921314430485440e-01
1.244050530579484393e-01
1.471901909733635549e-01
2.139253203187190810e-01
2.457825929978031954e-01
2.034607525339154344e-01
1.639825670071811126e-01
1.518904897208564475e-01
1.000614098174923833e-01
5.524015859392911176e-03
-5.472405663878952831e-02
-7.469209326620038225e-02
-1.210507342940459335e-01
-1.794646014915438070e-01
-1.755619074070479679e-01
-1.311532796850377047e-01
-1.210948428281127254e-01
-1.259821405712912290e-01
-9.471896459723107287e-02
-6.334515744166770157e-02
-5.762081893489312545e-02
-2.340965337050782136e-02
3.487990095394179202e-02
5.163079629023539785e-02
5.166675006745874432e-02
9.063124112136448918e-02
1.274772739445050596e-01
1.084307854239584812e-01
6.001240233219137105e-02
3.668712496468048284e-02
4.589262814029530790e-02
3.811652430516516282e-02
-5.092692194465653008e-03
-1.884423949842614632e-02
2.224592277761534148e-02
4.970280731176525413e-02
3.229371129060275986e-02
1.908039340434216670e-03
-1.802210264406232942e-02
-9.786607248403076872e-03
-3.918958616735034733e-03
-4.515607367856690202e-02
-5.526403975304238630e-02
-1.289088358672421143e-02
-6.573616278935427715e-02
-1.648868494735486190e-01
-1.035419369452862948e-01
3.850170540065580432e-02
6.546559517100675185e-02
2.380536065163011555e-02
2.860689588602526728e-02
4.965708180726027127e-02
3.278196698465916936e-02
2.638556873366897093e-02
5.691193036987913373e-02
4.847707143734374807e-02
-2.154517339599808234e-03
-1.288954740285748815e-02
-3.308973574637092893e-03
-1.695680984670506694e-02
-1.587781358154953873e-02
-1.362102516743059037e-02
-4.548937996033935310e-02
-5.770413298937610708e-02
-2.427268179303964518e-02
3.378553666283401133e-03
8.162394718004707672e-03
1.958477804753772436e-02
3.089381783300779172e-02
-1.361140805438524302e-03
-5.465454704952812937e-02
-5.508347656113743440e-02
-2.025148474419167371e-02
-2.512996845049380798e-02
-6.073176904891577910e-02
-6.666768974835231287e-02
-2.580841351502416448e-02
2.758279909885735098e-02
4.830746671289107980e-02
4.747521948236712447e-02
7.653995666034457690e-02
1.177285874563621798e-01
1.111873853153463459e-01
7.596973210682138322e-02
6.043590809790237023e-02
4.101580615654263490e-02
-3.436904871318480215e-03
-2.563763496862216454e-02
-6.521718176213622820e-03
1.113436276929256202e-03
-3.164440558441236617e-02
-5.985206016276460594e-02
-3.447307137027080803e-02
1.500863313428997536e-02
2.035235197129700579e-02
1.135585567494461733e-02
6.851280162157931397e-02
9.666745076261178127e-02
-3.831071326962210560e-02
-1.766526910376347848e-01
-1.187042850896043722e-01
8.334345846745239844e-03
-5.779259225833367764e-03
-1.375816376423832921e-01
-1.882645444526932776e-01
-7.073537906258717256e-02
5.886898441161859952e-02
7.207572881689663924e-02
2.474682056662265081e-02
-9.110744891207112062e-03
-1.813307968667590697e-03
3.342077605442154986e-02
4.518245094845259324e-02
3.727681110891658406e-02
4.706412939667765222e-02
4.627564505021517643e-02
1.511732473325900356e-02
3.744051388087065932e-03
3.215309841830834431e-02
5.888489312346783383e-02
5.024367503960333603e-02
7.538751972698536086e-03
-3.417049763764305054e-02
-4.084792224752491901e-02
-2.423751962192888937e-02
-1.456600564403686023e-02
-2.294985391136225225e-02
-3.444734349896389630e-02
-1.727038892039704787e-02
2.242325870118165587e-02
4.431965048620951225e-02
5.374161011496240981e-02
6.534223730113052075e-02
4.947983142287072644e-02
1.159143890658684110e-02
-1.373773418459117018e-02
-4.191935205604735426e-02
-8.056854054711345969e-02
-8.986212417786280937e-02
-5.587553964727494382e-02
-1.067987863752081767e-02
1.439097634131564739e-02
1.666925717044306920e-02
1.855900135510397259e-02
4.068747948628850808e-02
7.447810272372711038e-02
8.227456412119486806e-02
3.892298205504598346e-02
-2.030052406643757454e-02
-4.773708552345520828e-02
-6.627338534612725596e-02
-1.011877984892507326e-01
-1.234522864701472072e-01
-1.331250912935131869e-01
-1.038522692877287823e-01
3.080002121378891053e-02
1.615098097113524811e-01
1.436581610380071317e-01
8.389639200664203433e-02
8.672550216391640421e-02
7.576808691408354335e-02
3.656540841581604889e-02
2.316073797914028690e-02
8.508165340340245394e-03
-3.269783240740247593e-02
-5.904301864972057168e-02
-4.664779891463166628e-02
-3.125535054382633932e-02
-4.236413762872627553e-02
-4.421478446165304221e-02
-1.350392288118721848e-02
-5.456091981795013063e-03
-3.287568510223119744e-02
-2.347565043115333594e-02
2.150204876071732524e-02
3.290592766674720060e-02
2.955516307973651141e-02
5.356632443546097133e-02
6.502488600258934937e-02
4.710567970861562898e-02
3.442144045118590567e-02
1.445652869638940248e-02
-3.461043646274782754e-02
-8.211977853573441954e-02
-1.007417733599577925e-01
-9.951339332465704290e-02
-9.730709451432770218e-02
-9.445527474313777927e-02
-7.092960056411889980e-02
-2.768570733437433068e-02
2.196581920012234332e-02
8.385453753281019162e-02
1.264839580192743951e-01
1.098454251246462343e-01
8.303687536397122426e-02
8.942565055681728214e-02
8.540560441609598707e-02
5.515366126830834742e-02
3.949679304300793975e-02
3.559618086445326401e-02
-1.223638699800426791e-03
-6.125630430990365582e-02
-8.501077191690928347e-02
-7.574381715683295435e-02
-9.537721932363227295e-02
-1.390833660926657223e-01
-1.355171835765146549e-01
-7.434030053505527591e-02
-2.368167658003059173e-02
-1.079600177504773384e-02
7.600504820014685609e-03
4.760682134645030650e-02
7.600962212841363974e-02
8.413491258760050218e-02
9.909196019304866709e-02
1.206886598973683639e-01
1.130832228971874742e-01
7.016564997481544719e-02
3.451871338320453703e-02
2.906383766612093827e-02
1.676153852459259797e-02
-2.274555005692113774e-02
-4.182268329695076892e-02
-2.559305274878405020e-02
-2.801251853418741666e-02
-5.102477142071524391e-02
-4.553177297960293163e-02
-2.410010140915923305e-02
-2.664229656137077559e-02
-3.538559813811920779e-02
-1.228919996516519668e-02
2.962695272074835143e-02
3.793076623637731126e-02
3.041433887433169989e-03
-2.433314559484324111e-02
-1.694660587001655186e-02
-3.971164941620565492e-03
-2.475795305836091080e-03
1.592612103019601377e-02
1.613224750624609599e-02
-9.116881041527548357e-02
-1.957279923974840907e-01
-1.064357816616714886e-01
4.439761944007974276e-02
3.326244234602612065e-02
-3.648016001186024648e-02
-3.036340262319798047e-03
5.316896717552108131e-02
4.231377907798773708e-02
2.816473941467900061e-02
5.219762212131988377e-02
5.666397140857809545e-02
1.613601019477564624e-02
-6.811100762734418647e-03
2.401309935896031589e-02
4.535003395920735730e-02
9.239930057747029746e-03
-3.268365879832076798e-02
-2.949293484047210354e-02
