1.206888675696111274e-02
-1.290408473735729124e-02
-2.113126123738066214e-02
-2.383849910404680847e-03
8.578838075437847030e-03
-1.625388229639633184e-02
-3.672875416236080770e-02
-1.301683332818760405e-02
2.110078973014921366e-02
2.505561942131043218e-02
3.383142715923348823e-03
-1.987607334575146670e-02
-2.511564170497473242e-02
-2.146718275345108756e-02
-3.112196092746906048e-02
-4.282700457595865762e-02
-2.967931681969756402e-02
6.112871628163676213e-03
3.435082938413004661e-02
3.634495752697436410e-02
2.671100285800948743e-02
6.771014611929535368e-03
-2.940463428329621529e-02
-2.820683037022310088e-02
9.165499871952295652e-03
-2.392477885117835074e-02
-6.179616765233242326e-02
6.223972093057841132e-02
1.869574983469723117e-01
8.893719818263431942e-02
-5.247202569118981919e-02
-4.437157193907581565e-02
-1.679929616761732455e-02
-5.398195445340056575e-02
-5.784217236012162422e-02
-1.638761017635026462e-02
1.431007854109602254e-03
1.100260017725528117e-03
4.487252491446735037e-04
-1.489887314717057432e-02
-1.714598402247009823e-02
1.181270155604608602e-02
2.157238427215849019e-02
6.726713976248447149e-03
2.223514396552437808e-02
5.451138488247097430e-02
4.787952590919995755e-02
1.485565667864494413e-02
-4.944341641829235259e-03
-2.616385832405722367e-02
-5.397186294486656238e-02
-3.830245711700647204e-02
1.386984315583623083e-02
3.764482808859034163e-02
2.966507635718411418e-02
1.361900299932898920e-02
-1.948877399312640146e-02
-6.882111089761991374e-02
-1.007054773181732116e-01
-7.540489595798717526e-02
1.857984358791551181e-03
8.154134655180036995e-02
1.191130035576280916e-01
1.036550313575249904e-01
7.240807084651572356e-02
1.775131291269518505e-02
-1.145000751026883784e-01
-1.995171516501512421e-01
-8.809770466461758209e-02
5.513528004041726160e-02
4.981349820430731878e-02
-1.474143975701454334e-03
2.716506058134492488e-03
1.829187308257449254e-02
1.900356800229855911e-02
1.551143617210645580e-02
1.097440277121631939e-03
-1.306819031513602701e-02
4.059722199396162759e-03
4.064531866152387707e-02
4.986071293979409819e-02
2.448040713446101094e-02
-4.446346520016406130e-03
-2.348746800774221058e-02
-2.976871105227862566e-02
-8.776217850417879565e-04
5.539376359979722442e-02
5.978459260287900118e-02
-2.233838684694134866e-02
-9.330806510451837565e-02
-6.997008675629927399e-02
-7.511230920596450450e-03
1.044128804117321063e-02
-1.929328410570901181e-03
6.978045474759555014e-03
1.443815805446628867e-02
-5.446391556784904719e-03
7.469109835979183265e-03
5.840353608973153365e-02
4.464977187896873589e-02
-3.372719120641494428e-02
-5.810869022530348871e-02
-2.205268356313468819e-02
-1.799788076679008711e-02
-3.454991400891270492e-02
-8.907159946269778243e-04
4.400063643408463898e-02
2.719124331845154674e-02
-3.348669560653842227e-03
1.265972900506032346e-02
7.522867201063786202e-03
-5.383828983426787451e-02
-6.024559339385107681e-02
3.823549927978968366e-02
1.347333629164924051e-01
1.442358712749946537e-01
8.926586311679080010e-02
2.632367512104135179e-02
-2.905290401952730778e-02
-1.118897864573528134e-01
-2.000713950280754716e-01
-1.788362481392339054e-01
-3.452842359976153463e-02
8.003733481287700346e-02
9.741228657934698776e-02
1.033502536007735173e-01
6.732758430140993455e-02
-9.007836207856903532e-02
-1.924797143846303515e-01
-9.991665514619690880e-02
2.932339289981343577e-03
1.079576738910768136e-02
2.704515807623201346e-02
6.312509358407110416e-02
9.104556451145753848e-02
1.211008437474084820e-01
1.039123609913886470e-01
5.547967799145306356e-02
8.049409481633897079e-02
1.013487892212830421e-01
-2.733265826523931588e-02
-1.453237024925636278e-01
-7.168696220472184355e-02
2.033113480859302311e-02
-1.523050174513880875e-02
-6.209659109800431953e-02
-5.979203115136769164e-02
-6.651440174827938367e-02
-8.827534817424964597e-02
-9.294113734584137643e-02
-6.239273411128450769e-02
1.492514145990187120e-02
9.955365056141733671e-02
1.083213892682942103e-01
6.948360293848518388e-02
9.214263501517447330e-02
1.012486002413432590e-01
-3.146726314394762691e-02
-1.340331247681139926e-01
-3.594843112358130088e-02
6.086461520868007014e-02
1.093509187166671545e-02
-1.551762821908957493e-02
9.055842315358242703e-03
-7.168221566979894599e-02
-1.433941722755632253e-01
-2.789883354260198206e-02
8.813717228413960048e-02
6.203331455329173794e-02
7.809326159844032222e-02
1.225090924563547873e-01
-9.880713620721929755e-03
-1.590537415077400707e-01
-9.828188075725730055e-02
4.325566439619572823e-04
-1.195136246614563955e-02
-2.875270692460647759e-02
-2.832251051971070369e-02
-5.101664553760697912e-02
-3.171059078725100427e-02
3.760275622520029004e-02
7.213909227462142471e-02
6.187039192351441452e-02
5.131409182864034302e-02
4.073582730484258396e-02
3.057143985590025925e-02
4.093222327832553298e-02
5.511121683070960980e-02
4.684431261294599858e-02
2.087423682671538105e-02
-9.527470178982025070e-03
-3.204802640077092368e-02
-5.009233617623055912e-02
-7.977546636997777385e-02
-9.800669210915227691e-02
-5.960992115420890580e-02
2.435667116152827674e-02
8.471325688628156270e-02
7.691489183223590431e-02
4.076412681614174915e-02
2.992805914912717580e-02
2.422755557163428636e-02
9.977975604371304777e-03
2.085958115007379918e-02
2.415436226004857856e-02
-3.576846126446987795e-02
-1.064537847338987570e-01
-1.161762704937771007e-01
-8.721114529998230669e-02
-6.551450585612253463e-02
-4.534953595370461860e-02
-2.583838929109315286e-03
4.797976910616774671e-02
6.179996344047099244e-02
3.777128686846566163e-02
1.746261878292530365e-02
4.471550991174676540e-03
-1.774117349230305840e-02
-2.910210236101818879e-02
-1.295301845149796766e-02
8.995735982212219040e-03
1.130764604281525761e-02
2.244660071798376677e-02
8.421202318724836655e-02
1.222285570561662815e-01
5.478192617163223782e-02
-2.478525370993060056e-02
-3.296785376025720971e-02
-3.575601529122629518e-02
-5.987423859223033051e-02
-4.756159840283654544e-02
5.677597101909456073e-03
4.670195789669069619e-02
4.458927120577099723e-02
1.231346255646510214e-02
-2.069271269614075814e-02
-3.470942117102979868e-02
-2.621150642258246455e-02
-9.027465599202189744e-03
7.050076026924449388e-03
3.450103464786422741e-02
6.309527054328875617e-02
5.124447581913371685e-02
8.319375212264256900e-03
8.415307700693205190e-03
6.103732737646393874e-02
3.184397917358889468e-02
-1.299249624847747253e-01
-1.978340095355927974e-01
-4.934045137829147498e-02
6.815878956481441486e-02
9.135281034389999832e-03
-5.084230607239925009e-02
-1.534799418948610931e-02
2.154914717062749244e-02
1.486916950351060453e-02
1.059035336325517794e-02
-3.608539061839683565e-03
-8.461130474638718646e-02
-1.282844632710742061e-01
-8.443882246233521197e-03
1.001340690684563439e-01
3.402472696857434392e-02
-2.683698008770809412e-02
3.853570626111186420e-02
1.004847664447260369e-01
9.530018614193820625e-02
6.456713433691455006e-02
3.541511843920495950e-02
3.259359274596200506e-02
4.084682061228581129e-02
1.362055780563450023e-02
-4.173218025491265415e-02
-7.688859132803341212e-02
-6.390065593970507829e-02
-2.486486193460272012e-02
-1.281054622656460033e-03
7.597199535013032801e-03
5.727202248839160029e-03
-2.787240594104160168e-02
-5.847022987692377521e-02
-3.890143148202827861e-02
-1.626548761357031470e-03
2.144637896123954834e-02
3.184641494625914393e-02
9.303427611124006832e-03
-3.707796826116116495e-02
-5.509307320084558257e-02
-2.926243427634611649e-02
1.731994728385826549e-02
5.623685052700909404e-02
6.066894250114542031e-02
3.860609280335542542e-02
3.360096950953752465e-02
5.392933500012192516e-02
5.210604769744447973e-02
9.166401571254985392e-03
-2.841844963761453596e-02
-3.304511533972312454e-02
-3.111727705587779072e-02
-3.020905150597101574e-02
-9.500676254293995149e-03
9.715116484548678294e-03
-1.501218567580274443e-02
-6.152195626981076665e-02
-7.350921383005501464e-02
-5.058264130207392600e-02
-3.285613111560575783e-02
-3.797590861691011593e-02
-4.608740987029964070e-02
-1.559493659663503499e-02
5.855189225534580127e-02
1.068537706678773513e-01
8.126819464177439944e-02
3.567079789639177045e-02
2.854483821203668628e-02
4.141599473220580752e-02
4.663270664437057372e-02
4.741085880501934302e-02
3.510166046648808408e-02
-2.775253005978270925e-03
-4.148470154551251593e-02
-4.993226737904757351e-02
-3.760100491620600727e-02
-2.607758216201917084e-02
-1.717180243936868023e-02
-1.888582920696412967e-02
-4.341002167082581159e-02
-7.096935893044963028e-02
-6.985293333718492481e-02
-3.465276580674898910e-02
1.838402233306493661e-02
6.275679416211941974e-02
7.218187280842709719e-02
4.782115909883768307e-02
2.798432601928582675e-02
3.694560564121214530e-02
4.910745047284181125e-02
4.602605728092964282e-02
3.705258119591595817e-02
1.475211640001118651e-02
-2.614405049465852449e-02
-6.479209310000874633e-02
-8.333701813766883348e-02
-8.040385967388423427e-02
-5.782124577438228774e-02
-1.962418227569603241e-02
5.481812376749265435e-03
-1.013775561378703165e-02
-4.307026435903220374e-02
-5.809873806755951053e-02
-4.361156670221399273e-02
1.024628461375958616e-02
7.766708435836149060e-02
1.003828968143010286e-01
9.733651573028107018e-02
1.373573611185928411e-01
1.735532245547712349e-01
1.070020977565510345e-01
2.470022777255242476e-03
-1.091654004457880134e-02
1.819960389711590409e-02
-1.792730362757739490e-02
-8.741138871423632939e-02
-1.376819331793570633e-01
-1.817778124571178266e-01
-1.985123410095005758e-01
-1.538614435527082824e-01
-7.610103286743911954e-02
-9.593499072018535356e-03
3.171107282725926096e-02
5.371988623843595989e-02
6.390067154228988577e-02
5.850916457433332635e-02
3.981071420734819122e-02
2.700291366070176752e-02
2.013691776772764952e-02
8.106996645777521729e-03
1.906387616143519897e-02
5.212621662311248127e-02
2.462080374304874072e-02
-2.997957268578317278e-02
4.430162572081614014e-02
1.714575103537385459e-01
1.516379665631714668e-01
5.625351992334736567e-02
2.187451298885743911e-02
5.360325697460650851e-04
-4.119229468263298916e-02
-5.980221731770497817e-02
-4.578164827951314991e-02
-1.646707186572250389e-02
-8.487244933807980285e-03
-5.743342613623420023e-02
-1.225333838159593791e-01
-1.430983107844306934e-01
-1.364130392363255007e-01
-1.136901580113956756e-01
-4.555206241394214872e-02
2.903406647485681780e-02
6.050095472997132212e-02
7.969136373322592559e-02
9.708494649723477254e-02
8.075299891875742375e-02
4.837976669181472816e-02
4.091059627962877199e-02
5.311978705693726210e-02
4.423624154371533918e-02
-1.311679714567233479e-02
-9.155453998531823401e-02
-1.244251813049747218e-01
-9.110110470518995029e-02
-5.569076326129436538e-02
-5.602892623757555618e-02
-2.118715288430803728e-02
7.358713658972693139e-02
1.392301661017321945e-01
1.554518582207736477e-01
1.333248708842317554e-01
3.692170792362983733e-02
-4.617988017285099001e-02
-2.151828436017155788e-02
2.020843031971575332e-02
1.334851819710549878e-02
6.596677301260737286e-03
1.571667510928466405e-02
2.448220911934861563e-02
1.772416201792102741e-02
-1.678458267663642672e-02
-2.795455851630646027e-02
2.784237353616206972e-02
5.399132915616604300e-02
-3.606578464938149653e-02
-1.524624252956923443e-01
-1.895804981527699218e-01
-1.327880848813836334e-01
-1.715793564461861806e-02
4.730260115227144513e-02
6.106137307898162891e-03
-2.785441870562567479e-02
1.689904619829218912e-02
5.971059191564390134e-02
3.464307096187271839e-02
-2.272150656138711977e-02
-5.273484998250216327e-02
-3.579641168207819274e-02
3.653078945755667932e-03
2.371298549196614730e-02
2.431247700679760315e-02
4.744903819754815733e-02
8.962074249394229308e-02
1.018715016101961190e-01
7.474830560659462275e-02
5.341543443526505092e-02
7.088389960242191812e-02
5.480973498602393496e-02
-7.051439758263985946e-02
-1.666510944362480096e-01
-8.757527737321633976e-02
3.160114502450343116e-02
3.349179282282351011e-02
-2.807410508798835469e-02
-6.503949210201728781e-02
-6.823435269326755259e-02
-5.112597096955461690e-02
-2.239118795019470060e-02
1.402878231141708315e-02
6.253245537140428301e-02
1.082042141319802253e-01
1.009144313219820510e-01
4.212222305221426794e-02
7.543576405677941514e-03
-5.266174358232296460e-03
-4.102096783984857109e-02
-2.303746044590019443e-02
1.552318301455135607e-02
-1.148592889601556116e-01
-2.380281249479880012e-01
-5.375014826412321395e-02
1.432828196199795734e-01
3.372388305748951626e-02
-7.983082817602502046e-02
2.932285563931125508e-02
1.320064856717960700e-01
9.057996571286885956e-02
1.355870017828962083e-02
-1.832860876474103062e-02
-7.398582841703011878e-03
1.632177963563936560e-02
9.201082922534934913e-03
-2.455770425253910733e-02
-2.490953953209159091e-02
8.688122082240306090e-03
6.204934206962272464e-03
-3.281423345725295593e-02
-2.759403629136591984e-02
3.498688952260716606e-02
6.714573725272957039e-02
2.301013837015060404e-02
-3.677014056342249593e-02
-5.801297965049400512e-02
-4.943426107481922738e-02
-1.318367308413908104e-02
4.219857872891475542e-02
5.613433372156534373e-02
8.636379437337625767e-03
-3.836345374187038332e-02
-5.532442055028780059e-02
-6.422429859868178381e-02
-5.790814077817676292e-02
-1.680621522081942806e-02
3.609119792039797159e-02
5.065993845756969205e-02
2.062173665479674622e-02
1.038918316704907224e-02
4.210653173490821327e-02
4.789665932772836643e-02
2.604728753769101207e-02
4.837686975321690147e-02
8.484289338935989411e-02
6.008244735492433708e-02
4.570426897445272439e-03
-2.421330518005328919e-02
-3.623691472351801834e-02
-5.474650968551564301e-02
-6.728828441902280633e-02
-5.341663166398894630e-02
-2.596091585985787348e-02
-1.681562039522607049e-02
-2.894629746711105747e-02
-3.576547149338812903e-02
-2.915170720893574610e-02
-2.550542441349352638e-02
-1.904455620449459208e-02
-3.209075946688170165e-03
-7.039996359993686524e-03
-1.912693044243461010e-02
2.006508778679977692e-02
9.112284592631406110e-02
1.136253673007398823e-01
8.155841152354677270e-02
3.685050279221833980e-02
-8.511020504968403247e-03
-3.662147686903144406e-02
-3.668926574379986066e-02
-4.701735049240277076e-02
-6.705184776626867127e-02
-3.403202780527823934e-02
3.482475515710024838e-02
4.408790644461006020e-02
-1.207391872079755998e-03
-9.352925574346511103e-03
1.774261220363388541e-02
1.205942741610218499e-02
-1.532767886581495008e-02
-1.656170470967335134e-02
-3.209080555198545563e-03
-8.358099627723099972e-03
-2.586745447430242179e-02
-1.649718839897374584e-02
4.053186857824699063e-02
9.181283659088571025e-02
6.226368819633029683e-02
-2.104563174310131179e-02
-6.362265544922374172e-02
-4.574880512108842057e-02
-2.154220511547096789e-02
-2.042739007230256684e-02
-2.630177659621706771e-02
-1.541076902661180602e-02
1.204123889769258791e-02
5.213502493628564133e-02
1.270424798081973283e-01
1.577358422096814539e-01
6.432421538358056717e-03
-1.511701304172510807e-01
-3.664243485318235266e-02
1.299983085620345091e-01
2.177954030210649955e-02
-1.441375501737736375e-01
-8.634047652062158684e-02
2.688978968039383577e-02
1.654086886359469252e-02
-2.480563742031821617e-02
-3.184589965679284623e-02
-3.328415212050967603e-02
-1.425994387436592403e-02
1.940971814926782668e-02
1.564988913235263596e-02
-9.125978580823833342e-03
-8.645681455381920219e-03
-1.681503729749559556e-02
-5.086573086779808822e-02
-3.975655735172772126e-02
2.220752079879313723e-02
4.198927692116932037e-02
1.761423455120088993e-03
-3.199991536746732423e-02
-5.191403075450357757e-02
-8.261280715210317371e-02
-8.197409137301656101e-02
-1.927730586915867364e-02
5.222090656048730684e-02
9.749640738675374729e-02
1.406096199299325666e-01
1.732125547590641634e-01
1.580257429881697928e-01
1.027845011066580438e-01
4.605438575141884011e-02
9.343856721405561366e-03
-1.663470847317015042e-02
-5.643125272419166616e-02
-1.073703559106284622e-01
-1.388423587362140332e-01
-1.387856520567671836e-01
-1.094318154683631972e-01
-5.751768993901565374e-02
-1.440444910249545282e-02
1.171606120196740791e-02
4.713991770495961492e-02
6.508277836692494267e-02
4.782342926039820363e-02
6.992243254004495978e-02
9.380979616695032941e-02
-2.112789889435546381e-02
-1.414456103572875045e-01
-4.539348041542466683e-02
1.027261927042836809e-01
7.565550528180017831e-02
-1.600756472078887493e-02
-2.959442991938129527e-02
-5.145984683117178424e-03
-1.736908410404100847e-04
-2.475512907791799222e-02
-5.264528530373310811e-02
-3.751985753572370519e-02
2.441366424652168833e-03
1.551578190159269566e-02
1.993316064854503550e-02
4.494299652609875378e-02
5.437809225072241098e-02
1.744243573042352641e-02
-3.158447107274173216e-02
-4.695668810337325083e-02
-3.679630340554009699e-02
-2.773488136876729737e-02
-9.592178875792870332e-03
7.490087915767555844e-03
-1.486471829522367956e-02
-3.511286184054505932e-02
7.128033682814407211e-03
4.634853261188532497e-02
1.592581958766269706e-02
-6.553980040782839828e-03
4.055088508773070644e-02
8.071548300260358855e-02
5.044135144753352645e-02
-4.867748725000122303e-03
-3.505890722698579848e-02
-4.677633438223785523e-02
-4.364184645595614587e-02
-1.559565388716581749e-02
1.274979612998028422e-02
1.898133718886433827e-02
2.309090625644604627e-02
1.907958661133198411e-02
-2.259653039368482441e-02
-5.970112294632504146e-02
-3.666794698322288493e-02
7.362893844447849015e-03
2.374566675051668213e-02
3.577823465067971748e-02
5.619500735998976537e-02
5.904234484509070235e-02
4.647717948818626266e-02
2.700786181056593488e-02
6.706330941172937259e-04
4.980507083112917927e-03
6.473625989533189976e-03
-8.826820935575377391e-02
-1.693408213090069891e-01
-9.361282151008165631e-02
-5.157297486647659593e-03
-2.010679718867267041e-02
-1.894731970434420862e-02
3.033699542574759891e-02
4.075909013951747872e-02
2.036276090839376357e-02
7.366411953124104607e-03
-7.319175421763282965e-03
-7.832916461329631277e-03
1.755088442448876282e-02
2.562859044264101729e-02
9.741480880326554986e-03
2.477257799172236097e-02
6.585635847659133957e-02
6.526103279768316612e-02
3.602551718081260096e-02
5.758538304449169198e-02
6.832555234021658874e-02
-5.710224107015769018e-02
-1.753840729485230121e-01
-9.127091871358566921e-02
2.804705174466671710e-02
5.555777557000454031e-03
-1.331312143493879052e-02
5.007297839152621832e-02
7.472457251986458493e-02
4.932899718401105582e-02
2.446904084158718629e-02
-1.558397540918014801e-02
-1.846492127911471964e-02
1.775802649579363152e-02
-4.663676042877266947e-02
-1.504348212610460978e-01
-9.162007121485399308e-02
4.379591517666901052e-02
6.551464991530633886e-02
1.674644628376789623e-02
1.109785181998913621e-03
1.478844486334240406e-02
3.050619943670852124e-02
3.322896461236640037e-02
4.895013233061418396e-03
-3.170222512128132580e-02
-2.836188536875467944e-02
-4.167253849079182934e-03
-8.797066157285626450e-03
-1.851058069775061640e-02
-1.487225548450390577e-03
4.962620933478190631e-03
-1.449161656332263737e-02
-4.450431446952007181e-02
-1.100556682797440150e-01
-1.429066842297833095e-01
-2.370660246618919859e-02
1.107523120454433491e-01
8.617780673666627922e-02
3.521848311389264713e-02
6.406982605427477551e-02
7.703718032151524175e-02
5.315907528666934112e-02
2.307621521329772038e-02
8.988531188204557099e-03
7.555948707862797376e-02
1.349328947340414364e-01
3.174793970760255574e-02
-1.138855113249497564e-01
-1.241177066788059363e-01
-7.089077634021145879e-02
-4.654123862904034625e-02
-1.889901517907755651e-02
1.598870416638195971e-02
4.407940178237924889e-02
8.467187822864574720e-02
9.849635737204509578e-02
3.804435001981146258e-02
-3.185008998295495858e-02
-4.674032386945439765e-02
-5.023503235315963239e-02
-7.305652114900851313e-02
-6.529630756252437218e-02
-1.658530301612144708e-02
-6.171498521220630112e-03
-5.679375295280573999e-02
-6.871649903971042972e-02
-6.716954607518824116e-03
3.698394563026712045e-02
4.198606527157523749e-02
6.035650862831854618e-02
5.798709422961863952e-02
6.548760631499514831e-03
-2.192535465267036673e-02
-6.488124036093407404e-03
-1.180153262573671938e-02
-3.462958521769851639e-02
-2.865595980049122013e-02
-1.806581524414527587e-02
-2.637917984737043683e-02
-1.820901186540670180e-02
2.485330658405199983e-02
6.971521228879352938e-02
6.862564883241657754e-02
2.555272568886822471e-02
-6.908650653176862978e-04
-9.354537956705913718e-03
-5.058096496512860113e-02
-7.892837533841239039e-02
-9.503637160545077775e-03
9.745877419521362106e-02
1.208267159178094408e-01
7.789920755167992206e-02
3.611017164421828629e-02
-2.326917003409939566e-02
-9.147582599834896966e-02
-1.029708558120084883e-01
-7.142920260489916962e-02
-4.405797384006825829e-02
-1.068507894221644092e-02
1.993372056483894844e-02
1.270810547997245667e-02
-1.454412144341264181e-02
-2.276176812866365431e-02
-1.065876586169073499e-02
5.009572331415270557e-03
1.983867561520901920e-02
3.895981462994515393e-02
6.447351941524967489e-02
8.095766990203248636e-02
7.047993951823418313e-02
5.190928576826068369e-02
4.346099767450561230e-02
2.681354993442438064e-02
7.054701426509290586e-03
5.500119645035290300e-03
5.549637758943416418e-03
-9.355217168758037799e-03
-3.299518975886648470e-02
-5.933265678521351671e-02
-7.379508321449465558e-02
-6.559478723367925812e-02
-5.271812907321392350e-02
-4.381608591919779194e-02
-2.689999859109098307e-02
-2.216028411480449462e-02
-4.712296257229511842e-02
-5.874875624558802828e-02
-2.950725166184420961e-02
3.712668196422455255e-03
1.344632360930504353e-02
9.196238719627592567e-03
-7.166171163087767942e-03
-4.934382958730648000e-02
-1.090547201126135790e-01
-1.288849254187100224e-01
-5.962793461259596750e-02
3.504028401704415568e-02
4.940134249454814636e-02
1.764464156883265716e-02
3.990907303402420336e-02
1.019749642378950383e-01
1.195086708197719283e-01
5.395223487333096479e-02
1.427988648224916973e-02
1.751914036406894692e-01
4.270426798845654570e-01
4.625203002963625964e-01
2.598463565948382348e-01
3.791947411328989992e-02
-9.949053586024829421e-02
-1.748408698300498720e-01
-1.815441527383903353e-01
-1.119489097906868069e-01
-7.039202356337509459e-02
-1.536653908174149818e-01
-2.637395053535499523e-01
-2.638332281583867234e-01
-2.015901280356372227e-01
-1.682897379957470352e-01
-1.331288929933166776e-01
-6.648891342260135340e-02
-7.547180495560003310e-03
3.149306952351475786e-02
6.958901020863264564e-02
1.124096009768552062e-01
1.440651671842745896e-01
1.334492338011128432e-01
9.577675734055893231e-02
7.132341573321060446e-02
2.808756092156720549e-02
-4.142233011299339962e-02
-4.546892363819665661e-02
2.209843940869381240e-02
5.583261906027745664e-02
3.737386769850441909e-02
1.798443273621514599e-02
-3.445557448487762686e-04
-1.229829548750820817e-02
5.332533617465743878e-03
2.399998577534938338e-02
9.637477068137169714e-03
-2.082886787737532261e-02
-5.371649776493097467e-02
-8.990745955347170804e-02
-9.327603744500176375e-02
-3.850732836142849169e-02
2.116875458178278657e-02
3.811563688575633074e-02
4.388442633679790622e-02
6.156454060687333030e-02
6.010230365678478209e-02
3.240516360731222900e-02
1.066949069072935068e-02
8.653343660343197630e-03
1.877180718867785258e-02
4.236104818221032159e-02
6.818189166882816787e-02
4.939846131248043504e-02
-2.105998453543846821e-02
-7.551417227632542528e-02
-8.499700773577660573e-02
-8.453266233616649195e-02
-7.830030999343021159e-02
-4.849552800945874237e-02
-2.148505401375779000e-02
-3.075822782007236328e-02
-7.720209302809814128e-03
1.171044225142480050e-01
1.930252958530564167e-01
8.722115628076497484e-02
-3.181273409352582127e-02
-2.745497220568758612e-02
3.223348690117516097e-03
-3.397182053598579894e-03
-2.587994548378536042e-02
-3.969146133187746728e-02
-1.301477651102657569e-03
2.579229035299100692e-02
-6.835775939743607421e-02
-1.467025428858161062e-01
-5.257521524125169377e-02
4.723935381026519997e-02
1.991622610087928971e-02
3.937313429815658336e-03
4.764667804951452229e-02
4.354384706781499331e-02
-2.672170620822752335e-04
-1.395516945255242773e-02
-2.078484592009596094e-02
-3.321588510151392282e-02
-9.583871541855415455e-03
2.940672611936087991e-02
3.178428160234990363e-02
9.361966826327051266e-03
-7.641775736449181108e-03
-1.871445800553232439e-02
-2.489320754981149547e-02
-1.805175703842333904e-02
-3.179188985850994048e-03
1.084088987956408415e-02
3.786517046400076497e-02
6.860269826542023108e-02
5.362668319488755192e-02
8.784579887784239177e-03
-1.546279785049906388e-04
1.131797282379056434e-02
5.897642651516371050e-03
4.892694540504931994e-03
-2.138624054774413731e-03
-4.625003740637052829e-02
-7.712535090669644933e-02
-3.914653560728675874e-02
1.472753029226937099e-02
1.688849415532271692e-02
2.118610007555222011e-03
1.112036468487653459e-02
4.285713576258159269e-03
-3.619753816243945210e-02
-5.812950738394107725e-02
-3.047403802364784253e-02
8.925654923842401764e-03
1.711495573491458172e-02
1.722591736900058734e-02
4.452908281014342218e-02
6.827031168257430283e-02
5.307178738246902394e-02
2.023715486566740607e-02
8.580545442441502024e-04
-7.057323790493966187e-06
2.284482021879226735e-04
-1.798828055353667021e-02
-3.509148735827560817e-02
-1.850524081281903349e-02
9.597751017009537727e-03
1.280280178418259987e-02
2.331852936746925831e-03
-6.334164703473886548e-03
-1.752661047517750995e-02
-2.519281660993658717e-02
-2.530355000031275087e-02
-2.443761930973999477e-02
-2.286414269222328960e-02
-2.209336757700008924e-02
-2.443841732571046949e-02
-2.190143152880038094e-02
1.301309804564262061e-03
4.769421160880468052e-02
6.585219250117654854e-02
1.567199256971584659e-02
-1.862824299756000654e-02
3.204802924567631828e-02
7.055626424174228639e-02
2.924230250883204721e-02
-1.348758991499472010e-02
-1.686056135010727958e-02
-1.394239440387263704e-02
-9.733398208371976668e-03
-1.582708602814626719e-02
-3.960593851247327934e-02
-3.320123955646435421e-02
-4.121816559174349553e-03
-2.277564410671495398e-02
-6.197258798114812367e-02
-4.981327513449992916e-02
-1.946322970667351340e-02
-1.540697011984027386e-02
1.402086421247880806e-02
9.132227082703452126e-02
1.263926689969249728e-01
6.950989299214720141e-02
6.737597922750590898e-03
-1.231337207899535144e-02
-5.593949564025607613e-02
-7.750271138158913720e-02
4.226598172682874410e-02
1.463307844609780251e-01
4.932326997628280751e-02
-7.558136540158739980e-02
-6.914143971140876421e-02
-2.835670752535308231e-02
-4.555295034418483692e-03
2.000822281442329875e-02
1.483947389570787478e-02
1.092866327782479954e-02
5.208625308501226014e-02
5.400808465799088187e-02
-1.700556540897236318e-02
-3.327165969515014088e-02
-1.511580163141044292e-02
-1.136793203849222889e-01
-1.885459134166330708e-01
-5.461613638664156167e-02
8.031240514832520272e-02
3.719044437948408610e-02
-1.389629104728483736e-02
4.028128037615378437e-02
8.166740441389033767e-02
3.554478250414262047e-02
-1.768408856824874378e-02
-8.613926830892969927e-03
2.393164692822540365e-02
4.057948175256521905e-02
3.952275218664026007e-02
-5.785424476204659855e-03
-7.616157637423814908e-02
-9.513259939511861663e-02
-7.805743370401477255e-02
-7.705290260298451599e-02
-3.447672103719132825e-02
7.408607244130503700e-02
1.286393508145054765e-01
7.579194843677594662e-02
2.573943532285805080e-02
4.267773568599221579e-02
5.946807629769183812e-02
3.134414236817668897e-02
6.016578918542429474e-03
2.998120013147808141e-02
6.674750248670652253e-02
6.613939204335564370e-02
5.018312527146569224e-02
-2.028857778235944667e-03
-1.426403997209231278e-01
-2.331948787856975847e-01
-1.370356435729569444e-01
-3.389965406286872193e-03
2.210425945574411369e-02
5.965042446661501449e-03
-1.685499522565230696e-03
-2.506925390248884028e-02
-4.036505187296777347e-02
-2.315935203314864119e-02
-1.325435305301181366e-02
-2.893744904141475061e-02
-2.647259962672458139e-02
1.297564220326577131e-02
6.340987791029562004e-02
1.109040409819509465e-01
1.386031990948907722e-01
1.087188022652647301e-01
3.166464859684171157e-02
-2.030566753076269715e-02
-1.980115189232826631e-02
-2.112562213686593193e-02
-5.340596692330595169e-02
-6.733213550442868067e-02
-3.070885135098667604e-02
1.429018571753006006e-02
3.390103048484108955e-02
4.448425257078784251e-02
5.055628655387656156e-02
2.967358373954040104e-02
-1.937985078221440144e-02
-5.345104132947657571e-02
-3.623563973894280282e-02
-3.679390401853029416e-03
-8.959520249455954488e-03
-3.250404530233867023e-02
-2.782221030697457770e-02
-1.326216847546518064e-02
-3.797262598659786187e-02
-7.773369478168297431e-02
-6.906142918066604519e-02
-2.400691523005257788e-02
9.408773731842104762e-03
3.738619341775684113e-02
7.492824912126369585e-02
8.957194730347595168e-02
6.566820640188608671e-02
6.000758891862127686e-02
1.031642291181242566e-01
1.197060065055526590e-01
5.337127968622316226e-02
-2.525258499158068715e-02
-4.747508243453676252e-02
-6.523986990718207146e-02
-1.123237492982425423e-01
-1.258898296310028420e-01
-1.092066954618941960e-01
-1.100245066736708632e-01
-7.613490468481146078e-02
5.454278823096484971e-03
3.457052457062654433e-02
6.653689912375852777e-03
2.250988984146704702e-02
8.173034288261057934e-02
1.015162363310307403e-01
7.837248851262446081e-02
5.843770877550172327e-02
3.605882871887753499e-02
1.382737091597272070e-03
-8.776294187101279370e-03
1.801775477797750921e-02
3.994057979951224496e-02
3.965000411461491042e-02
3.396210407829941547e-02
-3.009638705097323653e-03
-7.871030995223043947e-02
-1.002047428615073787e-01
-6.395700469542831001e-02
-9.284126615755301792e-02
-1.170445577286454708e-01
7.012026328980664955e-03
1.382637777561560588e-01
1.203170015474135102e-01
4.506959836498597438e-02
8.032985625280406744e-03
3.239873167828360469e-04
1.109209359610615481e-03
-1.477416298070445208e-02
-5.589446231790917013e-02
-9.495698508918942737e-02
-1.063105998861044316e-01
-8.471912225487529535e-02
-3.800603382876475284e-02
1.575458413986553091e-02
5.566535344339319097e-02
6.979681817235226793e-02
5.924835485450008488e-02
4.705488881710984811e-02
5.386936941756300529e-02
4.719040644008005297e-02
-2.483774826750101763e-03
-4.359019494207310580e-02
-2.455349875973742574e-02
2.345971514510734185e-02
4.438475485839707413e-02
2.609297922363083833e-02
-6.702442580313184087e-03
-3.263262648752719014e-02
-3.851050266816761353e-02
-1.583962114618133604e-02
8.995508539329011288e-03
3.553850459801246447e-03
-1.745137904245452204e-02
-2.505843721104109023e-02
-3.644069088610746125e-03
4.198235341742617005e-02
6.550370591054292813e-02
3.676293963609966742e-02
-7.361896922674334223e-03
-2.205020183815697976e-02
-7.880616870550286382e-03
6.152955998653311838e-03
1.223200306076342551e-02
1.805380080357819883e-02
3.104943552482256758e-03
-1.566114152806739879e-02
2.593662995974128221e-02
7.069454434276070676e-02
1.716321458071497566e-02
-1.825609998325198463e-02
5.571798997082910709e-02
1.526941833580583961e-02
-1.946864840791438789e-01
-2.403033783981547156e-01
-6.593365618172852827e-02
2.407794581428353980e-02
-9.707232761504758223e-03
2.254001847959095570e-03
4.488736719344010168e-02
4.318428648542928239e-02
2.597075417362309027e-02
1.811678327764401630e-02
-5.761776518416528159e-03
-5.104211460066093720e-02
-6.184955197468618160e-02
1.827868722779435115e-03
7.219801440985097740e-02
8.272319032193475863e-02
6.789697780181461195e-02
5.333054780131221001e-02
3.422243582584854477e-02
3.390281924134171121e-02
3.824862484564972576e-02
1.686582892345142581e-02
-6.568212480590803620e-04
-3.516139163803761944e-03
-2.486443986978298382e-02
-6.045740916724973851e-02
-7.879216026740142043e-02
-6.232781722292165399e-02
-2.135826438833493546e-02
2.148319243835790197e-03
-8.086693072997270387e-03
-2.105549503115485693e-02
-1.330604075748896900e-02
-6.992732648332160295e-03
-4.631753646987569334e-02
-6.284444184667545286e-02
5.708139635175810828e-02
1.663127313917251993e-01
8.142375451519587304e-02
-1.816083875464334640e-02
3.630061792985793401e-02
8.333640502383486692e-02
1.989091228660595095e-02
-2.524659642559389308e-02
4.362548971357696481e-03
1.003986350921645329e-02
-1.830479334054817275e-02
1.264543530793637779e-02
2.627021682990424850e-02
-9.817233149665229031e-02
-1.779666742900823939e-01
-5.681040707633435577e-02
5.145834982824608328e-02
1.789849967852401996e-02
-2.246710607047544897e-03
2.340018520168692107e-02
-6.906032456053250168e-03
-5.609400223241067102e-02
-4.478491326960191976e-02
-2.104602476221758764e-02
-3.126295848379233300e-02
-1.662549976813610525e-02
3.808816786697492157e-02
5.908667820701553330e-02
4.025850906532531248e-02
3.771248887207175743e-02
5.034867500219784159e-02
5.868835609662471919e-02
6.224853334187648718e-02
3.955417573137760823e-02
-5.096282888789314437e-03
-2.949153551937580206e-02
-3.443659194726977207e-02
-4.002633498018028091e-02
-3.125752532094749209e-02
-1.150439968906535881e-02
-8.709570477500887600e-03
-1.825543788745220830e-02
-3.582590972550377811e-02
-7.604314141749270173e-02
-1.034299940034648646e-01
-6.054552879758944711e-02
3.170506855943987928e-02
1.032887408542855212e-01
1.244032679459399215e-01
1.046473324342294814e-01
6.370845852432346912e-02
3.066337788411093584e-02
1.394832025653069962e-02
-1.320357625224206737e-02
-4.280445859691574262e-02
-3.185734436569127859e-02
-1.333774662383936313e-02
-4.874533704458989397e-02
-8.867558370060231454e-02
-6.605405206060105394e-02
-1.592080148780987067e-02
2.431303251271397375e-02
5.979853363871912020e-02
6.457597579782275998e-02
2.634600757332586363e-02
-1.413678855985581184e-02
-4.746934152524964062e-02
-7.554356259054935407e-02
-5.972621075180435668e-02
-1.378594372641711065e-02
1.541584421616395799e-02
4.752166715665479685e-02
7.023372589148964285e-02
2.327714864360288377e-02
-3.059014475478597644e-02
9.315728491515785220e-03
7.528505270378915704e-02
7.114373472761174877e-02
4.119211731618489108e-02
2.565040521568282689e-02
-1.067060216854699879e-02
-5.616446587574461941e-02
-6.257592919274121424e-02
-3.454614056354574081e-02
-1.525500702964063815e-02
-2.468590907619635372e-02
-3.021438392114908847e-02
-4.370762449845992312e-03
2.185298886357151318e-02
2.410421432635549005e-02
1.931910717158689603e-02
1.161185938478108415e-02
-7.042463156440212022e-03
-2.316545939921395292e-02
-2.181503637960805278e-02
-1.395138702067827766e-02
-1.955341186071888476e-02
-2.928314205338794843e-02
-9.531355795772551405e-04
7.385310278907805670e-02
1.157882814572987334e-01
5.573475364418185862e-02
-4.097001802053677755e-02
-6.969889880422985851e-02
-3.985902325231145682e-02
-2.063404410130964539e-02
-2.305179796259088087e-02
-2.239379179652490129e-02
-3.198786092277618176e-02
-6.495536162719413309e-02
-6.877366561261682998e-02
-1.966356897209432103e-02
1.150206865372094267e-02
9.937612808632052125e-03
4.177505814573826554e-02
8.823952488315758846e-02
9.529557277657504932e-02
8.093892789034611013e-02
4.596000115743147096e-02
1.391027941344722026e-02
6.525170192829483906e-02
1.167418946020463005e-01
3.380257634048340620e-02
-6.274250344271714575e-02
-5.087163622692242315e-02
-4.118759481159771363e-02
-9.622691871593944124e-02
-1.297512668071143238e-01
-9.953724467921597208e-02
-4.607848892369133947e-02
-1.587219956735136384e-02
-1.285830934413258707e-02
-7.531134419009431410e-03
-7.202693727031382609e-04
-1.100822738180657658e-02
-1.323787574465036879e-02
1.546951379010484684e-02
5.222931199265998248e-02
8.391468529616744054e-02
1.160894365496802638e-01
1.327043354666566644e-01
1.172891098042085356e-01
8.611414740351711061e-02
6.851801799352194577e-02
6.608570328367834035e-02
4.587473246990356190e-02
-2.482902589995784198e-02
-1.331475838959003954e-01
-2.083488733757357658e-01
-2.071958506313520965e-01
-1.740731668934801524e-01
-1.413396802787629802e-01
-8.576571538445140752e-02
-1.383095811020649407e-02
3.421847728808899425e-02
4.403170618431886951e-02
3.780963422086325298e-02
3.770267093128828323e-02
3.341007145865257377e-02
2.461701407596227076e-02
4.615003547922726101e-02
7.872399967107931995e-02
5.494714430198471139e-02
6.292906486471069177e-03
1.929086346357504478e-02
6.945726271894202275e-02
8.646460558797799956e-02
7.497072303540995575e-02
5.467069466732837196e-02
1.626154263285616713e-02
-2.698158965581453142e-02
-3.809156850101066971e-02
-1.311618782025787515e-02
5.966746934379148909e-03
-1.112462109039670348e-02
-4.591520549022261311e-02
-7.695894551613945145e-02
-1.138604308723297764e-01
-1.487985316763073829e-01
-1.383529415047248523e-01
-7.472299384600059047e-02
-1.400178735066651831e-03
6.056984653401729923e-02
1.123059505172881306e-01
1.308905422483345737e-01
1.153503979867840090e-01
9.787025227789494797e-02
7.924923460045496526e-02
5.823208604462144777e-02
4.657920138281125555e-02
1.171117328299939309e-02
-5.768329685123616685e-02
-1.081500023705906921e-01
-1.041021132553761747e-01
-4.056816029658050216e-02
7.000942049290902539e-03
-7.344715867100473639e-02
-1.513011422351532853e-01
-3.329885107014302070e-02
1.026942260649611055e-01
4.116721333788571358e-02
-3.055038012081308027e-02
8.676350149289342728e-02
1.973705000101729778e-01
6.814696366824996021e-02
-1.425150421610094087e-01
-1.578421139506959170e-01
-3.258133472350530080e-02
1.652155151396450181e-02
-1.009608648918615056e-02
2.718584850508516063e-03
4.272069620177935262e-02
3.870675597098259535e-02
1.271500969051941182e-03
5.645949451484320349e-04
4.585543504513878849e-02
6.299131888969880522e-02
4.395267575359209505e-02
6.782693513144576192e-02
8.450069633024351323e-02
-3.365988198725151231e-02
-1.672435693804276979e-01
-1.187209022535438835e-01
-1.671524626006080927e-03
4.365032079180717131e-03
-3.247794041500570716e-02
-2.267290747448713964e-02
-2.808691423726553723e-03
1.528749375647998551e-02
4.511269340892602037e-02
5.753824306486243073e-02
5.542634339786014358e-02
2.583161050967816216e-02
-8.193371934806312207e-02
-1.413767001919327970e-01
-2.405493547195507870e-02
8.110669346794391332e-02
3.549972001482359918e-02
-1.083564634664304846e-02
2.999969864197963090e-03
2.172294374130008619e-03
4.568453718723667484e-03
3.124558656258077938e-02
3.077136445080139865e-02
-6.839027996718335597e-03
-4.394429437562828028e-02
-5.662086292672022236e-02
-3.649972321338368353e-02
8.172612570681346902e-04
2.906970527239355687e-02
4.111431917455439511e-02
3.908535944314841387e-02
3.627635233152026045e-02
4.094856975755162970e-02
3.138090688895041336e-02
6.256539063416990606e-03
-5.935677683067552488e-03
-9.102764368185077212e-03
-2.508093643842720932e-02
-4.868551318786990684e-02
-6.154916414617748327e-02
-5.080815317576558438e-02
-1.862391344002194138e-02
1.651829652574683324e-02
4.298842083787436652e-02
5.423325957404689923e-02
3.928553631839035165e-02
7.539615730400539909e-03
-1.569881891021964945e-02
-1.577458043682570393e-02
3.445524396419969923e-03
9.006571553900263871e-03
-1.978949299786064361e-02
-3.701974802340255583e-02
-7.716472824896507265e-03
2.820581075295169535e-02
4.219800051489771414e-02
4.223052265812180656e-02
3.889316061124791640e-02
5.666417592414979554e-02
4.017601827737470738e-02
-9.234095719587596951e-02
-1.872644347397070530e-01
-8.435790596480832737e-02
3.394367505370588650e-02
1.017098329508270629e-02
-2.696094042537906105e-02
-4.419564806821931272e-03
4.824247919251481616e-03
-9.322729994993148722e-03
-4.072661521844734081e-03
1.332156829296309367e-02
1.619806747631288846e-02
1.524485144836995945e-02
2.329743447205170556e-02
2.634762212037112736e-02
1.186385757615164571e-02
-1.348632007399121376e-02
-1.600931251165613189e-02
2.207726055168761359e-02
5.605873793144022788e-02
5.744775464937333653e-02
5.654537330683962609e-02
5.319835462380374108e-02
2.014960126754759134e-02
-1.894581057145433220e-02
-3.062479765232192438e-02
-2.329563716194447270e-02
-5.347563605318277763e-03
1.485133294938567258e-02
-4.717819397438336414e-03
-7.387875692899198432e-02
-1.157445434762394837e-01
-8.212990653743854064e-02
-4.956531286910825090e-02
-6.848566935982444703e-02
-4.689215787640058086e-02
5.584589723822499380e-02
1.237816485898236840e-01
9.655575391092618975e-02
4.763404594077820520e-02
2.477910330797038901e-02
1.944137560947746882e-02
3.354685067070264232e-02
4.447022387432526813e-02
1.355650911346233632e-02
-3.518506514656095929e-02
-6.483512054232921928e-02
-7.955192370015361225e-02
-5.860657392209794869e-02
1.370909185563057645e-02
6.932490195079643591e-02
4.769352329432120785e-02
-1.160783533343311483e-02
-4.654169877086175577e-02
-5.171251892763592539e-02
-3.681273159282612284e-02
5.098795812545878388e-03
4.591786439431450734e-02
4.171821069418541611e-02
1.598298088893195662e-02
3.806067759931129417e-04
-2.293681619454269668e-02
-3.143380477634748899e-02
1.238197857254093662e-02
6.397992666895128966e-02
6.715909936626880683e-02
2.202451162040321153e-02
-3.916893205160507790e-02
-6.630825759283558163e-02
-3.987534402856474092e-02
-5.525252595571651486e-03
-4.290094272162788339e-03
-2.019830082074635172e-02
-2.234726415287150922e-02
-4.582389446495368536e-03
1.979575651903763694e-02
3.024367991181214216e-02
1.672445744009692925e-02
1.226398898755756087e-03
1.195020454368361275e-02
2.475221523576436738e-02
7.159433358888789116e-03
6.276758575792996953e-03
3.921365941715920095e-02
1.420843213000490615e-02
-6.277421950488945579e-02
-6.766242375462519498e-02
-8.828872667778575253e-03
5.833445744991423189e-03
-3.319702594218001956e-02
-5.914451430295075002e-02
-3.650143544772442572e-02
4.887748038384424898e-03
2.072938719600243840e-02
3.214437227944837855e-02
7.660932743432878611e-02
1.063255112160712001e-01
7.102547415126456154e-02
1.689509269622871401e-02
-1.756872624774074437e-02
-4.774683443344869549e-02
-5.377806151475792579e-02
-1.753800171157336718e-02
1.724478865728656940e-02
2.603629216660153720e-02
3.273762108852094899e-02
3.389106262235885153e-02
8.175291392244382269e-03
-2.078382139463541903e-02
-2.395463661627601423e-02
-1.231168892427822459e-02
-6.727955470768863001e-04
1.021566583067830356e-03
-2.273767154980491437e-02
-6.357955482160872196e-02
-8.952362278608519408e-02
-8.104659319380005944e-02
-4.110425693561969157e-02
6.500753538050044363e-03
2.463801891013298745e-02
4.102496249724720684e-03
-1.750565643924682085e-02
-1.026512994767818723e-02
1.042523366844350444e-02
2.844661291109396722e-02
5.075715391389866438e-02
6.826995006853431303e-02
7.010726957361143596e-02
7.189500395116349418e-02
6.154787767373064850e-02
1.727059470580083467e-02
-1.085965699881672429e-02
1.266997332067858369e-02
1.898084128226451908e-02
-2.991676523385288639e-02
-6.382716075985962745e-02
-4.927961315156967337e-02
-3.473007460568913740e-02
-2.549339835264412962e-02
1.195238163256297399e-02
4.261033765279746005e-02
1.176155358750419558e-02
-4.447650153956787117e-02
-3.919742227761188053e-02
3.243708224374205334e-02
4.269195181371455983e-02
-7.841706207199196366e-02
-1.649846446102362640e-01
-8.127973063313315150e-02
3.805750175319424361e-02
5.731618756949283938e-02
2.965524311925818099e-02
3.296874277045233614e-02
6.868556695554692282e-02
9.367294113348820228e-02
7.293356500500799977e-02
2.564176386656270498e-02
-6.726472338828016692e-03
-1.052802350185174166e-02
4.474066684255205081e-03
9.091699116739924980e-03
-1.586703734151462611e-02
-3.689439694655231861e-02
-2.415699620687891333e-02
-1.232665176570165236e-02
-3.882482746319125544e-02
-8.118062264102622605e-02
-9.559926893031754636e-02
-7.165715072388412210e-02
-2.306846496597307963e-02
3.963514769127818305e-02
9.569257531957643670e-02
1.091073714458549448e-01
7.612552510131154193e-02
4.288207716668290814e-02
3.774353946339136651e-02
3.335283053853301677e-02
5.416341389754456004e-03
-3.251055929038917242e-02
-5.641857809731679052e-02
-5.476776481001413566e-02
-4.946314969774915499e-02
-6.834072669543120315e-02
-7.720077226833438333e-02
-2.708404368805729726e-02
4.650546618960629819e-02
7.106242563487329134e-02
4.349320627160926933e-02
1.983095136627327504e-02
2.439279324621817721e-02
2.214867915206423371e-02
-2.080338769078664621e-03
-1.207308799345584334e-02
5.230761008967564976e-03
2.641149735735942583e-02
3.078856444853254881e-02
2.232155432955310048e-03
-3.661745334000895968e-02
-2.933506535882321464e-02
1.157442456178490314e-02
9.828634525559478904e-03
-4.626592972509555729e-02
-7.772183256803366636e-02
-2.358970105011966648e-02
4.562764723015052398e-02
1.103789859455365542e-02
-2.486285239651350384e-02
1.143867162409563654e-01
2.075128094486638208e-01
-6.868463940249425193e-04
-1.976350227181069008e-01
-1.056241685870559915e-01
6.811384230634855153e-03
-3.091901566543740071e-02
-5.232459918481570382e-02
-1.347757349660377683e-02
4.755451447115692509e-03
1.701381006095802756e-02
4.066512210338060762e-02
1.177909851783420433e-02
-7.286208981442522659e-02
-6.145223977502101836e-02
9.931287821522445658e-02
1.795110883214002251e-01
6.205462196728952357e-02
-5.495502407111937243e-02
-8.350099830298549075e-02
-7.095687522676977221e-02
4.009034110411369145e-02
1.467620436586415944e-01
6.570907075216184112e-02
-4.940362827840826671e-02
-3.254518309493892314e-02
-1.324987188245585652e-02
-5.219337598432034764e-02
-5.558036123696002972e-02
-3.738424752201232465e-02
-4.611516171076770337e-02
-1.873315136270873107e-02
4.128507834610101179e-02
1.630404303213760925e-02
-2.384243813726678873e-02
8.266616064081153126e-02
1.734105324903511547e-01
5.859106121332637029e-02
-6.126747740887582977e-02
-2.713203513902556763e-02
1.204513762568522849e-02
-1.866855509954597203e-02
-5.036285601280679480e-02
-6.950188677095577028e-02
-7.828304080081013860e-02
-6.015235619780028020e-02
-2.817212955861122040e-02
-1.720445762363186082e-02
-5.227956293430869456e-02
-6.293137833108354562e-02
4.870187409870244816e-02
1.658136166901905684e-01
1.180247235025173175e-01
4.667624513126470559e-03
-2.074902941612303056e-02
4.928917216852499172e-03
2.113620733032920557e-02
2.418430026503377503e-02
5.867309106686864444e-04
-2.833206554641167288e-02
-1.410122717246014949e-02
1.687682850992299269e-02
1.599887180849134203e-03
-3.366996646807979970e-02
-2.048320871924217551e-02
1.618328700502496414e-02
1.566697453852431213e-02
1.655180870538469455e-03
1.030515717640530238e-02
1.524435768286019205e-02
-2.162918519829086245e-03
-1.881734025599375928e-02
-1.883774518074175786e-02
-1.759759923230772710e-02
-3.216383943090368736e-02
-5.672167483519138798e-02
-7.488322006573809586e-02
-6.814708365708972704e-02
-3.423863365657106583e-02
6.391929510403917235e-03
5.266353815581378828e-02
1.087307084197799145e-01
1.389676735463067636e-01
1.188503669098828208e-01
7.659357381947472232e-02
3.213020441391573057e-02
-2.080861571967432960e-02
-5.877842825576939934e-02
-5.707823118691177089e-02
-4.233169116492460637e-02
-3.286981361645850003e-02
-1.442969020443295863e-02
-1.012088851088263630e-02
-4.737729537697819848e-02
-8.819404422330068272e-02
-9.650747766324818677e-02
-6.926964787191774997e-02
7.277106912139375515e-03
1.075852742551457186e-01
1.538882616218356647e-01
1.113193454314203301e-01
2.500771326649178783e-02
-2.492315099238875259e-02
-8.523803533027259419e-03
1.611723881347189996e-02
2.641872580375064818e-03
-2.243830802673678002e-02
-4.980874746240655099e-02
-9.340222664735745028e-02
-1.001506322336136179e-01
-3.257993132283891480e-02
3.391534155767840508e-02
3.275993235001470327e-02
-6.580634966946779726e-03
-3.030697582108198354e-02
-1.955003021292524637e-02
8.983763289176651887e-03
1.431927714900169471e-02
-2.959772550976411121e-02
-4.804462245413063798e-02
3.724536704927222663e-02
1.073456830547256935e-01
6.606239068701089123e-02
4.865047098253291041e-02
9.559972293030109813e-02
8.501486163219822145e-02
3.904898246259180111e-02
3.226294625376536357e-02
1.853151176261939176e-02
-1.761045653679383163e-02
-2.923993410248058519e-02
-3.420114071636551345e-02
-5.310784101965188714e-02
-4.037516098051108226e-02
-9.976216366475413808e-03
-3.339553489671433922e-02
-8.361498198188517528e-02
-9.171184029267225035e-02
-6.115892195913991830e-02
-1.626446266209614910e-02
6.510357826660958039e-03
-1.726530975657642256e-02
-2.157361181414533396e-02
1.682874729783618087e-02
7.087304496911620358e-03
-2.168651815170110839e-02
4.565535153049839895e-02
8.605950143780535799e-02
-5.326380399157296108e-02
-1.506455716194301242e-01
-2.111076850534548965e-03
1.596596357117532061e-01
1.272765919746920715e-01
4.268799475154202300e-02
3.804102767514491723e-02
5.895905891717283243e-02
5.506168225122604065e-02
4.715085122025339942e-02
4.645918146802925641e-02
3.502841342503616728e-02
3.661271026780691176e-03
-4.588036601860293051e-02
-1.120399247069460008e-01
-1.630224233253718680e-01
-1.543896583322864613e-01
-1.058027277245360553e-01
-5.875326711601313451e-02
-2.877564447031372846e-03
4.940909718570010711e-02
6.854199201755448168e-02
9.462132328746988841e-02
1.066348336746620329e-01
1.753435800537425648e-02
-7.331516326084529245e-02
-3.128731163656752606e-02
3.457789867666415107e-02
1.820567122677366201e-02
-1.545483601711663234e-02
-2.788528623692827779e-02
-2.838536315921438152e-02
-6.096460037039869162e-03
2.128481836802886829e-02
3.366937812852202616e-02
4.320059803477251104e-02
4.697211039230859281e-02
3.622730271267363134e-02
2.013753782728902250e-02
-1.257004211173078090e-03
-2.309331910453705367e-02
-2.514135916207476534e-02
-7.470431664103245953e-03
7.857578896500959018e-03
-2.458845966310883608e-03
-3.515133293857066604e-02
-4.890256195320491495e-02
-2.960276822208726677e-02
-1.385106260277610239e-02
-1.704221219997643227e-02
-2.885780198898257876e-02
-3.952070506535550198e-02
-1.433807109314762761e-02
4.823916600351331463e-02
8.032382110261000741e-02
6.836292534901546036e-02
5.422227156440104917e-02
2.809558554324874738e-02
-5.652991614800911141e-03
-1.230680954045813499e-02
-2.031225063060966562e-02
-4.687039613393475385e-02
-5.489648894596640266e-02
-5.083466111615093236e-02
-3.829301263251834453e-02
1.273312980122005139e-02
4.430044070953612079e-02
4.820455255675789100e-03
-9.521887118553246793e-03
4.549127274478478172e-02
6.980533232993391124e-02
3.476306396206509108e-02
7.126535061467195731e-03
6.048729519453055307e-03
3.468178017047191496e-03
-1.606054105207274998e-02
-3.017100574185303113e-02
-6.764576080249479380e-03
2.797707584222508537e-02
1.458248033089959948e-02
-4.107698447614432924e-02
-7.983022427437792834e-02
-8.633213457148652958e-02
-8.636684487275064770e-02
-7.832408876284308041e-02
-3.035315346636607153e-02
6.554282483108714308e-02
1.411795079434087219e-01
1.242877868553184384e-01
6.350090333081884197e-02
4.300021057921189771e-02
4.945323499230226683e-02
3.219361468087676009e-02
-1.366508454409764983e-02
-5.520510201230130476e-02
-7.110846637761888966e-02
-7.776754821847541022e-02
-8.121030502096891757e-02
-5.725087760958828126e-02
-8.845762048343660741e-03
2.571506052250847191e-02
3.224477347215570083e-02
3.506489442004662865e-02
4.794614691254788647e-02
4.913298720690796595e-02
1.894181576268701150e-02
-1.813707983849303929e-02
-2.756479021175883837e-02
-2.176497869385947415e-02
-1.498150634736081926e-02
9.039838175850235108e-03
3.052342338607462111e-02
1.593867806203745977e-02
-1.073587851137171138e-02
-1.023071286958182266e-02
1.994640447390346252e-02
4.319737381939293269e-02
1.566445832673442340e-02
-3.935977416312480548e-02
-4.552137041236112291e-02
-2.166459369743571617e-04
2.157415261713209464e-02
1.045768776470837325e-02
1.498385877062052667e-02
9.097301019858042639e-03
-4.281295528471345396e-02
-7.515124413745544185e-02
-4.590530190537384092e-02
-1.353415043085921463e-02
-8.998060306945160694e-03
-1.174216878394992655e-02
-1.442311663403169839e-02
8.893426402322619079e-03
7.421206757057141612e-02
1.105349041834305240e-01
6.461423438823049592e-02
6.762409087041062333e-03
8.169897116831990880e-04
1.478874426773003209e-02
2.003505274272463638e-02
1.012705097884833427e-02
-3.264974599120149673e-02
-7.785047286252594345e-02
-8.991636496349995900e-02
-1.039762731067061519e-01
-8.714342474087750923e-02
4.273478574791189644e-02
1.579181209402893693e-01
9.549973688071911049e-02
-1.769255755192930546e-02
-2.565932942343272447e-02
-4.301342098889188170e-03
-2.597636809258983132e-02
-2.913514988457096069e-02
1.783572310522825097e-03
9.058258617128656792e-03
-1.477442787591880420e-03
7.313231720847527401e-03
2.129048571896379957e-02
2.330043612162396166e-02
1.537307047297105204e-02
4.293746576720441563e-03
1.283391759002305496e-02
2.303069218311210725e-02
-2.651145793167918041e-02
-7.513320123844487164e-02
-3.817214947565619049e-03
7.242347389756123577e-02
-5.033197884511328435e-05
-7.592279830045182976e-02
-2.961958472317159641e-02
1.273313205794816133e-02
-2.524499248509557911e-03
7.078238064856241622e-04
1.748661548133681118e-02
1.501556397345619152e-02
9.988500350599189420e-03
1.406873558512551810e-02
3.013946239434766097e-02
4.403965237167684760e-02
2.134498277861751961e-02
-3.115801425939858024e-02
-6.215715493728075219e-02
-3.973989716505498676e-02
5.016635908476920619e-03
1.801196617632089270e-02
6.505969072159417665e-03
6.785534856995436605e-04
-1.538016346384417365e-02
-2.782303164237116475e-02
1.292242449496478970e-02
4.430560487203490105e-02
-2.692160801520845220e-02
-7.677735043970281004e-02
3.391967796467939417e-02
1.286193871839599601e-01
3.963605672050093953e-02
-8.182229707118245099e-02
-1.042254917521316937e-01
-6.824207394003099780e-02
8.328476517450477887e-03
8.349221672658357907e-02
8.067133296837925016e-02
4.060206810695905777e-02
3.611875131009224804e-02
4.337049780672468796e-02
3.207271571258387549e-02
1.239392460232374357e-02
-2.161962881843417991e-02
-6.160925206245517621e-02
-7.454269360374379816e-02
-7.397643039909906904e-02
-8.648304862425346129e-02
-8.218381205597816153e-02
-3.382370332569645255e-02
2.067803085585304818e-02
2.949313169433206983e-02
-4.451570853162764574e-05
-1.510175892768184612e-02
1.330238578218309424e-02
6.217631336116496987e-02
9.001609223653687930e-02
8.768642351913176480e-02
8.066459610209324171e-02
7.508281957757258207e-02
4.724505754285189540e-02
8.060392098319362625e-04
-3.066128186676778111e-02
-4.679043896146840853e-02
-6.049193479189632350e-02
-5.048678760622177242e-02
-2.601771637819963109e-02
-2.550676330352566815e-02
-2.141341544159646934e-02
1.266215625586156017e-02
2.415238917493932325e-02
-8.121477402743279908e-03
-3.750758190908402151e-02
-4.856479025429141783e-02
-6.108215126622940083e-02
-6.574421792157672528e-02
-3.685100499095714244e-02
-1.458379862065827676e-04
-5.933274488640703087e-04
7.842063867270609306e-03
8.294310611158131619e-02
1.564217742244511655e-01
1.582994640857812163e-01
1.186750292897720271e-01
6.499319681869487886e-02
1.981039790595418709e-02
1.665196797182938795e-02
9.245009801246633491e-03
-6.203685808571324928e-02
-1.519647918221261329e-01
-1.882455911053323439e-01
-1.618216337927328718e-01
-1.074279252763276626e-01
-6.309787695982178868e-02
-3.148076789699406908e-02
9.925083902164934246e-03
4.725287820745723011e-02
5.428631172022044954e-02
5.737434716755188124e-02
7.110667685881746913e-02
5.395137159916374436e-02
1.933681309301182177e-02
3.087266676436631677e-02
5.420610261655026824e-02
2.183333206383532288e-02
-1.991661889075011654e-02
-1.818758874818338783e-02
1.840884720196530114e-03
3.243458150815802660e-02
6.785712164222322540e-02
7.063465504811565487e-02
3.807206104137885599e-02
-9.916500401950537058e-03
-4.365065772742606626e-02
-2.371700757537421878e-02
1.585857545135413091e-02
2.738312318012083371e-03
-4.829044866842329559e-02
-8.500019887428748866e-02
-1.157972822706916372e-01
-1.420351897428999699e-01
-9.882175766879798540e-02
1.748195723989375699e-02
8.815311467933016620e-02
5.980146170541864037e-02
2.701185863226425801e-02
6.512781934130401629e-02
1.364378211127917351e-01
1.280857943186264891e-01
-4.608555437804130045e-03
-9.654346766927887624e-02
-2.752501305004220744e-02
3.397859103229734085e-02
-3.297188564612191924e-02
-9.403515590800286261e-02
-6.259790958178293452e-02
-1.413585817075512646e-02
7.003731925484485074e-03
2.718479423593348626e-02
3.651775776309312826e-02
3.309204745155223601e-03
-3.442881160497456711e-02
-1.543648379533321333e-02
2.702647217962991441e-02
3.734051259560453723e-02
5.443963293906151080e-02
6.386802521174569924e-02
-2.385424275286214882e-02
-1.067879800827737369e-01
-4.695846440071690941e-02
2.596571346379684952e-02
5.045121759525907079e-03
-7.993342229919386116e-03
1.653637909574189047e-02
1.911708762414728383e-02
1.245855359462424809e-02
1.016359599563950930e-02
-1.317692858105198091e-03
1.679485189982386686e-03
1.943796235536418560e-02
2.511684848191603897e-02
3.459355697522079748e-02
3.511340361219311007e-02
-1.260047429989475352e-02
-6.034956665395674325e-02
-5.874862545408515713e-02
-4.812377135116054777e-02
-4.411146075982207149e-02
-1.507856341000030943e-02
1.777606201931757751e-02
1.965817056739130320e-02
1.649607970172764157e-02
2.834922733121265914e-02
3.485411134689619939e-02
2.918382159310526150e-02
1.735848397008363936e-02
7.292313737667194609e-03
6.833652854778219515e-03
1.310286406523003544e-03
-1.754187949355297607e-02
-3.215874236116256224e-02
-3.076025926049580361e-02
-8.600360709849388940e-03
2.034384051493421872e-02
1.187819108001853148e-02
-4.307858862077725004e-02
-9.160293825671705914e-02
-8.997465493337473974e-02
-4.826132033180394881e-02
1.930102981545186221e-03
5.476062453266391378e-02
1.086716471554043661e-01
1.250303077689798592e-01
8.749618720724981757e-02
4.619881131582526113e-02
3.557770540170435147e-02
2.884537413818194507e-02
7.646421025822754125e-05
-3.688957701708700521e-02
-5.593045681868921704e-02
-5.313548852906367637e-02
-4.901518203380005045e-02
-5.583735006728553218e-02
-5.345501356954781430e-02
-2.230979358331892232e-02
2.030818871961383512e-02
5.332117295450741062e-02
6.707128306464975320e-02
3.936427066943380682e-02
-9.643289387964045639e-03
-1.397750597398634068e-02
1.057191794701568821e-02
-7.221541571727016148e-03
-4.766963675792980359e-02
-4.757833411757918241e-02
-1.864874272657732202e-02
-8.049766481996616097e-03
-9.026802535717005915e-03
7.547848446466543654e-03
5.295760077233408088e-03
-4.821918484218491729e-02
-7.985569104081108316e-02
-5.554080790990371247e-02
-5.538306933255499748e-02
-4.136687089265961292e-02
8.962407331381953834e-02
1.882699607731502800e-01
1.019531790755442147e-01
2.183248380373059919e-03
8.755018264075056789e-04
-3.042156952033480549e-02
-5.153277392004690372e-02
6.473501124364124115e-02
1.612966928931719723e-01
9.704659806719323489e-02
-1.804229785585556231e-02
-1.088061812167533393e-01
-1.250124360283736413e-01
-2.929790664089224408e-02
3.537066307469140247e-02
8.102156826719933078e-03
4.961929639533188031e-03
3.149519670256875625e-02
4.314801953376568022e-02
5.585180790631434633e-02
3.191739931236829697e-02
-2.300235596662323842e-02
-2.537921269145730283e-03
3.628779946322802097e-02
-5.840628821680776683e-02
-1.635297838992977593e-01
-1.102858958889435942e-01
-4.076567831890028776e-02
-7.524447715872491227e-02
-9.667435169106104731e-02
-4.960791917176192445e-02
2.338616059171499256e-03
4.150498956395230754e-02
7.748113514527310564e-02
1.014529136016165539e-01
1.016565028437362989e-01
7.311398517113287809e-02
4.440814582871049215e-02
4.081677382777783303e-02
2.637730208828441281e-02
-1.171366861136540968e-02
-2.104142178511191758e-02
-5.570881712464312990e-03
-1.883985768549776771e-02
-4.160233035672454560e-02
-2.966596506399053063e-02
1.179388901087277675e-03
2.651305986933357589e-02
4.307797063463606607e-02
3.689545816132448752e-02
-4.587042751785178757e-05
-4.304629134079346331e-02
-6.971723667403169344e-02
-8.167620426035970826e-02
-7.631239102115938699e-02
-6.053176676237990994e-02
-4.193941138882122804e-02
1.373182624823886255e-02
7.330612490790140712e-02
2.273246253382459753e-02
-6.074618259030427347e-02
1.344872947247132723e-02
1.322974981801344485e-01
8.831492906346297134e-02
1.727800795456597982e-02
5.514649716752671044e-02
3.006859893982157667e-02
-7.866473622468141136e-02
-4.116011693847038133e-02
9.000432341746252007e-02
8.166931764335375044e-02
-1.846369565877263932e-03
-1.748602732415130770e-02
-1.537786675160841658e-02
-3.780972356975590559e-02
-4.683387753547953863e-02
-2.795481043056294301e-02
-2.853545226486992655e-03
-9.915766679675181924e-05
-1.420498455244356695e-02
-1.481574656700446538e-02
-5.309374480166989888e-03
-6.800786477994420591e-03
-7.664968238946513052e-03
2.061254887316875048e-02
5.988885832492981537e-02
4.127380024194922392e-02
-2.951126866337838717e-02
-5.163138656610582328e-02
-1.475944122353265581e-02
-1.064202944361539345e-02
-4.739412396612482925e-02
-5.444488724687441411e-02
-2.261458863462284183e-02
2.457533897772456663e-04
-8.562646328845796226e-03
-3.925284680100418061e-02
-6.387008150076184387e-02
-4.673739924282981073e-02
6.663716884354298209e-03
5.542420193934763373e-02
8.276476118043982200e-02
7.999682921995689144e-02
4.598892878262698242e-02
1.902720663380742111e-02
1.324037598241908399e-02
2.870542861885086103e-02
9.691289765924453181e-02
1.548612608511489019e-01
9.243229127300860160e-02
-1.814658087943492662e-02
-4.253888231470646236e-02
-4.846477886265850021e-02
-1.455116919973179768e-01
-2.075797555380093362e-01
-1.058166475352590175e-01
1.302278167666735299e-02
1.964961859955641904e-02
1.927542638856475504e-03
1.358519682557595906e-02
6.473741786844042917e-03
-2.173382188871748888e-02
-4.107203865553520766e-02
-5.178970165920802199e-02
-4.688935460787808235e-02
-2.523031864403186414e-04
7.040591718674603372e-02
1.103550367800162357e-01
1.086994948581843506e-01
1.026626124839318255e-01
1.258551390716118878e-01
1.676651466000780022e-01
1.607697378804666954e-01
6.970897426289997256e-02
-4.155899281926647010e-02
-1.107827816850245617e-01
-1.419469212513142231e-01
-1.442289396446107819e-01
-1.283468260467337252e-01
-1.228837894565118771e-01
-1.332449101192372254e-01
-1.374298347794294661e-01
-1.089289334145054078e-01
-5.814081394013512205e-02
-4.442705879621781928e-02
-2.878722735263187366e-02
9.697435663654574434e-02
2.145621994158834756e-01
1.450325239933503152e-01
2.175772730658528942e-02
8.904401332437224606e-03
2.524784629640707684e-02
2.319010057160054983e-02
5.552684795518995908e-02
7.499230814458943128e-02
3.524388433790268810e-02
6.407321123632335816e-03
1.222209100698325168e-02
1.449404730992635837e-03
2.129163637237852652e-03
5.594127714772705040e-02
8.900922530993411741e-02
3.684733626685898072e-02
-5.049263861048641083e-02
-1.081005898920514852e-01
-1.203600904700469904e-01
-9.997199899414367652e-02
-5.400945607819723077e-02
2.034917676269327666e-02
4.528893631752500815e-02
-5.325674480593388382e-02
-1.332974215898071468e-01
-5.616466290749558277e-02
5.671856197990157722e-02
8.549723706898976205e-02
7.353909393101348835e-02
5.662123887766185026e-02
2.081351926505488337e-02
-2.594719333911181883e-02
-4.234508271433139182e-02
-1.815533210810908044e-02
1.291104055416920568e-03
1.312467450873364659e-02
3.975122793503604868e-02
4.101014607182515426e-02
1.283518536189581782e-02
7.380880362367939727e-03
4.086075056701027330e-03
-2.604650343377398758e-02
-3.274107593518488929e-02
-1.036511719919967767e-04
2.119336962393579549e-02
2.400583400417386631e-02
3.284735259606938462e-02
2.493914330255815257e-02
-1.349388101101104374e-02
-3.832514418309453802e-02
-2.785661272948149192e-02
-8.550343629228907005e-03
2.745423217126422184e-04
-2.482796999999996659e-03
-4.713032077781773889e-03
-2.239087448964913706e-04
-7.369596547680245732e-03
-4.397329037192198274e-03
4.638622791740141388e-02
4.654040891360786830e-02
-8.891201991737950061e-02
-1.753458459802774427e-01
-5.787968071018085442e-02
7.348565156303667190e-02
3.566147585142576820e-02
-3.091408840433094996e-02
5.819661240602371638e-02
1.939349791374496701e-01
1.352031877819089289e-01
-8.282756661610782278e-02
-1.756494017209032921e-01
-5.784908561254417658e-02
5.940881945363401390e-02
5.349675605369219600e-02
1.453699779095992024e-02
4.573589091641704074e-03
-1.256262736787857465e-03
-1.430676520599472035e-02
-2.717305155739132769e-02
-3.306287898818099230e-02
-2.743528878077529723e-02
-1.301417288547596432e-02
1.176266072596031734e-02
1.135758901239156127e-02
-7.238750519037191744e-02
-1.301204235939902032e-01
-2.210194242236829948e-03
1.575115718660317354e-01
1.413667593907376452e-01
7.310902725061019236e-02
8.053895467202837333e-02
7.541494829975328718e-02
3.854925603717192228e-02
5.013724554659734073e-02
4.913572799501117472e-02
-7.029272307965811484e-02
-1.823726403104749538e-01
-1.338752756857007065e-01
-4.943433670621870391e-02
-6.242448642373490952e-02
-9.119817905117866275e-02
-6.140521327661858930e-02
-4.891961570996289539e-03
4.134288791979426336e-02
6.790832815050147631e-02
5.559416794372237791e-02
-2.128802256063428572e-02
-7.009918513265119000e-02
2.735200807198151160e-02
1.227789104449136248e-01
3.963610287043026897e-02
-7.408582757326460932e-02
-5.838132157099577835e-02
2.051361043214196267e-02
6.092397944975647128e-02
2.041830940549584084e-02
-1.582593189207331594e-02
6.873051774524976953e-02
1.371212191629547772e-01
3.193259586527289612e-02
-9.203739353183805483e-02
-9.600698147884118017e-02
-6.042990943282260108e-02
-2.302021113147799045e-02
8.407396215187460872e-03
-3.553791086300798346e-02
-7.252656039218337292e-02
3.337636315341285104e-02
1.270271904259862028e-01
4.443681305928721265e-02
-3.269167204681389105e-02
7.884344923552451256e-03
-3.055752411821692320e-03
-5.733351081660442022e-02
1.458395650645185303e-02
1.092700986198529567e-01
5.675180260040411234e-02
-3.966793567593366460e-02
-6.634501707419798722e-02
-6.261030204220499606e-02
-3.274899566690766400e-02
4.074477666543446092e-02
1.005159668901860620e-01
9.347194833937931546e-02
4.061147344420495270e-02
-9.658234664074585168e-03
-4.915572076865081658e-02
-8.161671646148815906e-02
-7.149010874395089754e-02
-2.200228120230050821e-02
-9.355885507622419342e-03
-4.343291057478640416e-02
-5.827697683212062357e-02
-4.858224553983946786e-02
-3.571121033571615644e-02
-1.142009237834495407e-03
4.573178511656660061e-02
6.438769292786689080e-02
5.105917506508877990e-02
4.789960278346783867e-02
8.138885550711794092e-02
9.241151828934010548e-02
2.138829980898136057e-02
-7.051548802789496528e-02
-1.082093563662216151e-01
-1.011827840927294053e-01
-6.435508632797491690e-02
-1.298351058412074502e-02
7.215108544507979095e-03
-6.642396879307951169e-03
-1.119136919378314887e-02
7.896639772651370404e-03
3.905637260337371797e-02
6.431113541517012588e-02
5.794390778269518927e-02
2.773538330385132492e-02
1.761849270732882347e-02
3.871441921476430348e-02
5.171945736849407893e-02
5.587106800647026472e-02
1.005914801682555176e-01
1.083634550532139446e-01
-5.199249387935743483e-02
-2.288275314035136954e-01
-1.829153861087862709e-01
-1.422967373174045813e-02
6.543198002718861317e-02
7.258792591800192207e-02
8.949762848511601254e-02
8.450906689930490212e-02
3.879866975102963522e-02
1.634868048656019229e-02
-1.087572543325016766e-02
-1.191359300987618053e-01
-1.941607598428956305e-01
-1.255939208864444434e-01
-3.507637179859386667e-02
-2.566449048181008996e-02
-5.282382795053451596e-02
-6.971136506595701499e-02
-5.435160086584336220e-02
-1.308628802355875191e-02
1.536158326757344067e-02
3.400117324394807961e-02
6.392563936154804782e-02
7.851461060079714671e-02
7.326733396903681306e-02
9.275148333475595475e-02
1.178376803435902814e-01
8.905928828823403420e-02
4.636027327234092804e-02
5.268423869662849229e-02
6.855282887078538445e-02
5.146351485339516890e-02
2.280281436169326326e-02
7.508698830723050527e-03
1.907417472370987951e-02
3.031373040714586270e-02
-2.274901194548574479e-02
-1.235512319239180090e-01
-1.829002278971787188e-01
-1.873001053919609860e-01
-1.815233816086367358e-01
-1.467354226465359956e-01
-5.223954652853672609e-02
4.346206974630802133e-02
7.181020797593141991e-02
6.157300727622704722e-02
7.295013806965738867e-02
9.468609746114342585e-02
8.449597650855812658e-02
4.803049069589848674e-02
1.554637478512906415e-02
-9.794973307619168207e-03
-3.724409484224111555e-02
-5.302512089775467813e-02
-5.454448611427598070e-02
-6.887548538851545610e-02
-4.039497965407998908e-02
1.027306437273801804e-01
2.098223422385163683e-01
1.303649957850670504e-01
1.328605250387193681e-02
-2.991859645055876260e-03
1.043638971525714942e-02
7.426624993403986401e-03
4.106834451301224001e-03
-6.468037364310428444e-03
-2.043336149632968279e-02
-3.038550314087330728e-02
-4.022981214482319878e-02
-4.811490249539263075e-02
-5.763447542329894202e-02
-7.016931826965459862e-02
-7.315353472088774456e-02
-6.104967375914199801e-02
-3.653949677529849671e-02
3.131435892876807334e-03
4.420298686721811643e-02
5.122600410813397953e-02
3.912197216465268523e-02
5.401946602056707097e-02
3.137231291864155808e-02
-8.482090539996359202e-02
-1.551498441265359018e-01
-9.793782448900689719e-02
-1.539379947039189699e-03
1.051892740353472799e-01
1.545693314858661016e-01
6.180566704303488978e-02
-3.458683548686358050e-02
-4.427441426247233358e-02
-3.868285224512191950e-02
2.177666005809501121e-02
1.192264786353520317e-01
1.071214286549760364e-01
2.667381191042166727e-02
1.278139960466904979e-03
3.658675315212980839e-04
-2.343284835375497588e-02
-4.511651045722725462e-02
-4.485686544405158294e-02
-2.791908157753002218e-02
-1.030249167492139004e-02
-1.008472869603710756e-02
-2.379457509848843105e-02
-2.993486107421784725e-02
-2.823338686258337199e-02
-2.829583264096286604e-02
-1.487349339885494191e-02
1.497955745512076844e-02
3.453417762452984374e-02
3.937398862854542270e-02
4.821339640231066259e-02
5.725651382793050387e-02
4.745230526670789206e-02
2.720625428551511071e-02
2.108696630169110478e-02
2.334563633394760168e-02
4.364305395701690779e-03
-4.767618696958398489e-02
-7.823812137196853311e-02
-2.097059127575563731e-02
2.104792243623072184e-02
-7.880506548498814046e-02
-1.501509620148662461e-01
-3.727495774691465258e-02
6.421687377454830814e-02
3.150755064597671185e-02
9.997014620101888488e-03
3.748091703148467846e-02
3.100802807994984187e-02
1.217206546992705835e-02
2.042600137076795719e-02
3.700158171177053701e-02
6.851079995490237662e-02
7.053203392605633670e-02
-4.845267628252832720e-02
-1.681391145214096716e-01
-1.006972879793574110e-01
2.830572111382649927e-02
2.639025551577176693e-02
-2.593875714863025719e-02
-1.304205928655220378e-02
1.652897475645831796e-02
8.692155877256439386e-03
-5.855256451884329090e-03
-1.150441336521142426e-03
3.777744251336083003e-03
3.348428673294273714e-03
1.203242418436500927e-02
3.216049484544905839e-03
-4.085410036275841789e-02
-4.794275869044611893e-02
-7.162218219386609283e-03
-2.565512665215632579e-02
-4.718842664024723577e-02
7.105284319501893597e-02
1.824784438015378540e-01
1.113718032839415284e-01
1.159737292264102770e-02
2.768869814435036616e-02
6.268876391445327156e-02
3.879448282134057707e-02
-1.172909284967575336e-03
-1.724758481962888890e-02
-1.752773597406093523e-02
-2.785339918693793826e-02
-4.652115384333114362e-02
-4.527845909335324187e-02
-2.712720207897175925e-02
-2.289690346148923195e-02
-3.092119851613194664e-02
-3.211660412562570427e-02
-4.192712761016473277e-02
-6.744295057978259844e-02
-6.327016067915149089e-02
-8.091520368906948008e-03
7.606158749139702024e-02
1.707377196483833015e-01
1.729192693001199155e-01
-4.280061238646153121e-03
-1.599225492038089391e-01
-1.005221883971057217e-01
-1.990712591565978878e-03
-1.754008134208501213e-02
-3.972233596088974028e-02
-3.568546475503125287e-02
-6.558627616713104402e-02
-7.892182967413055583e-02
-2.920005688590200654e-02
3.089183763065625823e-02
6.853641271203117502e-02
9.659769083554220481e-02
1.104694524716750698e-01
1.019662448811845673e-01
6.918659993587046586e-02
8.062412170152933114e-03
-5.811784802107743120e-02
-9.897299275087434456e-02
-1.096005210267850943e-01
-7.125926411413296968e-02
1.965781791364762734e-02
8.239945406126560068e-02
5.227017123151185551e-02
-1.849605602032360421e-03
8.892840079689183150e-03
4.818184035594474945e-02
4.829075454763906428e-02
2.267154322141771289e-02
-1.630901052794515513e-02
-6.173124946600538898e-02
-4.907106766452125346e-02
1.741052258144893880e-02
4.775668698965458703e-02
3.372515190237300453e-02
4.798144080471167770e-03
-5.402158125055838561e-02
-1.046741299844503453e-01
-8.887060333179341853e-02
-4.387265500490512837e-02
-1.946657536186046158e-02
4.010995635974099610e-03
4.422082482825857863e-02
8.821781402110936976e-02
1.065769169547471917e-01
5.234642172064675469e-02
-4.995783991013867664e-02
-8.387441169411175013e-02
-6.575566734031840221e-03
9.140022560203620028e-02
1.234883317944402842e-01
9.271470207084173132e-02
2.685736163794199063e-02
-5.697235547036152981e-02
-9.649622400967304559e-02
-6.607630671931789823e-02
-5.580848495742594950e-02
-8.209568503871793321e-02
-5.692424286532992567e-02
-1.072089630979371905e-02
-1.744800724126673377e-02
-3.340627436334667189e-02
-2.620590849878861109e-02
-1.948465527865786417e-02
-4.324693507021078881e-03
1.929465428435395841e-02
3.166644957188567699e-02
4.626765199133932305e-02
7.075155651619323416e-02
8.020454388600911644e-02
6.746805538608538488e-02
5.936746126147685737e-02
6.639091926372107932e-02
5.821010919897797592e-02
2.188748430774311096e-02
-1.440482617158016579e-02
-4.564258307674664422e-02
-8.120753968231879394e-02
-8.374012279056947117e-02
-3.928788374020381058e-02
-9.038083904071667063e-03
-1.221620474288179214e-02
-9.576950712183106632e-03
-1.197958961925843849e-02
-3.022913516089481209e-02
-2.073729580251457497e-02
1.410232701104014580e-02
2.808305131243662989e-02
2.468593684445711395e-02
2.761647374373282088e-02
2.566537211830514920e-02
4.656032351513270801e-03
-2.127198149783523715e-02
-3.746728150545027003e-02
-4.785131947240487543e-02
-4.847326292071897635e-02
-3.232148308974761020e-02
-3.806022233321097736e-02
-9.898619181032755621e-02
-1.080928677801096527e-01
3.695370111291516879e-02
1.681045371806509925e-01
1.186544143231564735e-01
3.196885240513350906e-02
3.956875473132460269e-02
6.877199380156726050e-02
4.865437284755984998e-02
-2.067503847611469256e-02
-3.284034753388868216e-02
9.789321066895782797e-02
1.782363798664239607e-01
5.267745057562284172e-02
-8.748071100806235900e-02
-1.143262963293440737e-01
-1.176445908677149627e-01
-1.024721168771022123e-01
-3.909077204011465745e-02
8.805468315696837051e-03
8.591721624454090947e-03
-7.181204285433544915e-03
-8.652551301012455925e-03
9.085351793515250227e-03
2.280612029718225020e-02
1.957373067322308591e-02
2.052867354232541797e-02
2.533045384187706736e-02
-2.424480063877021419e-04
-5.883847195037525402e-02
-1.098118440485518210e-01
-1.181002939452159561e-01
-7.837156181026207202e-02
-4.556231151104492630e-03
7.541329090815787617e-02
1.176623221174533662e-01
1.280165534510620540e-01
1.615760907093595766e-01
1.486953635080234537e-01
-6.843916335638102616e-04
-1.130094007700271214e-01
-3.877115881407960929e-02
4.104642694199884395e-02
-9.324052934358707800e-03
-8.326110683937856805e-02
-1.105862757510802513e-01
-1.093609112987961596e-01
-7.780417742106242318e-02
-1.961246159433855871e-02
3.248314503173292678e-02
4.348499610416818595e-02
1.828896182396463552e-02
6.198746917893838831e-04
7.593670214697537807e-03
2.361006740218605376e-02
3.517623493995297029e-02
2.994814463965326731e-02
2.852006912965730431e-02
6.548118952621295730e-02
8.502672208076253457e-02
1.629067691754661554e-02
-6.221459063253979155e-02
-5.345592001877631089e-02
-1.956977226723554189e-02
-2.812501329463645838e-02
-2.910541963622633246e-02
7.170405079768960889e-03
3.510418059600639573e-02
2.326570475568476987e-02
1.516217837051505625e-03
1.203567030868416682e-02
1.897838319862634945e-02
-2.469875939179917018e-02
-5.803191417865678770e-02
-3.018111611403045957e-02
-1.127895436414104360e-03
-1.356726637535050559e-02
-3.455665228626155633e-02
-3.669642106844342444e-02
-2.381936066230403923e-02
7.047856268401457222e-03
5.719398157470920174e-02
7.273931057891391827e-02
1.959553354157454741e-02
-1.629145040153749668e-02
1.805270241408127307e-02
4.665667446525515599e-02
4.499634496275604911e-02
4.843663588539759424e-02
2.103861029855621373e-02
-3.486203870606010419e-02
-4.143731565227670721e-02
-2.075124280154655443e-02
-3.069810163869329464e-02
-2.430522842606177431e-02
3.364364944949707788e-03
-2.171147974139789327e-02
-7.360850695615925310e-02
-7.333807915787410314e-02
-3.535022493218160228e-02
-2.519667705061018857e-03
3.047243791874893262e-02
6.158875297356741080e-02
7.186358718315524752e-02
6.829007153897745375e-02
5.257140345673416010e-02
2.215994034736786314e-02
7.505214107747838065e-03
1.098573773312471608e-02
3.757731714507129943e-03
-5.800620852668092638e-03
-2.217657703267488997e-02
-6.292636601071036062e-02
-8.569941887455809204e-02
-6.402001902568685288e-02
-2.978977777380280301e-02
-3.608662208042665888e-03
-7.313789186316269064e-04
-1.421474584012481952e-02
-6.221408138788679654e-03
-3.648725640565225227e-03
-3.604276538252121354e-02
-2.941742867737207751e-02
1.854437635580769017e-02
-4.048032713708871536e-03
-2.840149761151090566e-02
9.645436139457201630e-02
2.118140702194355740e-01
1.225227543867058733e-01
-8.671740587522494895e-03
-1.618181141479424837e-02
7.935757396882466008e-03
-4.464597223963101373e-03
-1.847938794566285348e-02
-3.528478587408230560e-02
-5.268244144845803112e-02
-3.738255445746910266e-02
-6.420046573970274520e-03
