-7.313679172090904734e-02
-8.888397433356741428e-02
-5.923449659184009536e-02
-1.815187931411177055e-02
-5.283448980045205197e-03
2.008954151839414601e-04
2.449671343623709488e-02
4.710854027370330044e-02
3.618561488593880632e-02
5.667386168534632382e-03
-6.151694292867773521e-03
-2.598822361434867043e-03
-1.552180566017981669e-02
-3.497132181905236725e-02
-1.922495817144483435e-02
1.382815614543359169e-02
5.633118985257948470e-03
-1.101556629397060748e-02
3.422339587078414985e-02
7.909630706482607965e-02
4.353649129280767055e-02
-5.577687775373645074e-04
8.371022407976836874e-03
1.936249922785631544e-02
1.159526215025604226e-02
-7.346604300256772205e-03
-5.733356192113141930e-02
-1.136136477720798982e-01
-1.271483355812624838e-01
-9.589045231581470874e-02
-3.577789020586394364e-02
3.735041850404385855e-02
8.968346735817359083e-02
9.482292930087680982e-02
7.614691554593192024e-02
7.560633727877300037e-02
7.635499065239985395e-02
4.485056238769356829e-02
1.103897648623081845e-02
-2.777614807540813163e-03
-2.264454055713100225e-02
-4.621947452139867074e-02
-5.834094690297700336e-02
-7.547134280785010307e-02
-8.956219922224470387e-02
-6.473167089663768581e-02
-7.021215170751108486e-03
4.639923348048466401e-02
6.924468505140357610e-02
4.940682228603993087e-02
1.076072207054173252e-02
-3.448198114964696375e-04
1.485274002074322974e-02
1.854856021042012096e-02
1.080019100133089438e-02
-8.398024057196980252e-03
-7.619352241769697387e-02
-1.188694105026884273e-01
-1.591107040905043526e-02
9.414114887710903212e-02
3.535482370065728963e-02
-4.319330701000927142e-02
-1.039111428237957276e-02
1.572881979107748282e-02
8.362930443878374351e-03
4.024818697296497771e-02
5.107942947962387792e-02
8.089219035194787980e-03
5.810266309439839766e-03
3.338321935945404856e-02
-1.249349609935622267e-02
-7.415898889693292584e-02
-3.480020547435423717e-02
3.151661713792574399e-02
2.290962826684920031e-02
7.965720788154525070e-03
3.677206591758189203e-02
4.300146459457523940e-02
2.161971234274357237e-02
2.536038494607045432e-02
4.023158056563685275e-02
4.330584400534202155e-02
3.071838886231957610e-02
-1.037867159719055646e-02
-4.083588566887751126e-02
-6.457451171334267770e-02
-1.597997119735913296e-01
-2.232537186891853376e-01
-1.104186125660470141e-01
2.875445359764926267e-02
3.857542712663969420e-02
1.341274534590904816e-02
2.990573394632843954e-02
5.200789684465445539e-02
5.160068075698751033e-02
2.033484605387816252e-02
2.147067619259704699e-02
1.085873428489348841e-01
1.301983620206659531e-01
-1.375731364418221817e-02
-1.187585591754800468e-01
-6.136553873776437462e-02
1.092690435389256053e-02
1.829669185351825295e-02
1.838512557649456952e-02
2.920512334740835853e-02
2.569573447998121929e-02
1.421673769817876796e-03
-1.023594189546167196e-02
1.930649895224905918e-02
4.819817382174856890e-02
2.847845955307070492e-02
-1.078182159538697629e-02
-2.906132906676710953e-02
-4.269256900351681150e-02
-5.901341532258027461e-02
-4.012471357534435484e-02
-2.147614337476125117e-03
-5.595880606965121518e-03
-1.994399453357432669e-02
1.161042428187154286e-02
4.466627744017453300e-02
2.905459891799527100e-02
-4.706961155766210651e-03
-1.993072363436227540e-02
-1.874105456234701969e-02
-1.440418206358198318e-02
-1.751737537933785796e-02
-2.163611389931257428e-02
-8.308261295899842551e-04
3.607717830603236753e-02
4.364649404917288894e-02
2.187077922212970343e-02
1.198373255954260537e-02
1.954018552267833969e-02
2.311813332478340755e-02
2.943271578348276643e-02
5.182433444518023957e-02
5.967774439972387684e-02
2.256247546583313446e-02
-1.819721709102906787e-02
-2.469912421151599161e-02
-7.343070001006703207e-02
-2.028966378317294816e-01
-2.451356483098336703e-01
-9.492694694139150458e-02
7.498327134320831311e-02
1.120911799328040970e-01
7.897894015287001968e-02
6.660418352990177260e-02
7.179065718077817793e-02
6.305335916099825966e-02
4.659470375137775289e-02
2.993377501296427476e-02
-5.671286353575622115e-03
-3.998027771371417960e-02
-4.014052128079048654e-02
-4.500009763516073930e-02
-7.432345136195521451e-02
-7.081775717679775206e-02
-2.548864687559257089e-02
1.993767328110698789e-02
6.018425351395828571e-02
7.697003367327452661e-02
4.312149623555883854e-02
1.065812961484711822e-02
3.637371651237347042e-02
6.835987387193429021e-02
3.745654284385910998e-02
-2.458643838845126287e-02
-5.941423016876488938e-02
-6.383125719035988299e-02
-4.566152505093905994e-02
-1.842444683652606080e-02
-1.464877900720733435e-02
-2.802991229900712866e-02
-2.357173140094442898e-02
7.031360113600934603e-04
3.181427545673772006e-02
6.256747129665243823e-02
7.320795540391901446e-02
4.860194939186909119e-02
9.574740220939636365e-03
-1.509356607936339703e-02
-3.112930737846000828e-02
-4.436412439588498235e-02
-4.110141236813855126e-02
-3.042795988178816774e-02
-1.662486871435372646e-02
1.695143223197953172e-02
4.330675988892684902e-02
2.842898663711843077e-02
7.925966136428565928e-03
1.725412149777702520e-02
2.676433126130584039e-02
2.314251497639567903e-02
2.987100337531382530e-02
1.342408204183806464e-02
-6.037418404373311176e-02
-1.236576740728384249e-01
-1.227690911513404232e-01
-9.525905333792139551e-02
-5.409460926489557259e-02
1.153947915740534055e-02
5.638824390676362708e-02
5.867325035270156558e-02
6.162129529516062465e-02
7.945876772668832022e-02
8.441894531248508859e-02
6.505011529596858855e-02
3.950367024529494175e-02
2.099314520950281565e-02
-1.155148186087640895e-02
-5.696879869256651907e-02
-7.226050374343558069e-02
-6.667954764227593256e-02
-7.666292817762501710e-02
-6.844985560822484938e-02
-8.696130268193722271e-04
9.087413000889701942e-02
1.242064430766040284e-01
6.903217542294974585e-02
1.734592125436901222e-02
5.260822847367440519e-02
1.039722528903885002e-01
6.634450742248176880e-02
-4.056730816935796846e-02
-1.191094351231073850e-01
-1.332760654304884218e-01
-1.324689939335046140e-01
-1.285126533687859784e-01
-8.173249409110598662e-02
-1.431289347410455437e-02
2.861796571070684622e-02
5.272994868930824808e-02
6.714733840804691656e-02
7.683989246228351000e-02
7.844339163241845214e-02
4.902021707963564318e-02
1.719733201407189910e-02
2.718573297408730105e-02
4.644492947720614551e-02
3.678836782465819827e-02
1.626662616913352073e-03
-5.143865765075338048e-02
-9.470388201971388642e-02
-9.718899335941946771e-02
-6.506252984368361691e-02
-2.122211210675879409e-02
2.028219326096356023e-02
6.740833635565376958e-02
1.181162426303629248e-01
1.193186739391985940e-01
5.389035593360476384e-02
-1.339867696016670134e-02
-6.961781206098160979e-02
-1.494707955752428152e-01
-1.926377879040921115e-01
-1.403991898983342757e-01
-5.835285885622173985e-02
4.094135868046000146e-03
6.900127935555490366e-02
1.229321150082191699e-01
1.335639606132026924e-01
1.056286526820088417e-01
7.088536988874560851e-02
6.434738206291716611e-02
7.933164561249270164e-02
7.320521535638670196e-02
2.977716639767148676e-02
-2.877663252667839872e-02
-7.237177602230462914e-02
-9.580685472386377133e-02
-1.109939257719259609e-01
-1.008595956866302906e-01
-5.317005755924694710e-02
-7.599749685658724503e-03
3.892595438964878765e-03
-7.997969133233891539e-03
-1.542027302554788842e-02
1.047347657387953136e-02
5.608504718783186016e-02
6.965693592275559731e-02
4.134109108040481817e-02
4.803653082583510085e-03
-1.985284667019002885e-02
-3.379373085966946161e-02
-3.645112021956753434e-02
-3.883094433714098619e-03
6.323221879172016835e-02
8.238668925012508637e-02
8.713987017172195385e-03
-6.458480430282183271e-02
-5.978288382901469911e-02
-2.037635283719182316e-02
2.580712411994656903e-03
1.188880735929235752e-02
2.151656731523482816e-02
3.330693556983006093e-02
1.255428029672143488e-02
-6.580750970922157050e-02
-1.184848580432022874e-01
-5.240603771689274215e-02
5.970304838022105071e-02
8.526899221539578633e-02
4.823071559367884953e-02
5.580953093806030607e-02
8.766441221788219551e-02
5.986626917163726663e-02
1.078023557075028253e-03
-4.499776119271432090e-02
-1.176402063134930759e-01
-1.635626984840387599e-01
-7.654135137292113200e-02
2.259916472763313922e-02
-1.845140868416465102e-02
-6.663625676357885774e-02
6.361122216381707994e-04
5.436469653161061372e-02
1.696535013477235704e-02
4.906284005918460506e-03
7.883074380895925548e-02
1.442746207377202938e-01
1.261783844926541720e-01
5.872039316259193564e-02
7.865083337998304835e-03
-3.929203352912982727e-03
-1.913067597054103966e-02
-7.459637536115798495e-02
-1.097716430417847722e-01
-7.030081144993122200e-02
-2.852565024979563865e-02
-2.851008542509746863e-02
9.916252230436800250e-03
1.046451467712951749e-01
1.526966267379640807e-01
1.061712709292603057e-01
3.749613092712437978e-02
1.132438825019174873e-02
-3.640251784708635474e-03
-5.181932751189777947e-02
-1.108605232538806412e-01
-1.535399646326667811e-01
-1.871881684911756161e-01
-2.036802487204938950e-01
-1.864902708824533739e-01
-1.386744674803690180e-01
-5.608564965137680797e-02
5.736915177250310333e-02
1.595106404850681336e-01
2.233502775413094277e-01
2.603209933584008096e-01
2.582643688193750897e-01
2.277040481238263858e-01
2.287310376270983991e-01
1.841628979226108687e-01
1.136339949229068017e-02
-8.059539315517941227e-02
-1.354831611163007099e-02
-7.411223121604806896e-02
-2.517241417574047624e-01
-2.509168605147639175e-01
-1.658722179516968209e-01
-2.147973164437522176e-01
-2.531750188340197716e-01
-1.318057865725425493e-01
3.395560392101276692e-02
1.233764535583132260e-01
1.349334357006625462e-01
8.290262095314585022e-02
-3.050854509296147335e-02
-1.372896699162713396e-01
-1.364583650177464413e-01
-4.967996727920453298e-02
3.816202912137701964e-02
1.286558679150807682e-01
2.144326086136601195e-01
2.373479576053004747e-01
2.028567952464124802e-01
1.454358023174175396e-01
7.732477439180285295e-02
2.826987870144765172e-02
3.521220191271969002e-03
-3.503067475701245742e-02
-8.482716471352397258e-02
-1.072441812632754510e-01
-1.102818170750823612e-01
-1.230766521764733723e-01
-1.215179882451506571e-01
-6.618249586067169454e-02
1.762591405096692113e-02
6.103426944769083096e-02
4.073835929928046329e-02
6.905719969274169007e-03
9.514895846491722847e-03
4.488005734761552762e-02
8.335086472931127477e-02
5.510747982452465776e-02
-8.271492158732643429e-02
-1.796934346467853327e-01
-1.003985165245494665e-01
7.431320041568982571e-03
1.132451109592382335e-02
2.606523055029204630e-03
3.006927632886334523e-02
3.150606000383573968e-02
1.418759650561456781e-02
3.481196578164262589e-02
6.762368985307160019e-02
5.243393148543457755e-02
1.538232119203265455e-02
1.086802100048956700e-02
1.497175140502063004e-02
-1.140007231788029568e-02
-4.628428757201516475e-02
-6.078098358198562312e-02
-5.282109302196798944e-02
-2.478002866682610383e-02
6.715625912723272202e-03
2.330687197328875498e-02
3.114540156646053437e-02
3.913824271369320540e-02
4.629302724106792305e-02
4.737127423378421215e-02
3.670996038368933012e-02
1.137569630786617464e-02
-4.213586293903635177e-02
-1.140699067205031836e-01
-1.378657978506915016e-01
-8.735899340506332600e-02
-3.041629302792321979e-02
-5.201646404727918588e-03
2.709976051006143111e-02
6.953396694695267166e-02
7.895206479988303716e-02
7.150871357248961280e-02
8.907573685497374716e-02
9.849574531149549173e-02
6.155760616925642220e-02
1.486097770009539749e-02
-8.762495034133057845e-03
-2.308606037198325175e-02
-4.203290111142221619e-02
-7.332179661958937444e-02
-1.086994975226504428e-01
-1.088675647666300095e-01
-5.527578298679435703e-02
2.694309391609130827e-02
9.373327055137788133e-02
9.667727099280666592e-02
5.234236975133584047e-02
3.707366428819204585e-02
4.729027366009960071e-02
2.468355200228589813e-02
-1.901429585366219352e-02
-4.968905719039731772e-02
-6.510750935417894403e-02
-6.504113372182571129e-02
-5.813818506725929036e-02
-5.273472596820107799e-02
-3.844798726149263601e-02
-1.750924892880940595e-02
-8.914546964931130413e-05
1.955277970281646058e-02
3.925814704339594674e-02
4.887140897752965257e-02
4.984979809772567549e-02
3.607015623789128211e-02
6.967805016237456350e-03
-5.918873347824000347e-03
-1.804996491702506520e-03
-1.904093724612569705e-02
-4.009606953723032774e-02
-3.123778268160899707e-02
-2.059636160794005647e-02
-1.332434104254944657e-02
2.319806050708323603e-02
5.156492124345327804e-02
2.286854040943062799e-02
-4.642787960748354786e-03
9.349216413908685575e-03
-1.259572246726392911e-02
-4.264001461689687078e-02
4.708787012273617234e-02
1.080015370737511943e-01
-6.588479056786167298e-02
-2.136363009206714569e-01
-6.022808140721451486e-02
1.202953073745198914e-01
7.608780133779519117e-02
7.300409985093500587e-03
3.798844173651404893e-02
4.691007306975356062e-02
3.639651356626760759e-02
6.326511917601503054e-02
6.283758952168723433e-02
1.792802434658372079e-02
-1.000090095852410044e-02
-2.671356987918705600e-02
-6.425523829777042562e-02
-9.855050610258100918e-02
-9.986215138971407668e-02
-6.588538597723576917e-02
-1.926314428349853655e-02
4.029963276988292667e-03
1.445593804301243714e-02
4.397946428041953765e-02
6.105263969780298783e-02
3.042937019631023268e-02
-5.740462692729901215e-04
2.073424337749668611e-02
5.408758216591470075e-02
2.971260085756891739e-02
-3.564193693947225600e-02
-6.807704236929514041e-02
-4.878325727570756443e-02
-2.436560049367656258e-02
-1.647687084328618504e-02
-2.672943594087597800e-03
6.678639537616670036e-03
-5.624883769538674763e-03
2.346255472876029348e-03
4.176184053473131624e-02
5.334683496989835183e-02
2.954201551168762069e-02
2.514727038422677127e-02
3.642744217688784203e-02
7.246612601385728041e-03
-5.499749518562090794e-02
-8.408057968111828928e-02
-5.344242837607456748e-02
3.027113999921817768e-03
3.078709875652555980e-02
1.146675286903406712e-02
-6.523623108108099825e-03
2.014159966177377081e-02
6.524794210859298504e-02
7.764618216315992416e-02
4.858829557525112808e-02
1.552635260888787956e-02
-6.513546477611167028e-03
-4.702061534760424572e-02
-9.863564201861671488e-02
-1.110018295204970584e-01
-7.704993262489803763e-02
-2.648683150171986245e-02
1.912480858636204234e-02
3.262550451258233730e-02
1.613070855635815454e-02
2.141349832677793066e-02
4.985211761700861915e-02
4.837591870314280479e-02
2.956917859142852226e-02
3.557094443028523123e-02
3.277592639955877185e-02
-1.477575754276362965e-02
-6.015111276114411265e-02
-6.353370862495040516e-02
-6.087360718170059526e-02
-6.863238059257158186e-02
-4.040592869819943644e-02
3.119928988284427149e-02
9.535996172723106012e-02
1.282770294111701126e-01
1.221028321352066875e-01
5.370039679247853165e-02
-3.424782716006244399e-02
-5.484315660685799843e-02
-3.196660052048418132e-02
-4.759522332882158702e-02
-7.648343726821098254e-02
-5.256729702312167019e-02
9.164533550606777934e-03
6.110035098071710247e-02
8.503919581553301410e-02
7.682369558402478427e-02
4.081979990966499300e-02
-1.535379478323666176e-03
-2.721173249474277342e-02
-3.324183751602757808e-02
-4.270300354397233572e-02
-6.769514279954107205e-02
-8.124604598403931122e-02
-7.809968240632660097e-02
-8.769250578277455743e-02
-9.283430670597399292e-02
-6.163193621824972906e-02
-2.172300251616221881e-02
5.871174446200864289e-03
4.971801604379609552e-02
1.100082803856011898e-01
1.398779452874404083e-01
1.316609699142151368e-01
1.185369718314464305e-01
8.937838989256038924e-02
3.311458241062707752e-02
-4.336909719349930220e-04
-1.857897960572538892e-03
-2.681104651265795238e-02
-8.350330290125716759e-02
-1.289676195743768294e-01
-1.395322682952342963e-01
-1.157805518847762893e-01
-6.560693846607430768e-02
1.879268799233859560e-03
7.488054069841663940e-02
1.283983706583602946e-01
1.354697788942175463e-01
9.404185045241938989e-02
3.756468773423992519e-02
1.048375342622567125e-02
2.099475952348998919e-02
3.362306080166452965e-02
4.120359103929671814e-03
-7.486981767020911560e-02
-1.417662890264635711e-01
-1.324926651063566552e-01
-7.529070139717945753e-02
-3.523356343525597262e-02
-9.698969694352592777e-03
3.616298677586701760e-02
8.432218823997919555e-02
9.881857158262098706e-02
9.083891042999381327e-02
7.270619367147669598e-02
3.125478117334509753e-02
-2.368744950074858427e-02
-7.475669596257242255e-02
-1.175429347608172859e-01
-1.290225880097472799e-01
-9.324683402572876700e-02
-3.626439451947395531e-02
7.939144117565645128e-03
3.154346536375673277e-02
5.281862220010599684e-02
8.050196046210203460e-02
8.424051248661314217e-02
5.459142253586916210e-02
4.240313013716619922e-02
5.111787945228003088e-02
5.266871500311583187e-03
-7.882710546841101285e-02
-9.352031387545164942e-02
-5.997431332036218948e-02
-6.450710708556513240e-02
-4.966920256814966184e-02
4.442906864311765153e-02
1.216577956551291029e-01
1.008911455979264599e-01
5.164793743043604585e-02
5.699417504975705373e-02
6.241043145298937056e-02
1.070198350405349337e-02
-6.452645091955472659e-03
9.338698652344830375e-03
-9.550668221279894066e-02
-2.247141113803621526e-01
-1.617680289914022462e-01
-2.980418975448337338e-02
-8.377938587339123222e-03
1.554156027554525615e-03
7.828261177251116809e-02
1.329617876161648948e-01
1.203968811543519174e-01
9.321915846528602834e-02
8.711341272418098025e-02
6.420049981807245121e-02
4.146860571754861641e-02
1.206577933364212790e-01
1.756862102418208782e-01
-2.308380035182630574e-02
-2.640255884424114741e-01
-2.275801303994582914e-01
-8.582633015730066484e-02
-9.442770004058619049e-02
-1.587507756571540085e-01
-1.372097802085602558e-01
-7.479290495526291771e-02
-5.960340054354437700e-02
-1.015923394159076038e-01
-1.452573316782312385e-01
-1.253923362669824848e-01
-4.541114040270287366e-02
4.009862994466378838e-02
1.027601094988805919e-01
8.596752105840768654e-02
1.915204646723234205e-03
8.636702704522139507e-02
4.120575131460706420e-01
6.557513413471345309e-01
6.196502067421624238e-01
4.431465524559093372e-01
2.452741681183596978e-01
1.806184095291686609e-02
-2.278167740869649904e-01
-3.959168268204368291e-01
-4.091720303110955026e-01
-3.588663128202380648e-01
-3.698283223645584816e-01
-4.025850247794487968e-01
-3.710317393506578076e-01
-2.833225730778219931e-01
-1.796175482615172680e-01
-6.674006313064856366e-02
5.639346325560298800e-02
1.661117754989362705e-01
2.458491587776126530e-01
3.080061238028223847e-01
3.488708594118427042e-01
3.484313281786201588e-01
3.154108289658369979e-01
2.497434919804423226e-01
1.086004862198650528e-01
-8.559783129706396987e-02
-2.208179122490900870e-01
-2.624673821196139567e-01
-2.617621383583801919e-01
-2.188606389182348178e-01
-1.231214917391795505e-01
-2.379989273723683019e-02
4.226708014015907733e-02
8.893911092177003708e-02
1.197215387195257608e-01
1.092480306234087234e-01
7.103933478470339513e-02
4.806079004567723190e-02
2.057903284385116660e-02
-4.033970421940102913e-02
-8.711265550765021071e-02
-9.982086844725980568e-02
-1.298422645023719901e-01
-1.593921502762015441e-01
-1.105113843898617443e-01
5.163936672549515258e-03
1.132043850128523488e-01
1.640188588569961303e-01
1.351987896437139569e-01
7.440261615753313018e-02
6.047625181535074695e-02
6.616779215443795159e-02
2.361189588069542711e-02
-3.207643756302034493e-02
-4.586246851175825728e-02
-4.664651550774501221e-02
-6.192422141797663399e-02
-6.038049876850820619e-02
-2.805647616878861883e-02
1.068782955224346562e-03
6.931964610940605925e-04
-1.491689572805484504e-02
-1.914870787171223457e-02
-8.295641826899617655e-03
1.972178030460380871e-02
6.799101095262356786e-02
8.854945415806968201e-02
4.644567723715964380e-02
6.160651380457681479e-03
-1.732789069458125220e-04
-3.150894253830057584e-02
-6.974761004677340614e-02
-4.656597526717476399e-02
7.121878853148824913e-03
3.393064408072897498e-02
2.925982508955946026e-02
1.622038961382415295e-02
2.332352828354501001e-02
3.015547328008501282e-02
2.391491741589624187e-02
6.439679647481394431e-02
8.276651429351895850e-02
-6.843224452870552699e-02
-2.277136690413692210e-01
-1.652710384798841137e-01
-3.594574869983586246e-02
-1.896301372396263715e-02
-1.868765321984797861e-02
1.604727084000649728e-02
3.006486832332076406e-02
3.991375415975439989e-02
6.197767227247427679e-02
6.155534363195544478e-02
4.664296156654001296e-02
4.936344947128565308e-02
3.983780605742160558e-02
-7.284294816593225516e-03
-3.569755389992119998e-02
-2.625699737924040017e-02
-4.016127097998576506e-02
-6.803451381610683968e-02
-5.179558479044692881e-02
-1.426014441856590306e-02
1.630640518172597059e-02
5.494978221996318218e-02
7.782870448256361262e-02
6.368426270656103727e-02
4.423655444129445669e-02
3.791481011148229580e-02
3.535882333751275142e-02
1.409389379986101566e-02
-3.858310904482382259e-02
-7.029816047611309182e-02
-4.729897187595422103e-02
-2.821957047483406728e-02
-2.650769826430739162e-02
1.054330656202124347e-04
1.177012355674478608e-02
-2.217577137994416678e-02
-3.042642741855050223e-02
2.070334750790555657e-03
5.738282996589100238e-03
-1.575132806566693217e-02
-7.801950220953170027e-03
1.911567208596528025e-02
1.196508515785690147e-02
-3.881765882427345299e-02
-6.993342993268557295e-02
-3.846416620717516693e-02
-1.751807735210322717e-03
-1.420140109500830569e-03
1.050334241406446212e-02
5.002091950137127485e-02
7.864423737496668843e-02
9.936616923779897914e-02
1.312137483246375025e-01
1.464831205545771009e-01
1.111839938995751315e-01
3.480489587027524312e-02
-4.766337329167031484e-02
-1.137425374291692604e-01
-1.639537692812154945e-01
-1.977841289597882246e-01
-1.955839980431003933e-01
-1.490587712275374399e-01
-7.351414158862723536e-02
2.089633610522723464e-02
1.196421056505144465e-01
1.959662525766620589e-01
2.248717244666268988e-01
1.784677237953123941e-01
6.712858368651082597e-02
-3.594106985328603815e-02
-8.338599177000630136e-02
-9.079218080070644570e-02
-7.924289017659785772e-02
-8.044484131890014544e-02
-1.130755507508190011e-01
-1.210648532140473216e-01
-6.918203972994732553e-02
-2.507218352716047635e-03
5.881410229537546719e-02
1.132958031945949656e-01
1.206477613092330897e-01
8.094481261265554228e-02
5.771345865231352484e-02
7.400668716203374908e-02
7.920647185118538658e-02
2.747783581871620848e-02
-5.484016458801113658e-02
-9.741142923014128874e-02
-8.200516795528546565e-02
-5.216735659438803685e-02
-2.566757783189736741e-02
-3.732819574625256299e-03
-1.542438260725012208e-02
-4.756042066265200874e-02
-4.193389577183932043e-02
2.823568998056849664e-03
4.354974594885130390e-02
5.419429832431634647e-02
3.001158092312266115e-02
-9.465024275540079302e-04
-1.940932357254109009e-02
-3.194304760785894592e-02
-1.200141776132996989e-02
2.706994468520077662e-02
2.093156443420771812e-02
4.281839585207284499e-04
2.406486227325654176e-02
6.039556657976782178e-02
7.780461718166366281e-02
8.886265082743419197e-02
8.995251536992368568e-02
5.576748953585342061e-02
-1.433254437328071104e-02
-8.783467998682248368e-02
-1.315182498770481323e-01
-1.273105846711490574e-01
-9.057966528615693513e-02
-6.836117345769661402e-02
-7.577033515446283951e-02
-7.322622874787297620e-02
-2.370153002629850000e-02
5.480694978037980308e-02
9.774219753759960660e-02
8.325828143622371336e-02
6.429345517948051314e-02
6.139588520660808901e-02
4.338192507237464274e-02
7.155559395312332920e-03
-3.612525433785705731e-02
-7.248742411845225664e-02
-7.586145090864912510e-02
-6.250950497292553920e-02
-5.915583336278625037e-02
-3.648671488007326075e-02
1.414786351789787747e-02
5.612510660981510913e-02
8.808674640443714399e-02
1.059329585350375219e-01
8.466222228727732224e-02
6.923861232208479433e-02
1.017236780299104332e-01
1.063083680768467237e-01
2.464839276286407213e-02
-7.013503740914259210e-02
-1.072594462158437401e-01
-1.019873067514756593e-01
-8.356046639005033916e-02
-6.265805592738517282e-02
-2.964898293467837023e-02
2.530385969831386306e-02
6.804893571107861749e-02
7.186810200995877307e-02
5.229677086656277230e-02
1.544371353944200623e-02
-2.518625791947524256e-02
-4.455800111333322461e-02
-5.922248330931109001e-02
-9.315671522098555035e-02
-1.403387404377003655e-01
-1.838882692974366240e-01
-1.877158286589132863e-01
-1.311953724224853568e-01
-5.796583708415462000e-02
1.086311134167203263e-02
1.220202295750352356e-01
2.242678481897494025e-01
1.930611183188987723e-01
1.584565602343292190e-01
3.608631985407743104e-01
6.227700039804239251e-01
5.705123380878738271e-01
2.209756720909155092e-01
-1.638512426505880637e-01
-4.145120544647049599e-01
-4.777492549962207846e-01
-4.626336729905404788e-01
-4.809836835705574298e-01
-4.355768065079110851e-01
-2.663615277805493897e-01
-1.053203853481759905e-01
-3.380476196242650222e-02
6.829029397576485971e-03
7.821888526752948656e-02
1.725688964083839094e-01
2.455424686236839238e-01
2.725919479276118218e-01
2.596712600070877897e-01
2.204713319658148651e-01
1.450222558594695121e-01
2.190544138485103418e-02
-5.082287572947199322e-02
3.150071659183783374e-02
1.293221474399634252e-01
7.201704989084251052e-02
-3.299764685088788646e-02
-4.891846139463101872e-02
-2.593883642914496246e-02
-3.042780965394358342e-02
-5.482107673341460319e-02
-7.477033983351800972e-02
-8.564506141720604204e-02
-9.417688870224004416e-02
-9.129100375592559546e-02
-8.166879737635973635e-02
-8.454168351764956846e-02
-7.236563961165833059e-02
-1.116663775411658871e-02
5.751951565173402808e-02
6.666948689691656882e-02
2.613534774625720508e-02
6.883177489020399567e-03
3.412720414956438297e-02
6.451277325064633250e-02
6.549578065732611365e-02
4.904787997391601290e-02
2.000451009285806117e-02
-3.305258106220400338e-02
-7.138092302607734752e-02
-4.226465542709820222e-02
1.591224419202763932e-02
3.272815432501945815e-02
1.705403927803205572e-02
1.626576261199753903e-02
2.701218420224207190e-02
6.530710793425334448e-03
-1.321478420180513189e-02
5.343296325041204525e-02
8.705352482409187131e-02
-1.022806264612900334e-01
-2.709552194761167820e-01
-1.053132383919518078e-01
1.098969274635261534e-01
6.556085135396064190e-02
-1.953946818740558838e-02
1.089168144325908597e-02
2.850982710837354078e-02
2.249735738905335111e-02
4.556325591342536008e-02
5.382762950764370669e-02
5.190147978007282614e-02
7.752795250800335880e-02
7.435808520145116562e-02
-4.800433019632199295e-04
-7.550075810654990893e-02
-8.993747314718873731e-02
-7.473783996623570292e-02
-6.915285414377338180e-02
-7.315042697824664097e-02
-6.603045498133265634e-02
-2.006087816339278268e-02
5.465350397553786488e-02
9.652065576102855649e-02
7.877370106635429858e-02
5.379979398780217192e-02
5.778736101771287520e-02
5.083789211658577140e-02
6.600526725122329158e-03
-4.192434182516787539e-02
-6.890602326005441924e-02
-7.407754605746350030e-02
-6.034222288955619351e-02
-3.384219203215002580e-02
-1.803120848695014943e-03
2.372426198269158432e-02
3.435011617015649305e-02
3.580056617855031931e-02
2.856760170110690319e-02
1.287678858920734970e-02
2.831450695203646065e-03
2.716388424050441164e-03
-1.082910483808390348e-03
-1.352779065721496088e-02
-2.070952919439408846e-02
-1.770878484073849790e-02
-1.897437334930156261e-02
-1.852375090888404296e-02
7.614388231045407344e-03
4.357429618998868992e-02
5.407954104122007777e-02
4.397638094341206616e-02
3.213419607857906368e-02
3.142905221140516320e-02
5.199221827950888108e-02
5.303032352629098028e-02
1.006296574755213488e-02
-3.332742420928150491e-03
-1.556595017730700789e-02
-1.545541670910922094e-01
-2.832635365979535025e-01
-1.890087232021614438e-01
-2.616198270906098036e-02
9.948824625484867235e-03
2.424906273028956671e-02
9.421282489922297443e-02
1.169867770262557061e-01
7.460492378522565193e-02
6.359318964169512201e-02
9.133545468783969834e-02
9.071226974932507237e-02
6.240549619192924113e-02
4.196058878344585685e-02
1.799113423643224074e-02
-2.206227379493346658e-02
-5.869921841923161215e-02
-9.133930480812137154e-02
-1.278652053685001844e-01
-1.401944841022576549e-01
-1.124789751562715739e-01
-6.661889927641383158e-02
-6.277992457335256071e-03
7.725695940122910554e-02
1.524303071780163665e-01
1.652474305038487967e-01
1.123994409521058835e-01
4.963604055449076513e-02
-5.926854594649238334e-03
-7.535870729962473868e-02
-1.065520981195467870e-01
-5.491224316027829011e-02
-1.166191746682998867e-03
-6.008974723053176620e-03
-1.663177717302860917e-02
-7.284388101610108496e-03
-8.480943705559249382e-03
3.185571563176551289e-04
4.579238935896984969e-02
8.028417558315197045e-02
7.014723347928707164e-02
4.840032040188071288e-02
2.463253868198623034e-02
-3.722556293479908213e-02
-1.252243825325888849e-01
-1.555167388523205352e-01
-8.897980599649388256e-02
4.679314413101487435e-03
5.254755945412839524e-02
5.539872528213107827e-02
3.950342951240845557e-02
2.846007653925666098e-02
4.551093914327855594e-02
8.129984246818745819e-02
9.519779101398520571e-02
6.620999386721444779e-02
3.070316149118098963e-03
-7.132103782980782347e-02
-1.178316849122572063e-01
-1.121411781071139785e-01
-7.941668791214924472e-02
-6.267135294997293327e-02
-6.017704746842014729e-02
-2.240953387738265842e-02
5.575873801110806105e-02
1.036271460587972482e-01
9.676575975087731152e-02
9.048020385803609567e-02
8.468303806381953514e-02
2.811228311792988988e-02
-3.589776717486523050e-02
-3.457260151942233295e-02
-2.194214489212716404e-02
-6.653379058307609673e-02
-1.163295783344158868e-01
-1.223766636390633822e-01
-9.406006504436913163e-02
-1.698306827823815521e-02
7.214872322403528826e-02
8.876574976701551156e-02
7.237358169753858872e-02
1.016922065249041690e-01
1.329293829183617881e-01
1.152991006028185328e-01
6.827489574134575079e-02
-1.126036557370714217e-02
-1.199531984775683291e-01
-1.759346450089180336e-01
-1.344908384065694185e-01
-6.848644372487402987e-02
-3.906642157694304590e-02
-2.079413751940499544e-02
1.015087027877300228e-02
3.447782675283279918e-02
4.816185694406836110e-02
6.890816688994814976e-02
8.128284448131679885e-02
6.332663489257370215e-02
3.812859530718440415e-02
1.621653689015554664e-02
-3.357928658087395990e-02
-9.512370158125897646e-02
-9.736444605496427651e-02
-3.060848394932080829e-02
4.308198285505524666e-02
8.552817950511391876e-02
9.039258474662387188e-02
7.197081628994886349e-02
7.987759024940668806e-02
1.081214269357986257e-01
7.951810368427512932e-02
6.239222491390785698e-03
-3.425873756329272934e-02
-6.065811834820197812e-02
-1.127930589677642037e-01
-1.549912329543882972e-01
-1.623551147733170441e-01
-1.345015340631023626e-01
-6.701481348449445097e-02
-1.047974471714794090e-03
2.121942271795918683e-02
2.162711263537370199e-02
6.064084707154918791e-03
-6.611206011143011541e-02
-1.634219742337215397e-01
-1.739259763530442704e-01
-8.453391400680465573e-02
-1.165912226096139578e-02
2.411942065254497544e-02
1.135314408801813141e-01
1.751040908440727462e-01
9.817596062636968490e-02
1.102969142465383412e-01
3.766063972129615744e-01
6.114887996458987507e-01
5.769404713137470386e-01
3.624044130841218569e-01
9.358581794637997608e-02
-1.607013821350486982e-01
-3.383156571572072391e-01
-4.160273707737136006e-01
-4.395441493041027936e-01
-4.683313230231815893e-01
-4.499897369142136228e-01
-3.265051132114781818e-01
-2.236964801398799718e-01
-2.168620927952309985e-01
-1.532603891511778449e-01
3.080573748672970485e-02
2.061114768642612338e-01
2.954603555180885799e-01
3.156664653058068315e-01
3.069791648344837864e-01
2.978511680162203579e-01
2.554488161162677962e-01
1.584555347785691071e-01
6.597036557506286147e-02
1.516913199107584181e-02
-4.422914786703083245e-02
-1.437072230975356413e-01
-1.686827191111646973e-01
-2.086844026015019504e-02
1.131237699364851940e-01
4.054613044262722621e-02
-8.418100501478305298e-02
-8.661825346606544240e-02
-3.475168293887551108e-02
-3.362994082926353510e-03
1.432362958250059382e-02
6.859585728840953377e-03
-4.085349810564439105e-02
-1.060540975855570750e-01
-1.431750417798192954e-01
-1.266345385936393786e-01
-7.407106946101052469e-02
-2.504429167512529225e-02
-1.748253727668382107e-04
1.724014151382272445e-02
5.038336408275016776e-02
9.259748912616883043e-02
1.185465610166591272e-01
1.263308825727358919e-01
1.296881645488823509e-01
1.004810221981713853e-01
1.878430893959500900e-02
-4.608045374154302182e-02
-5.017931369556716259e-02
-5.756090693591406349e-02
-9.668548176978289388e-02
-1.133890271261532856e-01
-8.688321764922907198e-02
-3.947875223929565164e-02
1.600968611692908661e-02
6.399773157353966235e-02
7.742056118831869282e-02
5.244914486775781315e-02
2.942388628934831246e-02
4.145628463142385367e-02
5.811982951938311076e-02
2.843564997718469808e-02
-3.660914752717716464e-02
-6.920035981590158536e-02
-4.750144071361256382e-02
-2.594180524714558705e-02
-2.813860309940907287e-02
-2.722239354109064896e-02
-2.033139809779522036e-02
-3.181308851558858897e-03
2.925010413540777773e-02
2.697772410517923145e-02
-1.636199929429961453e-02
-1.769329970987817621e-02
2.672466097105547639e-02
3.493775071451716424e-02
5.211420491754211598e-03
-1.202443513523668642e-02
-8.234864473184611011e-03
1.154743061336918793e-02
3.157077711701978401e-02
2.778140326530940257e-02
2.061736037022982720e-02
3.547198272695498145e-02
3.841959037164832669e-02
9.061416852643342304e-03
5.105327906315001996e-03
4.382113175543383976e-02
5.535588597884546352e-02
3.825252087379744925e-02
-1.524853698394479894e-03
-1.442758140595077065e-01
-2.797609578666060970e-01
-1.885581033034364751e-01
1.938037261198233274e-04
4.047476685526953111e-02
6.261639515812607304e-03
3.933832731487947598e-02
8.976096666930012680e-02
8.953970781434489323e-02
6.102971680291351120e-02
4.563807259499814278e-02
4.448020761894810882e-02
2.964802241778955946e-02
2.914247305871168255e-03
-1.906752257386531285e-02
-4.416905707097991407e-02
-6.539069422681488553e-02
-6.650675319450524703e-02
-5.870991676332757564e-02
-4.467728807304789662e-02
-1.196405551801068418e-02
3.176058082920426434e-02
6.089717771638605837e-02
5.448392895556825044e-02
2.752852268587952650e-02
1.408351887051566276e-02
7.715789837072910794e-03
-7.138988902248688713e-03
-6.154726170092317955e-03
1.558316697078747717e-02
2.679019844548602772e-02
2.901358145881497222e-02
3.693483056488620214e-02
3.815216650690685801e-02
3.663600605039614433e-02
3.696203052580655790e-02
6.246393349269041030e-03
-5.990092520554617800e-02
-1.143089467246700824e-01
-1.226431282863771205e-01
-8.353918384826965193e-02
-2.098317042641458657e-02
3.334443954109921754e-02
6.531412176927600677e-02
6.012867474070436591e-02
2.225385025806116829e-02
3.257186793570761643e-03
1.236490771546842719e-02
1.459931260051759673e-03
-2.186940831177121639e-02
-1.824856321900548972e-02
5.798623320196375636e-03
3.848250869986254152e-02
7.333583235414731227e-02
1.036955466898242251e-01
1.314033475826162645e-01
6.635729341295860950e-02
-1.626466592058126992e-01
-3.303969634052484894e-01
-2.201429653929469210e-01
-2.206836732619129118e-02
3.857737370044775349e-02
2.038318878320572944e-02
1.437460459439628482e-02
1.938280972073068431e-02
2.509129730250767715e-02
3.149089940261624865e-02
6.101920341427265887e-02
1.074522992279083461e-01
1.126749954641667051e-01
7.649155245243180468e-02
4.355270999623016281e-02
8.958242782205425372e-03
-2.783032091437748906e-02
-4.052383791869190038e-02
-4.801485767337805577e-02
-8.098368396269649272e-02
-9.812674639083876493e-02
-4.021026334726954948e-02
5.204459928308520500e-02
7.940630715538993245e-02
4.030519199718611556e-02
2.595972187591271199e-02
4.759095324135582949e-02
2.505412032228292174e-02
-4.098957374772788098e-02
-7.761312082955121316e-02
-8.179615405396463423e-02
-7.805226913799208355e-02
-4.698715514223404666e-02
-4.844989847758091224e-03
3.019709697197071538e-03
5.793684205256926373e-04
2.407984936572804199e-02
4.328018432496572726e-02
3.295686262528431387e-02
2.087799002016153121e-02
3.589705576420067212e-02
6.359685327957412260e-02
5.707837977433893872e-02
5.451873245612550573e-03
-3.796288820936738473e-02
-4.738601967160396833e-02
-5.334919579042059906e-02
-4.422798595551252071e-02
8.912479048667048750e-03
5.802723062206672361e-02
6.589955209867612296e-02
6.684554893565745892e-02
6.381455710257304126e-02
5.511139382993834879e-02
7.571123985158637049e-02
4.437295796839908074e-02
-1.248014217242277013e-01
-2.444243988765936459e-01
-1.559906710298992194e-01
-5.335971934124618399e-02
-7.907323668109846049e-02
-9.487229636177567371e-02
-3.656606698578764719e-02
1.740337308768866165e-02
6.174455933683518916e-02
1.192743004300486215e-01
1.553694817606856016e-01
1.554926184388459864e-01
1.398101551022693789e-01
1.133275963343118170e-01
7.442774861805695474e-02
2.622115437259902454e-02
-1.879660807851809765e-02
-4.237255281145196895e-02
-6.034840515314322112e-02
-9.145359039218267649e-02
-1.126551054450849604e-01
-1.303251003584610102e-01
-1.610315655183307826e-01
-1.464975674432852371e-01
-7.964064336408273326e-02
-6.273611923794035483e-02
-1.031383777919586547e-01
-1.009136281987008110e-01
-4.807399569362691416e-02
-3.006632092371220449e-03
4.016914259458269354e-02
1.143092936247523672e-01
2.001490839249720211e-01
2.597251891356797127e-01
3.311291335943127856e-01
4.418038327114728880e-01
4.522156845254242663e-01
2.837066274043714142e-01
1.018757966074619464e-01
-4.639033017928737013e-02
-2.933558279444948291e-01
-5.065561583926068145e-01
-4.562972426360654143e-01
-2.837641585562054036e-01
-2.276444170675755996e-01
-2.572539304089572210e-01
-2.640168798428276231e-01
-2.285640677163230383e-01
-1.395055868054372594e-01
1.246466090379143993e-02
1.731997049929225041e-01
2.665706520261433843e-01
2.829474802373360132e-01
2.735191195568650313e-01
2.755736798806640020e-01
2.767105748919951869e-01
2.354355902347690932e-01
1.360785419903983440e-01
1.745136424966976449e-02
-8.497543300888496520e-02
-1.735394178429291723e-01
-2.287927747080898966e-01
-2.098289129526197117e-01
-1.355014237994559834e-01
-6.905301993284505835e-02
-2.618910108397452460e-02
1.428376274680063542e-02
3.435794489391985618e-02
2.482034373490229345e-02
4.120404099107694701e-02
7.198203154876903209e-02
3.235143698389574690e-02
-3.306309494504315605e-02
-3.024535814719621005e-02
-1.084022552159462534e-02
-3.418544705171826237e-02
-5.986699714546539486e-02
-6.717215871506235225e-02
-5.951948979513355803e-02
-1.318368614205260407e-02
5.740520406853819035e-02
9.719073488515457548e-02
9.675062215574206648e-02
8.475780439946579981e-02
5.647973568922715765e-02
3.544943332393944452e-03
-2.586494077499044281e-02
-2.129355702008359219e-02
-5.218535095607070712e-02
-7.518706490669196940e-02
2.014450228005961602e-02
1.127572381710084393e-01
4.723559056086312768e-02
-4.013466352378725066e-02
-2.476041253548851365e-02
-8.046373750158030205e-03
-3.021828641046604355e-02
-1.534785650538524407e-02
2.846762722608138160e-02
3.215544834991618250e-02
2.859010429743973417e-04
-9.808699272036307260e-03
-3.104185455382438112e-03
-2.955614028953158778e-02
-6.302445530691155873e-02
-4.635298570445685329e-02
-1.475008957829990371e-02
-1.246634223347063176e-02
1.074718321307832451e-03
3.895217424482719237e-02
3.859630834366901270e-02
-6.744377456650777272e-03
-1.388703331806715596e-02
4.175282543020204795e-02
7.183674975030567011e-02
3.333877552886359286e-02
-1.224851506309934321e-02
-3.854683683442535619e-02
-7.559432631171079942e-02
-1.064816995674342515e-01
-8.724952323726709036e-02
-3.169508331037154680e-02
1.060371872446260605e-02
3.536121122649039938e-02
6.717088499001459823e-02
9.238276042176046809e-02
9.717213993575636588e-02
9.381802169080703802e-02
6.477486284305514208e-02
8.658186031475249497e-04
-4.970026541875797316e-02
-5.327306512553098283e-02
-3.372939645489214655e-02
-3.745466442233885696e-02
-7.516132740690176228e-02
-9.232913373572136650e-02
-5.608257904745564404e-02
-1.095471839860692742e-02
2.779701271545045871e-02
7.905693174139827306e-02
9.568948454073547549e-02
6.447131880121320657e-02
5.561156048003998431e-02
5.718909236224602871e-02
1.738727440884243330e-02
-2.214134719283225583e-02
-3.668853231096618622e-02
-5.852560521809667404e-02
-7.328166297620981873e-02
-5.315632878326131960e-02
-1.780955094466853128e-02
1.266784179985987885e-03
-5.012259114208181786e-03
-2.493214423505219282e-02
-3.816677751182426942e-02
-1.937423026448776078e-02
1.966908373834739404e-02
1.731733517671615180e-02
-1.359474654738843449e-02
-2.767670479555110752e-03
4.232202958764007435e-03
-2.404941876424408070e-02
1.663663005264634509e-02
9.239990771366803080e-02
5.601385842966657980e-02
-1.670678176733526865e-02
7.807261464252023345e-03
5.019739736960561471e-02
1.844473342508425734e-02
-2.351506365804438559e-02
7.761467466574138024e-03
7.142337438867696342e-02
6.051566704775975664e-02
-1.959079272051563597e-02
-7.217992052601185371e-02
-7.174817849803138969e-02
-4.281686655914340722e-02
6.487617279572664708e-03
4.717412772378000441e-02
5.050902221600382658e-02
2.966223721110916589e-02
2.144820089859006927e-03
-2.576570369510225444e-02
-4.134645816893663811e-02
-4.010752490492468236e-02
-3.482816294252827349e-02
-3.559399498381249360e-02
-3.310047008960602388e-02
-2.374602305895737522e-02
-3.522071170436558152e-02
-6.021459353377163481e-02
-2.866915931682792809e-02
5.366850516620581130e-02
7.550514822234939694e-02
1.841495604017300003e-02
-1.682329389068854680e-02
-1.137061205221550665e-02
-2.055648518724794913e-02
-1.967616314676888523e-02
3.621627114939636460e-02
9.896481887489015639e-02
9.540487224533675259e-02
3.845954329353854645e-02
3.569167719072190506e-03
4.760309455834107334e-04
-2.613936008445038456e-02
-5.772960212527271373e-02
-3.136375071178530705e-02
2.292680417668094273e-02
3.083529257422762404e-02
9.398264391244060510e-04
-8.331892124124194027e-03
-1.011416162588869502e-02
-4.691327127641206629e-02
-6.088265149874927396e-02
6.571443688667185506e-04
5.766062079922230910e-02
5.996883506681392750e-02
5.013379422497352134e-02
1.091189105597058923e-02
-6.926242727814181654e-02
-1.036450017385072697e-01
-5.868099627870927704e-02
8.803454378272132855e-03
5.926995405697264158e-02
7.886630193237553765e-02
6.831328299214664557e-02
4.515537382395051064e-02
2.817188599393342235e-02
2.546259747889697417e-02
7.259879093938860495e-03
-5.286407981161077990e-02
-1.055265139843391820e-01
-1.119873133493737710e-01
-1.109037916706546445e-01
-1.026546585295921715e-01
-5.125604808061846873e-02
8.826102015297364670e-03
4.388398457539722380e-02
7.984607131152456072e-02
1.090867274547092231e-01
9.283719130449538670e-02
5.546663551532355491e-02
4.329111971370962902e-02
3.975324455885883429e-02
1.587856225519338610e-02
-2.066071406081001344e-02
-5.614163788856656179e-02
-7.701581976178289990e-02
-8.070879052137906740e-02
-8.113361551506306779e-02
-6.896667617679558271e-02
-2.008581743164270655e-02
5.409787529557433250e-02
9.405687658346502389e-02
6.017767110487125953e-02
2.624368400401036472e-02
8.056441614025904030e-02
1.426065802298940033e-01
9.389463845659981600e-02
-5.232770984099432456e-03
-6.000415623384618147e-02
-9.190267840338704752e-02
-1.038504904046273214e-01
-5.930544358166169039e-02
5.267154953147897001e-04
2.099393385105167639e-02
2.226568903329315813e-02
3.034917630139095934e-02
3.242935443293125386e-02
2.938170535621843077e-02
4.074619019699376316e-02
5.284177378061878649e-02
4.093177396627159514e-02
1.784147543063039493e-02
-2.103135340044368778e-02
-1.134129740226290373e-01
-2.110675337322618639e-01
-2.173990027228239752e-01
-1.689139816161882579e-01
-1.495997859392736440e-01
-1.253337086268916101e-01
-6.028509427084023653e-02
5.702212321922549287e-03
6.521440258790831002e-02
1.435359624269023637e-01
2.261772613013331990e-01
2.683332266805764088e-01
2.541544771137951853e-01
2.130177670005710677e-01
1.692861640023343717e-01
1.533458699650296353e-01
1.751548999372003479e-01
1.357152272872479970e-01
-1.861699040771009478e-03
-1.126827662522864315e-01
-1.825155771918060832e-01
-2.858474785151816078e-01
-3.351688644466840339e-01
-2.636971864222666939e-01
-1.849850400448270760e-01
-1.595343149908884095e-01
-1.247793964797303118e-01
-6.571906394367021953e-02
-2.393031931714898614e-02
7.999119932037140890e-04
3.348396686081154400e-02
6.660488175388531995e-02
1.012621354429839027e-01
1.742627245458864826e-01
2.652574409873732497e-01
2.879168858612922710e-01
2.241030046289225752e-01
1.389018998364766888e-01
6.308464201782616743e-02
-1.718672146266601169e-02
-8.538726377377645060e-02
-1.238572365402776931e-01
-1.538637235196981534e-01
-1.697248401685821639e-01
-1.387527568311877069e-01
-7.595974676905177525e-02
-3.012941386192183324e-02
-1.851703671281277469e-02
-1.265787115716845296e-02
7.086471564529203335e-03
2.599387164201899178e-02
3.506875997087455232e-02
2.778241331039291162e-02
2.646936702989747918e-03
-1.557316819390724104e-03
2.727873424392092405e-02
3.221267685176399526e-02
1.599276063134223713e-03
-1.053876892419154492e-02
-5.260260465262652299e-04
4.201983540290538284e-03
1.500871663925559818e-02
3.439948257935802889e-02
4.447239829846583864e-02
4.776738176349450832e-02
5.398936007838660983e-02
6.455308871326997933e-02
6.564531987081693998e-02
3.526717292373485885e-02
-1.913432714964689862e-02
-8.201296279745934337e-02
-1.548647928328678591e-01
-2.016262893026351810e-01
-1.699138509286921006e-01
-8.558318411316047369e-02
-8.401659943817517753e-03
5.832720211215824263e-02
1.085855512500280007e-01
1.056843391828675843e-01
7.560919999047095719e-02
7.522008079058804808e-02
9.000754089749860021e-02
7.648404575758015189e-02
3.182458013788021928e-02
-1.826908707032660548e-02
-4.717092854087995279e-02
-4.981129431360312165e-02
-5.234535392592184339e-02
-7.457649649702474681e-02
-9.078944162318447475e-02
-6.163146697001673641e-02
1.282097715369111615e-02
8.600072148548536244e-02
1.010317246321252721e-01
5.938072973368346830e-02
2.521768562588846962e-02
2.772316746405260879e-02
2.690763176257394626e-02
-1.362849005472597380e-02
-7.209240461462153304e-02
-8.856928753913362318e-02
-5.199943130503996425e-02
-2.960102289013478993e-02
-4.259446569479770350e-02
-2.316080307765051860e-02
3.246469662839685660e-02
5.333619255498182887e-02
3.953540477232690697e-02
2.697224469727103890e-02
1.485534610262286004e-02
1.745881141264574166e-02
4.027233263035622651e-02
5.037199198662244137e-02
2.500023041128619783e-02
-4.055933034895886635e-02
-9.990348556243006106e-02
-8.256822931846943825e-02
-3.023942876406894575e-02
-1.734535395789385190e-02
-4.585488765340374820e-03
3.785483856769784883e-02
6.090765959105919058e-02
6.083745519441253330e-02
7.083506615638977821e-02
6.712349085453675479e-02
2.340668306164537041e-02
-2.518981697275458898e-02
-5.468145835283688694e-02
-7.867150436203261543e-02
-8.855625713190883042e-02
-7.455821972183677981e-02
-5.042743452898776346e-02
-1.100624789058528979e-02
4.205986321461073485e-02
6.671459427860949865e-02
5.090737483077811820e-02
3.074027587592539218e-02
2.867899638527332887e-02
4.261161319660336511e-02
3.747490756895367064e-02
-1.597584460216338459e-02
-5.859945612901786005e-02
-3.730750392278053829e-02
7.489189024207157375e-05
1.466447388266624470e-02
1.520704148106358407e-02
1.702662728310214840e-03
-1.624341881740933025e-02
-2.242053299876944558e-02
-9.323972397872384160e-03
1.403038733298648047e-02
3.632068086639227492e-04
-4.428071051522496082e-02
-2.961829460998486457e-02
4.453447356940035823e-02
7.671818471139611739e-02
4.433446658207906843e-02
2.469506098749122379e-03
-2.796853392939770838e-02
-4.683650350375827276e-02
-3.697251950426408418e-02
-4.581763998964130148e-03
1.959497268318186394e-02
3.842557457101306029e-02
6.066104804463021832e-02
4.675814153284753305e-02
-1.613374638982611672e-02
-6.404282551400695966e-02
-5.896913005634721316e-02
-3.819732068541502323e-02
-3.280453157365185307e-02
-3.052882564178442670e-02
-2.723104910537695739e-02
-4.019381050872888189e-02
-4.263677910791306702e-02
1.557409466180172813e-02
8.697925988090446370e-02
8.426512837016017499e-02
3.885665198756572958e-02
2.718196695844070365e-02
4.278189326248134361e-02
4.898685544496167443e-02
3.145752337071573701e-02
-6.355257058071776995e-03
-3.673301300491608329e-02
-4.632740810868636594e-02
-5.761352034419195411e-02
-7.487040826032219376e-02
-7.531860267872196590e-02
-4.882940977735687749e-02
3.512704105028386335e-03
6.680803373583153737e-02
1.058279340328655421e-01
1.038414501394280820e-01
7.866361687693600169e-02
4.954611548743826505e-02
1.705704788947758760e-02
-1.519714690474179702e-02
-2.778848400145388781e-02
-2.694505070532778740e-02
-4.914002531805349711e-02
-9.340971536194433988e-02
-1.153634650444546605e-01
-1.001225681880187485e-01
-6.837573488121381771e-02
-2.301198236247954665e-02
3.353353270575254452e-02
7.866779387810372837e-02
1.009926569948984137e-01
8.935088190092280169e-02
4.856182170022922684e-02
2.866293624487500219e-02
2.903100068691438773e-02
-1.982936506088932641e-02
-1.041558807541131115e-01
-1.254599162218928698e-01
-6.339387668534210429e-02
3.294365753171126648e-03
2.245200538874753474e-02
1.423635389145818178e-02
1.023397591347055720e-02
2.808767546740129767e-02
6.110558309630567675e-02
6.518449096688966327e-02
3.813972669582552794e-02
3.342958112243053781e-02
4.561598708861086537e-02
3.513868456371331550e-02
1.191265620841300277e-02
-2.467873992013357859e-02
-8.186447382353767566e-02
-9.549223109277740762e-02
-2.849181544068438848e-02
4.093255442476349815e-02
5.859569649122423757e-02
5.835034311807733853e-02
5.500789863707442051e-02
5.303202395114230139e-02
8.140329245115360268e-02
1.041105642047650132e-01
4.525912089957195850e-02
-7.365337995783505232e-02
-1.598894279746820857e-01
-1.658316025208248501e-01
-1.065965469149254552e-01
-4.068113168207134617e-02
-3.009202302636518334e-02
-5.837986159085108151e-02
-6.398381356998353309e-02
-5.540120616579589236e-02
-7.124348312700683195e-02
-9.491900739905131945e-02
-1.038799128928657861e-01
-9.900653963784933342e-02
-7.105597883974032469e-02
-2.888171599348763469e-02
-1.726992969511832385e-02
-1.934368003510277684e-02
6.827888817793405229e-02
2.311192600522409268e-01
3.312810369452482973e-01
3.792675349058912126e-01
4.437420830589487997e-01
4.695205940469757699e-01
4.223080590158815872e-01
2.775414134893722240e-01
1.034594676188789475e-02
-2.515632822592716034e-01
-3.906148548014715671e-01
-4.570778542899418539e-01
-4.894771619551341324e-01
-4.486669448069680044e-01
-3.510346106386348919e-01
-2.709774542326918723e-01
-2.174140814380864373e-01
-1.330981915617289457e-01
-5.668720199172853913e-03
1.229702017467639436e-01
2.202692769194255495e-01
2.673527937947453581e-01
2.628170631150992254e-01
2.441541519153385686e-01
2.377220850205568059e-01
2.121216356543287052e-01
1.366601578564346775e-01
3.306167462564682524e-02
-6.310434457898400629e-02
-1.347442966435384304e-01
-1.560343309535470180e-01
-1.094454921041949635e-01
-4.847395806842283439e-02
-2.908256012202779794e-02
-2.037633486701779378e-02
-1.572429208832899078e-04
5.410375617325005604e-03
8.165275339366085197e-04
-8.938578360764833780e-03
2.242483699523108252e-03
7.696886614573050789e-02
9.655095027534132957e-02
-4.671173670734592859e-02
-1.815696290710898109e-01
-1.643956330894768003e-01
-8.440745632886613448e-02
-1.528962517276953245e-02
4.491070803967647102e-02
8.179670560284298120e-02
9.044816088485828354e-02
8.735401671229381382e-02
9.145808928767096280e-02
1.033237181162524193e-01
9.623889936362409192e-02
5.545297237377196098e-02
-1.243412677179703968e-03
-4.272078662594112897e-02
-5.825520555714831794e-02
-7.881229119053913268e-02
-1.155055937193290305e-01
-1.256340192527811706e-01
-8.994065387827107627e-02
-2.657081661833021746e-02
4.149563760577109489e-02
7.440362538359379663e-02
6.148764961404699914e-02
4.785079253826528267e-02
5.450444836324999653e-02
4.996168003706430438e-02
1.816682020270683762e-02
-1.245017497899756319e-02
-2.890755130656964822e-02
-5.343860995408560022e-02
-7.478782355508804824e-02
-5.645821154133284780e-02
-1.258849862815095318e-02
1.554220944270006191e-02
2.031181128883138148e-02
1.545223011443513580e-02
9.110775790563080054e-03
2.659115551255305816e-03
-8.847564697532592920e-03
-1.335514523405368845e-02
3.970634625042462028e-03
-4.986438050578729728e-03
-4.256986606769130183e-02
1.979448591336005741e-03
8.923772614570155137e-02
5.846236660526372281e-02
-2.560769847263862087e-02
-1.868329484429825244e-02
3.276754037025243066e-02
4.921168320953780984e-02
4.257849520519395303e-02
4.736420676314821027e-02
6.640449183423591251e-02
5.379891639155676836e-02
-1.110303291728575309e-02
-7.319841024522771855e-02
-9.049534480604856657e-02
-8.587792298133599400e-02
-8.792793732889557512e-02
-7.703202415059987040e-02
-2.740768785813895228e-02
1.885625869308284880e-02
1.704320665726488659e-02
4.766961137307478003e-03
2.041121037506770514e-02
5.098138009409686200e-02
7.797475166493833543e-02
7.474182863446882097e-02
3.032307793173873861e-02
-1.440294847029399694e-02
-3.010267966000795131e-02
-3.265880226747890080e-02
-3.204065796401902450e-02
-2.892036751907078179e-02
-4.300152991327552132e-02
-6.995281492204541429e-02
-5.495534179360721250e-02
1.676713697279480844e-02
7.361629484220631736e-02
6.504171182853540900e-02
3.219629880670094035e-02
2.760491475868812744e-02
4.101124906211908033e-02
3.895634175655634385e-02
1.297257732594149331e-02
-2.814748861230720323e-02
-5.874999785647293943e-02
-5.484407309034011746e-02
-3.749554439199182659e-02
-3.573639454594108866e-02
-3.373833854932253157e-02
-1.002798403044899075e-02
2.501026410601125266e-02
4.941623384332398394e-02
5.151068131036011521e-02
3.622096843831625057e-02
1.832588740402505550e-02
1.049552577682516356e-02
1.157020707560862255e-02
-4.521805738964063820e-03
-4.670999966404409953e-02
-6.356227979634898606e-02
-2.560348223765455955e-02
1.773036013722976284e-02
3.497903541926854210e-02
4.427040593607572960e-02
4.439210704906479399e-02
3.047883197768745667e-02
1.988707143543330322e-02
1.441554357201186784e-02
1.427632995795602260e-02
3.540951733800936502e-02
5.046185776484202190e-02
1.393251071679903631e-03
-1.006159365370351277e-01
-1.791090329280849713e-01
-1.728616524384833930e-01
-8.208989865185900570e-02
9.536253852136269277e-03
2.960917342234971328e-02
4.244732445161212425e-02
1.119724182384608524e-01
1.433050370505077886e-01
7.327421381485214880e-02
2.189883407999224790e-03
-2.017414231234942318e-02
-4.607712836257676914e-02
-5.700247929298848937e-02
-2.272077549713866218e-02
-5.562874631393202249e-04
-2.842149225758320089e-02
-7.671126352816788618e-02
-9.420782358753025665e-02
-5.469995835003993445e-02
9.630544881144091282e-03
6.729470563050216070e-02
1.079763115868731527e-01
1.165139457076263402e-01
1.206351484561037912e-01
1.335783076343054210e-01
1.001079570733144353e-01
3.090833543476647488e-02
-1.673917694556511723e-02
-7.497958448308149337e-02
-1.577066468846815006e-01
-1.831014137115242191e-01
-1.150496119995759181e-01
-1.404586714035548078e-02
4.117520497781818750e-02
2.549094222295115314e-02
-5.276898912023693031e-03
7.336419614771157865e-03
4.427551921377272798e-02
6.116962601704453717e-02
4.944742110706829008e-02
2.044982852670037404e-02
-2.952125128491080511e-03
-1.063487340743155679e-02
-3.710801387736382267e-02
-8.062898783889513310e-02
-6.793735284807518593e-02
-1.647799325641725529e-03
2.910083334584516457e-02
3.462315113435994463e-02
7.839053254897804246e-02
1.019478903422919719e-01
5.719031181487641002e-02
1.881786243043869628e-02
-2.247581455384038002e-03
-6.601890148636328781e-02
-1.368658005561952939e-01
-1.544168257431696167e-01
-1.284134891927028177e-01
-7.885693164066780170e-02
-1.966681076968863212e-02
3.287387612368698753e-02
7.539349876069588452e-02
9.881051594247632075e-02
9.920601398875543431e-02
9.399518826704642005e-02
8.966623692685092573e-02
8.642766583533484370e-02
7.685398258220568768e-02
2.182998930558494380e-02
-6.935337127288807024e-02
-1.067477248768166354e-01
-7.284830429519006945e-02
-5.294241301488895185e-02
-6.150712984535857547e-02
-3.313908615065596502e-02
2.690125896875001504e-02
6.122144297107467992e-02
6.804414954478266164e-02
6.551843454751714313e-02
5.080899890277454367e-02
4.807868058857637378e-02
7.528298483223815063e-02
9.056934361116289467e-02
4.467667154975200200e-02
-6.192662152283905097e-02
-1.603069863469576972e-01
-1.812535053490724468e-01
-1.576238501956629956e-01
-1.438135448074341627e-01
-1.214500918686580028e-01
-8.307570531165472949e-02
-5.750688053110074305e-02
-4.415634708190181029e-02
-2.197672622026901335e-02
1.028811879651385028e-02
4.277851710524858270e-02
9.650437494674676819e-02
1.789489462544011922e-01
2.340526214221405055e-01
2.714474202461303332e-01
3.502660029577239764e-01
3.774455120753934523e-01
2.517069279890298272e-01
4.669374094573093548e-02
-1.682478749552549502e-01
-3.556853165444228138e-01
-4.330419233874158169e-01
-4.061649662963807694e-01
-3.023159109075965745e-01
-9.377274667694963928e-02
7.960845339269470577e-02
5.623369962631606656e-02
-3.906480765939022298e-02
-7.472025745220935156e-02
-1.070556081152545108e-01
-1.250345809777061168e-01
-5.829136347796805284e-02
6.065312095253223845e-02
1.762436813610849806e-01
2.676080327140201165e-01
3.165127600822160159e-01
3.034502692638205712e-01
2.149628984134129839e-01
9.080464968544264825e-02
3.504917530644878487e-03
-3.504447497900507053e-02
-5.945511929692019748e-02
-9.657468348822099979e-02
-1.412934281126455582e-01
-1.520421816960097483e-01
-1.284454830445743434e-01
-1.189302597302117903e-01
-1.119327154820034531e-01
-6.359775123986588508e-02
5.603207638505181692e-03
4.957992953173305517e-02
5.132618558232786288e-02
2.704761108121069707e-02
2.275631290697827103e-02
5.159622821739444365e-02
5.767733862722361493e-02
7.923934957742052865e-03
-4.884173727733376325e-02
-5.764788758253566736e-02
-2.547966724424240853e-02
1.754665506328738410e-05
-6.571475246911769041e-03
-1.364926311997715497e-02
7.608520461087062321e-03
3.282714365203538709e-02
4.581347304642002793e-02
5.308212753287491065e-02
4.431133240144680824e-02
3.319795885050490919e-02
4.268872147413758228e-02
3.325387817459173057e-02
-2.928504530894432412e-02
-9.405068078375827811e-02
-9.441246721305567025e-02
-3.887062379170480586e-02
6.130147280636988327e-03
1.507640211185045861e-02
2.049096614417110843e-02
3.108279017325064550e-02
4.318975285162021671e-02
7.210500203544081832e-02
9.028971537380803269e-02
7.284501748416552513e-02
6.018992812832880263e-02
1.148503099341438918e-02
-1.506429671895223865e-01
-2.662417628198209263e-01
-1.657722333146638416e-01
-1.669555285221007226e-02
7.665819686747656070e-03
-8.840627621372460637e-03
1.696628673445284632e-02
6.513771138288947105e-02
9.648080814365274371e-02
8.267820573291589925e-02
5.794623575404128646e-02
5.711880460354065714e-02
4.608097291241344123e-02
2.012130027573392696e-02
3.596606024320013473e-04
-3.525030231333332875e-02
-7.409787477151870416e-02
-7.703281992561060443e-02
-6.652920654501330577e-02
-5.551267639543266269e-02
-9.213883148416049385e-03
5.502889944159931879e-02
7.715907825762295669e-02
5.298324156126461848e-02
2.872268658424755386e-02
3.094739473143812841e-02
3.034217020330324394e-02
-1.087251589844786398e-02
-5.741361311651447391e-02
-5.544911059310587975e-02
-3.411479670086151744e-02
-3.961402473871299124e-02
-4.812917765706987983e-02
-2.675944446962098475e-02
3.022676343366012888e-03
1.278649797242682740e-02
1.152591518570728231e-02
1.843536340485622815e-02
3.608986975910775941e-02
4.535995534173273974e-02
3.030361471850573016e-02
1.812785769892924503e-02
3.087399099895728541e-02
2.108502968679258280e-02
-3.360209399098431499e-02
-5.191361383315850481e-02
-8.676411448110821212e-06
3.294550358527104789e-02
1.306161539129119600e-02
5.503575400467680852e-03
2.188341085856888857e-02
1.885650998874154397e-02
7.410530814864488627e-03
2.598031757307494444e-02
4.312219152619608392e-02
-1.833607724920224662e-03
-8.096057004122543532e-02
-1.135083262838914586e-01
-9.140156496435926370e-02
-6.653824311657849377e-02
-5.221284250552975931e-02
-1.877411344316146438e-02
2.776471515096853512e-02
4.350224454473450991e-02
5.336330686649944088e-02
1.165667258887928270e-01
1.531512643553810393e-01
7.832688639229051786e-02
2.267301442084004165e-02
8.000065792286953359e-02
1.171019133219180636e-01
1.813326118863851921e-02
-1.721364746492191067e-01
-2.873689047704766630e-01
-2.128536844363627112e-01
-7.929266839015938761e-02
-4.156023140859928244e-02
-3.874341382321108695e-02
1.566782242496852010e-02
7.904387749025471033e-02
8.990560697319463501e-02
6.700792446556894100e-02
5.797855669894920461e-02
7.408608538564497026e-02
1.034970428148380833e-01
1.037703310822277736e-01
3.223791623809370288e-02
-7.131257619140232706e-02
-1.301384909216253272e-01
-1.172526710239448211e-01
-5.763741301362379499e-02
4.435419432383498270e-04
4.039792700269623921e-02
7.237809527203702131e-02
8.288862986607532790e-02
7.348608411693771658e-02
5.990684377841633268e-02
2.391800868713625516e-02
-2.096448094592438458e-02
-2.874971371769594747e-02
-3.657819703737048844e-02
-9.642431807314212622e-02
-1.387269585930822058e-01
-9.213124320485008290e-02
-1.959414177203785273e-02
5.800876174888100478e-06
-9.820676258218920610e-03
3.397280234026066673e-03
4.102663373728423352e-02
8.127614477188602193e-02
1.092014635080102852e-01
1.142009994795861877e-01
8.916289778668523569e-02
3.120079153199358662e-02
-3.416669666188072718e-02
-7.162585019580886003e-02
-1.025512094185316442e-01
-1.376104881752794329e-01
-1.073485730212221656e-01
-3.079624099749903032e-02
-2.697981109928598506e-02
-1.329593273398070943e-02
1.563274045536635348e-01
2.718153661861478221e-01
1.202122265681010993e-01
-5.841128654196486164e-02
-3.849228240741797702e-02
3.382181396675580654e-02
1.502447759230533461e-02
-4.500657923688244910e-02
-8.319149467296496625e-02
-9.508069908030195028e-02
-9.701542595135845271e-02
-9.855047055950048873e-02
-7.745893563906661172e-02
-9.139001940686657804e-03
6.652953312307979816e-02
8.083861448841758723e-02
4.907917189022080462e-02
5.326828997661962883e-02
1.050569893483484230e-01
1.230461495594764032e-01
5.473881368210305187e-02
-4.502739738552637150e-02
-9.128075353082405752e-02
-8.531929843905751432e-02
-7.571627594790295013e-02
-6.881322732776046225e-02
-5.404428975331312945e-02
-2.164728350250606087e-02
3.752947525579641841e-02
8.525659142676361713e-02
7.548604806175926440e-02
3.008832312178291377e-02
5.727116186617367370e-03
2.591812660813853919e-02
4.554812700575041479e-02
7.239059514330528633e-03
-5.957615704386782368e-02
-9.584220868118864534e-02
-9.176982656913165726e-02
-4.250171021520920273e-02
2.415260906253867065e-02
4.525897627529283651e-02
4.578877435510329830e-02
8.284145171130902208e-02
1.237879615315326393e-01
1.349215854560723848e-01
1.255081642136299247e-01
7.504062198383598670e-02
-3.100115808760851507e-02
-1.454975266251614940e-01
-2.088528509882859874e-01
-2.031670260091122948e-01
-1.528611940247134038e-01
-8.953986719233174296e-02
-1.494868064384586789e-02
6.672293538417842229e-02
1.013961464043837413e-01
5.714596628704413095e-02
-5.528622592227749877e-03
-3.633963435257383384e-02
-6.324569565410433081e-02
-9.008651178402818371e-02
-8.419735762778508825e-02
-5.025685314966968353e-02
5.966827222827771060e-03
7.596369597392597928e-02
1.096063965647456617e-01
1.056667925359989491e-01
1.259584576667378553e-01
1.731132663936796323e-01
2.198065224142809748e-01
2.919792128796424024e-01
3.585804667508878940e-01
2.879713968471581120e-01
4.999584072822624292e-02
-2.121211488670316503e-01
-3.802835620652083026e-01
-4.509556122837944936e-01
-4.321575713643365790e-01
-3.353729159846853825e-01
-2.183431951167965901e-01
-1.178343006364034745e-01
-3.534778867712147499e-02
1.726824114966946100e-02
5.416390328186884012e-02
1.037971469710299438e-01
1.503736940583328685e-01
1.748502995621255829e-01
1.902657719525429059e-01
2.024101450618982501e-01
1.922571648756217777e-01
1.459128476856050294e-01
7.293442931946297891e-02
-1.733546624600370428e-02
-1.102622106367578403e-01
-1.494756336969396693e-01
-9.790512646648555362e-02
-2.033201317378062825e-02
-2.052033622981303245e-03
-3.386107247862071151e-02
-4.676796568446486141e-02
-8.385156678155102766e-03
4.317407223082930789e-02
5.601012086624150565e-02
3.123503363314406728e-02
-8.749654016515135552e-03
-6.656591643763568045e-02
-1.315379241693115098e-01
-1.538269890288481434e-01
-1.004795723209359476e-01
-9.943760236918348927e-03
5.073161178963037088e-02
7.490285947582084325e-02
9.543330018010662275e-02
1.016300341762553655e-01
7.799540381538967726e-02
6.715177713880896015e-02
8.728847390658084349e-02
7.676789854187511530e-02
1.238045132523896835e-02
-3.488460142560853572e-02
-3.212759267264216761e-02
-3.797281295958702257e-02
-7.776690660586155213e-02
-1.065244502343342115e-01
-1.099398500760951775e-01
-9.692586641557351945e-02
-3.560434996971906935e-02
6.817164054140172069e-02
1.274785246063179223e-01
9.616427949159142563e-02
3.079411138423282165e-02
-2.026540314329879251e-03
-3.225604058990580621e-03
-3.409679462271478570e-03
-1.459204198054829017e-02
-3.942626305152789612e-02
-5.812776416178279393e-02
-3.844095828618332433e-02
-3.984411226214311375e-03
1.273426433994482090e-03
-5.973426380453721908e-03
3.253599429352227630e-03
1.494059552525194359e-02
1.166539863562745041e-02
1.038971047986809136e-02
3.303776880608932931e-02
5.164438664542515822e-02
2.540183248410050540e-02
-1.810663882473544789e-02
-3.539199568288220465e-02
-3.728662179153634237e-02
-3.010583367525061782e-02
2.858551801285223043e-03
4.177398100166553746e-02
5.254395577605349560e-02
4.553348841951571080e-02
4.737512312358659744e-02
4.990059084793080357e-02
3.784135048567494053e-02
2.404218568866179490e-02
1.367613167137825617e-02
2.841374355935314018e-03
-1.330386979499913712e-03
-5.488910333930909630e-02
-1.984469835978970031e-01
-2.733249440133453945e-01
-1.582583680689771954e-01
-2.659164205853274850e-03
7.268195056298146217e-02
1.093514916313513829e-01
1.154280698605683608e-01
8.932194956537749253e-02
7.320750881730905824e-02
7.204381693761892358e-02
5.896451781843712464e-02
2.259469293628026815e-02
-2.201730266691215299e-02
-5.027401375888713303e-02
-5.606217433423583973e-02
-4.690206563788160143e-02
-4.410997069429979656e-02
-6.685345577303214437e-02
-7.611934327215351404e-02
-2.213086928086523825e-02
5.049543200984175917e-02
6.622258083567279796e-02
4.357064645027195621e-02
3.801011288986076014e-02
3.616480700917001218e-02
1.083743404174592959e-02
-9.570807164274875573e-03
2.246006508193478662e-03
2.750187951587494337e-02
4.165593413778864024e-02
4.087793020912526554e-02
2.276456522997301335e-02
-1.354491602756403585e-03
-7.260109426807008839e-04
2.831934929179141108e-03
-4.465983753601624612e-02
-1.039712171648456140e-01
-9.192482854807666748e-02
-2.738227705770229781e-02
1.065372641020596520e-02
7.748562003992310460e-03
3.888102809348323655e-03
5.197413453555052576e-04
-3.497707747120620825e-02
-6.737282419715109882e-02
-3.603319838830865152e-02
1.251332770051322846e-02
2.866020846619059606e-02
6.007626233689278283e-02
9.642230453170390347e-02
7.653550836710501515e-02
4.715597331658724634e-02
6.834352640470843510e-02
9.759698888527632010e-02
7.508852559001798210e-02
-5.788045609764136228e-03
-1.058372440928615210e-01
-1.670329336059521164e-01
-1.517383696005187022e-01
-7.739331958280819268e-02
-1.383217695050041433e-02
2.764708605495857716e-03
1.605158121524131315e-02
4.138892949604607019e-02
3.675190621652979495e-02
1.537737763598503483e-02
1.717667018458024844e-02
2.402436935037201640e-02
2.588731842927796331e-02
3.726589089339883698e-02
3.022643588439473394e-02
-1.327808965749928231e-02
-4.983005008406552611e-02
-4.784064153821898646e-02
-2.231870159367291620e-02
1.032234611279221831e-03
-2.537179627676948261e-03
-1.977911394767814524e-02
6.183833417706358776e-03
5.731757053631000159e-02
5.207755360012755741e-02
1.923184466763551426e-02
3.946155551212687101e-02
7.293412141755169220e-02
4.799933793500987117e-02
-1.392263204330277879e-02
-6.179578242521324011e-02
-7.674659946028489221e-02
-6.401205603873003080e-02
-4.786831900265416107e-02
-4.354271952524546574e-02
-3.118285211713543725e-02
-4.495445682816326741e-03
8.726784417260741167e-03
1.658914811083708751e-02
4.949711980358880575e-02
8.400042627020132269e-02
8.437177928123686110e-02
5.930854460472645417e-02
1.898012070648866928e-02
-4.817480148385951816e-02
-1.180870463451777902e-01
-1.284531108812378697e-01
-7.604120146525300550e-02
-2.260720981834002732e-02
1.031659671260111086e-02
5.074321887128684788e-02
9.969659837751761178e-02
1.135108113311710243e-01
6.792276631913606033e-02
1.050306189495385512e-02
-9.316187876426729880e-03
-1.535883122518955611e-02
-3.883217703409282129e-02
-6.586820707607685121e-02
-8.713634507408576924e-02
-1.083232375385039248e-01
-1.031011952535086235e-01
-3.716061631499082557e-02
5.125678157450892780e-02
8.985043423505707783e-02
8.583696686186315095e-02
8.919692633335048193e-02
1.001632026909339418e-01
1.018109029702358032e-01
8.437294809767402481e-02
2.988519517493188477e-02
-3.744508867766940113e-02
-6.368014644446667871e-02
-5.346959804009857736e-02
-4.588886929066569864e-02
-5.072555448820736945e-02
-6.690308217146473391e-02
-7.705859557854546904e-02
-4.030063940308260123e-02
2.221144657096052813e-02
2.909459887750175111e-02
-2.201376123209812519e-02
-5.586402399994721407e-02
-4.217200391816043614e-02
-6.186009821503827763e-03
5.191944234292651672e-03
-3.840730873225496611e-02
-7.494232701223871307e-02
-1.697218513672942020e-02
9.063710472341396374e-02
1.299478531241256007e-01
1.083326033938367960e-01
1.303309595263001941e-01
1.858492932569872358e-01
1.824288328701187401e-01
1.408685811833627066e-01
1.070889448849045578e-01
1.485037279389166479e-02
-1.466979107895984569e-01
-2.539757968645737218e-01
-2.599534543281146748e-01
-2.432042112269960088e-01
-2.275164212690216625e-01
-1.722848896789614115e-01
-9.362398123654194770e-02
-3.231098639381774218e-02
1.797684738750132682e-02
6.620704700983046087e-02
1.023056639480684482e-01
1.427178871262150539e-01
2.029814614032830478e-01
2.451327233478295120e-01
2.198028200343864480e-01
1.217155282876481864e-01
-2.059615764326330409e-03
-9.009392606422651772e-02
-1.329136185572191708e-01
-1.492832129897981031e-01
-1.284631000295581860e-01
-7.245975893450395944e-02
-1.743190153452029573e-02
2.201873893471060703e-02
6.087433570026898333e-02
8.993658577285475186e-02
7.091450842268814947e-02
3.153237669283998068e-02
3.901177147316342575e-02
1.089622316731773954e-02
-1.327674316126157827e-01
-2.133124524205570471e-01
-1.389497240847633874e-01
-6.846509843737624834e-02
-6.842289205749998299e-03
8.139902594833725580e-02
7.526755842755900039e-02
4.182076758435935432e-02
1.061099733295910452e-01
1.382011270411850068e-01
8.069523137213296948e-02
6.246046967787524662e-02
8.483814828120402052e-02
5.451816023090738650e-02
-2.198542081267913784e-02
-7.873093877941403362e-02
-8.297170994242160369e-02
-6.327060513373838901e-02
-6.194456503134522507e-02
-7.070512714240269336e-02
-6.670744861023582273e-02
-5.033539507436999433e-02
-2.513414142298499299e-02
9.732548407770484633e-04
2.230627171610822385e-02
4.130135641082934017e-02
4.229608657592247301e-02
2.041624839343711417e-02
8.119768993955361891e-03
6.556980977300629759e-03
-1.028655986897827196e-02
-1.851243991623948218e-02
3.305503566073085542e-03
1.839170842316538088e-02
1.058740848706278027e-02
9.260719473009902669e-03
1.626744028775331183e-02
1.642210557985675917e-02
2.963476751185045721e-02
5.806290260952264720e-02
5.917338856601986330e-02
3.117656954831629287e-02
6.781729126720562224e-03
-3.326628423840802262e-02
-1.041202756039945609e-01
-1.444347569575021029e-01
-1.123482661485250556e-01
-5.457851333989860443e-02
-1.723138212684238724e-02
1.722124769185561996e-02
6.589614972925468550e-02
9.350449035923699692e-02
7.253222402793399470e-02
4.749165491462804811e-02
6.302042733034068922e-02
7.026848823086384588e-02
2.008347988242865922e-02
-3.318787373470232643e-02
-3.834263824286104905e-02
-3.818466092969730052e-02
-7.859904854813523634e-02
-1.139015287211345984e-01
-8.069012192098361236e-02
-2.028276233595231043e-02
9.594928810890017423e-03
4.441327899561356429e-02
8.447677748067498882e-02
6.815643450957897809e-02
3.436297415082108925e-02
4.803978251509209707e-02
5.363424046987774058e-02
1.824744837420760879e-02
-5.049391992825726441e-03
-2.484594415640709042e-02
-6.002500647720808435e-02
-5.498837285527411606e-02
-1.084119260020250872e-02
8.481471900645774081e-03
7.099618154993931132e-03
1.382082232210795313e-02
8.546585768968776448e-03
-8.417552418139177817e-03
-1.351716312449720812e-03
1.695609703446854591e-02
1.043040404491514875e-02
3.565297769007910560e-04
6.869007448993573982e-03
-1.131995114618248449e-02
-6.696056682319832809e-02
-9.648066330988022687e-02
-6.530954777946093581e-02
-1.851458417849419572e-02
1.198940629219143010e-02
3.734554072929662655e-02
4.938361161796599869e-02
4.628822645676953368e-02
5.489692285089777662e-02
7.381482545076575863e-02
8.543227319195231817e-02
5.908753595196233888e-02
-4.333280325043919329e-02
-1.270707795268443130e-01
-6.363968349220255893e-02
2.487049340996125638e-02
-8.433277092750320753e-03
-5.260894521898763776e-02
-3.498863611150697384e-02
-3.504398306076614983e-02
-3.637320415986359384e-02
8.291916499336542470e-03
5.443044375753883224e-02
8.257449768742496088e-02
1.053260574531802440e-01
9.539097696390529124e-02
4.201952565428342112e-02
-1.536993859378901414e-02
-5.078640594932001817e-02
-7.958069379180254810e-02
-1.091024258677138481e-01
-1.101260646478287170e-01
-7.155701033939934619e-02
-3.041775414577750636e-02
-2.013739576916757923e-03
4.077754644856648736e-02
8.763796575224784557e-02
1.014745787373666497e-01
9.894959313916559807e-02
9.705735697869277701e-02
5.978366997999309818e-02
-8.069956787398850639e-03
-4.883485736721428910e-02
-5.183024544065388539e-02
-4.328300518891996240e-02
-3.655375693825042849e-02
-4.842887489439376414e-02
-7.840937376461815100e-02
-8.580849252554303974e-02
-5.390841378153299335e-02
-1.024692826819431982e-02
2.751718123782071618e-02
4.323349132253462984e-02
3.714114651569293268e-02
5.538281213989176832e-02
8.729828256834216982e-02
6.825744372583651687e-02
1.295730772464593478e-02
-3.180925285125708185e-02
-5.062975641506621549e-02
-2.490792912343492774e-02
1.566119809289706621e-02
1.918471618185405014e-02
1.700993628743464534e-02
4.100720894216473844e-02
5.361997955161969948e-02
4.009502107952406247e-02
1.896594505756473564e-02
-4.274778764966864937e-03
-3.087747873573493812e-02
-7.051067071282897392e-02
-1.153151657022627036e-01
-1.307361078184204328e-01
-1.060846022635036356e-01
-6.078270962259957333e-02
-1.619402343234535580e-02
2.921890624908837428e-02
8.934767683585494169e-02
1.272600062529036513e-01
9.941578712197013390e-02
5.455128669146826897e-02
4.692461129595223990e-02
4.072707470104139360e-02
-3.474285404095840257e-03
-5.975205238748789588e-02
-7.171671705583135270e-02
-3.029628811421352513e-02
-7.099613181068074007e-03
-4.033809601091579988e-02
-7.850832405008974224e-02
-8.623423378929681582e-02
-5.877766940715145605e-02
1.172822189468362281e-02
8.523024653733637934e-02
1.066751256328136027e-01
1.002496107717397167e-01
1.140978614584009787e-01
1.142425052043131023e-01
5.472208995219322858e-02
-2.440135705097875793e-02
-7.358781245552339922e-02
-8.694015663285384332e-02
-5.986220490908668312e-02
-2.069881269199993698e-02
-1.933543869501963899e-02
-2.699868914776975062e-02
6.492382606152841129e-03
3.947449137703927524e-02
3.159966244721617440e-02
2.238458962814154907e-02
2.087044896289178691e-02
-8.326973820914112395e-03
-4.512848052937553506e-02
-6.403540262718879217e-02
-1.036753216103829534e-01
-1.769457998896678541e-01
-2.140247154084861658e-01
-1.558356708155559101e-01
-3.358332607012837895e-02
7.481498516191205372e-02
1.203280795233860334e-01
1.205974836776874393e-01
1.472874661496393900e-01
2.324110662740906386e-01
3.185642124328797453e-01
3.356768756130680265e-01
2.635001470569141580e-01
1.404132230701897188e-01
2.064699635743789258e-02
-9.385995879483602367e-02
-2.064262692645232322e-01
-2.818825122838129471e-01
-3.192881867359766979e-01
-3.371845254372407008e-01
-3.036884063093893693e-01
-2.043106735412562047e-01
-9.284579112646822174e-02
-4.104790505562137815e-03
6.071826640785093349e-02
8.458085304118753700e-02
8.412766647354602556e-02
9.061414225234776243e-02
8.154776871916952219e-02
5.896385667598429137e-02
6.578591657718084462e-02
9.245865657984107810e-02
1.060181701562896567e-01
1.113007534768470086e-01
1.204332456506635590e-01
1.162500068812558351e-01
7.631920349885004673e-02
8.096318767593061946e-03
-6.912891903381020164e-02
-9.102157594579607380e-02
9.072513660268548968e-03
9.455938693817356189e-02
-2.941900308631845672e-03
-1.443534247828372474e-01
-1.517456712811448838e-01
-1.010340787916742533e-01
-7.379840595849679330e-02
-4.324219777251404190e-02
-2.699468232870377501e-02
-3.963437035404977771e-02
-2.863640782172084676e-02
1.862420286724670790e-02
5.817677409104992509e-02
6.501439049815049831e-02
4.710838981293596212e-02
3.133883528429659560e-02
2.765624262760549290e-02
1.459609602353794874e-02
2.224087205211272480e-03
2.686947605834495711e-02
6.247314371379067421e-02
5.914039632377224992e-02
2.995210188880457688e-02
1.584585698775112760e-03
-1.819142049417668550e-02
