1.535583924300394643e-02
2.145255523136294779e-02
2.312924549140181821e-02
1.861847058068619859e-02
-9.875408746370148427e-03
-4.520451825914305333e-02
-4.857596933909499870e-02
-3.873320070961948532e-03
4.536896482597174013e-02
4.175109914727918176e-02
5.462796732414555018e-03
-3.362950992328141934e-03
1.108973920469998042e-02
4.419655273690682729e-03
-2.265783610831607203e-02
-2.975334730463417843e-02
-8.983076024206931159e-03
-8.237313037459054535e-03
-4.419510667367346213e-02
-4.489925770457499354e-02
1.795208682557124236e-02
5.281751042901417642e-02
3.188178987484742433e-02
3.212650792911896092e-02
4.445886998573084226e-02
1.971967127496343508e-02
-2.969407513600541733e-03
-4.862458563762777838e-03
-1.785227182006074442e-02
-2.745059510086009236e-02
-1.520771822546962762e-02
-1.285325180914398402e-02
-3.870506373850864101e-02
-5.141066154912440900e-02
-4.715427775486536431e-03
5.982846369344847759e-02
5.912667926138780172e-02
1.991703507767501186e-02
1.499654416076743636e-02
2.289117099955734896e-03
-4.669407246149225726e-02
-3.586383653220151513e-02
3.647808587887546583e-02
2.973677272278404254e-02
-6.203038168193607954e-02
-8.973944827093052745e-02
-2.146775440593785486e-02
3.072224073435465830e-02
2.578207246687410498e-02
1.591213451869441867e-02
1.728743559933060628e-02
1.738777257845169552e-02
2.320289118044269183e-02
2.821461530265834822e-02
1.084993223102141170e-02
-1.226244426837441032e-02
1.448077208063960897e-03
3.190605376499852652e-02
1.907490710038876880e-02
-1.723061063938709225e-02
-2.242152531015657521e-02
-1.024477233342233409e-02
-1.528273563388271063e-03
5.770778913242615056e-03
-1.039451964572997954e-02
-3.671744860599091692e-02
-2.632772159357752578e-02
-6.982161797558863320e-03
-1.945362868321087041e-02
-2.521539899728363759e-02
-1.772302782759435300e-04
1.916893883181160912e-02
1.559116223024491384e-02
6.892891132884229610e-03
5.743447189631370117e-03
1.169275873695917352e-02
1.354340192719584099e-02
-9.244216092508289635e-04
-1.637609546624543139e-02
-3.012075032954378284e-03
2.643396649416490315e-02
3.009919592431348559e-02
1.413828979376962475e-02
1.538248003783665788e-02
1.892905163508747796e-02
-8.163877127486583729e-03
-3.764876969630598369e-02
-2.743551842413769620e-02
3.134737143075124952e-03
1.255721385132155254e-02
2.269589847769522360e-03
-5.568277324428909901e-03
-9.904044756656828208e-03
-1.028675688782753825e-02
4.792613236382464205e-03
2.385563475768062019e-02
1.870196376717652223e-02
-3.723392253336327892e-03
-3.635771698074578492e-03
8.165518949632235776e-03
-2.279089275042791782e-02
-5.551574738058390884e-02
-9.995963430085635579e-03
4.830501790522766237e-02
2.852693177349256357e-02
-1.719402897809124003e-02
-2.230371023476191567e-02
-4.975536693319905848e-03
4.112542913019611585e-03
-2.799929866567872627e-03
-1.534736770732234544e-02
-1.701806606250634221e-02
-1.185496131004726977e-02
-3.689882688483975791e-03
2.035456502213783478e-02
4.451044702408631787e-02
2.894930234792951126e-02
-1.356581811088936398e-02
-2.255959140838305343e-02
5.527535663969138438e-03
6.258985775563648789e-03
-2.775228142055722463e-02
-2.426480173987992026e-02
1.827898993101774450e-02
1.256859970842433630e-02
-2.723167498860002561e-02
7.706900838323066383e-04
5.479367838900789378e-02
2.748278769673515032e-02
-1.102203063500833621e-02
3.027589765547413977e-02
6.177164828423260812e-02
1.488430608913145735e-02
-4.468841743443874998e-02
-7.279018712167034666e-02
-6.622046634813048838e-02
-2.998634752010728710e-02
-1.227440135167184084e-03
1.085790108880211637e-02
1.757773723504469851e-02
5.412269228795021057e-03
-4.061237482868623218e-03
1.670449305256442932e-02
4.182063853670223152e-02
5.028323884849034836e-02
3.764603913346542541e-02
5.008682080279411135e-03
-2.243962917917007027e-02
-3.333978437090241720e-02
-3.150095675369477682e-02
-1.545380753324854944e-02
-5.308029390971258539e-03
-8.867078828863429740e-03
-4.485814382398208011e-03
1.899506801556619497e-03
-1.073429258389006682e-03
-6.858286806543975600e-03
-2.346342705175583770e-02
-2.895337094868583386e-02
8.677604892326660699e-03
3.502985252106421282e-02
8.931662538604563661e-03
-3.051849993346499815e-03
2.402686741341106963e-02
2.309733542598461226e-02
-1.043335495655344294e-02
-2.136432776155755553e-02
-1.940988470197644450e-02
-2.175916249811420816e-02
6.213529260634895364e-03
4.173024447929908620e-02
2.903495839994100006e-02
4.327656120083438890e-03
5.689053560710810586e-03
-9.418930029196633663e-03
-3.671463884737564964e-02
-1.475275494939567306e-02
3.253989201522738961e-02
3.860774980314050919e-02
1.469001841239660905e-02
-7.507192958202712693e-03
-2.368789978653551564e-02
-1.196147010290164563e-02
1.494581412111867062e-02
-8.106237637554813275e-03
-5.851261531224114659e-02
-3.691253280012447846e-02
4.242968719123423049e-02
6.620381814288990585e-02
1.633055074011993679e-02
-2.122158885503715522e-02
-1.106163992758873137e-02
6.537102394038903433e-03
1.190070180117602794e-03
-2.100024169616527409e-02
-3.113807518940395896e-02
-1.304543878117416650e-02
5.484008576479340244e-03
-1.078337137711706147e-03
-1.413204732329903339e-02
-7.232984092709821185e-03
1.214529250732835318e-02
1.460472853281335678e-02
6.910031727328982271e-04
3.096232916500927645e-03
2.308985759026956769e-02
2.856588617652812065e-02
1.216027306471164325e-02
-9.295842768713744042e-03
-2.604887367041512636e-02
-2.712664206887266394e-02
-2.032959751041942160e-03
2.857510235984973140e-02
2.713917971653317593e-02
-5.512027994940618680e-03
-2.360425528168106843e-02
-1.963627101835470519e-03
2.158676931495581014e-02
1.281064532845806181e-02
2.260252398682347473e-03
1.283129140409614531e-02
8.498021150862539175e-03
-2.385030696333827541e-02
-4.339387541880149191e-02
-3.059979948451092141e-02
-9.829226204972812964e-03
-1.046152501086260872e-03
4.375021148362138318e-03
1.478715014185002369e-02
1.823478885478795747e-02
1.040460967992838659e-02
5.402807208704274271e-03
1.131740448097891781e-02
1.520962497049720662e-02
6.260190217619815509e-04
-1.683735914625635391e-02
-1.686237102329605012e-02
-1.350851999754413071e-02
-6.063708137709248637e-03
1.663170632934501264e-02
1.864583322718042432e-02
-1.529615357879925142e-02
-3.103972642540851062e-02
-1.368569509338929575e-03
2.314821292913725806e-02
-1.711577869044115033e-03
-3.470498865106302205e-02
-1.723835082114229603e-02
2.161443780562825878e-02
2.388321621238132311e-02
2.243745524094705249e-03
4.476038787047273600e-03
3.316305254828391669e-02
4.445011975382723995e-02
2.084833286950665832e-02
-6.501167347481587311e-03
-1.897512820661999278e-02
-2.283166421343930941e-02
-2.059809139182849219e-02
-1.308450849970995561e-02
-1.070358634202222409e-03
5.885712605040092221e-03
-3.562611688567340548e-03
-1.339621391764663286e-02
-6.480998168360079317e-03
9.839717689657058453e-03
2.611697172466521250e-02
2.501457552678016186e-02
-2.734196785351790480e-03
-1.896031801252448870e-02
-7.506377794902490894e-03
-1.502022902171650139e-02
-4.062678606028612138e-02
-3.084954224295804320e-02
-1.150806927211753435e-03
-2.274741127863237622e-04
-4.897567528711719610e-03
1.491647588132291070e-02
3.153305477522555522e-02
3.962385310175529224e-02
5.056245479755266947e-02
3.008947547917576598e-02
-2.463608137972892950e-02
-5.969765885507487269e-02
-4.901632107442112363e-02
-8.786458629841897849e-03
2.184255702968487464e-02
8.276865454371215569e-03
-2.479363813222828367e-02
-2.134123699437528304e-02
1.753076021825569764e-02
4.190379278810354990e-02
3.562618175223734168e-02
2.677977185168703075e-02
2.276943073876596529e-02
1.548643432143850807e-03
-2.797515585829437462e-02
-2.829124524045987035e-02
6.721018907677137923e-03
3.546534574296406755e-02
1.709354193185263701e-02
-2.067047006606668666e-02
-2.596779796794033285e-02
-1.690706035711332655e-02
-1.647705808151280621e-02
2.864748688608679487e-03
2.634697728791826968e-02
7.567496258104071047e-03
-3.194246131458159527e-02
-4.167784612831011704e-02
-1.990941999064080661e-02
3.045001361245348176e-03
1.016823998262656424e-02
7.682584717446344635e-03
1.106199654215383240e-03
-1.084344759945403240e-02
-2.067490183150711563e-02
-2.823896837989899739e-02
-3.896065298426060197e-02
-2.775130882725584947e-02
1.690903021587727290e-02
4.708678190894898669e-02
3.767143127059344870e-02
2.706886433643680354e-02
3.735775247530673249e-02
4.850667319671585209e-02
4.923493034352574571e-02
4.420713092853127690e-02
2.850533863729643250e-02
4.672198179005561912e-03
-1.271941756678868565e-02
-2.811186515709999945e-02
-4.244121254345864513e-02
-3.754928317695394036e-02
-2.326224423387377588e-02
-1.895743234366295549e-02
-1.360996384203123910e-02
-1.723598402868000909e-02
-4.289243299144308158e-02
-4.041953907075351154e-02
4.037231054084749332e-03
2.577086994321894226e-02
1.531444069062795794e-02
7.590806976720608328e-03
-3.293908289798782533e-03
-2.053605154413461892e-02
-2.365180733085689782e-02
4.355195588865434786e-03
4.836374477510964331e-02
5.280047226578177266e-02
1.072747808204426757e-02
-1.583070145626717939e-02
-1.067409774694629346e-02
-3.999643654077705834e-03
8.959396211759701467e-03
2.896137260711873287e-02
1.537102034453587465e-02
-2.484795778085192169e-02
-2.672304162697648408e-02
5.671371250864459118e-03
1.425123088337416910e-02
5.198691599739300832e-03
7.928335467618773461e-03
1.031727806330539482e-02
2.325923012477053818e-04
-1.638130458247203519e-02
-1.411119710176163104e-02
2.744212455813552221e-02
4.933043735946365110e-02
-7.322252218850767817e-03
-6.803296400494814045e-02
-5.925690803463731782e-02
-3.521419321247354350e-02
-2.659490238139645968e-02
1.035355126817432553e-02
5.637485180595727674e-02
5.694659913276029634e-02
2.917918448672564280e-02
1.115203233059184826e-02
-2.638202495671905078e-03
-2.390774382430610814e-02
-3.904409995293026819e-02
-3.207991036496282006e-02
-8.964359902205450842e-03
6.082250869748048738e-03
7.472898890889909107e-03
1.588881597799497378e-02
1.599116027974030810e-02
-1.283140486196185370e-02
-1.655227825662076990e-02
2.018895264574456158e-02
1.956735617056263102e-02
-1.063240415845238818e-02
7.034072478421969296e-03
3.112374419431186701e-02
-6.094428658907753704e-03
-3.769923292501044937e-02
4.574162668996817685e-03
5.870346198075240135e-02
4.816922402550406768e-02
-1.159553534598797321e-03
-2.204334186140403246e-02
-1.543949203155012620e-02
-2.253990873187614735e-02
-3.367332726247539154e-02
-2.480837151353445721e-02
-7.299489407251284062e-03
6.676317114061344760e-03
1.449200574283727658e-03
-1.975929997050341821e-02
-7.194966375648884083e-03
2.838345333727449599e-02
1.940888559774398350e-02
-9.951329208441331980e-03
-2.865749708296351592e-03
1.486289411351653274e-02
6.471537630466951511e-03
-1.271872006840092315e-02
-1.193592423026300364e-02
-2.549661214838302905e-03
-1.518038806231619513e-02
-2.309804807909403637e-02
-1.709348672082866213e-03
1.199451113481672139e-02
7.042897401071510424e-03
1.416730285276476993e-02
3.402914349095304686e-02
2.982041494207847768e-02
-9.497089979017072497e-03
-2.325714862281209883e-02
1.676371673747294871e-02
3.014838390546616120e-02
-1.127529140726834384e-02
-2.620360632712103593e-02
-3.079806370198390209e-03
-2.904222003840624573e-03
-1.513423359065184728e-02
-2.154620693056740789e-03
1.999606249711526756e-02
2.748561089761310944e-02
1.487509377951119760e-02
-6.078036011423178578e-03
-1.373716939626160212e-02
-1.513100397155891369e-02
-2.176018429396716497e-02
-2.126485328530370103e-02
-1.640152325036760630e-02
-1.144728654124142070e-02
4.953418497083084127e-03
2.353376564311773431e-02
3.062491865862016979e-02
2.587519520837805800e-02
8.885254188109065199e-03
-5.825287544546049051e-03
-8.637245362648876199e-03
-1.413098214769635888e-02
-2.840759555284649157e-02
-4.763961987357009237e-02
-4.911072390999363102e-02
2.839946956363456187e-03
6.996059292183914868e-02
7.311713204575503999e-02
2.940709798333561442e-02
4.896484461858830253e-03
-3.100655644856779858e-03
-2.647425761080534831e-02
-5.941547339768793456e-02
-6.341720728907479510e-02
-1.712693176303099751e-02
2.045084600764731156e-02
-6.350255130561399328e-03
-2.464413358789694850e-02
3.152033131632477753e-02
9.231850344645289863e-02
9.484310206445498159e-02
6.224542837152281100e-02
3.201236785140092189e-02
2.102977040446549553e-02
-3.422243043200814613e-03
-7.029241303241713645e-02
-1.089059962540666199e-01
-7.109408621786375559e-02
-4.335495800307195835e-02
-6.600365506238935198e-02
-4.717353839256265002e-02
3.135347668122364512e-02
7.042621639421969837e-02
5.020424536839156876e-02
3.451710329781558506e-02
2.093784884716852826e-02
-1.981223186174679157e-02
-5.774449902062121776e-02
-6.529870641063224845e-02
-4.078659658106806307e-02
1.500141036743596334e-02
6.824804204296949783e-02
8.510784436045325252e-02
7.307872557851190221e-02
4.171629736691522677e-02
4.426359487035092313e-03
-1.734663438181672721e-02
-3.340397351540524973e-02
-5.266362477474643283e-02
-5.090684309709487404e-02
-1.701851698371866645e-02
2.537140232853038815e-02
4.120491932223302456e-02
4.212106550215850148e-02
8.299909461756904694e-02
1.013263073339780440e-01
-1.389794862601668492e-02
-1.319899233544300221e-01
-9.290268914941370026e-02
-3.073987677563228341e-02
-5.926490495094927785e-02
-7.070785332993956285e-02
-2.656284245520883214e-02
5.102444357547112827e-03
3.411347178818763259e-02
8.963586052399680204e-02
1.174629318780351095e-01
7.300968990322907748e-02
5.730850563220347971e-04
-5.498112525773285464e-02
-8.684170141184718861e-02
-7.075540479480388334e-02
-2.025913167870183051e-02
1.175551605780867032e-03
7.411712484722944930e-03
5.073481962887260721e-02
9.285068779957766916e-02
7.601430677932652369e-02
1.574410057868132207e-02
-3.651937221012487716e-02
-3.101011075034305897e-02
3.671116092915217843e-02
8.082332038041170619e-02
2.572886881032469819e-02
-7.334805118558682113e-02
-1.280153225919349325e-01
-1.298338589659100706e-01
-9.086792342969773895e-02
-2.649599050406293427e-02
1.762487743109377586e-02
2.534303810734675477e-02
1.372924755850090869e-02
-1.376008171094979596e-02
-4.524457190946526430e-02
-5.644197476722466467e-02
-2.684415914275301365e-02
5.279004844487404646e-02
1.196324231837993246e-01
8.239966276644930532e-02
-1.354317797782632511e-02
-4.495423959251027002e-02
-5.799748666355412224e-03
4.354949927074115712e-02
9.158712465494064925e-02
1.212237587829917557e-01
1.028974054336013189e-01
5.223880947788161339e-02
-6.663469653824841479e-03
-5.988314342115656080e-02
-7.837418738347777525e-02
-5.659260231283964881e-02
-3.623036449771390582e-02
-4.624497949494923987e-02
-6.023765657422799902e-02
-4.896572548507336503e-02
-2.808469807382067696e-02
-2.201425169637485912e-02
-3.059333557463758332e-02
-2.517948018909790808e-02
2.257334515845904610e-02
8.368514155534509391e-02
1.189799094696699366e-01
1.389917490950202950e-01
1.286361462567445491e-01
7.681425908912958844e-02
7.714901870671737882e-02
1.832240673821290133e-01
2.932256506372055704e-01
2.799263634977256499e-01
8.889084046561161745e-02
-2.046996555779904692e-01
-4.184533895625831557e-01
-4.686744461849646770e-01
-4.375659729182230784e-01
-4.197295111179258909e-01
-4.129184428600788381e-01
-3.348305564774841092e-01
-1.582188674329978173e-01
2.961124176087688575e-02
1.757009034222916932e-01
3.039615712268625147e-01
3.967079307603226246e-01
4.109403668841211665e-01
3.462010893013724999e-01
2.365201320159661669e-01
1.376308382997203372e-01
7.346409897457621685e-02
1.371113311580623301e-02
-4.891546958801618744e-02
-7.868116918369327806e-02
-6.821248642121069405e-02
-6.337232231793001047e-02
-9.215442273113716443e-02
-1.077721911542833672e-01
-6.272100758582556390e-02
-6.925461827316299612e-03
-6.306378983705495170e-03
-1.093189149467189807e-02
3.471856029276474548e-02
6.144303351700768773e-02
2.563459813667929438e-02
-5.768208911459836788e-03
-7.937653612881182680e-03
-2.290029207621882210e-02
-4.276317372667524930e-02
-2.595375916181566142e-02
3.058331774508321697e-03
-8.245219402409149217e-03
-3.163048419547513646e-02
-2.970518602419178200e-02
-4.424825333108697856e-02
-7.422257488109297585e-02
-5.348478193678730952e-02
-3.794233848027396289e-04
1.854320477256968941e-02
1.577829857676708164e-02
2.550766107156961227e-02
3.239048216321924883e-02
3.546770815142954308e-02
5.118756989022483356e-02
5.195881817193253455e-02
3.033360047685330213e-02
2.551877509874421121e-02
2.276789294484963394e-02
-6.149758020327071584e-03
-1.765795384313692887e-02
3.166474033002093097e-03
2.796672215631920352e-03
-2.150616918908521136e-02
-2.656672858205382654e-02
-2.149843164760831260e-02
-2.221811537198636541e-02
-7.444380336202316428e-06
3.034177741794029382e-02
1.737297224629088394e-02
-1.025109968837801394e-02
-2.150542814379492740e-03
7.668403588358680203e-03
-1.685943982796141421e-03
1.373922142797427345e-02
3.863235283061239311e-02
1.533566004994555733e-02
-3.740450829149370715e-02
-6.975871996937814401e-02
-6.596740495701210183e-02
-3.453123588199200067e-02
-1.244364635932160117e-02
-1.197225764408518280e-02
7.700858115880763848e-03
3.652111453129742308e-02
2.105775291819015488e-02
-1.139930517114409389e-02
-8.249279989483888909e-03
1.125872283238096155e-02
2.233407893718400081e-02
2.797834616828584475e-02
2.335835425543835234e-02
1.322196107115553541e-02
8.730531213630488008e-03
1.294240367721402087e-02
2.999558798868878773e-02
3.622210604736743333e-02
7.963430427859210375e-03
-1.467545577367395521e-02
1.146378196267222940e-03
1.854757234196906593e-02
4.204657120478274591e-03
-2.517240830036773791e-02
-2.918703058364881947e-02
5.467066443123017039e-03
2.818884865757720348e-02
-4.024119898571036635e-03
-5.027154369251513044e-02
-5.697015317476515628e-02
-3.261005085774783263e-02
-8.957901710308566190e-03
2.723933885321741695e-03
4.060070242985780627e-03
3.560181735273365566e-03
1.279298060537204657e-02
1.677121436455106598e-02
-3.684998871053791689e-03
-1.307199164623768124e-02
1.037189802345617196e-02
1.245116813921741047e-02
-2.269084857162194033e-02
-3.685609420234339101e-02
-1.525543322573249747e-02
3.249967979325722386e-03
8.011244019575012448e-03
1.429082454449296172e-02
1.108728897450175083e-02
-8.915698693132028882e-03
-6.268850454070383146e-03
2.608658825314012428e-02
3.793296466818445872e-02
2.832995735591520292e-02
2.839196517933096492e-02
2.167059853158350910e-02
4.670352007260215009e-03
9.553220515381349864e-03
2.094160158472229555e-02
-1.425594562352431845e-03
-3.622400438583082277e-02
-4.305930637872155964e-02
-2.979703642468470304e-02
-1.312256044796901791e-02
3.237471230857377064e-03
1.297348479514286515e-02
1.659748049877916160e-02
5.266135370460597875e-03
-1.546228665873942629e-02
-1.501057406810693724e-03
2.956376758940876259e-02
1.222910738002348438e-02
-2.009037766707974862e-02
-1.593306169879988438e-02
-2.109185257944308500e-02
-3.966710202238526300e-02
-8.642312076244801355e-03
4.118205709034739731e-02
3.602607214299551053e-02
-7.779079431768649855e-03
-4.646139901908120928e-02
-5.680898297101632383e-02
-1.315733101362645541e-02
4.635894349210981785e-02
4.842610970259404041e-02
1.848759025028904462e-02
1.275375600327600945e-02
6.797875208871068976e-03
-1.895269860571387188e-02
-3.319455314911583244e-02
-2.766284101362358194e-02
-1.739670288100961248e-02
4.562021492343829423e-04
2.280822464720673806e-02
2.441702929108878831e-02
6.396931701328798653e-03
9.734480433867459537e-03
4.054733693068265227e-02
4.964767557363571754e-02
1.977165091932074625e-02
-9.773993401336842149e-03
-1.510170316728617727e-02
-1.306475598286369923e-02
-2.189148816148712984e-02
-3.184904814618874647e-02
-2.390273998337794428e-02
-1.536404320559229750e-02
-3.856589332094809836e-02
-5.949169942930197102e-02
-1.898613011962689903e-02
3.800163636264686923e-02
3.722395972532938080e-02
2.272499888089451331e-02
4.028705212724205398e-02
3.199126545139978350e-02
-1.525332427709276753e-02
-2.756489922280825830e-02
1.227417787658576821e-02
4.719474962873537044e-02
3.904033602584291301e-02
2.450030167160619724e-03
-2.434086779588447852e-02
-2.550716910790546549e-02
-1.284496401526442899e-02
3.705971644863146133e-03
1.566733252532972673e-02
1.155472942534721201e-02
-1.299837958244663607e-03
-9.219064478636729981e-03
-2.066583552574937505e-02
-3.326617788842443912e-02
-1.970353753186928139e-02
1.375514628596878099e-02
2.255722994337774553e-02
-3.202920961073738547e-03
-1.536532835033418108e-02
1.442206848193162277e-02
3.980432674926309700e-02
1.755662458349939101e-02
-3.435901835393943837e-02
-7.955111846647422436e-02
-7.230873872417788173e-02
1.381902986529160403e-03
6.127496182402410174e-02
4.340141678031801675e-02
-3.837111998062300161e-03
-1.643239956074124888e-02
7.521587324265778009e-03
2.422816364029433886e-02
-1.335960729087259501e-03
-3.422314715145408776e-02
-2.470303625372304024e-02
3.116793483256590641e-03
1.125228439241053070e-02
1.045039121437325337e-02
1.074527631469042455e-02
5.604916095051423915e-03
2.695430943865050315e-03
1.277004183681151005e-02
3.367226793929607026e-02
5.500208154348525114e-02
5.451690960029157568e-02
1.429846488360839857e-02
-3.164954945848517942e-02
-3.102642629842945754e-02
-1.260686691899249451e-02
-2.609692959418495606e-02
-3.713535963012917773e-02
-2.573907286026470495e-02
-2.307495315645151021e-02
-3.158562588631014332e-03
4.365736265848077502e-02
4.436526694263280557e-02
-5.850915431173490944e-04
-1.574288295001757126e-02
-8.311820208827765122e-03
-1.815086965070179109e-02
-2.123135142620472329e-02
2.582681344782730010e-04
1.323559579955070967e-02
-1.071415453092399578e-02
-4.660204534270043913e-02
-3.884294393808665480e-02
1.048831668786354143e-02
3.769228446322189091e-02
2.594330162596789405e-02
1.518806632971015508e-02
1.295855894591291420e-02
3.231272221911708070e-03
4.440897469595700940e-03
2.346090437290089190e-02
2.049115060866676594e-02
-7.968506565429071820e-03
-1.752568588998767996e-02
-8.807938462535740143e-03
-5.646538066343669698e-03
3.872112118231421651e-03
9.760864081093398661e-03
-1.151976384568752579e-02
-2.450698783813441695e-02
-4.651216710608987136e-03
1.020656549531490445e-02
3.645544138289072596e-03
-2.933500696423166007e-03
-5.993188485805769515e-05
7.109422231921291857e-03
9.101013006325623864e-03
6.379534844931210140e-03
7.897808932540715740e-03
4.705843168717889187e-05
-2.686646322205871878e-02
-3.653019397794331907e-02
-8.452410159829792241e-03
1.921255268323410897e-02
2.379531064339367868e-02
2.155264758104100120e-02
1.417705171791907789e-02
-7.594551712894902131e-04
-5.271715576213260000e-03
6.730162263981574917e-03
1.217722362068722128e-02
-9.294375656970253058e-03
-3.594949247178492319e-02
-2.801561454221738676e-02
-2.483395425104169968e-04
-2.098225738021532345e-03
-2.357779931342295077e-02
-1.808250243912700242e-02
3.454001040060921974e-04
3.079507757233618248e-04
8.800236933465765965e-03
2.715917890196983819e-02
1.727115960706432710e-02
1.320177289126099433e-02
3.556278923325587038e-02
1.514332078249702729e-02
-3.104924910561257523e-02
-1.270732439673769032e-02
3.506480133367823743e-02
2.958439678487933752e-02
-8.979211062238624808e-03
-2.603281469695407913e-02
-1.663644939835512079e-02
-5.551855940644567083e-03
-4.565616598999322137e-03
-1.620950039233180415e-03
5.964286050913105396e-03
4.590457666374633469e-03
1.335153815916062092e-03
6.143784556813371676e-03
5.397185156512488390e-03
-1.337517928636803395e-03
-5.347819654229652407e-03
-1.697241492830054571e-02
-2.818854603081178203e-02
-1.002790481098133311e-02
2.373835911532432702e-02
2.327522581239623023e-02
-1.585168433648332514e-02
-4.250181341482749120e-02
-2.302575075032305477e-02
2.641699730696882645e-02
5.650636541723560308e-02
3.233175392512464830e-02
-6.229444284422351770e-03
-7.677286632388933066e-03
-5.377493990245708899e-04
-1.298977375411496452e-02
-1.491579665113630833e-02
-8.566761332423705744e-03
-2.683749654776304908e-02
-3.576844292586017771e-02
9.370880002723014357e-03
5.410233152140284107e-02
3.411816638161523779e-02
-9.015036364460391263e-03
-1.535513975093767518e-02
-1.837801013604183770e-03
-1.812957924003330903e-03
-1.115485657924233411e-02
-1.434916144187376244e-02
1.589385797525902973e-03
2.509886370486832247e-02
1.422675519967171384e-02
-2.259765920238820947e-02
-2.286826152564207931e-02
1.321946696042611800e-02
2.176863398326914917e-02
-8.820117233525392314e-03
-2.180864308493055126e-02
5.901597485962814006e-03
2.237177771509801794e-02
-1.202278276954474312e-04
9.111588702035188555e-04
5.084978868639622451e-02
4.497071930396558115e-02
-4.944062231585885647e-02
-7.693733225015579602e-02
9.780094027805195239e-03
4.267460077024216175e-02
-2.273387403398164502e-02
-4.760104785035428054e-02
-1.779159335050546978e-03
2.332578350585920099e-02
1.149521179378207476e-02
1.724988502252718450e-02
3.790471914754891397e-02
2.152031191512365424e-02
-2.106908808577027600e-02
-3.269414636153013254e-02
-9.629625397463077371e-03
1.322375347362064919e-02
8.804508091521960969e-03
-2.127349725780738193e-02
-3.224792675361964206e-02
-1.337584142231586573e-02
-1.058528439400834714e-02
-1.173186931027904098e-02
2.512686297901556287e-02
4.863825546882695472e-02
7.394160283584222393e-03
-3.157103271049031129e-02
-1.581215962784951121e-02
-1.650663108046818150e-03
-7.902997739378657405e-03
1.099676276467714646e-02
1.941540488969425646e-02
-2.869277359034212715e-02
-5.290857230741501799e-02
8.870273358983854495e-03
6.979981630786236124e-02
4.996155102911175455e-02
1.116920940422841402e-02
2.608341333733522893e-02
3.530209487305158850e-02
-2.326918695822023306e-02
-6.603257287757513527e-02
-1.910575791621980588e-02
3.434784711593803080e-02
1.761452968854772608e-02
-7.323337405298836235e-03
1.363276275232632416e-02
2.489747557192645636e-02
-5.366164800914377878e-03
-2.534483985139148604e-02
-2.171953440848289896e-02
-2.816829324520826391e-02
-3.463815619669233931e-02
-2.714929321656128769e-02
-2.804440997548583378e-02
-3.014757221014023256e-02
-4.777597765356076873e-03
2.974841343335600519e-02
4.036928897096483948e-02
3.424940627663802112e-02
2.754191371302554953e-02
1.133168900027296810e-02
-1.527360014346913764e-02
-1.151105461218779324e-02
3.657173372685565416e-02
4.893206348441096060e-02
-1.466917044288805830e-02
-5.419723068645566910e-02
-1.355131319793084418e-02
1.919397239184395670e-02
-8.991698922895165896e-03
-3.724184886789703303e-02
-2.047217467950407030e-02
7.271427752931660174e-03
8.081706069788549204e-03
-1.190594279912795747e-03
9.263357935172990970e-03
2.249565233862486219e-02
9.170800138578627525e-03
-7.249931872643593928e-03
4.664783202607125992e-03
1.849974675852220085e-02
5.180307092895866661e-03
-1.660317256615967754e-02
-2.092050980040939881e-02
-5.026290070568265739e-03
5.056701745614632787e-03
-6.899145022625460290e-03
-4.950534251335373878e-03
1.122631258747407157e-02
-9.606984206410922045e-03
-2.958024343207740769e-02
6.907392750850708044e-03
3.272740876484674794e-02
1.183514797051168910e-02
9.619751844176198732e-03
2.134706666213419951e-02
1.450944042187079369e-03
-8.437836483561951539e-03
2.368722188540504925e-02
4.632341050255329995e-02
2.307100195356816263e-02
-1.200645866952150184e-02
-1.366570046240585430e-02
8.596356507926429524e-04
-1.294677137418697582e-02
-3.849385322235104878e-02
-3.839469025816910630e-02
-2.429551379428168678e-02
-1.947187955968420273e-02
-2.679093107413381067e-02
-3.411496929633912184e-02
-2.335900756921991533e-02
-1.302231455488008036e-03
1.085444788202664240e-02
1.014883492153717016e-02
5.125332335374499677e-03
1.119794479379818478e-02
2.710276829840952903e-02
3.313038831383467026e-02
3.581219198576641310e-02
3.233707280933393463e-02
-9.231566209644112477e-04
-2.650964013887517970e-02
5.275314637767994363e-04
3.067789868323624741e-02
8.329767676846008134e-03
-2.891121349278807928e-02
-1.795663764791771005e-02
2.917881946017691908e-02
4.509490420030875385e-02
1.704798191649748232e-02
-4.448430718465133486e-03
-1.116192027470595989e-02
-2.675414221312329144e-02
-2.577796136310114838e-02
7.953791511573138004e-04
-4.432920696519377247e-04
-3.058283571889543889e-02
-2.946939997425743543e-02
7.513846714666530188e-04
5.707529267113008176e-03
-1.591163558299166225e-02
-1.077784958810076507e-02
2.549156746330307963e-02
2.703916752661758224e-02
-1.123398395800874819e-02
-1.637504687441136003e-02
7.455943879024578419e-03
-5.528394675517855905e-03
-3.144107757742430065e-02
-7.594778677319191131e-03
3.654908962582468362e-02
3.764230958458263110e-02
7.689514261476286527e-03
-4.548366591425197746e-03
-2.150198822071671886e-03
-1.687310546654443091e-02
-3.377943359988166971e-02
-2.112359609741177452e-02
2.016031884336160884e-03
7.762862079471874108e-03
8.762330844412883832e-03
2.021231926020636283e-02
3.442000875105093172e-02
3.583037222518282300e-02
1.798067748213780931e-02
-2.908206622688391720e-03
-1.135693906474321939e-02
-1.953145155031708533e-02
-3.291228475773774753e-02
-3.068427169758981138e-02
-1.016709157981252401e-02
4.481152080972693359e-03
4.525702387907819951e-03
3.367842995382168414e-04
4.343755914501673532e-03
2.644493237643582781e-02
4.341512885238806019e-02
1.856199770906830082e-02
-1.182108813225233625e-02
7.186324061674886562e-03
2.462436968172508969e-02
-1.751293498469812943e-02
-5.172586301445102758e-02
-1.740150296218969522e-02
1.889595289706832298e-02
4.957824433807343778e-03
-7.538625364793355432e-03
7.461596038613660907e-03
1.093761381768387601e-02
-2.074094686293938630e-03
-7.420077297979081263e-03
-1.087859722761830121e-02
-2.635551531031639708e-02
-3.190205302314167574e-02
1.249858737974013671e-03
3.788495838551644151e-02
3.007115512669660679e-02
8.357256079635796628e-03
-1.329427139524559003e-03
-3.127403945112965100e-02
-6.516384134365628411e-02
-4.873977915955145235e-02
3.123197508983020093e-04
2.504421627511349557e-02
1.561069038264975561e-02
2.390726818587436686e-03
8.045996625662413942e-03
2.724969338300359950e-02
4.072439237090724057e-02
3.778011132065679789e-02
3.012456163060775113e-02
3.679951393734880866e-02
4.490408478539779924e-02
3.441671358996679919e-02
1.832969254318025931e-02
-7.037262173803165294e-03
-6.030345850755859660e-02
-1.074285767349021647e-01
-9.555998731149006886e-02
-2.480962667064038826e-02
4.272031595931877201e-02
4.169672525789500789e-02
-1.087951975501966206e-02
-3.992005306148935923e-02
-2.195614520344430984e-02
3.003810640255285408e-03
8.692671830206062655e-03
-1.812964819619492310e-03
-2.935874757884528868e-02
-5.617646145651002121e-02
-4.772857795140193066e-02
-1.734879853645115641e-02
3.185610737745304261e-03
2.919986512504607612e-02
7.301972977905686613e-02
1.012785330323996563e-01
8.438377823012921386e-02
3.766258873734750628e-02
2.170178384869312672e-03
-6.509739184790291205e-03
-6.821112862725535811e-03
-1.075842820709947516e-02
-1.083181361033454769e-02
8.989039765417827094e-03
5.065638868178963528e-02
8.257391568836126849e-02
8.042895194768294453e-02
5.524099199706217905e-02
3.574335872258448295e-03
-9.551924083898354068e-02
-1.965721498950024071e-01
-2.011564571725940609e-01
-1.064883466059308031e-01
-1.369849663468672950e-02
4.027556907624656179e-02
9.400631898652818397e-02
1.291975507386959598e-01
9.423825900716550907e-02
1.077354971712213630e-02
-5.205342265553603714e-02
-7.138467088262627491e-02
-7.533838760393506140e-02
-6.600908768177399244e-02
-1.743174761758916474e-02
4.654889582228723816e-02
7.439951346466214255e-02
6.345699534190221702e-02
3.483062264891040316e-02
3.730945574659159936e-03
-9.360827419329056237e-03
-1.842294994301019173e-02
-5.494439890071218385e-02
-7.890941891058884938e-02
-3.666811082155681245e-02
1.552705948711099321e-02
-3.909110553344356809e-03
-4.631286975459409511e-02
-9.421347564235470901e-03
9.233430576450278593e-02
1.493994475575627645e-01
1.045894124685633197e-01
1.669416786486980706e-02
-3.143224971303803378e-02
-3.736474402989399535e-02
-3.508541735583625698e-02
-2.670081316528085530e-02
-9.287823057368234034e-03
1.023736287960368835e-02
2.076060327321566784e-02
-9.706654403735659594e-04
-4.805812521173667001e-02
-7.182381674514458358e-02
-6.866654570569676042e-02
-8.965288277279902240e-02
-1.198947761120856270e-01
-7.602107429233079250e-02
3.504847384842314784e-02
1.096103987741319091e-01
1.004855140214800796e-01
4.743528321428634731e-02
1.666167156566233584e-03
-3.691141986398460695e-02
-6.092458478389019272e-02
4.825487953172883510e-02
2.603987443603273944e-01
2.780453623151649123e-01
9.567522197449072896e-02
1.489352654041535377e-02
2.758482808213896104e-02
-8.342089540243164889e-03
-2.248619127753916785e-02
4.048220900334166539e-03
-3.761940107361645691e-03
-3.108209081506959487e-02
-3.629365738196468905e-02
-2.729392833540007085e-02
-1.872259139002291697e-02
-1.152842514938000502e-03
3.921791401637611182e-03
-5.283201669655746002e-02
-9.956068022805607265e-02
-1.233921918659481795e-02
9.084540697041920687e-02
-3.317387838798631361e-02
-3.396777121839571478e-01
-5.733477334621543964e-01
-6.303859018568372941e-01
-5.122620688117739407e-01
-2.060076030334021813e-01
1.705976358276861671e-01
4.366885503298032489e-01
5.406818111702562657e-01
4.999863614745864160e-01
3.854984707495459073e-01
3.176950388296539973e-01
2.570027817201785414e-01
8.100418633651118583e-02
-9.120472911177210373e-02
-8.254652030443102029e-02
1.577214984725416880e-02
4.637758185628546026e-02
-2.334170086539393701e-03
-7.104196514748559177e-02
-9.102900026520982513e-02
-6.478197396408504061e-02
-7.364908642430942343e-02
-1.184278150491142878e-01
-1.212173682357306492e-01
-6.737662545894666788e-02
2.733873491176835261e-03
4.158565777668660202e-02
2.224671108053212845e-02
-7.172499739063902674e-03
5.495370245245558526e-03
2.246888497625160186e-02
-1.090844763554879582e-03
-3.772756965178181154e-02
-5.200488077409747001e-02
-4.310720782334382523e-02
-1.203465242350544757e-02
2.344617140998498522e-02
2.487358106413786046e-02
-3.139651142757819702e-03
-2.263984204369667158e-02
-2.088017765823693001e-02
-1.192012829524613168e-02
-1.441509848062033985e-02
-2.413011286430378002e-02
-2.562987809732140965e-02
-2.614790246034904772e-02
-2.502796543580223729e-02
-4.740679091328026118e-03
2.816816686026717836e-02
5.579426348773206673e-02
6.993318186410114878e-02
6.760903609235900669e-02
5.833342169268461441e-02
4.235460179177222284e-02
9.464034154804014734e-03
-9.697928495689830952e-03
6.864009260612371002e-03
3.348999613133183187e-03
-3.593601519966328067e-02
-3.557988282120067708e-02
1.523472642590393764e-03
-3.205621736933764957e-03
-2.529034563852725417e-02
-8.100681632964672196e-04
2.876868911687016986e-02
2.129120112800032827e-02
1.238312515156709745e-02
1.004728879495396347e-02
-1.578213247549226312e-03
-7.310513150106887244e-03
-1.798237264668646126e-02
-4.181885671626665857e-02
-4.246620607550385951e-02
-3.014908954133693406e-02
-3.894363012077271813e-02
-3.680755785386464335e-02
-5.585615633357852647e-03
1.552953798718094414e-02
1.787691886749510906e-02
2.743627178808093203e-02
4.628230520507074786e-02
4.986240672801667967e-02
3.027071384551455191e-02
1.979942106164656740e-02
2.901239610174557310e-02
2.051843958483647035e-02
-1.060096767593092168e-02
-3.036441369472972496e-02
-2.773243928380265955e-02
-1.710441578813966940e-02
-2.185118853667814345e-02
-3.722978699921517670e-02
-2.524716870300468263e-02
-2.107487859118112056e-03
-1.221144781047694625e-02
-1.914358442766320861e-02
1.325997106595470411e-02
3.708395968836452478e-02
2.927523052985595703e-02
2.375499855908112107e-02
2.501494878147848822e-02
2.198518465773145053e-02
8.857445391959295131e-03
-3.029111161631443949e-02
-5.646572666054820028e-02
-1.950567715166896116e-02
2.066580514662935339e-02
9.000923481679115948e-03
-4.593581268702510989e-03
-4.281927493868255795e-04
-1.229596691788885712e-02
-2.337971482177696181e-02
-6.159741913217867473e-03
1.353173296971938409e-02
1.131189011912507938e-02
8.051469105839878862e-03
2.513941043502844475e-02
2.862173017978070916e-02
-1.855515557269547464e-02
-5.183307691933369821e-02
2.244131716122890058e-03
5.874243637129551721e-02
1.975707213524065253e-02
-3.090200181372597041e-02
-6.214899381093890243e-03
2.448734726348291563e-02
5.652667871128233892e-03
-1.469778796430784053e-02
-4.409224632950140867e-03
1.218436207376881464e-02
4.218314882571547013e-03
-2.615278292905652904e-02
-3.797285366086856212e-02
-1.659804459385108219e-02
-4.667560819824346716e-03
-2.065054405788914124e-02
-2.380234757086980082e-02
6.651022170449854241e-03
3.494974131917084892e-02
3.471853221923499461e-02
2.366377506192197944e-02
2.044006152080946048e-02
2.378601533679013114e-02
2.266881945472797727e-02
7.754367936448082997e-03
-5.264760782417962290e-03
-3.119421038838644800e-03
-6.926127223344152872e-03
-1.958903113605035828e-02
-2.520499614471686384e-02
-3.097913618255693571e-02
-2.464431259524781787e-02
1.511001786047498022e-03
1.222134418272894339e-03
-1.887214112908671901e-02
5.551518426177377320e-03
4.293892475754053362e-02
2.236069125890643994e-02
-1.673840588569242005e-02
-8.067781018239558732e-03
2.182036862490747270e-02
1.334803715573305502e-02
-2.842305773425428742e-02
-4.810677884108424673e-02
-3.256450565328547486e-02
-1.593664641615931757e-02
1.081728890028130306e-03
2.349660087049265655e-02
2.013968758059073161e-02
3.791430770328186803e-03
1.544069838303445061e-02
3.004487922859588184e-02
1.943729278243479935e-02
9.374890671534569578e-03
4.374506988581829472e-03
-1.396458222261624631e-02
-2.927688140864522642e-02
-2.448246383275688026e-02
-7.389086076588642117e-03
2.519104919773419368e-02
5.794305627113749413e-02
3.893724251594340990e-02
-1.715391594017629320e-02
-3.220695281243118185e-02
-5.454312788386577598e-04
2.975260310866956193e-02
3.733177618443101614e-02
1.636078006066040910e-02
-1.440856109036576724e-02
-2.770527280215085222e-02
-2.536953759056368579e-02
-1.648548510350167015e-02
-1.791840021483228837e-02
-4.270988300406408644e-02
-6.096975369036167214e-02
-4.179435104806818874e-02
-1.941413146269435272e-03
2.493655682802270110e-02
3.093269187351593147e-02
3.319319003421729308e-02
4.299626511342730106e-02
4.760144484787755953e-02
2.407934578046165564e-02
-2.178386727540029127e-02
-4.670894498992607391e-02
-3.393847968307794200e-02
-1.311891856549514401e-02
3.311528001112207763e-03
1.962316276009839350e-02
1.380826430907546726e-02
-2.173480523141000861e-02
-3.254461146318786413e-02
1.654766546215107742e-02
5.251209825463415415e-02
1.895676319958664036e-02
-3.348574627130612626e-03
2.638156481838620573e-02
1.388513693619121588e-02
-3.953451523536166690e-02
-2.105340591888339719e-02
3.660179660212125458e-02
2.286435975593714698e-02
-3.032072713532957958e-02
-4.552642331242331974e-02
-2.471142042254034429e-02
4.543544770634963016e-03
2.595392604243249371e-02
3.827089577294209843e-02
3.802984123089015595e-02
1.064957438426125148e-02
-2.212758623318144754e-02
-2.444297721335007834e-02
-1.513842448412763657e-02
-2.142345054153337730e-02
-1.492358769798055040e-02
1.880391194206397845e-02
2.915207942855264564e-02
-3.368216825216474412e-03
-2.886463509700955971e-02
-1.936614100406040123e-02
2.665601201826704302e-03
1.619082825646064958e-03
-2.888707629830538845e-02
-3.493391869139315931e-02
9.811127050012091039e-03
4.008164455922236247e-02
2.447301373471871822e-02
1.049585526160159120e-02
1.115892254402570810e-02
1.193495946650129091e-03
-1.338808339670078881e-02
-1.245084296594223261e-02
-4.748553547156766051e-03
-1.481461379996395003e-02
-3.379739568154012386e-02
-2.376535671895808541e-02
1.931647517133184763e-02
4.991073675919052710e-02
3.689325769412796913e-02
1.431470435248649933e-02
1.291626677227761776e-02
1.201836861091792451e-03
-1.426099419490952855e-02
1.772530508386910286e-02
5.017746454514027815e-02
1.293240880037900553e-02
-3.092252446575968067e-02
-1.267524952030883029e-02
6.772687895297096333e-03
-2.897868209566117556e-02
-6.149110266883164172e-02
-3.928920517583521510e-02
-1.087863037366788334e-02
-9.739376921957499170e-03
8.428230263534664674e-03
4.868256279885378734e-02
4.856672216198594516e-02
8.798512172610156723e-04
-2.649339004526163333e-02
-4.407109218936178414e-03
2.668650581045420994e-02
1.665560895758484358e-02
-3.886283717849980252e-02
-6.090287643637283532e-02
5.309332400086699821e-04
4.626002060757087447e-02
1.184737210146093178e-02
-8.771851865755100203e-03
1.003299215545393891e-02
-1.088532587211924786e-02
-3.283704907860223593e-02
6.320641727778414029e-03
2.772623145784247276e-02
-1.961289172575682652e-03
-1.138581784411489724e-02
-2.583465416883480061e-03
-5.459276638293302647e-03
8.173942312375285374e-03
2.237465588058170154e-02
-4.951948972412890948e-04
-1.815911688454830558e-02
-3.491205318632386798e-03
2.102465304465616323e-03
1.963028036940294915e-03
2.824423509762564316e-02
4.751483687151858426e-02
2.463059114326711374e-02
-2.895423224380647576e-03
-5.210189759256965078e-03
-1.598852242853968791e-02
-3.739948229302299254e-02
-2.967962877485491591e-02
-1.730954398843805378e-02
-2.612763393909167675e-02
-1.116271533139383439e-02
2.106372009824533653e-02
1.574833173018039961e-02
-8.323582762698251286e-03
-1.352397343637759368e-02
1.501254462552399855e-04
2.981536238119861237e-02
4.023268826124140607e-02
1.850640949883765145e-03
-2.193981762247224077e-02
1.657097626252560310e-02
4.147801323241481763e-02
-4.621904963661690839e-03
-4.906446596410122402e-02
-2.923639665712997673e-02
4.623295406028917441e-03
5.817695148033898839e-03
-3.542686058920293309e-03
-3.394175542478901787e-03
1.127520995072763682e-02
2.613184153089609385e-02
7.934881104593140971e-03
-1.227347316959705864e-02
5.899321505957413891e-03
9.345997121330952215e-03
-1.436931375578868499e-02
1.462587429023817776e-05
2.842653847718323509e-02
8.455423502160020269e-03
-3.198642654046753020e-02
-4.518665065087096311e-02
-2.766736514631313801e-02
-3.159745228020170715e-04
1.924922335273214491e-02
2.799801324381549078e-02
1.689779931005589916e-02
-8.675036501065774494e-03
-1.540608102701388100e-02
-1.483999201223252205e-03
-5.010466971036671088e-04
-1.949817080731032146e-02
-2.919112332758637407e-02
-9.509020144966314966e-03
1.637153562731534506e-02
1.276046084227676694e-02
2.520826965253910104e-04
2.140389480690130936e-02
3.606145175729927321e-02
-6.482805298844011507e-03
-4.386395145824278918e-02
-1.451196839207702198e-02
2.919649918710683772e-02
3.122155772257661360e-02
1.732179487434575005e-02
2.649226083025850095e-02
4.283056492479809380e-02
2.452671303068367642e-02
-2.191179051411797085e-02
-4.387903535021932255e-02
-2.548699998547959700e-02
-6.048536936810169559e-03
-1.038099749081691607e-02
-1.468867592681361196e-02
3.986818855281351430e-03
1.651714553137554470e-02
-6.811222392760483448e-03
-2.688132554135157226e-02
-6.748919286685589256e-03
1.652256025092823169e-02
8.443772639354727577e-03
-7.582112262545037153e-03
-7.437077129440503725e-03
-1.934424461065176073e-04
2.221295943330438370e-03
-5.997230104897700864e-03
-2.565718568497460730e-02
-3.352580073675667099e-02
-2.167598799169892856e-02
-1.423408759990339896e-02
1.772587559575515212e-03
3.543081107153719933e-02
4.114176424029208218e-02
2.806984361446306434e-02
4.627028625634974773e-02
5.194407826986700144e-02
-4.951870571765454136e-03
-4.460757075432177088e-02
-1.222769258915401558e-03
3.102100822216224615e-02
-1.699960420243049053e-02
-5.008389120303047976e-02
-1.570315384134947367e-02
1.139314000649833611e-02
9.030820233900054006e-03
1.119589452937781379e-02
5.817655563877994346e-03
-1.519139139163449073e-02
-2.826614451025477245e-02
-2.472018072704913055e-02
-1.037268884017398564e-02
2.744767096093109985e-03
2.848896378825748615e-03
2.218842943322496888e-03
1.697006514520895543e-02
2.680863224591811117e-02
9.601291260724500662e-03
-3.380097845402871282e-03
1.405671921548513545e-02
1.633740927556739941e-02
-1.574753151973789372e-02
-2.151242426814613251e-02
5.728012832007490021e-03
1.027441763519365732e-02
7.075650217431951952e-04
4.644371611482281045e-03
-3.327674723992302824e-03
-2.328600328638017608e-02
-1.436826698114089876e-02
1.319708016443973606e-02
3.473049948693853264e-03
-3.877455945516619651e-02
-4.602634284220733646e-02
-8.853759483207657155e-03
1.479936619231811933e-02
1.513244945376522078e-02
2.684009035822433609e-02
4.134608330817531735e-02
3.385066035139142060e-02
1.345558077748081928e-02
-5.065039315112786905e-03
-8.338069932856037245e-03
8.416614508195724431e-03
9.670354218391291959e-03
-2.136684437017542793e-02
-3.325265134515030530e-02
2.449326509128519659e-03
3.915002609380183185e-02
2.715498841747730763e-02
-2.155342346465983355e-02
-3.589874467113528950e-02
1.016455736268486072e-02
2.877180270314610294e-02
-1.826199441681269214e-02
-3.479010129145183178e-02
-5.709557849558791892e-03
-2.099853370258566998e-02
-4.753362079786878358e-02
-4.539317472703743514e-03
4.184980691497045685e-02
1.846934450500412744e-02
-1.689450445192117525e-02
-7.638984963234780705e-03
1.052061638860489132e-02
9.593018879004711064e-05
-1.028153931223051501e-02
1.016153377615063545e-02
3.433440027907644354e-02
2.553013709100679374e-02
-1.812485061610247684e-03
-6.225265770979429396e-03
1.069258469432998390e-02
1.139481131517891717e-02
-2.031349254428378541e-03
-5.780528315114406845e-03
-1.833818804357938495e-02
-4.664599329099404501e-02
-3.713394758573930476e-02
2.097057357145911891e-02
4.507912844787273499e-02
1.253067597166283506e-03
-2.983465753022027447e-02
2.223336447228004865e-03
3.532417159054528077e-02
2.197148833969295167e-02
1.189948030592345718e-02
2.973777704432357949e-02
2.189472970462416276e-02
-2.046520476096949301e-02
-4.385055395514194515e-02
-2.663578351157966720e-02
3.531254087778892825e-04
-4.266772880605602600e-03
-2.761174767057342563e-02
-1.788245726823053244e-02
5.912453160089743351e-03
-9.080311422538407673e-03
-2.430998879049394573e-02
1.225005581503866778e-02
5.081149550075687860e-02
3.888102836511002358e-02
1.297179890644534900e-02
1.236845482328206847e-02
1.510042595110675824e-02
-8.406387349215234395e-03
-4.201377793011084466e-02
-4.162680014930050798e-02
-5.136464540677371238e-03
1.219554438264487152e-02
-7.440261758825473040e-03
-9.589267597232492904e-03
2.686142022799671222e-02
4.821340922893465469e-02
1.602042452726915728e-02
-2.522428777855985349e-02
-5.695574442166474564e-03
3.380225099423220941e-02
-1.511741157352612316e-03
-5.057006124662714180e-02
-1.179329524578922109e-02
3.378227346549981386e-02
-2.428641668203614448e-03
-4.640753424698516177e-02
-2.629179480507156524e-02
8.323624404977535834e-03
-2.574681194464397381e-03
-1.776656699295153102e-02
9.970873700576317333e-03
2.016302034273894164e-02
-2.338145431544648434e-02
-4.091168535587029476e-02
7.948347686662811384e-04
3.395805035142601680e-02
3.663848775365391441e-02
4.653669143368822231e-02
5.862147236860913019e-02
4.127253751038803542e-02
-7.321910143083612283e-04
-2.937949691754265097e-02
-2.361064889979611059e-02
-1.653053178115868049e-02
-2.655571540319818721e-02
-1.370933194204894054e-02
1.933469659065117918e-02
7.849875510753504676e-03
-4.777911209764381523e-02
-6.253072178503674139e-02
-5.430085461244238410e-03
5.485789008383987891e-02
6.267167479881254055e-02
2.865369857596642561e-02
-1.028124316695115670e-02
-2.412214501250737470e-02
-2.117593861819176693e-02
-2.875941414742762270e-02
-4.138886677592554242e-02
-4.388938205762241140e-02
-3.478862492504210258e-02
-7.957085590820570445e-03
2.821991125236802261e-02
4.555195853872079370e-02
3.296756731963125520e-02
9.837153598844558533e-03
1.307279953625580362e-03
2.061653765090233886e-03
9.128908940812371833e-04
1.116231055325918146e-02
1.196428856462866674e-02
-2.383963959362264337e-02
-3.748500712950644104e-02
6.283625379379481971e-03
4.028472735754283496e-02
5.218462169784779392e-02
7.918653024945089547e-02
7.203187388740399377e-02
2.492314414962492480e-02
2.524430928674833985e-02
4.241263738610951545e-02
-9.164024721506397811e-03
-6.822267824057717811e-02
-6.321628851888369538e-02
-4.222186591707088182e-02
-4.317981858603370249e-02
-4.899163742994844944e-02
-5.727121680547429122e-02
-7.377460870827869110e-02
-9.667098010921856832e-02
-1.099146050827870258e-01
-7.911632491056559691e-02
-7.703391058460440886e-03
6.067450711880835457e-02
1.082646355200265476e-01
1.284509567413635867e-01
1.014558832211760048e-01
4.228884240769090197e-02
-2.536385026151215250e-03
-1.593266761903652448e-02
-6.235406744109946164e-04
4.894695839623910971e-02
9.456417283219042957e-02
6.683814574385212037e-02
-1.088288545758104436e-02
-4.344567969928151557e-02
-1.560562868128815422e-02
1.664731481938904606e-02
1.796108901416419365e-02
-2.828822316399692144e-02
-9.646001462869158161e-02
-1.126846620130461107e-01
-6.701140532132407457e-02
-3.322266694168482526e-02
-4.268348342117177230e-02
-3.489530131714890099e-02
3.749663073612448383e-02
1.142436282401194797e-01
1.236163987708270295e-01
9.991751256252924540e-02
7.970949907517987931e-02
1.886562845231034083e-02
-7.498456276750307958e-02
-1.092650613335542503e-01
-6.289855521628517909e-02
3.300434030680518549e-03
6.846849517514586037e-02
1.172974681799690971e-01
8.837148413131019897e-02
-6.114346836061872181e-03
-7.171390034503360988e-02
-9.327208419813959317e-02
-1.189845757166126256e-01
-1.433816960226504678e-01
-1.442065139603889434e-01
-1.208180832158429613e-01
-6.648759209421796490e-02
1.377745501180563208e-02
8.963807544373676717e-02
1.230528695602162714e-01
1.123209590944711650e-01
1.121810979632027333e-01
1.187957131075558642e-01
5.409233251645437918e-02
-3.355941777461277781e-02
-2.189450806237775229e-02
3.219516733922461738e-02
-1.459457395477372146e-03
-1.041128524963048363e-01
-1.785936776423797945e-01
-1.706409455222785421e-01
-8.506433892046987022e-02
2.324003953099530034e-02
9.490018365448489590e-02
1.220178017507740492e-01
1.334476969938530044e-01
1.346744566279820532e-01
1.212324035121262328e-01
1.169476459886011760e-01
1.196137063121734123e-01
9.053839964099219539e-02
3.514686150344089460e-02
-1.214037941689374150e-02
-4.534466529195217005e-02
-6.035907371847492459e-02
-4.394085311934736032e-02
4.243339519682138086e-03
5.978620284170010901e-02
6.612385538489756742e-02
2.019111095793801186e-02
3.623490978082451880e-02
1.581780563191288458e-01
2.181628628090506727e-01
5.848271861795293486e-02
-2.581039619447188516e-01
-5.684118673049657344e-01
-7.742326448101083392e-01
-8.219284370499309045e-01
-6.788293279094737009e-01
-3.899909950767659339e-01
-4.739037420653920141e-02
2.761798696211856807e-01
5.226078549233529325e-01
6.573336525802236929e-01
6.595092228471528539e-01
5.340724513329409007e-01
3.783520483638353471e-01
2.758959638875283504e-01
1.811524435135277167e-01
7.145722925590272667e-02
8.856852789137906190e-03
-2.361121149664889562e-02
-9.586759364803913719e-02
-1.789703430636901405e-01
-2.124323902019067123e-01
-1.964345930407703777e-01
-1.482743436830193662e-01
-1.048468997879008213e-01
-9.617059785526245463e-02
-7.148488661310239967e-02
3.651943671721019462e-03
6.034237844728945754e-02
5.130954744167890574e-02
1.789979708932865760e-02
-3.312645115691428138e-03
-1.384623580116538070e-02
-2.022001719381329859e-02
-3.422984032782547259e-02
-5.537775113033432256e-02
-6.314335053765580963e-02
-5.262561853329546929e-02
-2.559673854119057235e-02
1.471585371108229644e-02
3.793811046684542054e-02
2.935317548894942827e-02
1.882360353454594348e-02
2.720801258340162926e-02
4.104303338218856512e-02
3.636661424881310750e-02
1.156569721359123129e-02
-2.438514135300138413e-03
9.717919893460838510e-03
2.353525214973075513e-02
1.870859126586673499e-02
-3.371256279393135789e-03
-2.803556244660026370e-02
-2.176122525074809799e-02
2.035591561833853883e-02
3.515310920608950146e-02
-6.562791028339217368e-03
-3.474760176998982486e-02
-5.700072088361258019e-03
2.924551916797259524e-02
1.818473564792148084e-02
-3.282699001950231676e-02
-7.579512456170328649e-02
-6.362486970924598195e-02
-1.886864824134958790e-02
-3.158644556709490087e-03
-1.769012311569838000e-03
3.106124808954147110e-02
6.120945503105169883e-02
5.380519994224666758e-02
3.804836077338068223e-02
2.359107337290849288e-02
7.279687802749326177e-03
1.394640353003987789e-02
3.111877072651168807e-02
2.657208026423686642e-02
1.388642492898408548e-02
-3.029096992335001716e-03
-3.539070449357801379e-02
-5.083651177671248689e-02
-3.887576818409173296e-02
-4.105959144669474314e-02
-4.920664702835720467e-02
-1.771264182455427674e-02
2.835575199595441118e-02
3.500710680810484310e-02
1.935839817861607914e-02
1.727258592022117012e-02
9.886672581631311685e-03
-1.454512547712402681e-02
-1.853170346592549617e-02
7.368026884996967812e-03
1.507866167175100740e-02
-1.172189641917500275e-02
-3.376822277307360565e-02
-3.481523641796502311e-02
-2.460746570961702684e-02
-5.617986421266548715e-03
8.938870992948905192e-03
1.867892437056270852e-02
3.626181259002778795e-02
3.071873200793234782e-02
-9.066939420039221709e-03
-1.899614857237897497e-02
1.452854435646134396e-02
2.555048202984046279e-02
5.352031338026370932e-04
-1.862674782056197853e-02
-1.217439114210573312e-02
1.058287923915749232e-02
2.335519102876922395e-02
2.052756388893636763e-02
1.867596089032134282e-02
3.719203459278697024e-03
-2.257952806597507064e-02
-1.562084729879216309e-02
1.712330079407103217e-02
2.296369402247593755e-02
4.598344054528146624e-04
-8.115438917966002683e-03
3.898070137915807688e-03
-1.008737476603827369e-03
-2.498996531519974765e-02
-3.439465446106675095e-02
-3.223385889218591260e-02
-3.101058130061462928e-02
-1.985892767076564286e-02
2.715390738879663434e-03
2.646292621488032654e-02
3.218346737924496909e-02
1.271572328326267196e-02
2.000183880292264425e-03
2.126528967890604221e-02
4.239259516107887760e-02
3.445499273754264180e-02
-6.915083544871733056e-04
-2.760428557030607938e-02
-2.359083302467407384e-02
-2.070710846756835394e-02
-3.795304786724477963e-02
-3.910312342788568873e-02
-1.904420653810163025e-02
-1.224986259672787396e-02
-1.028971604350793767e-02
1.113417379983243014e-02
3.899817391268084465e-02
4.859540691075994734e-02
2.277709454199353806e-02
-1.936378096684204450e-02
-2.092458810754642753e-02
1.582500253396936299e-02
2.511478528045783809e-02
-4.107876247902222076e-03
-3.194387511949136477e-02
-3.746514722381047435e-02
-1.123223686440475572e-02
2.823944318576952078e-02
3.465871579059779523e-02
1.196649950019412247e-02
-3.742750223869356629e-03
-1.117442219810235379e-02
-8.379684651560678765e-03
8.362735183906943107e-03
1.381757160223222834e-02
3.713997715127651672e-03
-2.769511249107220636e-03
-6.248188807491068808e-03
-4.991955904952338069e-03
5.134289596733043401e-03
1.150061828617980793e-02
2.063232659749820314e-02
4.069328458648714675e-02
3.836222421720589942e-02
7.861332124155250706e-03
-2.772747316848843489e-03
1.679777068858847797e-02
3.166436444959574298e-02
2.807226097342405136e-02
1.408592668381091449e-02
-1.201153658039539468e-02
-3.084038285966790235e-02
-1.425080682252831063e-03
-5.310353504906389563e-03
-1.458743342717273017e-01
-2.437444097496783424e-01
-1.294414956742092337e-01
-2.710442330528007281e-03
-3.605592943431039366e-03
7.276969828028119480e-03
6.285232905236334822e-02
7.852607236715447581e-02
7.581206767319191575e-02
7.918577331141479769e-02
5.449618503054907276e-02
2.088651208466952083e-02
1.472899855731917701e-02
1.902989707799679700e-02
1.580288977204613587e-02
5.699227802853647565e-03
-4.992891013077788154e-03
-1.231684441158517607e-02
-2.674074855091625180e-02
-2.405350653072827610e-02
1.764604030480033253e-02
3.352360112163263461e-02
6.827097157096273343e-03
2.014884796151224927e-02
4.598033995871474156e-02
-1.292263623979933787e-02
-7.905390160874842254e-02
-2.676466430822211848e-02
5.317529574396440833e-02
1.512921164879193342e-02
-7.322594866522576240e-02
-7.066384903506538195e-02
-2.175148074117679020e-03
2.224831294437883134e-02
-6.733464710794931363e-03
-1.772228433895441449e-02
1.591405037203703215e-02
4.973073450281098595e-02
3.763691686012271553e-02
-2.563820505606908412e-03
-1.305850198803624324e-02
6.908803734714281421e-03
2.933688873063550976e-03
-2.128868629474722080e-02
-1.185185383482199178e-02
1.583287508791962270e-02
1.187675187551524153e-02
3.629591047131289910e-03
1.933599447872187335e-02
1.371106710219227587e-02
-1.456353594626110144e-02
-6.958407010832181293e-03
2.038516842635214668e-02
1.160843804541224732e-02
-1.010169975412598085e-02
-5.856055275373165010e-03
-1.898544554595927615e-03
-1.904212667978299675e-02
-3.466933530507155387e-02
-3.656033785555370952e-02
-2.909267799326497803e-02
-1.666353521032610738e-02
-1.312225292625398762e-02
-2.048228201928459224e-02
-1.619670017703682061e-02
4.759322397544701877e-03
2.315806835493704197e-02
3.526625588575203057e-02
4.595984163092002583e-02
4.474214130092356301e-02
2.729800079649486941e-02
1.186299106181849458e-02
1.146773481763752392e-02
1.388930109931239484e-02
4.901117946371839375e-03
-1.382144932146217239e-02
-3.097429921373229603e-02
-3.061444083133896613e-02
-1.339252596306483335e-02
-1.645416684471609405e-03
-3.463671145185651893e-03
-9.599061774791497331e-03
-9.622146014214507867e-03
7.879432706991415514e-03
2.788366962257059212e-02
1.993638557746015699e-02
-1.064438163855936214e-03
-3.282660045499397397e-03
2.704818336522764408e-03
-2.741496400481282635e-03
-1.350910911020902078e-02
-1.776215044746794897e-02
-1.171043373279376416e-02
-1.616808565950127001e-03
1.561319222484155479e-03
4.046102202807815885e-03
1.512402270131083318e-02
1.968022347669247385e-02
1.475322751376234934e-02
1.377605063172564724e-02
-3.654826705746130715e-04
-3.492564332717172648e-02
-4.669738280125106111e-02
-1.563627317111600940e-02
7.798127950036243435e-03
-1.417878844915994828e-02
-3.279798657183857075e-02
-3.631985370042040313e-04
3.573742559658511786e-02
2.092831054002759067e-02
-1.422852288580189403e-02
-1.535962918717234671e-02
1.784809481710569051e-02
4.085328726234411373e-02
3.140182393125577620e-02
1.791150322394478162e-02
1.437273472054358819e-02
6.198263911435649906e-04
-1.370630914914812773e-02
-3.732283652670701640e-03
1.100125992861090973e-02
2.257479329698203370e-03
-1.570594547573313585e-02
-2.229925862110128734e-02
-1.668776327070282256e-02
-3.028608184959095690e-04
4.956293567271532335e-03
-1.309424128609619487e-02
-1.129563683476497021e-02
1.781816755674341807e-02
2.450037619257403043e-02
1.493534428293451580e-02
1.373538458949032093e-02
-1.803551803788777750e-03
-1.690933251432676782e-02
-1.340420598038754955e-03
4.986571381261852356e-03
-1.810774911147464139e-02
-3.041517083089169057e-02
-2.575970532340688887e-02
-2.197976429092867237e-02
-1.848823411395952854e-02
-1.454280219284046806e-02
7.913071935596132506e-03
4.799234813954875167e-02
3.894306041726919299e-02
-2.034485852212220697e-02
-2.411636908586226036e-02
2.834457546581177143e-02
2.476106253752948655e-02
-2.441549075402446936e-02
-1.832880378300343754e-02
2.508505680001821975e-02
2.506649024109863094e-02
-5.508743371723238101e-03
-1.559497825403489100e-02
-5.436810287447890397e-03
2.284998453448274479e-03
-9.555408322062308724e-03
-2.795890789628432960e-02
-1.225945007711505205e-02
2.233570383395269005e-02
2.089626874429581505e-02
4.694391683877449477e-03
2.055803476583286174e-02
2.403640550151577709e-02
-1.882145807472582547e-02
-2.774952479578599723e-02
2.842294943412864219e-02
4.658737994634058049e-02
-9.022961561598357577e-03
-4.249355734744050123e-02
-9.802838233101117751e-03
2.951723920616991861e-02
3.074493271407090222e-02
1.564965192752677120e-02
1.385725887674699001e-02
5.971311504149450465e-03
-2.949590882355586710e-02
-5.991501053834324270e-02
-6.191979588792356076e-02
-5.085351314176320831e-02
-2.478702429711593380e-02
7.036486853052990875e-03
1.396225504034271508e-02
8.600648636426681121e-03
4.326218945761045598e-03
-3.959159865407914022e-03
2.305570852788193029e-02
7.795752814427679700e-02
6.754222503566729985e-02
2.199931236792409053e-03
-1.048677619885835660e-02
1.724859671620563792e-02
4.541201431412605211e-03
-1.933181260575573407e-02
-3.254259510262515198e-03
8.729797555950489715e-03
-1.603792722595274306e-02
-3.605227861755507662e-02
-2.886040843983523480e-02
-1.442270730842666951e-02
-4.365056226166133535e-03
-4.348973988944408904e-03
-1.291912800620990086e-02
-9.856490139899131211e-03
5.647416467830700115e-03
1.031566259641984035e-02
8.990428754711791287e-03
1.737215907516407101e-02
9.140451854081667327e-03
-2.737787745330413219e-02
-3.967541420834816424e-02
-8.176064113857356083e-04
4.115812923589250161e-02
4.129743984875153262e-02
1.876095401232799956e-02
1.557457561363201695e-02
1.553206876211316208e-02
-1.575277739460433091e-02
-3.860587747953934945e-02
-1.311381785652490119e-02
2.119738526292593017e-02
2.719621659963537830e-02
1.657420585957605080e-02
-5.886882888146518535e-04
-2.713627531361922571e-02
-3.936582956317030701e-02
-5.475857237610508299e-03
2.562086955781596453e-02
-1.704929411578227569e-02
-6.628438848322729116e-02
-2.481932416375673758e-02
4.114455975265170901e-02
2.803168427818140268e-02
-2.496744382071165724e-02
-2.421902456966460934e-02
2.286959439076778969e-02
4.553417519479741049e-02
4.398748449849269881e-02
5.500283555931105572e-02
5.502954603762339608e-02
2.415862779089788040e-02
-1.183428988121083998e-02
-3.354877862385343551e-02
-3.178402778637081511e-02
-2.476845815766586661e-02
-4.444104054535247261e-02
-5.585423048769926763e-02
-2.583933242074876180e-02
-1.028658110541563059e-02
-2.302015485479655746e-02
-6.991900530506152574e-04
3.795267980827274346e-02
3.411337959293579691e-02
1.637554860247293978e-02
1.404217801264667428e-02
1.136475037178618329e-02
5.570333604127295293e-03
-2.088344413049503939e-02
-6.854669643807587143e-02
-8.298646685081184637e-02
-7.393946385981683966e-02
-9.475931604637070904e-02
-8.665129574175903238e-02
1.007245846698609851e-02
9.817806474939820560e-02
9.466376055807351753e-02
7.862995554235126250e-02
1.241415147922423912e-01
1.817299659663970113e-01
1.976940055631134785e-01
1.634098734565458677e-01
4.992655191264644410e-02
-1.243325498284013203e-01
-2.354039245547907833e-01
-2.076821364670212444e-01
-1.114831801470419215e-01
-3.749407911752102029e-02
9.536083098061727895e-03
5.782034554438301999e-02
8.934757700322856766e-02
6.503862871053009420e-02
1.596539869688539184e-02
1.409569370947244722e-02
5.228660647324218091e-03
-1.047672302867781319e-01
-1.737827085470974586e-01
-3.732645165202951726e-02
1.335702069512497703e-01
1.190480738304004471e-01
-4.058995682628154661e-03
-6.878105580862650670e-02
-5.693577485203007299e-02
-2.345800869634396754e-02
9.013497633078716709e-03
2.142169721767733792e-02
-1.425214199589168798e-02
-7.739743455515009363e-02
-1.057142846418158699e-01
-6.978521288406759615e-02
-1.731385909568834746e-03
6.747397668169842488e-02
1.574471337014545502e-01
2.227941581831604234e-01
1.550363633766108640e-01
3.267367780638309738e-02
1.612530513139786778e-02
3.549882318061277353e-02
-3.971358176781527444e-02
-1.550081128055501578e-01
-1.850104458254692719e-01
-1.139076300717881407e-01
-4.077722215191325467e-02
-7.344381348042442609e-03
4.333355078940146626e-02
9.776982932687165728e-02
8.169989697014520824e-02
1.688006123258163627e-02
-1.238811617691815137e-02
3.903698829151038344e-03
1.178221241657772742e-02
-2.097213244079381214e-02
-9.200231685231688439e-02
-1.624197544122904235e-01
-1.766760463449683349e-01
-1.331278412778342524e-01
-6.008603366726296413e-02
4.824901759304992682e-02
1.773027834336511621e-01
2.564116343974039425e-01
2.404190033899497869e-01
1.500245353817775129e-01
3.009606358423822306e-02
-7.356541665720674195e-02
-1.293229328919562326e-01
-1.359579971554229494e-01
-1.097988224106158650e-01
-7.350553489517833161e-02
-4.915374374408095631e-02
-4.529583987450050420e-02
-3.800092442921352426e-02
1.789441888491156638e-02
1.078488220140055159e-01
1.612016240753517959e-01
1.653090212477678900e-01
1.499148454245875506e-01
1.049513060618912225e-01
2.953451240282431792e-02
-2.067775367499269726e-02
-1.823870905880542459e-03
5.176276300968180727e-02
8.897434816244523259e-02
1.352463608782119298e-01
1.692225510895825902e-01
4.699957888004792361e-02
-1.588046243431513738e-01
-1.038355031232044423e-01
2.190966374314105569e-01
3.451022583119391918e-01
3.979190596076526143e-02
-4.095958413466453951e-01
-7.128466710773847526e-01
-8.558834748633606937e-01
-8.353871169385788109e-01
-6.173876293125422077e-01
-2.907871115238736537e-01
4.374847310824048208e-02
3.328310811100429478e-01
4.994155393947367072e-01
5.360341603596691096e-01
5.201152923545782070e-01
4.744784033996873873e-01
3.914426397650715428e-01
3.081774992842131744e-01
2.329396564851455853e-01
1.327274650995495242e-01
3.139478392407345914e-02
-3.019090775256490222e-02
-8.673077610485419031e-02
-1.589369816848574535e-01
-1.878905495593935493e-01
-1.592515085049641954e-01
-1.286322614535132525e-01
-1.000035485796946511e-01
-5.981019145525501984e-02
-4.354070187791440893e-02
-3.150776707765191170e-02
2.291969049526420762e-02
5.803077999739994497e-02
1.770802005208761340e-02
-4.615515123222185129e-02
-9.679378830976428927e-02
-1.263585054133229413e-01
-8.846447052953482215e-02
3.174524683430775263e-03
4.850905700169300117e-02
3.176862786711105030e-02
3.435684127788163345e-02
5.612972435579011155e-02
3.217798806084398722e-02
-6.322572921557141623e-03
3.094101543532855585e-03
2.230428583159983075e-02
3.990634859745616561e-03
-2.001609519256532937e-02
-7.973825818459734371e-03
2.836320230431890743e-02
3.709552604650778740e-02
1.687739631614678694e-03
-3.440482784101094038e-02
-4.567215490139867051e-02
-3.028975978157308693e-02
1.578862461947637408e-02
4.690795097614239989e-02
2.445135400736785092e-02
4.006466272987639632e-03
1.601273965245279124e-02
3.806948268103511283e-03
-3.291716211729003860e-02
-3.125225046920512839e-02
3.482371017383134593e-04
3.863892330564916433e-03
-2.416412742411288075e-02
-3.729344844339116394e-02
-4.388145608981827185e-03
4.794884998486819566e-02
5.913333030427542214e-02
2.875160594122826152e-02
1.655578739354122975e-02
1.556965115118335088e-02
-1.366551348023464785e-02
-1.900654872293921008e-02
2.398867468580215268e-02
3.283911165466806698e-02
-3.247353467343491729e-03
-1.400523370957820757e-02
-6.952031876628531060e-03
-2.366971782596713827e-02
-4.758873046600178153e-02
-5.170677394195651033e-02
-3.616891334715614109e-02
-1.719792134355868987e-02
-3.593158125531184348e-03
2.922466653184463414e-02
7.789641040926716109e-02
7.753473799851250126e-02
2.675148930702566513e-02
5.958197060036902245e-04
5.330317827107843368e-03
-3.059620202602013599e-03
-2.034304832590251924e-02
-3.212670789775386171e-02
-4.431877836908611201e-02
-4.649947399894111683e-02
-3.071653690943884282e-02
-1.422468219905303859e-02
-1.901872804612600269e-03
1.307646419618087308e-02
1.355553944067387252e-02
-9.908132545065647181e-03
-1.544727416513148703e-02
2.846991040439692325e-02
6.343155150705132028e-02
2.967620577531017434e-02
-1.452713698270388307e-02
-6.485724262014382416e-03
1.773308458310082075e-03
-2.255375267706311027e-02
-2.073926740340534605e-02
1.437083581822708872e-02
2.123462220075330101e-02
-2.824316958296812022e-03
-1.456300899419132877e-02
-2.630494107666189046e-03
2.125854749303278390e-02
3.415023676931015079e-02
1.972416899214912700e-02
-1.893348579905946606e-03
-6.521656154182292608e-03
-2.640471108652744057e-03
-1.677334163220111501e-02
-4.767993361392625085e-02
-5.479912250504352655e-02
-2.606574721326946481e-02
3.115723001085011785e-03
1.512537400239461274e-02
2.109102688533899539e-02
2.676170855457708775e-02
2.807365689225803720e-02
2.573605343691977299e-02
2.961943450482254145e-02
3.418061997776486449e-02
1.713451350348192334e-02
-9.640919038961982476e-03
-1.345090266612662330e-02
-1.507195244208988684e-02
-4.861790691718510110e-02
-7.694218635166076570e-02
-5.462039380988022857e-02
-9.921909407623885624e-03
1.545408405822385096e-02
2.575418993717029995e-02
3.098492020216878778e-02
3.280804504659018406e-02
4.013288170985564174e-02
3.702867307667290220e-02
2.894178860561613578e-03
-2.819524732843598988e-02
-1.550022197933671048e-02
9.621951160738544118e-03
-9.369240663560641363e-03
-4.142476319384501282e-02
-2.110077272721682870e-02
5.789622895455029047e-03
-1.092679909413660916e-02
-4.758684565127511631e-04
4.367564707559654091e-02
2.420944501591117473e-02
-3.269757316435854128e-02
-3.288676314207972934e-02
-6.288370602034775922e-03
-2.123101076549357633e-03
7.889419823255732628e-03
2.909766789685868868e-02
3.313752965336829587e-02
1.831010646528571234e-02
-2.679441049403371005e-03
-1.329543718831723183e-02
-5.062413366847419612e-03
3.669819081474729253e-03
1.929931496346452835e-03
3.591379745470170415e-03
1.053431435086809795e-02
6.137252708207721792e-03
-1.053352213508222147e-02
-1.475437755121673973e-02
4.746797286949754405e-03
1.881930165283086584e-02
4.694012308832736305e-03
-1.917201979465555511e-02
-3.031086668888365032e-02
-2.138624303694883905e-02
-5.199256233782647077e-03
-1.614912864785893534e-02
-3.925430556586001485e-02
-1.220420279700627081e-02
4.347784443137688720e-02
4.510427122838019803e-02
6.645662167596660605e-03
7.780089326524723507e-03
4.306005334160101922e-02
4.272227832111349932e-02
-1.591824937304257143e-03
-3.537530450755531353e-02
-2.630693890813565194e-02
7.835050849939748444e-04
6.981282589848455131e-04
-2.953859379383563105e-02
-4.934896154760341769e-02
-3.187698625539089198e-02
3.138280551147716244e-03
1.347654799567642343e-02
4.022895046712112767e-03
1.950266701221372093e-02
3.903873790747234424e-02
1.466777496630716771e-02
-8.483884262225623724e-03
1.528192189415663801e-02
3.546743253954619257e-02
1.570031118536291057e-02
-1.723570010166473876e-02
-3.662527374299432564e-02
-2.779759936095001216e-02
-6.982825805413803155e-04
7.005278506712011959e-03
-1.178281341490490693e-02
-2.120450080137896431e-02
-4.961719832256343554e-03
1.208586821400120352e-02
1.403253702902008092e-02
1.238299929734790715e-02
1.328012159064155019e-02
1.172978424552685583e-02
9.938760492749302775e-03
9.297858394323170461e-03
-5.268760976930072365e-03
-2.112151423363413036e-02
5.963209929536933233e-03
4.021495684174278967e-02
7.257933397973765320e-03
-4.470402364708376403e-02
-3.842864186216934236e-02
-7.844929738402964259e-03
3.798390959361329540e-03
8.127859273178964991e-03
1.226995373348088551e-02
1.350478032451884677e-02
6.637198115396441070e-03
-1.205101660249474280e-02
-2.633792293959959924e-02
-2.153800132088091318e-02
-6.909193319940807460e-03
-3.197735869501176515e-03
-1.600471062408150014e-02
-2.242951150843047400e-02
-4.286063250062683780e-03
2.160574430189957790e-02
3.332134667073577416e-02
3.896910269165713980e-02
4.855326159107619527e-02
3.880786808380074643e-02
2.198654397658626920e-03
-1.876520184100887584e-02
-5.623922439254712413e-03
5.257573938243567668e-04
-2.285174763383424068e-02
-3.303000429946345573e-02
-2.187495165826208038e-03
1.590090914689309617e-02
-1.191446628352930623e-02
-2.616413970563482433e-02
-4.110761483051384585e-03
-8.991212796442651142e-04
-9.509231607691792654e-03
2.085281200761666606e-02
4.918208810626882588e-02
1.749525761580566011e-02
-2.441178538630313366e-02
-1.524803350605139808e-02
1.152164055449809293e-02
-4.416067136214828562e-05
-4.113527405729273945e-02
-5.625167594460651205e-02
-2.443270230626160694e-02
1.360952457778124604e-02
3.237009900015200975e-02
3.960717295339777344e-02
1.564456398638412390e-02
-3.579369775389493885e-02
-4.132800278925737730e-02
1.144526541568570074e-02
3.263202557940779458e-02
-3.953080030185959076e-03
-2.661817879630008765e-02
-7.520212883965954331e-03
1.786118745765939708e-02
3.124274465864736172e-02
3.291786369342009771e-02
2.418101388127055773e-02
1.200256612340096056e-02
-9.286326938482934723e-03
-3.021271576262717085e-02
-1.211450656104340155e-02
2.139556606970077074e-02
1.370609117078723863e-02
1.585787302847189127e-03
2.105633728422126941e-02
1.894781632089050441e-02
-9.094554783244741120e-03
-1.339883904791363406e-02
-1.634705252562369468e-02
-4.148943330920486922e-02
-3.604379672759780440e-02
9.330389336774488201e-03
2.315874548869895078e-02
-1.287681856290658761e-02
-4.076944499012147977e-02
-3.013860390892569852e-02
-1.555562012516891520e-03
2.108062262582825058e-02
2.911707600723654685e-02
2.479648421474209621e-02
1.686565619880962125e-02
1.167639651588229209e-02
9.152215722304011744e-03
8.278777410926982730e-03
2.259164923923665143e-03
-1.796280285670357607e-02
-3.436672015140572467e-02
-1.774448478535903956e-02
1.680319173339345912e-02
3.370130245703217842e-02
3.182307870221665752e-02
1.769077806619992130e-02
-6.430653999098922234e-03
-1.482568899955979957e-02
-4.114464251310599036e-03
-8.089232926043136290e-03
-2.175810998915695543e-02
-1.278736252919427524e-02
5.242603943581588925e-03
-4.473905106781891731e-04
-2.379045078549902464e-02
-3.425250801770227116e-02
-1.406470778931639444e-02
1.838873209338998810e-02
2.001868904193977727e-02
-9.141942934164849766e-03
-2.317823720098037207e-02
-1.886975208761236880e-02
-1.311925161911960125e-02
2.397383710745465760e-02
7.324535486477450064e-02
5.421275417764754440e-02
-4.424648576528800170e-03
-7.732573676078792306e-03
1.955124182881954123e-02
5.283189813004896679e-03
-2.027190035415609923e-02
-9.654058811281639174e-03
-6.828505363359185093e-03
-3.857760146685192820e-02
-4.053028616025076969e-02
6.429693174602939959e-03
3.712064675804307295e-02
2.869353214635268073e-02
8.831005788089341460e-03
-1.052555037689033475e-02
-1.607313064972118108e-02
7.514787533192122601e-03
2.883762353963315039e-02
3.141247726857657185e-03
-4.244439582314732395e-02
-5.506661833345659340e-02
-3.581514040960702416e-02
2.508764043183185025e-03
3.352748700618671251e-02
1.473953757878026898e-02
-1.581734601329653697e-02
-6.338282353197948089e-04
2.676131143631601747e-02
3.418091952474439088e-02
2.598240748062935132e-02
-1.021750763816422353e-02
-3.859456231018823513e-02
-4.930614100865742672e-03
3.104881328684282876e-02
-2.274378343076354295e-03
-3.739509820508669924e-02
-2.333385359322164357e-03
4.403736157745257590e-02
3.910333576109318449e-02
1.561231342276708442e-02
9.453036021830349758e-03
7.143837505188197802e-03
3.024861205577255088e-03
1.032614077366155250e-02
5.727239780925619597e-03
-3.897863951451221998e-02
-6.479354680536576760e-02
-1.864316618595666247e-02
2.793198262458214051e-02
2.309443435899735664e-02
1.254164137701518737e-02
2.833632221823298436e-03
-1.893300506223613219e-02
-1.239784459654952320e-02
1.260441448991021438e-02
1.500892229703299115e-03
-2.245990896004374307e-02
-2.487844113048603284e-02
-3.386827087600676606e-02
-4.120104464949806561e-02
-3.539354835001828903e-02
-8.337046779579482259e-02
-1.433597767479073970e-01
-8.200770112412887614e-02
1.241335418179714996e-02
3.967695438592611090e-02
1.527342801337570610e-01
3.081079494734286217e-01
2.265472385226949548e-01
-5.545319018844356573e-03
-7.619070519757402404e-02
5.905479546609651575e-04
1.017757405910443141e-02
-8.050591105066544351e-02
-1.299789807137403108e-01
-7.176609721449356272e-02
1.051940418534347277e-03
9.265577596122683002e-03
4.153007269346481976e-03
4.995824672443224812e-02
9.827188898336845779e-02
7.439396462297068191e-02
9.289840956166058386e-03
-2.616677295266544093e-02
-3.050755228207141512e-02
-4.036268958744085311e-02
-6.133311507061456336e-02
-6.724810721680778147e-02
-5.200613421249651591e-02
-3.149708185103933938e-02
-8.313938186566696004e-03
1.169762967194979027e-02
2.915512027206848544e-02
5.437395940692987123e-02
5.144677087643356045e-02
2.398308272947373074e-03
-2.222149219334590420e-02
-6.817366831312508466e-04
-5.572853837481553732e-03
-3.654969925779785744e-02
-2.277527440644689510e-02
1.488310475648418896e-02
7.390981369104982282e-03
-1.527652381706596368e-02
2.095329423672755674e-03
1.709862356097811495e-02
-2.135432142773884337e-03
3.214576033160356644e-03
3.925325043149738985e-02
3.104891928985700419e-02
-1.894227167096411424e-02
-3.661453769860857632e-02
-1.197981122702448248e-02
1.002758796090853777e-02
1.034257000539535662e-02
-2.054377169590310137e-03
-1.817419268334244734e-02
-2.949438855777190838e-02
-1.502885475305235953e-02
3.218948119386045442e-02
6.775197413595254736e-02
5.138634346037425360e-02
1.717206791105360675e-02
7.457184068752231720e-03
-2.434097141649015951e-03
-2.866817967133639816e-02
-3.381674001369965044e-02
-1.375511769043501024e-02
-4.819162441197247237e-03
-1.264915085405646927e-02
-1.815659074331329656e-02
-6.080087638332086486e-03
1.908652022488807262e-02
2.358567084714852796e-02
5.775420909684240989e-06
-5.373745979280693946e-03
1.807428472089169305e-02
1.451883040838149348e-02
-2.974655488258631103e-02
-5.770633012798559447e-02
-4.603748577927310737e-02
-2.704280519958680504e-02
-2.302531992585186288e-02
-2.924232434160048064e-02
-2.223099577988374778e-02
1.342215179638799397e-02
5.155362789537418222e-02
6.820554894262005619e-02
7.525690205335923422e-02
6.076338094959085612e-02
9.622438266602764689e-03
-1.439820661438918556e-02
2.420219364866732156e-02
4.210681415455370946e-02
1.352000356152872722e-03
-3.401502611281964628e-02
-3.778890708955379846e-02
-2.404669890398040272e-02
-5.458022396904070248e-04
-1.235884101923626034e-03
-3.938534619186528224e-02
-5.996511254602230473e-02
