8.620254204400264880e-03
-3.149935562785308174e-02
-8.392507060991712120e-03
9.264924351580677842e-02
2.487693038816595203e-01
3.195722994288550667e-01
1.776885152908323218e-01
-2.203006655800114622e-02
-1.080451531171800761e-01
-1.340261600067261805e-01
-1.068478524218834935e-01
-4.583643909765648672e-02
-7.346281791185585441e-02
-1.009794552831619202e-01
8.244207324482211857e-03
1.485084681902167081e-01
2.385379863593699301e-01
3.037513085629920950e-01
2.893541020441845468e-01
1.627192212815303241e-01
1.359762911422937592e-04
-1.543498202836459943e-01
-2.945111564663687176e-01
-3.287751018779416223e-01
-1.665537671885103932e-01
8.610877222680864140e-02
2.282143082435598991e-01
2.273677081303648873e-01
1.764217713459265979e-01
1.005597766132111381e-01
-3.909425372764131421e-03
-9.895190876371522115e-02
-1.936463582905956771e-01
-3.217835047608060828e-01
-4.102847213366538903e-01
-3.743330655169215815e-01
-2.603475726158946957e-01
-1.285055331384256649e-01
1.565187493671547220e-02
1.175435190796107338e-01
1.231633436033892914e-01
8.215657880717336381e-02
6.567691904308858852e-02
6.226063173696799735e-02
2.446525690994237612e-02
-1.854820445472142934e-02
7.076438351597958212e-03
6.573675949454409195e-02
6.224092930427951864e-02
7.688399828855267681e-02
2.627829693563623059e-01
4.759811844990656793e-01
4.724047244629721032e-01
3.872253673377862304e-01
4.161393912273860241e-01
3.782176260712004079e-01
1.098772454592784609e-01
-2.299315885230698298e-01
-4.408296621068863996e-01
-4.814802857667609404e-01
-4.266877721330586404e-01
-3.408628692162796181e-01
-2.216755486168968114e-01
-8.868000931443051349e-02
9.648149122073047812e-03
3.713339088730704257e-02
-4.898073880470264763e-02
-2.276426114029386216e-01
-3.829205129905811078e-01
-4.179196065169228369e-01
-3.078714478171982183e-01
-9.373317424748991988e-02
1.195825558994016713e-01
2.422396367844426024e-01
2.802417319121833228e-01
2.866457767469591245e-01
2.828033989470549736e-01
2.791556424836816874e-01
2.761992026283354162e-01
2.159668062851674841e-01
6.359547593106334995e-02
-1.002237407483322906e-01
-1.651772799728417340e-01
-1.090975848056581349e-01
-1.207472182746510692e-02
4.294387683722793170e-02
6.410650895578719199e-02
7.852695828830248692e-02
8.158397684431363539e-02
8.829849574964540593e-02
5.387218059059289965e-02
-8.021104211857585375e-02
-1.610296444043812225e-01
-5.622860019297868522e-02
4.796566242492054932e-02
1.055839300604619231e-02
-2.609912313098358347e-02
1.942611368772005631e-02
4.395307995639408799e-02
-4.491707727488931240e-03
-7.644348122795081857e-02
-1.642997898908470922e-01
-2.833531965905320971e-01
-3.527375486340108002e-01
-3.068690388734766072e-01
-2.118800528521745941e-01
-1.030352959036688748e-01
3.716632556087372946e-02
1.433433758472883734e-01
2.294431623971290857e-01
3.895503470357033482e-01
4.701105039995644441e-01
2.633487134865564738e-01
-7.053556079633652165e-02
-1.956235087517714799e-01
-3.027272612412933162e-02
1.853631784780899738e-01
2.637334654757119701e-01
2.966377522875148220e-01
3.217985062510343997e-01
2.312270033968275573e-01
7.445566245652043835e-02
-3.595705603811028689e-02
-1.372917224962690308e-01
-2.786293361576416827e-01
-4.154072079502000303e-01
-4.791718469928041291e-01
-4.244691398536119542e-01
-2.721520975631975259e-01
-1.184506910367531807e-01
-2.567896502740375092e-02
3.167344369453761743e-02
7.165153694015163888e-02
7.585203326843495408e-02
5.778243396680341620e-02
3.939176436255403813e-02
4.920288255154506990e-03
-4.111550476869493820e-02
-5.684884618763443032e-02
-3.526928232858526219e-02
1.436196268256269455e-03
7.178744460484398626e-02
2.079461905267796229e-01
3.525387077794492896e-01
3.802163478364468108e-01
2.653885373266358649e-01
1.017683876482113892e-01
-6.153353239115576245e-02
-2.235184812311244440e-01
-3.300373248493058131e-01
-3.468756702396044167e-01
-3.112954908837877177e-01
-2.268379945169047007e-01
-6.176609094425409424e-02
1.434598574100493795e-01
2.999045391962240625e-01
3.741131832095964671e-01
3.729346643090733493e-01
2.769467580101684923e-01
9.284153474658415894e-02
-8.221222172367950720e-02
-1.584863800573992343e-01
-1.354408832293804987e-01
-2.590081069485849347e-02
1.279430732600174148e-01
2.020914952834619582e-01
1.733061041785574075e-01
1.526141224895103121e-01
9.137147731370479087e-02
-1.441192884649106221e-01
-4.160086171240036657e-01
-5.162138816966364008e-01
-4.935336640776016304e-01
-4.367856376960971843e-01
-3.076999477453365994e-01
-1.112715731452449813e-01
4.729650692363519815e-02
8.960916081444041115e-02
6.357822661096025618e-02
6.407110634891638457e-02
8.249489540679003086e-02
5.791693600378917950e-02
1.075661450879187436e-02
1.150419280912132192e-02
8.124396495907242055e-02
1.781200308035198188e-01
2.678923254794181585e-01
3.748927371647009510e-01
5.172644287289922538e-01
6.319413475500141875e-01
6.337053384624952157e-01
4.869312085755894692e-01
2.005338535246899423e-01
-1.476033054687566626e-01
-4.301085019496483364e-01
-5.904373319871907277e-01
-6.539214046119791179e-01
-5.956903969009372801e-01
-3.731945046197674420e-01
-1.252549372553861950e-01
-3.785578665291820799e-02
-4.440116472708313666e-02
5.172893990598725900e-05
4.781840362380065934e-02
-3.695242688689009958e-03
-1.287144885270387340e-01
-2.232526078369442002e-01
-2.202973569383339936e-01
-7.538924821139190990e-02
2.252185395618901964e-01
4.818382784609427927e-01
4.328939452627802997e-01
2.044986290557565256e-01
9.535669764739157506e-02
7.022677169867654057e-02
-1.424839287170228189e-02
-1.012416455164873441e-01
-1.412543196077369334e-01
-1.716072151130252077e-01
-1.749752493629702643e-01
-1.162565643908513857e-01
-1.905356990849830373e-02
6.563202475967797045e-02
1.015021093655027185e-01
1.002372568273583592e-01
1.024760418332253675e-01
1.012046628679817151e-01
5.386965788895791557e-02
-1.986393427752157492e-02
-4.997957188940183038e-02
-2.756404185057562128e-02
-8.825997956823147111e-04
1.162834332088693787e-02
2.125072844920052051e-02
4.825655726130593376e-02
1.070220388013317092e-01
1.468426221320628389e-01
9.755301189034779052e-02
-1.981753135650710443e-02
-1.410253173293621320e-01
-2.449694547636742659e-01
-3.197442098025008450e-01
-3.294806472754856497e-01
-2.537847954544457107e-01
-1.241060994036349563e-01
3.738700069432290829e-03
1.115973360683359117e-01
2.203926060424771238e-01
3.195751263982857804e-01
3.560339030987071940e-01
2.957173619233190442e-01
1.364160140944338517e-01
-6.845898473483241764e-02
-1.793208390776135086e-01
-1.025448446401139024e-01
8.156121295992498077e-02
2.299109268214198643e-01
2.807204576181681066e-01
2.236579768361812992e-01
7.214408082186109239e-02
-7.908597498866412612e-02
-1.440014682983579986e-01
-1.824646387012871518e-01
-2.582121154678313490e-01
-2.956071631543739642e-01
-2.407543790821677909e-01
-1.640668001006052312e-01
-1.309741394818913218e-01
-1.389223597545636568e-01
-1.499205771237034635e-01
-1.002856391689750104e-01
2.144514831089982393e-02
1.195023636955362123e-01
1.246685732735370311e-01
7.640419963067482390e-02
3.084260636324123381e-02
2.646791301170964630e-02
7.994029092512870693e-02
1.464270754956223941e-01
1.830848304307868546e-01
2.066522572833080496e-01
2.164908832071587297e-01
1.599164601545501330e-01
2.480128806742014358e-02
-1.083898029413148945e-01
-1.752967788164997709e-01
-2.262645328174782144e-01
-3.019529297023756942e-01
-3.187791844842283728e-01
-2.200900496266507689e-01
-7.958523869225260505e-02
4.120949767117990103e-02
1.506534096397311173e-01
2.328465406815733718e-01
2.612879958184677887e-01
2.481316074032879349e-01
1.982280224686768233e-01
1.191832288628569547e-01
5.258718041056376080e-02
3.401287110903539190e-03
-3.557829775295386771e-02
-7.597816743596219613e-03
8.868216487121166614e-02
1.539119713031079084e-01
1.445360000019087765e-01
8.927537586360556610e-02
1.677626297720609394e-02
-3.526221777194775420e-02
-6.817871370050854196e-02
-1.314123131552139834e-01
-2.108704454133321082e-01
-2.656389855710743486e-01
-3.143246420379302020e-01
-3.288249038588995643e-01
-2.356422508851817588e-01
-8.429238399139656057e-02
-9.777205747915629352e-05
-1.820990531048678751e-03
-1.113092137984489360e-02
1.292165409202047227e-02
4.186346455271738876e-02
5.487151297351708368e-02
7.481065725807006794e-02
1.105162042250396603e-01
1.229592960334132262e-01
9.980240027194828278e-02
8.703513561910516949e-02
8.965136800709661014e-02
7.554941970109209370e-02
5.877395290971922093e-02
-2.907818519346853231e-03
-1.814815597831340166e-01
-3.264178601461337759e-01
-2.488972739316194782e-01
-6.803838478077989249e-02
4.694074743807698236e-02
1.527614207369130672e-01
3.076284405066099237e-01
4.395046340540156860e-01
4.937325131529016198e-01
4.892750872982764010e-01
4.490123521286858432e-01
3.509586817656694668e-01
1.621618658602637097e-01
-9.561528443472186445e-02
-3.451667474855389939e-01
-4.748563020579532057e-01
-4.135346598244991623e-01
-2.491643707546180586e-01
-1.331188904813386809e-01
-9.533192344577967603e-02
-1.016312011716683922e-01
-1.627850085694650673e-01
-2.689425434284791194e-01
-3.392948073701069212e-01
-3.296403246631194883e-01
-2.995721711018883293e-01
-2.848256204933076741e-01
-2.172256515890746420e-01
-7.749608728014906189e-02
3.319835270530467619e-02
8.373918804291516360e-02
1.592405761480136517e-01
2.541224172184222696e-01
2.901403249623680236e-01
2.823613457830874696e-01
2.676949255995781374e-01
2.871188387723302426e-01
3.909343736943264869e-01
4.466340292932023393e-01
3.181443179451082792e-01
1.532056026052944220e-01
8.943567511534029901e-02
6.771233720864133776e-02
3.257423547906046490e-02
-2.974487461082540862e-02
-1.169256320429981205e-01
-2.198305333753314272e-01
-3.478316120280608437e-01
-4.414649030750794623e-01
-4.238117230004297964e-01
-3.494726119625626848e-01
-2.823531005444301356e-01
-1.707920682827103187e-01
7.048179087320666225e-03
1.615305885689486687e-01
2.296897953998463526e-01
2.458113828539224555e-01
2.273455755289668367e-01
1.311243616870256257e-01
-2.524979849239536445e-02
-1.475561745225549837e-01
-1.618086800418265803e-01
-1.605458564366349372e-04
3.088551411535597757e-01
4.996432807596258852e-01
3.855070418625170525e-01
1.348609796520240378e-01
-4.597540881612226932e-02
-1.365079955012405699e-01
-2.111998140679410274e-01
-3.446544989055454478e-01
-4.268711960575411468e-01
-2.962369109693565594e-01
-1.155405289449823736e-01
-8.546681686788121235e-02
-7.224714348052581336e-02
3.391052356463829937e-02
9.969901657349544699e-02
5.775711952325379012e-02
4.666262690509748873e-02
1.513123742489825840e-01
2.087504595775956928e-01
1.109839392872306874e-01
2.299455675139371394e-02
5.144292004942933871e-02
1.228477155718330771e-01
1.905168016830952882e-01
2.306286802653111645e-01
2.186869109223979757e-01
1.664272406692093309e-01
7.972577521757948094e-02
-2.081354135322568272e-02
-1.107915130449084740e-01
-1.968452354948050653e-01
-2.581659088135171976e-01
-3.256138533393251322e-01
-4.632967849317962683e-01
-5.168268188995843726e-01
-3.259463965981902467e-01
-7.081333255160129903e-02
6.792232668209946533e-02
1.762662765612310056e-01
2.891469046966742007e-01
2.853008209620766511e-01
1.423884568454877875e-01
-1.870275097133665410e-02
-1.068547032509583050e-01
-1.007552695823404482e-01
6.584078155440722946e-03
1.693449458940618213e-01
2.924295178079402979e-01
3.293683957459405121e-01
3.003852144466596652e-01
2.496601022010193627e-01
1.972922875571211099e-01
1.128686676077019641e-01
-1.693789128287785661e-02
-1.509715836739136119e-01
-2.453462962459244112e-01
-2.475852023426217685e-01
-1.396039516850855755e-01
-7.483703050349552188e-02
-1.829057563155776500e-01
-2.710463176814748576e-01
-1.728007179283357342e-01
-6.573877908905348399e-02
-6.548656731847102286e-02
-6.578850293553753503e-02
-3.513340235640652343e-02
-1.401750366716826568e-02
1.879759341351278784e-03
2.922457580346714268e-02
8.803301155056686422e-02
1.683979529000946551e-01
2.049008264375880572e-01
1.722134807428475356e-01
1.322243931119000127e-01
1.117672534982592503e-01
4.481510031374522779e-02
-9.244115328649316066e-02
-2.219102587372719371e-01
-2.737339818721552520e-01
-2.411641698921969390e-01
-1.527473114812664123e-01
-6.200086703015248585e-02
-9.883306385611157277e-03
2.809455321335462344e-02
1.046054929042342652e-01
2.184935133283494868e-01
2.974231509037966736e-01
2.629049357423697275e-01
1.226736151852959450e-01
-5.956600707713272103e-02
-2.243312287412380923e-01
-2.206746679471636163e-01
5.161550351971797707e-02
3.358861775290614693e-01
3.573165260944723975e-01
2.485173696146584787e-01
1.805728143756648862e-01
9.379648061741928389e-02
-1.336107689128257503e-02
-6.120170889167020345e-02
-8.025082461032261028e-02
-1.346730133581927058e-01
-2.209899727024525751e-01
-2.888469828022334762e-01
-2.669958084329353554e-01
-1.613973793064105711e-01
-8.652999359892371567e-02
-8.216821415258467043e-02
-6.592207114097613230e-02
-2.394918852094044676e-02
-2.535769790489025149e-02
-6.114274804921168704e-02
-6.865682056778341091e-02
-5.442590877917544145e-02
-5.193153472198279441e-02
-5.521426055107907932e-02
-4.527809162889002981e-02
9.638992224979273798e-03
1.179688789188604037e-01
2.106985385879732164e-01
2.275550957724212231e-01
1.767048991260508906e-01
6.686661512397898410e-02
-8.183183700483084855e-02
-1.852072379390717616e-01
-1.822573524232980191e-01
-1.162603678955892450e-01
-3.689843399075816432e-02
7.681533211322688626e-02
2.201837629740767410e-01
3.156272125409616547e-01
3.237692093096793400e-01
2.798253798197830600e-01
1.842292903336456844e-01
1.014019780312837640e-02
-1.771924240357468372e-01
-2.700636820020710371e-01
-2.173660566051640042e-01
-3.056553586592820199e-02
1.714210572888837936e-01
2.349636845369693083e-01
1.596607237904600907e-01
4.942468717929236061e-02
-5.102800868243413668e-02
-1.452022411041951899e-01
-2.248388875066944237e-01
-2.901177781858253479e-01
-3.454144596968418135e-01
-3.466866915599137733e-01
-2.584771585206118716e-01
-1.426585007526735560e-01
-5.151519118236399380e-02
4.928414126609670376e-02
1.487111434237748941e-01
1.872523071270880690e-01
1.807247345222851020e-01
1.584770882924915747e-01
1.075919576485778184e-01
6.393734374644252649e-02
7.560114596922465346e-02
1.123112044558682576e-01
1.354612801425225110e-01
1.488924527054029390e-01
1.605116070310889931e-01
1.729897399479376485e-01
1.705754315581242408e-01
1.172613158865329352e-01
1.011530959232748508e-02
-1.114438500938457755e-01
-2.226690431547779236e-01
-3.141183702013867762e-01
-3.499726092121515642e-01
-3.081744374542122467e-01
-2.204395631532740651e-01
-1.192108751817346074e-01
-1.677303641085824137e-02
6.610742290459190040e-02
1.190642689800345266e-01
1.520471748690899738e-01
1.538058444441483263e-01
9.141489034952453296e-02
-2.098477512046974594e-02
-9.574985653993280110e-02
-5.555461953324748736e-02
7.951953406486815534e-02
2.143714289776705306e-01
2.711602173138465965e-01
2.428931212594548916e-01
1.731402500135936218e-01
1.129622875582438069e-01
8.388986263721918968e-02
6.081692908515032303e-02
-5.350755404094395540e-03
-1.387702044830255166e-01
-2.953038488919951243e-01
-3.845086226332847801e-01
-3.591580343393763752e-01
-2.543537530684403247e-01
-1.283240394587498445e-01
-2.859181907405127648e-02
4.666551660862217066e-03
8.767763925242103018e-04
1.578244915504892210e-02
1.547924723054034529e-02
2.580164635559437092e-02
1.424637634081737936e-01
2.277496267700963584e-01
1.227770885018198838e-01
1.516333868403512211e-02
6.929180966494505323e-02
1.433180159302810674e-01
1.285089571932740427e-01
9.720606255730507295e-02
9.724834289133559018e-02
7.208454435893886514e-02
-3.298749378571284863e-02
-1.724712110789660413e-01
-2.520247639728560585e-01
-2.464118550315470002e-01
-1.844003485157725275e-01
-8.993413711252551401e-02
-3.116398354110942216e-03
4.964275684337913358e-02
9.684958427654354052e-02
1.431049326438210700e-01
1.412865344367360554e-01
8.190727307780533428e-02
-1.203294774567519390e-02
-1.249120038775892033e-01
-1.753947832403894569e-01
-7.647678813706926260e-02
9.038008381098106003e-02
1.900850844756118707e-01
2.203618937164863179e-01
2.189016988921714535e-01
1.871460952677162781e-01
1.305588568613971767e-01
5.239280353431161052e-02
-2.549272699276578305e-02
-6.620414101701872778e-02
-5.797322506169105133e-02
2.144544845020013996e-03
6.602480215585151968e-02
4.930716097300481826e-02
-1.911490100529295022e-02
-6.423257916920470378e-02
-1.113614589276826911e-01
-1.762700431295505521e-01
-2.189694906134176389e-01
-2.416954891647944415e-01
-2.485070487632120018e-01
-2.158198659162494926e-01
-1.627757630347657636e-01
-1.275009407754685575e-01
-1.058725957768333475e-01
-6.683715797791997537e-02
1.639649093224751497e-02
1.273736348624045500e-01
1.975023198872013219e-01
1.983113334422794694e-01
1.683253254310121128e-01
1.002097388042841736e-01
-3.843694669748782405e-02
-1.595380006588640598e-01
-1.406912180297471004e-01
-2.310118119564977257e-02
7.270621890352847727e-02
1.276816592450306376e-01
1.993265763906851840e-01
3.101267747845739553e-01
3.676210795438075163e-01
2.692995757073669560e-01
1.087856423719311960e-01
6.753746521063405672e-03
-8.947018193043687617e-02
-1.469684775432151258e-01
-3.040161881385904097e-02
1.545778769715778211e-01
1.974950710305594936e-01
1.163938891299317047e-01
1.880550626392722691e-02
-8.789692351391971414e-02
-2.003597239844688294e-01
-2.788794563560361151e-01
-3.215890105506813423e-01
-3.595744621779976002e-01
-3.869186804289824200e-01
-3.418475384599605205e-01
-2.045631467945258630e-01
-5.124130792829074271e-02
5.552039284744930692e-02
1.243982112990938971e-01
1.598825226583280856e-01
1.512828308973508118e-01
1.250931013217260745e-01
1.023278939857270309e-01
6.829908401031704879e-02
5.357390510328544075e-02
1.028705392015584752e-01
1.615313487534482395e-01
1.609089235832016074e-01
1.365320692363405086e-01
1.432411665279282598e-01
1.688728338483800606e-01
1.685996036624901884e-01
1.017502373431872498e-01
-3.172009098593907978e-02
-1.656834329680274553e-01
-2.434284429219361889e-01
-2.803960032243112965e-01
-2.878961642402174670e-01
-2.304266562307757393e-01
-1.054855110379763761e-01
2.892175021593051953e-02
1.285567201928876080e-01
2.032083971918477450e-01
2.477959186102055567e-01
2.051575044149911708e-01
6.633720601298098707e-02
-1.025200426612411092e-01
-2.506352623839582794e-01
-3.189875688484820060e-01
-2.147197890976108303e-01
5.350745283564065091e-02
3.130149486348429155e-01
3.800152364100986002e-01
2.574278043644043779e-01
1.190092186344483549e-01
6.057140522541048372e-02
1.189446394241209376e-02
-8.814963608629847180e-02
-2.182728903369846596e-01
-3.083757939584494956e-01
-2.674824911117658077e-01
-1.242620236703175923e-01
-3.915492083231456033e-02
-5.600016982308479718e-02
-5.789762046203794643e-02
8.253481807951830451e-03
7.536516622100271345e-02
8.422647773417152317e-02
3.972377518713232636e-02
-1.764820442988047217e-02
-5.170981245490213069e-02
-5.780450698735022791e-02
-3.120549856072366707e-02
5.450259168500850432e-02
1.775883564021742411e-01
2.610293998853864261e-01
2.702876559324175476e-01
2.149494694668066530e-01
1.008610439780102258e-01
-2.872331187471030556e-02
-1.293023617283180493e-01
-2.227886311494114424e-01
-2.630814965065778610e-01
-1.637792101414594914e-01
-5.492371444678818132e-02
-6.747577261337919796e-02
-4.660852058831170541e-02
7.501541242416295829e-02
1.232630957744861033e-01
8.759241756874952545e-02
1.043846183974172642e-01
1.248418483819275365e-01
2.615463210164065827e-02
-1.077048716857269273e-01
-1.286364726349461252e-01
-7.978597066138837235e-02
-1.954090517438773419e-02
1.018042135366414580e-01
2.025199013328635167e-01
1.504165789878764703e-01
3.228487523990866692e-02
-3.257253883022458163e-02
-9.253143471476213411e-02
-1.830345341333871612e-01
-2.516280255030576840e-01
-2.878002501470902641e-01
-2.758143126134250389e-01
-1.653359245369365738e-01
9.021860283254143700e-03
1.948576442874876413e-01
3.505806954609845816e-01
3.757719656445573930e-01
3.100131550280117443e-01
3.164714368036135594e-01
3.456295452950816083e-01
2.456395087898925744e-01
6.456847101344881379e-02
-7.148157753111750168e-02
-1.520894203929896715e-01
-2.186853211982495160e-01
-2.677448304776543497e-01
-2.737184218279836712e-01
-2.417885112131789582e-01
-1.900159858646018329e-01
-1.196566966820471339e-01
-6.821293882747371529e-02
-1.130598982575121703e-01
-2.436755029596344990e-01
-3.338161432503113923e-01
-2.995357143457694771e-01
-1.873553681572513452e-01
-5.996567138133683528e-02
9.680372609229218051e-02
2.791645317561183282e-01
4.131590520681598933e-01
4.649480237350094858e-01
4.558873587186073606e-01
3.766909101804267745e-01
2.195385737081718969e-01
3.271685124948541662e-02
-1.081689788682504011e-01
-1.268953362714916600e-01
-1.486877395675677282e-02
1.364294989428810334e-01
2.446576094858845529e-01
2.311610292754794072e-01
4.634882321276472678e-02
-1.320777963417100465e-01
-1.495469557938453598e-01
-1.907313155944648231e-01
-3.596742457291022266e-01
-4.516707922141585674e-01
-3.994632254278406847e-01
-3.450288510968819167e-01
-2.676766886131493606e-01
-5.565121948737389995e-02
1.570830820458702926e-01
1.881985617978507719e-01
1.291629569575073466e-01
1.056789941581493808e-01
8.202845700883500124e-02
4.825893319179245383e-02
5.019194865409848383e-02
8.651611503457022623e-02
1.276241939039665096e-01
1.454549508348503828e-01
1.379017495722245357e-01
1.346964394712849566e-01
1.428360019391870239e-01
1.505521209851927444e-01
1.529444335876625205e-01
1.122774997431483235e-01
2.305804414138849789e-03
-1.240943463834393162e-01
-2.255182826335553337e-01
-3.059878102478664763e-01
-3.218190515486964998e-01
-2.432514512603619616e-01
-1.359929181464544501e-01
-3.699638810799536770e-02
7.787761541938781340e-02
1.789752995886436382e-01
2.179340921990451374e-01
1.922201440599843325e-01
1.048869474598808083e-01
-2.787560949321262957e-02
-1.513204682466690321e-01
-1.798571694876787141e-01
-4.268123658002069554e-02
1.975083143795238472e-01
3.650651831271274350e-01
3.682282576054746182e-01
2.567825748103652050e-01
1.205783873434745079e-01
8.075690299131164235e-03
-9.130147378007108516e-02
-2.084679696129301818e-01
-3.481540518903627479e-01
-4.540943840715218061e-01
-4.437447867656088007e-01
-3.142203679572149744e-01
-1.325684521133826954e-01
3.266521569896595895e-02
1.128621191087921943e-01
1.024002303384625168e-01
7.221806298154620496e-02
5.453831111191054931e-02
4.135964272854621843e-02
3.655147785360839119e-02
3.526994845342827645e-02
3.925969048109118065e-02
4.570569673179242232e-02
2.491012748331489918e-02
1.076855215542867061e-02
9.481500976260122393e-02
2.411038861114176701e-01
2.883299547245444239e-01
2.062542822821113453e-01
1.207558082067215488e-01
2.257722631738852404e-02
-1.945794718731536366e-01
-3.834342336121535633e-01
-3.254712331087074029e-01
-1.337581111432411540e-01
-1.547135018756780681e-02
4.201185737710372292e-02
1.043328383419561967e-01
1.633565900522402359e-01
2.181415312540136708e-01
2.540966051018448968e-01
2.009109706577002497e-01
3.870685462152030631e-02
-1.433561156529227776e-01
-2.343317182096386897e-01
-1.729446568321327260e-01
-3.582187098095556549e-03
1.344218984657765958e-01
1.709836457585725833e-01
1.456150418439862149e-01
7.930066120575024469e-02
-1.808290527872568471e-02
-1.113825345675174550e-01
-1.967986771786285338e-01
-2.587453422387258062e-01
-2.472406813569342499e-01
-1.855319379912930278e-01
-1.417069603234024366e-01
-1.207578271381086754e-01
-1.015930088524076846e-01
-7.798620019128751912e-02
-4.864605542523288417e-02
-2.364222560261569628e-02
5.629393026105600217e-03
5.025005380472120919e-02
7.684464325243348104e-02
8.979578789201017597e-02
1.548092400415840564e-01
2.610640725755031255e-01
3.197489019679258249e-01
2.897469386270073444e-01
2.029790451460814771e-01
1.212785124936185954e-01
6.671868825473165066e-02
-1.733866303223544070e-03
-9.964391298324817847e-02
-1.873888380823236499e-01
-2.357362589060167934e-01
-2.306032731426959081e-01
-1.537023090021061023e-01
-2.521147473853540405e-02
1.049225115925416368e-01
2.254121975182271642e-01
3.236376798998464865e-01
3.447874210092476965e-01
2.740243626834362733e-01
1.500360331019705562e-01
2.304797508040547921e-03
-1.587492363564702580e-01
-3.267052360282385326e-01
-4.527237567959392361e-01
-4.459908592237386560e-01
-2.883075225772401828e-01
-7.917831368305594530e-02
6.090869790202059486e-02
8.718151302307491912e-02
3.355084921819516397e-02
-4.468545453749715735e-02
-1.024338412159305489e-01
-1.159080873009356027e-01
-9.690540673397531057e-02
-7.392110276659712154e-02
-4.183313967221884838e-02
2.591986980365966128e-02
8.630304708694341853e-02
7.413477440147794861e-02
4.275577802542952083e-02
7.658037993674370048e-02
1.450483917399506550e-01
1.764996649019459074e-01
1.583932476981246285e-01
1.273530099372766344e-01
1.276321195105026840e-01
1.368393560143729704e-01
8.390376912166558343e-02
3.053227719876101809e-02
9.267191243500327857e-02
1.596049536571707284e-01
1.030835294183227308e-01
2.600894137489153518e-02
-2.533228719746655894e-02
-8.410186089501600626e-02
-1.055966885951331591e-01
-1.909663464386229248e-01
-3.750080347595811103e-01
-3.818338456863774044e-01
-2.057570992964145029e-01
-1.415341180425595813e-01
-1.541754622114311357e-01
-6.288307868262223155e-02
7.123074168976070708e-02
1.573595009584728421e-01
2.094998014664781749e-01
2.113964784480819592e-01
1.287592724530501054e-01
2.445462956152227862e-02
-1.932098473066412581e-02
2.222140703472576945e-02
1.832394683813542702e-01
3.599455917793369375e-01
3.141693180028597987e-01
1.151051376271852444e-01
3.315226241797841755e-02
1.880862094816242863e-02
-8.998691268255801234e-02
-2.234632894006138293e-01
-3.003826773387640592e-01
-3.329580970180912591e-01
-3.058061019809877323e-01
-2.168317142427367283e-01
-8.804580870153728978e-02
6.051202175182069515e-02
1.485350149742355186e-01
1.189681210741826978e-01
4.932056120718136816e-02
2.125658467868268148e-02
1.415437008454308206e-02
-4.156038111252730038e-03
-1.411681845439711515e-02
7.760551615128171571e-03
4.959185365951306740e-02
8.493210356600164324e-02
1.060264812024251380e-01
1.305393954808765911e-01
1.579169984249823577e-01
1.393866473791646188e-01
6.006712877503017634e-02
-2.790284865036911366e-02
-1.090145975650452653e-01
-2.088145333087882971e-01
-3.101628054460663364e-01
-3.601782303708888633e-01
-3.108813547651360643e-01
-1.668258218562346518e-01
-1.189996366246132836e-02
9.858737769560403652e-02
2.121921897458998729e-01
3.407672722495269646e-01
3.802163568953266237e-01
2.540495183921204214e-01
2.020236785227377818e-02
-1.788244633594972266e-01
-2.318814229891527079e-01
-1.405767626324282704e-01
2.567620158017138929e-02
1.910229750349926037e-01
2.908395460245611908e-01
3.173125331025865581e-01
2.833091544361264202e-01
1.768763947511422796e-01
3.831808646782171313e-02
-6.734402956420919295e-02
-1.484402509640595502e-01
-2.204601529274088645e-01
-2.536448155131476589e-01
-2.332990514596733345e-01
-1.667681518933535056e-01
-8.443621189131543525e-02
-5.088319000933332059e-02
-6.453221355023232297e-02
-5.175486026431836556e-02
-3.122906027457212491e-02
-6.614843487939578437e-02
-1.066657260618876085e-01
-9.431602260520990932e-02
-6.492421175554445589e-02
-5.810824838236975515e-02
-6.570869247718727491e-02
-5.423979953509679847e-02
1.712408202335403973e-03
7.906832777049628558e-02
1.257534088023481433e-01
1.160933183778015410e-01
5.724626096105578377e-02
-2.234453123174621678e-02
-8.209183566041108882e-02
-9.788466623553911117e-02
-6.072031211198208878e-02
2.741510067926715075e-02
1.220873326013113547e-01
1.862397623871049346e-01
2.546145909611360891e-01
3.511395523253991735e-01
4.335112483385426541e-01
4.722110060637591533e-01
4.745994845326488298e-01
4.150486097412769970e-01
2.329388953757521030e-01
-5.152814319405484011e-02
-3.042810538936357445e-01
-4.081675858170958349e-01
-3.449372642913229314e-01
-2.123883118017994565e-01
-1.758085949224469091e-01
-2.505632384913363819e-01
-2.842490652593577249e-01
-2.541881755890718630e-01
-2.877228662830869088e-01
-3.911094118005242759e-01
-4.464927856432261977e-01
-4.095759305024997410e-01
-3.148388164400635625e-01
-1.807929762726480094e-01
-1.735770472965071642e-02
1.429996073807215939e-01
2.480275474748757092e-01
2.700462084443053801e-01
2.523882195572439424e-01
2.369352741024584597e-01
1.990140563013578778e-01
1.508312930726463386e-01
1.802185683630123658e-01
2.848267071598277189e-01
3.439322974026377544e-01
3.225232221199662574e-01
2.926911370235320553e-01
2.797388619648015773e-01
2.599589452583034310e-01
1.986435822602452272e-01
6.261071239166814129e-02
-1.163891859677397000e-01
-2.829678533961467179e-01
-4.188043113083299573e-01
-4.875353331725211792e-01
-4.629686348147165620e-01
-3.768461809378987337e-01
-2.495453404623059201e-01
-1.029054974978631520e-01
9.728268903385274557e-03
9.127554359174679111e-02
1.731989119324551241e-01
2.070855338295874148e-01
1.290025875324377069e-01
-2.689939127669049163e-02
-1.446681770151832802e-01
-1.193711901206579440e-01
4.703672040124590864e-02
2.364711466594893174e-01
3.445682604951910699e-01
3.557218162865332101e-01
2.711482610438525898e-01
1.395637244522253129e-01
6.490834840242487580e-02
-2.873721129297801546e-02
-2.771187516954137786e-01
-4.736384088923957236e-01
-3.917284083969970743e-01
-2.195308948472665667e-01
-1.486129038098883137e-01
-8.718141605258133975e-02
1.331246550354295982e-02
6.977165909602434102e-02
6.796689585981607884e-02
6.252123144254123632e-02
7.504261432835876433e-02
9.495882935861028884e-02
1.060649745174641334e-01
1.036467578102794745e-01
1.089684462728761211e-01
1.207614885728466730e-01
1.067096983535417987e-01
8.872303842721745992e-02
1.083773119854259531e-01
1.258944557571123890e-01
1.058505871921612135e-01
7.472368512359073289e-02
-1.146647999198443374e-03
-1.557016891808654657e-01
-2.937038331253617462e-01
-3.468953335166953811e-01
-3.458107078293543024e-01
-2.903582216271761163e-01
-1.935949191168768180e-01
-1.060314462053029982e-01
1.460426268210593403e-04
1.535338718811362635e-01
2.695807575216494500e-01
2.681212444882754564e-01
1.634054378671514485e-01
6.925560654888345685e-03
-1.313902177450154418e-01
-1.575351791558294856e-01
-3.273700163872964725e-02
1.531831133957305136e-01
2.763591400011132793e-01
3.197344541161240561e-01
3.136669616880757849e-01
2.601049752238537849e-01
1.995284801982187273e-01
1.278358378164194120e-01
-5.138916209557200382e-02
-2.686953276523705858e-01
-3.405011439672756546e-01
-3.057622515228382021e-01
-2.910301281590688682e-01
-2.631028118289667206e-01
-1.639598788008273522e-01
-4.126008938665821912e-02
2.876222454375697291e-02
5.494931659377357003e-02
9.824403603161047105e-02
1.263560868451708008e-01
7.075899938538703082e-02
-1.304992237493798543e-02
-5.111136637537496558e-02
-6.653637890621801054e-02
-5.258483404825555624e-02
2.553776159877713114e-02
9.611198248192680260e-02
9.338063426253681576e-02
6.808276513991677603e-02
3.798697495441204913e-02
-3.650427304640455756e-02
-1.214919071333672718e-01
-1.666043471604715109e-01
-1.718664964510091542e-01
-1.316931671682215477e-01
-7.753477021587676377e-02
-6.300155933579779099e-02
-1.164442308003064280e-02
1.519126171267115022e-01
2.822449176657380598e-01
2.600055738563256669e-01
1.907297192959223620e-01
1.571547369680985073e-01
1.250179465226095299e-01
1.680858317359203852e-02
-1.972911600449893665e-01
-3.000320516915511160e-01
-9.834530092342573526e-02
2.239652969846089581e-01
4.629477006522745297e-01
5.393429654837093024e-01
3.591535933519771628e-01
1.175937433391845977e-01
1.013336575367074499e-01
1.425612016397808657e-01
-1.846893335825697952e-02
-3.079444307960584326e-01
-5.268915883027771585e-01
-5.501426054751208383e-01
-4.535808969251134970e-01
-4.115439550504467192e-01
-3.805615382129974300e-01
-2.407671942309045354e-01
-7.036052511376163221e-02
1.169227614646946301e-02
2.087322284401786632e-02
1.733047604051786428e-02
1.284113606439346578e-03
-2.003118669844314997e-02
1.446667368347146626e-02
9.452495297695696908e-02
1.447582931044860133e-01
1.740455693477808707e-01
2.296064320398215064e-01
2.965819151609014881e-01
3.307449904241661631e-01
2.870068882535393717e-01
1.551352718155794841e-01
-8.415484600865309750e-03
-1.487116532362295906e-01
-2.345029988899807738e-01
-2.144866720107697355e-01
-9.689283121714886704e-02
5.032340542788060755e-03
4.383703343537536518e-02
1.073271247910775189e-01
2.289072501706364837e-01
2.977996532081541026e-01
2.178009305328545142e-01
4.141164677019766593e-02
-1.298226596432846269e-01
-2.684926412135967833e-01
-2.928654264589158895e-01
-8.726090029467745146e-02
1.819863105161259598e-01
2.391469087027806029e-01
1.372829531827235994e-01
4.954190597282274316e-02
-3.022624152279756310e-02
-1.167012487197752330e-01
-1.777111630315037216e-01
-2.473624830760233206e-01
-3.209396565422235614e-01
-3.122433284303089973e-01
-2.318859200558531231e-01
-1.612802986755201562e-01
-8.283368596048548693e-02
2.942845172155400535e-02
1.168640742284212664e-01
1.507328537246108158e-01
1.539033257228138440e-01
1.469597322992908239e-01
1.449238870481749375e-01
1.349148023207381586e-01
1.147679656940484572e-01
1.212055395208855996e-01
1.436831263437011175e-01
1.358246461328514731e-01
1.049572077614419618e-01
8.403887777552213056e-02
7.892091520486521627e-02
7.191279096800877457e-02
3.269470920556320770e-02
-6.039021049242031952e-02
-1.854860420714186109e-01
-2.830569621152609905e-01
-3.220859361877168592e-01
-3.050507970368763200e-01
-2.083280382554194010e-01
-3.656443284709480490e-02
1.136814766422430401e-01
1.731496016795123771e-01
1.876556137405891445e-01
2.017449952439836214e-01
1.774848283762476553e-01
8.285778064379636931e-02
-4.566502990524654026e-02
-1.492996914001948894e-01
-1.794979040601039633e-01
-1.041196018745447760e-01
5.705192588033508594e-02
2.158245773023715619e-01
2.767922778086276403e-01
2.312116132098561150e-01
1.429802360532536343e-01
4.257067070024221633e-02
-7.421624835777614060e-02
-1.875557974360888003e-01
-2.671496079987928374e-01
-2.723159186093354611e-01
-1.759513474203420191e-01
-5.359901987630120296e-02
-1.462256562909064819e-02
-3.673268301592083618e-02
-3.785447689067049371e-02
-4.073305668599848384e-02
-8.691340545244348459e-02
-1.108802027768608645e-01
-6.183115717126205085e-02
4.825205846279293984e-03
5.888277789656280042e-02
1.346647258997610563e-01
2.045341106547221288e-01
1.996418646579458112e-01
1.468637384909024235e-01
1.216571998861463860e-01
1.203169930557960038e-01
1.067815494076907457e-01
7.391131001239337195e-02
-4.300514771599213415e-03
-1.341861388152765511e-01
-2.362763001114618622e-01
-2.460998088617725177e-01
-2.017238025280614633e-01
-1.396599208899252376e-01
-2.242306977625136213e-02
1.363038012060481252e-01
2.225187499958602155e-01
1.965044139162726577e-01
1.417136121520429226e-01
8.810801323738205737e-02
2.829709172133616953e-03
-7.128063994873366782e-02
-9.228178766234834685e-02
-9.838373766315934577e-02
-6.306661182782279107e-02
7.681315352818614273e-02
2.241158569338572160e-01
2.333906455136981473e-01
1.177063177282186845e-01
-3.265508817450339663e-02
-1.445568212301041044e-01
-1.731939188363839643e-01
-1.828779692223787279e-01
-2.554591484042897931e-01
-3.167472339449982077e-01
-2.760793425432044867e-01
-1.792799118932897062e-01
-8.560468472294671671e-02
6.961036696323030792e-03
9.653026449575251300e-02
1.638890804604435369e-01
2.008823172551944536e-01
2.271308114098795350e-01
2.814732545523137563e-01
3.592992396270872635e-01
3.911884504179111155e-01
3.424387387378215464e-01
2.470058073766414897e-01
1.133321550526388555e-01
-5.334756282518039738e-02
-1.762778368841258492e-01
-2.036753526071554687e-01
-1.875829835706199766e-01
-2.087939966313304418e-01
-2.998997401389781325e-01
-4.151899527466766937e-01
-4.698972651687947089e-01
-4.352540728982665086e-01
-3.346754593921721921e-01
-1.919950860910096535e-01
-4.120011719270105094e-02
1.017138014248322730e-01
2.447419625278411115e-01
3.609695036003054414e-01
4.157501455734273765e-01
3.955029104420865194e-01
2.834836685420368818e-01
1.100989342036240021e-01
-3.444129014824787866e-02
-8.873942796896097662e-02
-3.721586727612748863e-02
1.072839693664581484e-01
2.648491699121132137e-01
3.252738436623993090e-01
2.515705373806348955e-01
1.174016588265890254e-01
2.710800185876786894e-02
-5.911942652658303682e-02
-2.549259970072328407e-01
-4.502325802730774429e-01
-4.594034858867485083e-01
-3.511900253431577967e-01
-2.595876520311569680e-01
-1.715033865042430994e-01
-6.445852966147214147e-02
2.531641870112896070e-02
6.693113465075700708e-02
6.441573050565743697e-02
5.269517336392164075e-02
6.127149185797273190e-02
7.932987496903473601e-02
8.254575499243552161e-02
8.280021050265698457e-02
1.002388362037934244e-01
1.142114949236602700e-01
1.062531791964402977e-01
1.076354672121719175e-01
1.485436757116231909e-01
1.879357713864024393e-01
1.576110695797554861e-01
6.634061773414673402e-02
-3.082926917386465127e-02
-1.319537480551227770e-01
-2.448558798719606133e-01
-3.117151798351675551e-01
-2.905317877184171449e-01
-2.199274065383741150e-01
-1.153668334731775547e-01
3.794547920845309924e-02
1.705335341255780901e-01
2.216440270276011371e-01
2.314059975488404475e-01
1.937305065707138341e-01
5.397850713367233211e-02
-1.267093438284438434e-01
-2.038729949681479248e-01
-9.963883819518951079e-02
1.238138522196266522e-01
3.007416054979754616e-01
3.301794557405533515e-01
2.708750121204297479e-01
1.677137370424878760e-01
-7.440832685607415981e-03
-1.530644426017281901e-01
-1.661639050393227679e-01
-1.820985212737492032e-01
-2.882793169162366498e-01
-3.376411634941052786e-01
-2.568924673892818422e-01
-1.497563047453883134e-01
-8.531798538245113916e-02
-3.899780368494257243e-02
1.498552864633894560e-02
6.488405931644293523e-02
8.167668486683643536e-02
6.131559160659213331e-02
3.999408179594726720e-02
3.453578654945183707e-02
2.551904660439658495e-02
1.642650814517991956e-02
1.881767903388503749e-02
3.295713535774717762e-02
8.501609510568790273e-02
1.667840893477029185e-01
2.041682946633735229e-01
1.928018127091238321e-01
1.869298803143181198e-01
1.056827184299856948e-01
-1.378829979355633839e-01
-3.531422101754877474e-01
-3.450789518735120631e-01
-2.555182076996440621e-01
-2.274310500273769575e-01
-1.445420968420173258e-01
5.325054516739785582e-02
2.366520797497597139e-01
3.199401529918262099e-01
3.123345116490628404e-01
2.247580034652122138e-01
1.009208391628882984e-01
-2.923189199096606905e-03
-9.655723610949096258e-02
-1.787575138860586499e-01
-1.695234727309599121e-01
-2.401968464653941177e-02
1.736904780165380857e-01
2.858014966283831670e-01
2.490234649442241155e-01
1.342555757832963326e-01
6.403329550526021263e-02
3.215687774745470268e-02
-6.909799556277761157e-02
-2.246925469861807967e-01
-3.188826773161123063e-01
-3.286222091552030156e-01
-2.955714172110883164e-01
-2.327957002276678511e-01
-1.611931340512912370e-01
-9.740335062641036767e-02
-3.173053227722248681e-02
5.420700233577574467e-03
-1.315407615845648470e-02
-4.274131656162911269e-02
-5.068877938071554567e-02
-2.449285784611774514e-02
5.992801230083437403e-02
1.546832706117343137e-01
1.977116392938522982e-01
2.219598423817243926e-01
2.559564944998727332e-01
2.666213757727296518e-01
2.450931496654694397e-01
2.035618350549244782e-01
8.239254805446147301e-02
-1.442787802075543580e-01
-2.674743907034126122e-01
-1.328074574111522410e-01
3.346271084843787519e-02
4.707353873600261807e-02
5.024593936175177772e-02
1.275931488060783603e-01
1.990966173407611450e-01
2.392178924933309470e-01
2.437185716910347522e-01
1.765149844518033584e-01
4.442748869352786123e-02
-1.463699686205892359e-01
-3.975933318398618965e-01
-5.491593039551904143e-01
-4.137516458416592990e-01
-1.672769270466559488e-01
-1.072733381687226567e-01
-1.507345420405210579e-01
-1.158098302569849497e-01
-7.854054653354766713e-02
-9.960854545005451421e-02
-1.050688328333883315e-01
-8.058786108522252023e-02
-4.731376545031467512e-02
8.551695938325658275e-03
6.901646341776007665e-02
1.074000452720314386e-01
1.434928186124596050e-01
1.766161793143832814e-01
1.733065029750522901e-01
1.567074891704988426e-01
1.836154488995156153e-01
2.472990220634381786e-01
2.781120809315841269e-01
2.216689153608126239e-01
1.310531884344904585e-01
1.138099560849780006e-01
1.070150701103714519e-01
-3.177410972710634218e-02
-1.773729537245302135e-01
-1.352827796380384751e-01
-1.270080501366721570e-02
2.454175046894029738e-02
-1.751771808692741822e-02
-1.069164692194704003e-01
-2.155540303391788592e-01
-3.006190582544480683e-01
-3.428866726892184080e-01
-3.182929685999608127e-01
-2.384104730671494088e-01
-1.585039745826263002e-01
-6.648345141978495576e-02
8.517966928708287089e-02
2.629425446900429675e-01
3.498493019542919247e-01
2.683023283651918556e-01
1.331696039862118597e-01
8.249936702079169182e-02
2.659981291747685189e-02
-6.751342517137894073e-02
-5.752792695692843239e-03
1.768986959224085609e-01
2.150521342404974057e-01
1.616344525251013908e-01
1.916506625326912239e-01
1.549175847941756667e-01
-3.440847571295656271e-02
-1.852750696852964174e-01
-2.563249613979387553e-01
-3.299313773645224379e-01
-3.618849629097382614e-01
-3.374373153095797107e-01
-2.524955077108101409e-01
-3.311421248670588791e-02
1.921103979663199013e-01
2.218756647026357276e-01
1.612770024199315366e-01
1.515822025912107462e-01
1.171217873868222042e-01
2.735254498650242089e-02
-4.718573363806562171e-02
-8.350306223570976016e-02
-6.951147759148013083e-02
4.514574226011584812e-03
9.603969093741694663e-02
1.617326677199188434e-01
2.000060867396694086e-01
2.167766948457079401e-01
1.753184647794928108e-01
4.272778541518846424e-02
-1.041965221338805592e-01
-1.718498780130344739e-01
-2.061111954190104345e-01
-2.828486964676429904e-01
-3.523444379438416818e-01
-3.238155574304623086e-01
-2.113808203327582902e-01
-1.033796625211663711e-01
-2.546357843253907460e-02
8.333784451334255716e-02
2.484541510197726399e-01
3.763033832664186562e-01
3.594064862187436038e-01
2.317047559354787345e-01
1.039155608133327108e-01
1.487555551729386957e-02
-2.209850482508231295e-02
1.654466654493386146e-02
7.809218496259542897e-02
9.659668316332700733e-02
9.422362479785673095e-02
9.724090699158341455e-02
8.236022839287765462e-02
3.483295056499371295e-02
-3.926902535815708639e-02
-1.296808798010606056e-01
-2.259157397772384446e-01
-3.000848213049960300e-01
-2.929233291364903291e-01
-1.996480058297822047e-01
-1.292725711080902340e-01
-1.403156702912910503e-01
-8.592020722942024513e-02
1.273451435978397162e-01
2.708736579224896301e-01
1.885296573505057527e-01
8.693466577984758359e-02
8.213079202857076488e-02
4.910555874389582742e-02
-3.148893503013755479e-02
-8.981073804711460495e-02
-1.243706435256644732e-01
-1.251256568338915964e-01
-6.908428642227221195e-02
-1.118516973464252044e-02
-2.774494876391617182e-02
-1.031722062904533860e-01
-1.594393601782870817e-01
-1.514850187281303884e-01
-9.165767572360493387e-02
-1.248040939240967553e-02
5.782191778584489655e-02
9.161256670970426008e-02
1.092561219605741041e-01
1.775952315681084692e-01
2.692842762595986650e-01
2.866703506277408775e-01
2.626956603597158657e-01
2.899098123137480165e-01
3.074166709111522122e-01
2.178614837593991216e-01
9.617250596979617927e-02
7.181340042690201320e-02
1.411702706415468023e-01
2.199728545127368762e-01
2.370380646177412676e-01
1.409180600522101368e-01
-5.717159024831464792e-02
-2.562491441446085871e-01
-3.709317864409900634e-01
-4.416853585520769121e-01
-5.444796984493205372e-01
-6.422144991933405045e-01
-6.591673195335780999e-01
-5.931330947897383021e-01
-4.603048577316594669e-01
-2.823175198333451319e-01
-1.059412835965200528e-01
5.462651324320277890e-02
1.804842496563218990e-01
2.337930889373686372e-01
2.636251348550178730e-01
2.888298382732088498e-01
2.198376600414883031e-01
1.626791705861334314e-01
3.121028522539578409e-01
4.763374637521104460e-01
4.109180510849121948e-01
2.987242274877086046e-01
3.187828430116926848e-01
3.468549868500507838e-01
3.052113206798029998e-01
2.341761831603632604e-01
6.190610283884635801e-02
-2.582197821936937920e-01
-5.102116696926871642e-01
-5.082245815545297640e-01
-3.919421011977036740e-01
-3.274870855102176570e-01
-2.714791877028026601e-01
-1.487800542894229527e-01
1.539728394816631055e-02
1.486903054458590390e-01
2.179847027643414814e-01
2.111637747463920856e-01
9.386879476143994427e-02
-9.422179735012256585e-02
-2.168833352753803678e-01
-2.004215575019078766e-01
-8.088402021252412422e-02
8.573210656817301101e-02
2.382370132119738249e-01
3.058616446777052134e-01
2.582121728246219439e-01
1.282681833268304872e-01
8.196212610071069646e-04
-6.193627952664317732e-02
-1.045211616906467494e-01
-1.814213447090849696e-01
-2.377166110200788496e-01
-2.080117031310217413e-01
-1.188892749237533963e-01
-2.898451464547665418e-02
3.615420180551057183e-02
8.427780037493370902e-02
1.306549732016885346e-01
1.557990606978894299e-01
1.152208880944104452e-01
2.349415408475567790e-02
-4.373834359476259231e-02
-4.613554038534324608e-02
-1.377694732581615650e-03
4.345838988639329908e-02
4.405755624685633171e-02
2.146444919760797515e-02
3.436568641512490613e-02
7.794089247979357760e-02
9.194425357986334146e-02
5.402204631748146885e-02
-4.452577262173656146e-03
-7.447536393904106988e-02
-1.706082078376270628e-01
-2.666670760116853778e-01
-3.316392184646830277e-01
-3.505432178258003351e-01
-2.763877950788941606e-01
-9.929616243118011276e-02
9.103818480198967722e-02
2.099125844757054327e-01
2.605664913290172136e-01
2.811517196442990807e-01
2.596107005289437497e-01
1.442151490881239950e-01
-4.471739836965771958e-02
-1.695945358001301195e-01
-1.063239814239032299e-01
9.837086183723831034e-02
2.825415468020138210e-01
3.546902455219427819e-01
3.247106429327109023e-01
2.395285116891519850e-01
1.535154595281695011e-01
7.043850678349038164e-02
-3.365864558697325565e-02
-1.336306709821115657e-01
-2.223867195654016804e-01
-3.189321280518161439e-01
-3.606385084472334968e-01
-2.998824064332611394e-01
-2.151265571611033212e-01
-1.474945712369140627e-01
-5.048649905657920378e-02
3.667431030712271778e-02
4.698294327039169438e-02
2.874347508993657652e-02
2.070606486966381637e-02
-4.622939623661004305e-03
-2.556099726281508069e-02
-1.859142209567823251e-02
-7.565913435844284773e-03
2.199968698772820572e-02
7.100129575622045330e-02
9.112762036174577862e-02
8.023972444359148137e-02
-1.196410951649540602e-02
-2.347097841032840526e-01
-3.605046457380967073e-01
-2.064542316721525161e-01
-1.446854326209398925e-02
1.260937798653749900e-02
9.040923227838983112e-03
7.317640609356103332e-02
1.455172915316179372e-01
2.075885748955617061e-01
2.842557254803314559e-01
3.609228441564246714e-01
4.120413967741424210e-01
4.384850426461232020e-01
4.468517108635032264e-01
3.958202235808802039e-01
2.403746168463615773e-01
6.182214995111889183e-02
-1.797685200489897162e-02
-1.953158061005863533e-02
-5.208550434198119805e-02
-1.743289297315105402e-01
-3.326409615029138345e-01
-4.264359170359414142e-01
-4.579038183052498989e-01
-4.923169034738002492e-01
-5.317040681990375939e-01
-5.538898289196594327e-01
-5.481543335815753926e-01
-4.763637605735815406e-01
-3.019003552102375032e-01
-6.478341536093991382e-02
1.337368407165382134e-01
2.455956231672295487e-01
3.063066370445268749e-01
3.447182841211011151e-01
3.428531159706915687e-01
2.774962219820253928e-01
1.845286842546405570e-01
1.615779136348520773e-01
2.312750410498145004e-01
2.858523268360732561e-01
2.645847932487047638e-01
2.308028073096106136e-01
2.278918652031713954e-01
2.340404516476810304e-01
2.251180811489141287e-01
1.601720324475218726e-01
6.571049369433222542e-03
-1.865346077362237676e-01
-3.494287197414082669e-01
-4.515397538526999544e-01
-4.559649033774112459e-01
-3.665442558848844290e-01
-2.599654611428195983e-01
-1.590766870772825359e-01
-2.285377961676351988e-02
1.311422261497563746e-01
2.353366626325896216e-01
2.372803029721574919e-01
1.222517984382727463e-01
-4.547862603966220524e-02
-1.863862598571096596e-01
-2.784875617136667869e-01
-2.049795241479181185e-01
1.338366558316734234e-01
4.507513800245701585e-01
4.285025117886845925e-01
2.373271951736188878e-01
1.253507887337051430e-01
5.439595804860698769e-02
-2.612556397576698552e-02
-1.063401494455828988e-01
-1.993957892761634154e-01
-2.507884364133752264e-01
-2.081601461950762788e-01
-1.319455387186212469e-01
-7.978977108238925753e-02
-4.039923181107158562e-02
-6.379687971046113515e-03
1.400010620660907534e-02
2.458378981656334644e-02
4.106006526833089199e-02
7.897165670057501585e-02
1.081508851834116491e-01
6.983763600487202794e-02
-4.938258367504590185e-03
-1.797747950967820002e-02
4.172668181209569782e-02
1.039439092157497246e-01
1.350531577881728396e-01
1.491437244442823107e-01
1.403663466380103420e-01
8.541137762752583351e-02
1.485026644116036951e-03
-7.829402394711017232e-02
-1.505340951494707480e-01
-2.223749440697085078e-01
-2.981930481672375177e-01
-3.465907345391644467e-01
-3.019109379402182269e-01
-1.752634633932792507e-01
-4.676531915329153882e-02
7.332274507377431472e-02
2.187787021765290330e-01
3.434969699062178083e-01
3.322613601591468124e-01
1.401624596141667067e-01
-1.013060329989539654e-01
-2.179154593630635017e-01
-1.776634261286011707e-01
-2.558120256571245338e-02
1.714624691973999637e-01
2.942199947600676047e-01
3.008139819392375292e-01
2.674712427820590266e-01
2.255811054458568277e-01
1.577954367398899105e-01
8.779613925116611095e-02
-2.491124210661631311e-03
-1.823188148514731100e-01
-3.878669494762007619e-01
-4.445457102472930577e-01
-3.218764640628547502e-01
-1.581499627498756111e-01
-4.367453235124960087e-02
3.878382957128394953e-02
9.543093147021683431e-02
9.818612590480679803e-02
5.317574600602022195e-02
3.715994070210153905e-03
-1.187075289280803241e-02
1.322517052561624808e-02
5.036599209010949457e-02
6.027009757734375084e-02
3.382489223746167062e-02
1.893371324066028816e-03
-1.050049040507497825e-02
-1.567380037942832198e-03
2.270666333081766686e-02
1.924436950642526706e-02
-5.498372097861523727e-02
-1.524916881625818510e-01
-1.920255959918915067e-01
-1.632694461022623500e-01
-1.086485621341741203e-01
-6.239181069327798257e-02
-3.065117870471827100e-02
9.054081801424555473e-03
9.178789700849476763e-02
1.994610314345000301e-01
2.448973450077676361e-01
1.929337890596629079e-01
1.135558981580866433e-01
4.812354110770133975e-02
-5.411011759536044075e-02
-1.719423279251959535e-01
-1.429916781092125944e-01
7.785267007284138452e-02
2.982978634649815497e-01
3.834877196114570563e-01
3.944872107634158631e-01
3.591680829922818119e-01
2.358960283676867775e-01
9.815378376545558226e-02
2.595727992033111664e-02
-5.495732697150555734e-02
-1.852789746338674992e-01
-2.944266943187633379e-01
-3.616548461696830197e-01
-3.946228244586439393e-01
-3.720309809057025241e-01
-3.116437325535993952e-01
-2.562123526943399510e-01
-2.093154502234298442e-01
-1.426620224983846108e-01
-6.808367613121234230e-02
-5.642395644215844608e-02
-1.069670384902413340e-01
-1.178582890949978618e-01
-5.698265324734916315e-02
1.634027777820562521e-02
8.368655846436565127e-02
1.653810697025089316e-01
2.537019556150825195e-01
3.192320333111192676e-01
3.273018713269121860e-01
2.530649091639458614e-01
1.228114147137567280e-01
8.912939450269066755e-03
-5.527306902543031170e-02
-9.770350353420673151e-02
-1.202315248590269947e-01
-8.302209744425474713e-02
2.421223719821496284e-02
1.568331617166766612e-01
2.501935527718076591e-01
2.806508457254506261e-01
2.594080194586426136e-01
1.844608355352741758e-01
6.226701590608420961e-02
-9.495671882077705295e-02
-2.534082149247421922e-01
-2.903236364505272782e-01
-1.389983476664842788e-01
5.299723824712303244e-02
1.210137723272787791e-01
7.594946317961617788e-02
-4.759204280997537256e-03
-8.955605680528785917e-02
-1.856066290887114223e-01
-3.060790847433999540e-01
-3.723663691445252555e-01
-2.784154813436720000e-01
-1.436883201845881863e-01
-1.278728442190307790e-01
-1.015186370910466096e-01
4.024242931939611689e-02
1.463252436130113576e-01
1.573782354473836353e-01
1.701600106603123608e-01
1.791571800211997911e-01
1.300796611700640315e-01
6.739619027476359547e-02
5.063515882458222844e-02
7.094871794448989744e-02
9.566810870438952064e-02
1.054235936374520732e-01
9.803599904635043605e-02
9.676960290942004939e-02
1.206927723686614246e-01
1.355048931382800692e-01
9.018872477918160602e-02
-5.142786322799745152e-03
-9.809437947107849110e-02
-1.644249097696064976e-01
-2.246549563737137989e-01
-2.863602647873039198e-01
-2.864965330956313894e-01
-1.708925975729648494e-01
-1.868987484417638720e-03
1.208424090074055463e-01
1.958261150534761352e-01
2.813401304342765807e-01
3.401312825707675791e-01
2.329658416382984765e-01
-4.239871689082270328e-02
-2.610779646721262948e-01
-2.918017456444560453e-01
-2.433063743945159119e-01
-1.777383708386645611e-01
-5.268318484211037545e-02
9.503439804596724994e-02
2.011449784695340526e-01
2.417579954209417847e-01
1.963497575816751106e-01
1.095329023323895756e-01
6.485904112283914780e-02
2.948104005538202885e-02
-9.750620002280990795e-02
-2.855663006301611406e-01
-3.810240841432547265e-01
-3.151074007848211345e-01
-1.831348837766537396e-01
-8.539933824679607488e-02
6.206777276376595348e-03
1.418878066921839265e-01
2.572625759047108551e-01
2.698364065739969897e-01
2.033598323785535122e-01
1.123596799015070535e-01
2.365959147440462040e-02
-2.237164763389545147e-02
-1.896256439935895335e-02
-1.088051090871858945e-02
1.243397248851412298e-02
8.651395435709335890e-02
1.492290857175965768e-01
1.174294570061166776e-01
1.396563447483699025e-02
-8.946988977377627605e-02
-1.662534188446140038e-01
-2.153508735751861469e-01
-2.249621080566023834e-01
-1.892639701088110193e-01
-1.184702660809687086e-01
-4.319912281843739377e-02
1.022843312264907351e-02
9.051961830293139832e-02
2.354608651488194759e-01
3.285782833015130078e-01
2.598076560525432455e-01
9.483906135671027471e-02
-7.712391279026067914e-02
-2.306193445467787095e-01
-3.066525448294704637e-01
-2.420355064202868722e-01
-6.824938387895862490e-02
1.118384412696616370e-01
2.131689714105730882e-01
2.144870539569361245e-01
1.474179587557898352e-01
6.451335242438691053e-02
4.929650649580901919e-03
-2.855807951031888794e-02
-6.512593742833996946e-02
-1.149723772138462746e-01
-1.273909451023934325e-01
-6.366703044679060397e-02
3.167675195753057171e-02
1.159828362725475043e-01
2.032929625936309992e-01
2.657525517493568579e-01
2.326856239149828753e-01
1.208438828742414983e-01
4.731500062496937775e-04
-1.300289587717655682e-01
-2.734734730116097357e-01
-3.503356479095209863e-01
-3.412114499516962218e-01
-3.248718396540272169e-01
-2.623436824284855473e-01
-5.979081065750604940e-02
1.590865953389589416e-01
2.346998198419773529e-01
2.168906942761372469e-01
1.639633199575527833e-01
4.226007089011846879e-02
-1.310657410097601228e-01
-2.802907052243061026e-01
-3.208459704166144455e-01
-2.147008944525015672e-01
-5.244287481577397658e-02
5.616740567010425345e-02
1.506927837777750634e-01
2.936710419981921061e-01
4.035964895976099642e-01
3.943327060432199049e-01
3.107211299761930556e-01
1.820821490468942927e-01
-4.110787305765035288e-02
-2.265478674588667363e-01
-1.157179079931123511e-01
1.703237733070117610e-01
2.732581666347186355e-01
2.017449934990560578e-01
1.559363482104491883e-01
1.077134590989432539e-01
-1.704566090812339660e-02
-1.501597232391210235e-01
-2.379944088765159338e-01
-3.231927688151510214e-01
-4.135415139713562449e-01
-4.373720761004021851e-01
-3.754562418833320980e-01
-2.721757470749456287e-01
-1.355029763138700383e-01
4.995438558658131523e-03
6.729658849512909491e-02
6.404866756420880824e-02
8.838699892700981053e-02
1.304184836205783959e-01
1.113484139809600287e-01
5.415668676996215208e-02
4.789769893020735803e-02
9.757159384759861442e-02
1.355900054551695544e-01
1.482638871389539426e-01
1.856151948903656812e-01
2.420690302654605330e-01
2.421948983524100096e-01
1.747570627262141629e-01
1.024715864091220452e-01
2.789554597849241285e-02
-9.175928792629504949e-02
-2.303281947497287652e-01
-3.245023383381150373e-01
-3.427951070574848935e-01
-2.720079115302740935e-01
-1.332234283836471744e-01
2.444920696065632990e-02
1.829957102500678889e-01
2.830454041956316780e-01
2.283518469075424828e-01
1.048018531174231549e-01
5.642764642513513340e-02
-3.614405722861901635e-03
-1.439815599795794265e-01
-1.910180713656327300e-01
-3.675269873848091562e-02
1.797068266508033418e-01
3.092518388330908752e-01
3.488508271028096797e-01
2.720442320937463410e-01
3.830118953828681727e-02
-1.670321481313553069e-01
-1.973673185544015662e-01
-2.365409936796395163e-01
-3.788381035730143398e-01
-4.407260660195485014e-01
-3.467074364188997837e-01
-1.943134086696651774e-01
-5.074499101664835948e-02
5.835776708208988833e-02
1.144201648393949056e-01
1.186587353754520319e-01
8.311441366127449160e-02
2.318041698510859422e-02
-3.413161245172348368e-02
-5.585767697834822382e-02
-3.886143524146411232e-02
-1.056456778554925972e-02
3.223583260831985181e-02
1.228322984997009676e-01
2.441229938086998952e-01
3.309698857727368382e-01
3.584194640012009492e-01
3.373183607989086452e-01
2.420600409212489146e-01
6.141473458129619034e-02
-1.329214061880382713e-01
-2.852294122187732928e-01
-3.944127336605749434e-01
-4.133112383235743592e-01
-3.021750881255466092e-01
-1.295728230387190871e-01
1.307824217651773653e-02
1.055141011588503624e-01
1.830968276613231249e-01
2.650242330771215848e-01
3.001936742845448536e-01
2.392811345073793394e-01
1.079806282800583328e-01
-6.231684601346579311e-02
-2.412257297308002812e-01
-3.098968345567295057e-01
-1.698870713731450155e-01
8.339568624816755260e-02
2.717342164434795038e-01
3.049326589180222369e-01
1.990707898614034743e-01
7.610573750862138775e-02
3.565872904425573114e-02
1.114013699358665233e-02
-8.017973866951325079e-02
-2.195074003946129171e-01
-3.707587646603172082e-01
-4.492810908684014559e-01
-3.588647921469169111e-01
-1.875731084635023915e-01
-9.703201856284610072e-02
-7.880148060734923354e-02
-5.661579845583812609e-02
-2.328196978860760935e-02
2.083466432541215829e-02
5.458161910531630218e-02
3.158973668032299953e-02
-4.320484546030432110e-03
3.702982483407214753e-02
1.452215317172962650e-01
2.532693622132753397e-01
3.337528029085662928e-01
3.726868627934342149e-01
3.675402654867918617e-01
3.432110876225074603e-01
2.862731000723842123e-01
1.681424056676421308e-01
3.479026267025950303e-02
-7.277914928019141305e-02
-1.778193235481613232e-01
-2.605183612192029097e-01
-2.708381452760768582e-01
-2.187142613845555750e-01
-1.256411536324948675e-01
-7.958027124863462781e-03
9.183742836291361455e-02
1.494061969990356786e-01
1.481555589722255706e-01
5.803312366021465274e-02
-1.007123096708108234e-01
-2.724384053142401285e-01
-3.955105102956329999e-01
-3.682813759706154433e-01
-1.760674548420584906e-01
1.446254414913679398e-02
7.199025277480122775e-02
3.524763323822382999e-02
-1.369845718485420555e-02
-3.393358215045763626e-02
-2.759664093025765777e-02
-1.357225619047480389e-02
-1.457771691674419196e-03
-1.702849245545468709e-02
-5.739108584216105757e-02
-4.934338404368053543e-02
2.464041661238728503e-02
9.165786695603060641e-02
1.388304861973095050e-01
2.058382441288264530e-01
2.570650677547932639e-01
2.412691760619277981e-01
1.865732387392911307e-01
1.334823109098782767e-01
9.067156979000272343e-02
6.827588840610951393e-02
5.075711900921133640e-02
1.306065296266534226e-04
-4.406910128760961609e-02
-1.110834183597462360e-02
4.372109238499954226e-02
2.917463037616335048e-02
-3.111639631416755758e-02
-1.029647824521934263e-01
-2.062946735367560125e-01
-3.208321164295619421e-01
-3.884932380086973391e-01
-3.728505221636683742e-01
-2.753879367297666358e-01
-1.459110007575805390e-01
-3.561660752300006144e-02
6.064526807602467484e-02
1.685891295940328827e-01
2.766494825312736938e-01
3.201963215659034967e-01
2.433883755470261923e-01
1.016157034415535731e-01
-1.064732173657854594e-02
-8.199877233336562432e-02
-5.811691666651229438e-02
1.610506510969419436e-01
4.089001281456661197e-01
3.859234622601981912e-01
1.751531516136219102e-01
5.804680757514975309e-02
2.085515148174951067e-02
-6.375261495222678265e-02
-1.706062691928744157e-01
-2.608323709794975187e-01
-3.371907281048488469e-01
-3.622912407071881558e-01
-2.919918952030223780e-01
-1.708851414009118219e-01
-9.510482652100482603e-02
-5.318673098875491279e-02
3.049102392006375339e-02
1.057689330134876926e-01
8.782133112668311092e-02
3.722368131368676558e-02
4.429026770013017034e-02
8.346978775527102989e-02
9.902088354081950428e-02
1.069615462205114886e-01
1.219374641999149550e-01
8.799013552687132145e-02
8.774502253659114542e-03
-2.486402443274113999e-03
6.702116735350913124e-02
9.007090038477547078e-02
3.848630848277471289e-02
-6.052174670285116048e-03
-6.151468977139818578e-02
-1.752624722042101513e-01
-2.669948820291318525e-01
-2.745779269557325208e-01
-2.331172792402090854e-01
-1.454140618048780642e-01
-4.175540203056714826e-03
1.448311813572960571e-01
2.634297092713827060e-01
3.370837402207189637e-01
3.377541053537002069e-01
2.306530024529485634e-01
5.181367550813954087e-02
-9.532779749671338454e-02
-1.860707775145046539e-01
-2.205937571210097592e-01
-9.965516081181119423e-02
1.510121647927569477e-01
3.231208975583140797e-01
3.539217518323464762e-01
2.882760321100693024e-01
1.020752229607936878e-01
-8.265365108085588608e-02
-1.002772052988464141e-01
-8.981041364252448367e-02
-2.087595553580100516e-01
-3.188328405191643289e-01
-2.863828831208051762e-01
-1.952905671198483517e-01
-1.467535285088988894e-01
-1.182825757292838009e-01
-7.612769042861912416e-02
-5.927387473832303882e-02
-7.031087658531555429e-02
-5.574632301028653592e-02
-4.076708455776770212e-02
-5.281675301428267327e-02
-1.656660501785954184e-02
3.118866671999774229e-02
-3.297300962684469872e-02
-7.765800915294915341e-02
5.698194219226748736e-02
1.925477953769018924e-01
1.651690294922824875e-01
7.746669951468236615e-02
8.299138282096611002e-03
-5.170297267401364333e-02
-7.032171465378678210e-02
-3.133905366186741370e-02
4.825961280684068488e-02
1.740972439194606036e-01
3.404805560123658204e-01
4.971696790790597342e-01
5.769317969304209592e-01
5.500991034801916424e-01
4.407608319760243920e-01
2.551928561157423281e-01
-8.640005600912950556e-03
-2.632980317368591172e-01
-4.259635395469124619e-01
-5.255600979373408199e-01
-5.517707595728975623e-01
-4.368966087813482280e-01
-2.541621601036379574e-01
-1.354081539696838365e-01
-6.704995636229274525e-02
-5.302024467471654068e-03
-8.291550636733632795e-03
-9.824110811660591303e-02
-1.884549852327079833e-01
-2.290188935460920894e-01
-2.695161575721904956e-01
-3.240574185164141197e-01
-2.746711457316181049e-01
-4.419438596623208315e-02
1.976089204081473150e-01
2.697012394949037106e-01
2.604515597260705362e-01
2.767160136871428255e-01
2.614663270081007962e-01
2.128172580596348062e-01
1.924948677722589929e-01
1.834685763235051614e-01
1.786664961096005588e-01
2.041188162501335890e-01
2.139051215598913591e-01
1.631987095504676410e-01
9.943593718271739879e-02
7.811934212326748783e-02
8.723022515700076807e-02
7.586553005066162814e-02
5.281738653578303688e-03
-1.260877098459460000e-01
-2.697711273240613883e-01
-3.600480514706050350e-01
-3.947135307037777374e-01
-4.006538659589158335e-01
-3.324843244016372767e-01
-1.585933546615614920e-01
1.932902477863033402e-02
1.028639582177488521e-01
1.356164576345461059e-01
1.738760433983829734e-01
1.804297807230949291e-01
1.062407900958258766e-01
-3.684984241422913087e-02
-1.567598318176991190e-01
-1.404311878391609203e-01
1.836859381963324225e-02
2.177410241086753240e-01
3.489139219459831964e-01
3.505502699748899165e-01
2.385222661707274983e-01
9.592492592687731912e-02
-1.379541811098341370e-02
-1.020731626758398791e-01
-1.950164779948841409e-01
-2.671487439169124567e-01
-2.760634934616564284e-01
-2.247244772155844728e-01
-1.563698662793569505e-01
-9.168578058829363053e-02
-1.331005141585707777e-02
6.529006551554319970e-02
9.671461755122301440e-02
8.008132931816160094e-02
5.706362892478382409e-02
4.837123388487908626e-02
4.641486383537783700e-02
4.120274235615758313e-02
4.167976505238567275e-02
6.723152352456679415e-02
1.139589860596192383e-01
1.555305816337470559e-01
1.727386542836626959e-01
1.698594610299286323e-01
1.419175113166789293e-01
4.398387734227244411e-02
-9.452032923029869693e-02
-1.511239103273836204e-01
-1.845825666852779212e-01
-3.515561776071869371e-01
-4.944570311980791000e-01
-4.325059800246185970e-01
-3.262715898337069653e-01
-1.929735296100130171e-01
1.247414124164252375e-01
3.867640003460544595e-01
3.379598346577746826e-01
2.250611369255256233e-01
2.302361060108772950e-01
1.640588033080379593e-01
-1.453390845538188314e-02
-1.069867008069311509e-01
-5.999758165566521778e-02
3.490744778602267173e-02
1.717056815215914911e-01
3.495514435976988521e-01
3.924322645837813317e-01
1.874668130964504131e-01
-3.307101749893012754e-02
-5.025965727435346281e-02
-5.848977780876028765e-03
-6.668092635278063951e-02
-1.694030047648193427e-01
-2.268387118311711859e-01
-2.364308646297428040e-01
-2.061848630372089541e-01
-1.531487405469363350e-01
-1.098677855450305579e-01
-7.142826643491191618e-02
-1.789622611655023246e-02
1.870067196014234615e-02
9.168022449700038989e-03
-1.585428289250380429e-03
2.208149823893362437e-02
3.313907035865576445e-02
7.008509564889166266e-03
-8.939390174789649951e-03
-7.582388007006250416e-03
-3.761323945874729680e-03
4.246998887848392468e-02
1.088084438123884529e-01
8.975085637167602715e-02
-1.774310159279751664e-02
-1.171846525581147491e-01
-1.709054859765434253e-01
-1.923998550330096591e-01
-1.872600663179087299e-01
-1.765120863935253914e-01
-1.658087329282672828e-01
-1.012412025173300006e-01
4.603849248792770549e-02
1.948309817040096981e-01
2.660712871433265625e-01
3.000031521039376869e-01
3.246375030288958241e-01
2.782141705221962136e-01
1.468033897679351107e-01
-1.072563678722600333e-02
-9.868369863162193556e-02
-1.314648042277266615e-03
2.533818487778261574e-01
4.891462350257378966e-01
6.057110510969473394e-01
5.932091553514279303e-01
4.611507833088913100e-01
2.639486269661808215e-01
3.895396046455446015e-02
-2.201494671437898010e-01
-5.126532469919649060e-01
-8.087383887406244254e-01
-1.003885564363363958e+00
-9.910785610181074290e-01
-8.064568156825803191e-01
-5.756750681834365002e-01
-3.623062558427919133e-01
-1.513256576697086242e-01
4.858094656596176342e-02
1.887399314179846743e-01
2.602930838477744979e-01
2.787264097953695563e-01
2.505616343722884554e-01
2.059313088554078908e-01
1.734488008640213963e-01
1.557885805444053917e-01
1.685963691231280315e-01
2.246804649101347418e-01
2.965803560691872010e-01
3.566114443435938752e-01
3.884976105842029570e-01
3.424259996027719244e-01
1.958775642002226758e-01
1.411798728391473745e-02
-1.480764638285446688e-01
-2.643178502750930248e-01
-2.741366916456400848e-01
-1.866127310128864458e-01
-1.012703355312818410e-01
-3.726735563615769797e-02
4.905684416429617611e-02
1.326803081137565565e-01
1.757634419531371450e-01
1.526618659095225206e-01
6.820499840011948721e-03
-1.861835565435744078e-01
-2.360680322199176784e-01
-1.722866176590793497e-01
-1.282540925628563866e-01
-4.163635785859238353e-02
9.876006090157039841e-02
1.466966913000737893e-01
9.115267771939272734e-02
2.283646358805230953e-02
-4.271513233804270782e-02
-1.068713718755763126e-01
-1.592933751821479227e-01
-2.020752304882583172e-01
-2.156462171521588145e-01
-1.703527056745956503e-01
-6.450519255814289588e-02
6.561269442779342487e-02
1.574571443760391098e-01
1.815530520227989220e-01
1.612990287019853419e-01
1.177944181996858908e-01
6.982713639024296093e-02
4.434504150926038557e-02
2.462733623115157672e-02
-1.429397337805038762e-02
-3.346851033451310464e-02
3.352866856863843253e-03
7.296333677672284246e-02
1.344581550863361563e-01
1.617058798849797807e-01
1.583155216540793608e-01
1.228981237159766648e-01
3.199043259253370186e-02
-8.303554422136592839e-02
-1.603731614517551474e-01
-2.060032782292789411e-01
-2.435279641943396411e-01
-2.570099591382406512e-01
-2.518502930272028539e-01
-2.413533655387472276e-01
-1.749531533680697415e-01
-2.124575544988156414e-02
1.416203552448989655e-01
2.341244362293216641e-01
2.631083459784707701e-01
2.414152207128943128e-01
1.486614397478526473e-01
5.619995512278905085e-03
-9.907114044875470205e-02
-7.904805992734462161e-02
5.769337536055130222e-02
1.922347648299584932e-01
2.270245635287166941e-01
1.920284281526009051e-01
1.416045239493343433e-01
7.398498397625109801e-02
9.563308162634107101e-03
-3.442866712685094255e-02
-1.278178266281651265e-01
-2.816500988885438650e-01
-3.591032243596584683e-01
-3.128355713688695805e-01
-2.362230703689609523e-01
-1.308228436215745361e-01
1.761059444271300192e-02
9.200300065425767726e-02
7.438313724282009931e-02
9.272406005787094119e-02
1.062867801363936993e-01
-9.660462546313496046e-03
-8.239972196135150750e-02
8.977777498256789279e-02
2.615953964950262778e-01
1.665559668573509955e-01
-1.726849970290666308e-03
-1.721352054819594302e-02
4.946221575178393060e-02
7.974277330222273585e-02
4.519792871691204195e-02
-2.877658016468127855e-02
-1.028477387854433434e-01
-1.724109457353281416e-01
-2.147232857818766327e-01
-1.783131734601957341e-01
-9.173673687536658405e-02
-2.641247939099200179e-02
1.676729640849157488e-02
6.334359195555627764e-02
1.097289941751681958e-01
1.641824263536810491e-01
2.311465948390044878e-01
2.427436077321227237e-01
1.315746844080314948e-01
-5.904974907670110240e-02
-2.416438975666624911e-01
-3.420712588921714925e-01
-2.888002414192239464e-01
-1.040162166797201082e-01
9.385278887480567878e-02
2.271923870489339914e-01
2.710304866755570696e-01
2.263112081189658786e-01
1.565457157864587334e-01
1.234251400734210496e-01
9.589090707960083726e-02
1.967311143764290809e-02
-6.205833071426146430e-02
-6.461342849117894527e-02
2.406599850530231899e-03
7.774897793331117524e-02
1.318605847795808472e-01
1.302734873022605155e-01
4.247787829717766805e-02
-1.022826416341908878e-01
-2.252854269583581814e-01
-2.634020994310537489e-01
-2.411486622927392909e-01
-2.302573108065747998e-01
-2.306047862650208169e-01
-1.885880089692433259e-01
-1.156490757958834881e-01
-6.993036104381626650e-02
-4.305821394611488578e-02
1.270749693583013429e-02
8.894329619113645891e-02
1.378433665957082277e-01
1.227915112017194110e-01
4.604865397277298211e-02
-4.549181004489485924e-02
-1.151791296244986385e-01
-1.572174776157910514e-01
-1.554080597631211924e-01
-8.596283052941122715e-02
4.997087227656790698e-02
2.052616273210530751e-01
3.124520037354013846e-01
3.630411346037818454e-01
3.804521549457507423e-01
3.306591733336730066e-01
1.968431287590287071e-01
4.203854040163758354e-02
-7.335021721070171530e-02
-9.371887381950505524e-02
1.357649536455113326e-02
1.535768032016931739e-01
1.977996257248212097e-01
1.349718617354455918e-01
1.619730668965208703e-02
-1.180607417389971936e-01
-2.282361611103929933e-01
-2.887370670382594651e-01
-3.264711358473844083e-01
-3.826950463285460069e-01
-4.129157492111095173e-01
-3.412237464434141887e-01
-2.027857405309456962e-01
-7.910420239493191896e-02
1.986997654461304663e-02
9.738849835581642189e-02
1.270254595635111894e-01
1.122207519471605103e-01
8.904240980060956767e-02
7.616747775212348581e-02
6.982260794790833003e-02
6.853621637994325444e-02
8.091979296905457697e-02
1.068720238349804008e-01
1.280646082099206606e-01
1.463437801509294423e-01
1.961024821906960647e-01
2.675505141915299201e-01
2.769916850766185323e-01
1.741384259469063445e-01
1.107062914351400126e-02
-1.383891369988459741e-01
-2.446305982371339005e-01
-2.969075899018651654e-01
-3.007912927939541126e-01
-2.676883192968866343e-01
-1.717595148894906221e-01
-1.758434322079722306e-02
1.019762414140183704e-01
1.552195789100102030e-01
2.262854422293219814e-01
2.927614811129690686e-01
2.156144867630670203e-01
2.566583947087033510e-02
-1.159978470204850176e-01
-1.575884471725690628e-01
-8.619638480664025548e-02
6.614485524241578429e-02
1.364219316153993666e-01
9.632081267034550698e-02
6.658105671384145774e-02
1.845063704128861379e-02
-8.827180945318566230e-02
-1.540550266858209394e-01
-1.455536720044060262e-01
-1.309787543459552950e-01
-1.530489835869935089e-01
-1.902239599932311342e-01
-1.737611713079477427e-01
-8.718234101707587891e-02
-8.497135924780786082e-03
1.550308885259643610e-02
1.650935332881910828e-02
9.548184893448059818e-03
-1.371268446936143789e-02
-1.334383427032926131e-02
5.031876361536172931e-02
8.876609429742100821e-02
-6.028876146021176774e-03
-8.052496200592021425e-02
7.943438432563752760e-02
3.071654241096438143e-01
3.440197609045720362e-01
2.682247484412177418e-01
2.039965130715737096e-01
1.149468034996771193e-01
-2.044490868043404019e-03
-1.263525098466715957e-01
-2.438290919218312758e-01
-2.743730814751760838e-01
-2.077501221927695596e-01
-1.641948757508285284e-01
-1.711898483167906548e-01
-1.053308705361421793e-01
6.678437415283540457e-02
2.057571468097207368e-01
2.193401920018095419e-01
1.757545704337779846e-01
1.549561397027471310e-01
1.159396895769374686e-01
-2.652077644074698690e-02
-1.857750541627050389e-01
-1.690982374438847469e-01
-2.493153518085474557e-02
8.047380123041369959e-02
1.867928042115187814e-01
2.911413462607594371e-01
2.324729889390315940e-01
5.251034260216690119e-02
-6.430492185314222453e-02
-1.224731744990285864e-01
-2.092994971890503320e-01
-3.014636268286975396e-01
-3.505100732508505956e-01
-3.581454129029520983e-01
-3.227986697619791290e-01
-2.271246432077480837e-01
-9.444215070067134288e-02
1.197662147297884339e-02
6.509133837144347179e-02
9.343747633731773472e-02
1.120452292258409255e-01
9.286335874402774915e-02
6.395890658287749220e-02
1.114853055102501128e-01
1.524952655426116410e-01
5.071660368770020133e-02
7.644152497378410571e-03
2.258937562170383884e-01
4.293175528086207171e-01
3.912081398772356278e-01
3.522830861597623375e-01
4.317032390143962783e-01
3.871943680645852370e-01
1.486580460680102522e-01
-1.005897402882664354e-01
-2.609980520111651048e-01
-3.298721822747871513e-01
-3.509096325596954835e-01
-3.831501489641007119e-01
-3.625178179664450551e-01
-2.249058157790100043e-01
-7.473783849725880446e-02
-1.923864201718014644e-03
9.296864244820561562e-03
-5.624710734456100925e-02
-1.968292021489485843e-01
-3.093557659549195926e-01
-3.136081564468121141e-01
-2.161911201133285831e-01
-3.588008665383092544e-02
1.768551767648666173e-01
2.954511074256665482e-01
2.539045745528841214e-01
1.680521301799192679e-01
1.535828130923447832e-01
1.440792512653872037e-01
7.219859932952954473e-02
5.607979540704376153e-03
-2.959939428578559073e-02
-7.084786967585252060e-02
-7.611762297811838773e-02
-1.226374526225981060e-02
6.150969886298130601e-02
1.169066893033270521e-01
1.659458921165863354e-01
1.757442283279685991e-01
1.199312374641028217e-01
2.073313964833882472e-02
-7.401781309362749639e-02
-9.775248885284822109e-02
-6.414012623190919193e-02
-8.012169332171568958e-02
-1.062519927660030838e-01
-7.468840083203403396e-03
1.022630805997977732e-01
5.824667024724914516e-02
-1.195316341558564505e-03
5.098637055178452393e-02
6.525422758063229023e-02
-6.434034322659577809e-02
-1.907543850134751084e-01
-1.858132041505040355e-01
-1.707205141537247728e-01
-2.390986672889044984e-01
-2.393549538266968590e-01
-9.674992992523329116e-02
4.960827535754643025e-02
1.515012481145413259e-01
2.816083351483855690e-01
3.638130241000044340e-01
2.692980216272256033e-01
1.048902562055313570e-01
-8.041395172360757404e-05
-1.068741191274273084e-01
-1.650349788306286480e-01
-2.075879535343314736e-02
2.388381761486794985e-01
3.996063435180369772e-01
3.416407341610357418e-01
8.487272619861979672e-02
-1.363833088421446127e-01
-1.536713472015474313e-01
-1.399969878081036012e-01
-2.334457249787278421e-01
-3.120127303287739684e-01
-2.941966512438847214e-01
-2.302390782820313841e-01
-1.564852432553184292e-01
-8.154933147062949639e-02
-2.188975566561875835e-02
2.236913729960759989e-02
6.066078836138103642e-02
6.768717030727897099e-02
2.441536075896557148e-02
-1.919576264657057996e-02
-5.855602579059560400e-03
4.929403157149173098e-02
9.152185996137449098e-02
9.714855906262820362e-02
9.219155015218524762e-02
1.066090793695523009e-01
1.319697092873476640e-01
1.482975131363667709e-01
1.367910661627219082e-01
7.301734652541704007e-02
-1.713569106068089931e-02
-8.114094685556606790e-02
-1.472725401249496135e-01
-2.451555028910508138e-01
-2.928625122240792189e-01
-2.414076193835842377e-01
-1.554887880941009382e-01
-6.250403902815254709e-02
5.577411942054882887e-02
1.736518978279174008e-01
2.676092980514890307e-01
3.094629147834935257e-01
2.404755168345653060e-01
8.705299377532470240e-02
-3.408751302029225383e-02
-6.860792020610778641e-02
-3.869392381825468435e-02
6.191652877028075430e-02
2.244019048193506283e-01
2.878391029646796273e-01
1.349663816953501905e-01
-1.340156050929577208e-02
4.542901066369414015e-02
1.263830222411082282e-01
5.563649894460815509e-02
-1.004690518635376617e-01
-2.808219876681342653e-01
-4.210465582767203285e-01
