1.901574452463329623e-02
-3.351682427918336454e-02
-6.238706803753064911e-02
-5.232873400673768161e-02
-7.205956976352091703e-02
-7.851044678285006018e-02
-2.438160685458472948e-02
1.243805575401782208e-02
1.227365613596475072e-03
2.838599065959334158e-03
2.066128213909741024e-02
2.277069755070089060e-02
1.964903290440744160e-02
2.975401157369817959e-02
6.683421967904429328e-02
1.235171988752408329e-01
1.442070826127007932e-01
1.054776340865034301e-01
4.303907787455254347e-02
-3.365338375237986873e-02
-1.109163403975873263e-01
-1.411474973535886690e-01
-1.504157394284311167e-01
-1.991838843469704579e-01
-2.274257351017603956e-01
-1.367381823358161386e-01
2.602386563842321032e-02
1.280825137176014872e-01
1.286675670751337985e-01
7.887716119835475048e-02
2.019902575509783388e-02
-3.302648975389040065e-02
-6.983742975482082338e-02
-6.324918363775715313e-02
6.453184176103188285e-03
8.985096150667411241e-02
1.194160927826357910e-01
1.025809473362866847e-01
8.578889277304915795e-02
8.360340306449511039e-02
6.712666113763919584e-02
6.976812869567290340e-03
-7.538560805258251452e-02
-1.272841376171636174e-01
-1.225831691840083282e-01
-9.671137158719440852e-02
-9.818572354054057316e-02
-7.501153293867969529e-02
4.578357023887420774e-02
1.660637209247706469e-01
1.566432505642837147e-01
8.954515516484159998e-02
8.440669094970154607e-02
1.091733992630856825e-01
7.645259424830068429e-02
-2.093817450359188731e-02
-1.123808072760202476e-01
-1.392897737417984061e-01
-1.288101385246023245e-01
-1.265576185950640087e-01
-9.861638876865896908e-02
-7.001007774436868863e-03
8.280920406974252856e-02
8.762223522402408371e-02
3.791290390467295934e-02
2.293208981930237866e-02
6.683216668317470965e-02
1.397102713994471113e-01
2.032815935336211022e-01
1.966729442822600371e-01
9.484984848617848685e-02
-2.279239133952836241e-02
-8.357284894002781073e-02
-1.461341362531358157e-01
-2.657387657740686859e-01
-3.207926421588472299e-01
-2.120864248365235682e-01
-9.296665876331561273e-02
-9.582909967731463585e-02
-8.886874440942235664e-02
2.129406015392127163e-02
9.471207001977424711e-02
4.118975111449564575e-02
-2.664703612980192163e-02
2.214957195232219317e-02
1.888121714624225733e-01
3.081219336260760389e-01
1.876577325218367620e-01
-7.852300229301664714e-02
-2.034778855306146328e-01
-1.518972029695214720e-01
-7.129741622226187792e-02
1.418359604776488897e-02
7.740689197039965497e-02
5.043022309603546055e-02
-9.949993458958406728e-03
-4.834695572344376024e-02
-8.189981833466004890e-02
-7.685926132993137205e-02
-5.664011620928915969e-03
9.937449058756345210e-02
2.058354884054163225e-01
2.775990249920676778e-01
2.988501947816279980e-01
2.948741607194863001e-01
2.701826672541295382e-01
2.155039205349961184e-01
1.469447834839459066e-01
7.339347220427666629e-02
-1.361444243334856974e-02
-1.209742562812123612e-01
-2.471102793771771666e-01
-3.433126928997262683e-01
-3.393307164234810602e-01
-2.969139424545462203e-01
-3.576013750592407225e-01
-4.348720004028491792e-01
-3.315528162034174220e-01
-1.590231372627805007e-01
-1.092679382616922185e-01
-7.705219487477552032e-02
3.274143608589834969e-02
1.073636526216930343e-01
1.086939518747374878e-01
1.090072865280110742e-01
1.154090128230143980e-01
1.084356224173409766e-01
1.306696886969445082e-01
2.034171344046263874e-01
2.445117817628694734e-01
1.920273401690212045e-01
1.188235358543877906e-01
1.018946898890612518e-01
1.042082896945758785e-01
6.865361272374961854e-02
5.700977362467975207e-03
-3.260782434355934817e-02
-1.618523766846282491e-02
9.506123125699941778e-04
-4.202164016818406289e-02
-5.714797511031268623e-02
4.024486404796544237e-02
1.028588809319761349e-01
2.281220400260613318e-02
-3.028428121294813105e-02
3.210964269012483302e-02
5.269091729640294763e-02
-1.906133218927952289e-02
-7.262197982227988624e-02
-8.754441202184698456e-02
-9.532460805727306641e-02
-8.040671261594105335e-02
-6.674500882909872868e-02
-9.424124961386347310e-02
-1.223945420348971080e-01
-8.703987886032349408e-02
6.183451167807574658e-03
9.166862163372432870e-02
1.160455616160826348e-01
8.212103026270217709e-02
2.108467212405792934e-02
-4.446019770748438349e-02
-9.420351803712891103e-02
-1.204357880901286981e-01
-1.380201214351717276e-01
-1.364976350320086795e-01
-9.167071689026119741e-02
-3.537128308202006771e-02
-1.306466470409804737e-02
-2.251956930079084332e-02
-3.546458920651476832e-02
1.218378276854871142e-02
1.602042380360284846e-01
2.813628297116085863e-01
2.417788586274479123e-01
1.663938983535878102e-01
1.837718959867423452e-01
1.509284914023848456e-01
-1.225117750922181427e-02
-1.511022727366433116e-01
-1.822967997246803806e-01
-1.328071822114773592e-01
-3.375993703123224277e-02
7.049765681223637767e-03
-5.410773845574685242e-02
-3.982113115908516437e-02
1.600178081558889798e-01
3.261056421070901434e-01
2.248007023287857953e-01
3.998558056927687537e-03
-4.896755695148272136e-02
3.612957801443397038e-02
3.178624521008190096e-02
-8.323240196694631221e-02
-1.409945836800494956e-01
-9.703029835341361875e-02
-6.758181566857184019e-02
-8.610805920775597977e-02
-6.074477041211426287e-02
-8.329909735670300644e-03
-6.615797630515947436e-02
-2.086217753971357225e-01
-2.643450739493876656e-01
-2.285430382085032464e-01
-2.136590284110046201e-01
-1.796762281023972230e-01
-6.516133261095759244e-02
1.767697710704240616e-02
5.949794765859189871e-04
-3.378627200312180751e-02
-4.616534239642505755e-02
-4.122434834035435675e-02
-4.188620387653524402e-02
-1.294702025365788156e-01
-2.266184942276871783e-01
-1.432769142242179550e-01
2.836646489484000860e-02
8.361712382032567004e-02
8.482671441057607065e-02
1.225172818452867074e-01
1.328461070469284799e-01
1.595965435777619013e-01
2.917084740564637180e-01
4.052490195036646536e-01
3.826502891268073192e-01
3.237620317766218281e-01
3.323454534960574858e-01
4.317662089775720080e-01
6.290603428020973276e-01
7.932138185165771294e-01
8.212233342597150543e-01
8.687286780599524638e-01
8.800036996174757098e-01
6.537292269350941654e-01
4.980958256830358422e-01
4.092402527607210683e-01
1.005725956507091817e-01
5.635874892547046988e-01
1.983208797412832958e+00
1.912241676073374030e+00
-5.783651391507530493e-01
-3.128086011590583748e+00
-3.825993679438269623e+00
-2.507343347952987855e+00
-2.744585597709270353e-01
5.763130121458573951e-01
-7.227282515691761944e-01
-2.837295895044694927e+00
-3.200896745867741089e+00
9.938565683779103654e-01
1.581739547418133052e+00
-1.222633534309279035e+01
-2.239117387942347293e+01
-9.329366348905487882e+00
3.846489352321832200e+00
-3.237555392299262813e-01
1.314991516992518594e+00
1.465682032784526534e+01
1.747859761873234419e+01
1.048522618147506513e+01
8.912856801438341137e+00
1.036337390328741215e+01
9.099846232807500712e+00
7.843373843222234854e+00
6.321655670474554789e+00
2.133598339209044070e+00
-2.392283994952883130e+00
-5.499809597179298848e+00
-9.090317135572849594e+00
-1.151469387058041072e+01
-8.744867529092644531e+00
-4.837844753051662394e+00
-5.970755915388251012e+00
-7.743502610476545200e+00
-4.513837100087192411e+00
-3.106459242775496676e-01
7.037433322203210384e-01
9.489462078668362555e-01
2.347133545991050063e+00
2.946800616191643130e+00
1.488960066664343218e+00
-8.403435788725044375e-03
3.889231600711219872e-01
9.882517807946398225e-01
-1.108932636221601209e-01
-9.346543140526435423e-01
1.705263516872114471e-02
9.204370963995902599e-01
1.112571238311366395e+00
1.421551824809271114e+00
1.432102817540792161e+00
1.020701378146844363e+00
8.466843322788200066e-01
7.735303594505655855e-01
4.855121082272926825e-01
2.735488738130176234e-01
3.272248711376788410e-01
3.623417681927185718e-01
2.285367618596594319e-01
1.495753551540595083e-01
8.466956933539976360e-02
-2.089557793708251010e-01
-5.312974998748084543e-01
-6.677241359856751490e-01
-7.067117889193990088e-01
-4.866241547069382056e-01
1.125113542257455412e-02
2.586156574968678235e-01
1.299367142669647368e-01
9.869369132341689055e-03
-5.865359876261611038e-02
-2.325240038286624789e-01
-4.427040873804706234e-01
-4.778985693816019675e-01
-2.304627269640039111e-01
4.469311679895346390e-02
8.114089538603375118e-02
9.996022064119948480e-02
2.208126210524480881e-01
7.343501081690829990e-02
-2.682124338823563825e-01
-2.213349589437669795e-01
1.277533853121456398e-01
2.696839318907591210e-01
2.828473552166418381e-01
3.204572781618036936e-01
1.244411730865163657e-01
-2.225520354444236459e-01
-3.509399123557370714e-01
-3.697012750495046740e-01
-4.248205460823095692e-01
-2.013059469535191104e-01
2.843823808985972978e-01
3.116490271940462464e-01
-1.840761409815840355e-01
6.171171239318469504e-02
1.319373928998252232e+00
1.747272109532366002e+00
6.116410222939336894e-01
-4.422878570285491140e-01
-5.619803666465614800e-01
-6.140302322977289062e-01
-9.516176167389338580e-01
-1.046084049827279872e+00
-7.260999201178414131e-01
-2.446952755070286312e-01
1.893646054642489918e-01
3.631051813111504378e-01
2.231276433879192111e-01
8.579516020105809604e-02
1.206221500923135292e-02
-4.004556542776647743e-01
-8.643867092072111680e-01
-4.051644712676435445e-01
7.841166594315872596e-01
1.326181225530142394e+00
7.937723963808158700e-01
4.208246849205711515e-02
-3.452758045972182943e-01
-4.964814479142924952e-01
-5.767782304720990849e-01
-5.075876978844300336e-01
-1.683762474327062664e-01
2.868756055657600834e-01
5.282319855300491307e-01
6.129639067589198742e-01
8.220959110103313039e-01
9.173686971495252918e-01
5.356848685644053365e-01
-9.182216143761003091e-03
-2.812855254186921727e-01
-3.519832331609532572e-01
-3.671609508458523186e-01
-3.008565481099941263e-01
-1.812829871574128116e-01
-1.204133455882463316e-01
-1.793093516297486478e-01
-2.783011011616308705e-01
-3.382081332657785877e-01
-4.182141927662852421e-01
-4.963791498342108865e-01
-4.335665014099137071e-01
-3.335283807335558959e-01
-3.579498988641396373e-01
-1.825527125946713736e-01
4.147011813297560301e-01
8.118437289503499521e-01
5.944561241304046062e-01
3.014525564928188794e-01
2.752707158215067507e-01
2.744838549589648791e-01
2.315009050407024760e-01
2.304238070136470362e-01
2.377288926802656743e-01
2.058787015596956205e-01
1.012658399833372969e-01
-5.764296141110482330e-02
-1.884403133672484798e-01
-2.632385848877988876e-01
-3.041798447432272900e-01
-2.910089924002480233e-01
-2.222817542272666480e-01
-1.840417674415419369e-01
-2.031067263382842492e-01
-1.778283723604884015e-01
-1.013338304649634702e-01
-1.116213253951203743e-01
-1.940384639220019136e-01
-1.484006358935513747e-01
7.005215852940166466e-02
2.780484726284341845e-01
3.272107287675315446e-01
2.578426692335213377e-01
2.205087962043041361e-01
2.577906311141061058e-01
2.225828290866646020e-01
4.419104824787751379e-02
-9.876559186783986921e-02
-7.995317072226261479e-02
-3.322314904593030166e-02
-6.992456648181602508e-02
-9.180568537305530685e-02
-1.789385959845771201e-02
2.824697917742477471e-02
-3.851556399392584012e-02
-2.410570965154511941e-02
1.124652198575045448e-01
3.022852736507211646e-02
-2.577569098637292888e-01
-3.056065395416684982e-01
-1.123110515134225773e-01
3.043141335944143239e-03
5.399764813157287291e-02
1.129131800333451896e-01
7.340744927752852755e-02
-1.841987126364746583e-02
-3.198373994997194460e-03
8.351057396577449277e-02
9.884094254627349974e-02
3.518087911901932041e-02
3.743548545416437029e-03
5.490649956127626602e-02
1.082747664672459309e-01
8.533491199314627296e-02
1.477335383451974446e-02
-4.219072714219655740e-02
-5.902497492630762177e-02
-5.626280400279287663e-02
-9.155920702515100984e-02
-1.476636371773501488e-01
-1.254664184719687658e-01
-3.604312702256276535e-02
3.734929342653828602e-03
-1.140743324854688254e-02
1.579144202861149093e-03
3.436371301578318438e-02
3.711816872330973155e-02
2.521840091049468158e-02
1.653941331186138675e-02
4.161865213193087151e-04
-1.284141830785177907e-02
-1.951876847534921022e-02
-4.263541681742209766e-02
-4.411494302227671888e-02
5.414126325874579759e-02
1.875329163744047511e-01
1.913034534528896824e-01
6.353243051194157331e-02
-3.950021558061997395e-02
-4.527825859514608697e-02
-2.475851630191712102e-02
-4.091308962483328204e-02
-6.163294376458415547e-02
-4.258593814448297793e-02
5.607726194802351710e-03
4.592846913370268042e-02
4.416391321954132171e-02
2.268649315986369028e-02
4.244064723674842443e-02
7.088035535258169206e-02
3.519335521387292887e-02
-3.097170889633230409e-02
-8.030375177543570830e-02
-1.332655179506354870e-01
-1.678717240217601769e-01
-1.334767437935387435e-01
-6.357757963113455646e-02
1.079085865232254533e-02
1.207324454817878395e-01
1.889965983255274540e-01
9.802888364838373281e-02
-2.072825082460205345e-02
2.514563872378425963e-02
1.179874993602036265e-01
5.069952033374482137e-02
-9.792998204791446282e-02
-1.241463523622438059e-01
-3.505568947909831756e-02
1.119050622225682343e-02
-1.473215805371755685e-02
-8.767875403749033833e-03
1.896581229748261002e-02
-5.078926390331547219e-02
-1.600526776768463888e-01
-1.194634476417135993e-01
4.076991516961916973e-02
1.247714492018539290e-01
9.764349784755926853e-02
6.132855791388749922e-02
5.740041706877421074e-02
5.600136166407616162e-02
2.355450426856021268e-02
-2.513750169183870398e-02
-2.990588039669517251e-02
8.665645159951237617e-03
1.649674509446403398e-02
8.809738933476824602e-04
3.282596415135335954e-02
5.991831720555677865e-02
1.853661827216281088e-03
-6.198241398487031040e-02
-7.095175835102754403e-02
-1.045164711022682075e-01
-1.476497134753201323e-01
-1.108477159252963390e-01
-6.869611453407507839e-02
-4.488516227494947913e-02
9.732750513436083661e-02
2.346691146885987456e-01
1.280300493522357752e-01
-6.149804282334171701e-02
-9.998077433646163081e-02
-7.910377397495499396e-02
-1.044727441697207715e-01
-1.201904952152736267e-01
-8.021689755273518629e-02
1.500189837624371116e-02
1.362226848754720387e-01
2.374255643902938862e-01
3.215894750585807094e-01
3.828936674008464047e-01
3.508331836908318291e-01
2.183129039765474566e-01
6.506764196671278866e-02
-6.046580767688342073e-02
-1.402336712457966095e-01
-1.600410113603287776e-01
-1.531897432626616318e-01
-1.949600701712254636e-01
-2.982414230217118600e-01
-3.414571584539267679e-01
-2.388860971901377028e-01
-1.102075943786981760e-01
-9.258553075462412629e-02
-1.524323080918188467e-01
-1.902250947619130161e-01
-1.721248138985946308e-01
-1.254790929488525109e-01
-2.831603732495829168e-02
1.510166557743320148e-01
2.707364198319014426e-01
2.191653120474128524e-01
1.592534570079128520e-01
2.107212941352545887e-01
2.526550616570105157e-01
2.038607181598410534e-01
1.374341184513823144e-01
1.095901451830312012e-01
8.134534422629899342e-02
3.289199095744313461e-02
1.154032896511319323e-02
-1.281993311173228178e-03
-6.069130033427406340e-02
-1.138175681558347696e-01
-1.179741559717365357e-01
-1.147232284170058847e-01
-9.758758070255965644e-02
-6.582539162006494082e-02
-7.372198231489970888e-02
-8.674002055920809751e-02
-3.932709533616641356e-02
2.462862076859338722e-02
6.081377202491657780e-02
8.993203795879527174e-02
9.687027646578290352e-02
5.472172316971087025e-02
3.989274360805686662e-03
-1.692804066967073737e-02
-2.401686388379198345e-02
-3.547851511589097256e-02
-5.897267864209147781e-02
-8.789091350842091754e-02
-8.201957396085483853e-02
-3.186795640095697879e-02
4.936604860183581300e-03
2.778760701043735126e-04
-9.005703673833785963e-03
-5.039379703469999347e-03
1.649695706435823361e-02
7.700019518158851550e-02
1.269121576763793391e-01
8.851055346261489654e-02
2.158801218083625587e-02
1.699908466580626540e-02
1.150372984544661276e-02
-5.201819498050400808e-02
-7.309537031817234243e-02
-2.188606340141201895e-02
-4.103337878458739041e-02
-1.424444506346654593e-01
-1.500296880614540862e-01
-3.845700647872431904e-02
3.008565576823839932e-02
3.834844243941946951e-03
-1.306859959691203561e-02
3.135446908555442752e-02
8.027673674303562046e-02
9.582808402879126886e-02
9.718573346042133632e-02
9.167405891505020499e-02
7.820366420486447867e-02
4.988871662886375236e-02
-1.144642059485432954e-02
-5.169390541680014828e-02
-1.122634740614776236e-02
3.229767425915139323e-02
1.041574157913713328e-02
-2.973507406743448531e-02
-6.093897923284508078e-02
-6.037385747645521161e-02
8.638952850993921254e-03
6.600827047381217783e-02
3.166321209022213146e-02
-2.155863846001154771e-02
-3.435381387906047412e-02
-2.579676973915666360e-02
7.058852621929808009e-03
1.721938499161077690e-02
-4.060309516561000365e-02
-6.471886574935888092e-02
-2.824528613115992112e-02
-4.198062209455591387e-02
-4.463882807963175797e-02
5.837281237312344495e-02
1.188831504209804379e-01
3.608643127309323767e-02
-6.082441171579103245e-02
-8.313563351869311668e-02
-5.319981265695144373e-02
1.464183967374359414e-02
4.607695069970869223e-02
-2.112924084417147283e-02
-5.679446115391931227e-02
3.281732436993035906e-02
1.150013497387470385e-01
8.918579787991742780e-02
1.294510534264949921e-02
-3.639561419783211849e-02
-2.869461030082449959e-02
1.985804948763521260e-02
4.753690649255700590e-02
-1.660236743497586070e-02
-1.232763625126135909e-01
-1.123354063897654548e-01
7.038242578855602449e-03
5.126949933256549907e-02
-6.610025172642079727e-03
-3.336132666193333124e-02
3.131053821059657377e-02
1.313773660099240570e-01
1.354125325700939186e-01
1.609088934891472408e-02
-1.793837867016107729e-02
9.182845644137901941e-02
9.496903910364783152e-02
-3.355713441268381309e-02
-6.182502419131995219e-02
-1.662166137253543938e-02
-6.971434586717271953e-02
-1.613342616507032756e-01
-1.591674499333156079e-01
-9.498661318680444443e-02
-6.540671029399246217e-02
-7.197602639725272922e-02
-3.457443351168140722e-02
4.684171228480509680e-02
7.842631267983998788e-02
6.303799544863447624e-02
5.110135360782347425e-02
-1.672025520131950951e-02
-1.332881227010278002e-01
-1.548108668850161629e-01
-7.089685419898629493e-02
-1.209603779190899370e-03
3.928247382636747970e-02
1.042518921480556637e-01
1.991280398892885661e-01
2.889986744048641532e-01
3.512784934252873859e-01
4.115855820936037412e-01
4.054378589073526218e-01
1.998302501930865060e-01
-6.509577396156190909e-02
-1.494531880772258514e-01
-1.592126081846154118e-01
-2.420143657977433804e-01
-2.849978269748009163e-01
-2.553001536420798079e-01
-2.524513183797242877e-01
-2.470933384704769864e-01
-1.750883082494593401e-01
-5.994879057789822413e-02
-4.064757929703816108e-03
-1.548754034183988382e-01
-3.642663585144763072e-01
-2.437997994240290178e-01
8.828856652085216583e-02
1.651430949436251128e-01
4.304968256899718848e-02
5.081757472447202134e-02
1.509326942901022817e-01
1.968757461527167463e-01
2.260507726036749543e-01
2.614434569470445169e-01
2.540044835031036174e-01
2.206934683213603032e-01
1.864257365418552914e-01
1.016124868150169586e-01
-1.529419829134812114e-02
-6.717562754795775026e-02
-7.963347198680363614e-02
-1.263915084660266752e-01
-1.538366354041642292e-01
-1.260414752883388112e-01
-9.855248132321084431e-02
-6.851988895292705772e-02
-1.724125041756688695e-02
-3.030441719959853057e-03
-3.847016443292401722e-02
-4.796919750631006146e-02
-6.485763172824180606e-03
3.464615742712251478e-02
5.254886428904632228e-02
6.422040790510262498e-02
6.115364617917772028e-02
2.354881465244560573e-02
-2.900109042599003512e-02
-5.665482059151212557e-02
-5.306992138408386794e-02
-5.066572387085814533e-02
-5.494381749403719900e-02
-3.010959223965477272e-02
8.718064085985754302e-03
1.402568209133612381e-02
1.753915391956285819e-02
6.361479129868746751e-02
1.038542660710852633e-01
8.688949586643630874e-02
4.807672107314297366e-02
2.659099568222477589e-02
7.315814426941296029e-03
-5.254664887702984941e-03
3.849878703532554416e-03
-1.160489494867492609e-02
-6.323435424011256134e-02
-7.229199063022584415e-02
-4.615616833752174408e-02
-9.078680955865431335e-02
-1.689066821722637612e-01
-1.389244341667232874e-01
-2.896526405749837857e-02
1.678363531350416521e-02
-1.581218257224484280e-02
-3.069560563918123652e-02
1.001518201773966485e-02
6.579355111147584811e-02
7.429377111071834572e-02
-1.062612934796414860e-04
-3.847539609334253013e-02
9.536886331845897957e-02
1.997766508849648792e-01
9.191483869078280466e-02
4.412860495408621464e-02
1.769284097041138593e-01
1.833996854285085409e-01
9.022417937114704869e-03
-8.953650031728493941e-02
-6.766384621985965797e-02
-6.776103900372618116e-02
-1.029548254331656976e-01
-7.112180264017743669e-02
1.397920888937482023e-02
3.336900899870590825e-02
5.483777094855861456e-03
3.051337114688417590e-02
4.124377252999161803e-02
-5.093535764535639387e-02
-1.120229291019907425e-01
-8.827521549446354365e-03
1.126425628154915232e-01
4.664216957776236988e-02
-1.131847585627461517e-01
-1.214966284169124305e-01
-1.820917396765085045e-02
-3.210525678397469634e-02
-1.231901004166083002e-01
-9.673335014606271320e-02
3.211690311459740928e-04
2.551875217128233425e-02
4.622904952795787309e-03
1.551286565180097152e-02
7.419370460201807349e-02
1.376432878200402610e-01
1.057559863775532905e-01
-2.763259022210431265e-02
-1.042616840980979259e-01
-4.694855020325433559e-02
3.962338907870507909e-02
8.415344046421255331e-02
1.007871251132947538e-01
5.643166603114636859e-02
-6.710359959880693448e-02
-1.581242094746901916e-01
-1.170795178687943638e-01
-9.226263802653730112e-03
5.859286299846516721e-02
8.728368288008649112e-02
1.088963546661259191e-01
8.671048046210115545e-02
6.325115053135535112e-03
-4.645253889875353842e-02
-1.120563081725164944e-02
5.844394504895818188e-02
7.853153312504239369e-02
2.392990207994750984e-02
-3.475775019243781960e-02
-1.369663996675122772e-02
3.411058676346497009e-02
2.221847431692583041e-03
-8.732273963206865774e-02
-1.552344805261014482e-01
-1.664385325975537289e-01
-9.447534730632048405e-02
6.334933160622412129e-04
-8.164228364520399045e-03
-5.427475094659462568e-02
1.153878795817120731e-02
9.821074999709790421e-02
8.088845877657664662e-02
3.245743539173522041e-02
3.611570965152099012e-03
-4.500631917200939580e-02
-8.931415541038199846e-02
-8.572031827361165091e-02
-5.314697349071153404e-02
-1.612965354314711136e-02
3.645848992267793076e-02
1.135939684876973166e-01
1.863453711985525174e-01
2.281970212369514306e-01
2.464207871902636959e-01
2.332434944029407042e-01
1.720303466043208440e-01
8.404106681621609232e-02
6.327952771156983292e-03
-4.365473015443523813e-02
-9.199364863483880383e-02
-1.771106844147335713e-01
-2.643215011804097569e-01
-2.601622677622382751e-01
-1.350579407816198396e-01
-2.132553643806252980e-02
-8.691393117271445368e-02
-2.281570803772681733e-01
-1.847290831620380103e-01
-1.716585447854751534e-02
6.215985389331810107e-03
-1.107386904167586561e-01
-1.813341167084864813e-01
-1.438462915673200393e-01
-2.878848708558687242e-02
1.290262614924146123e-01
2.743508006256071274e-01
3.560152795921506796e-01
3.698555314427388052e-01
3.230211085058168896e-01
1.998218066231131351e-01
3.565462268644695176e-02
-6.584042612717430631e-02
-7.421435123049491267e-02
-7.185764448372558566e-02
-1.006598633979803037e-01
-1.209034381754834353e-01
-1.154332828383579090e-01
-8.880073454709566660e-02
-4.506078070630766680e-02
-2.203429834420935277e-02
-4.229775120615933415e-02
-6.587518640447974361e-02
-4.067938151864589069e-02
2.941586628613058335e-02
7.232753485489107348e-02
5.038774823561377458e-02
3.832714782250107310e-02
9.173806494635505793e-02
1.355598895029600792e-01
9.666304733672953509e-02
2.086105941739253844e-02
-1.949813369977761515e-02
-2.451595640704787651e-02
-3.642226097019949510e-02
-7.114399774050522707e-02
-8.895615124298850152e-02
-4.637726101342994067e-02
1.242502789407727397e-02
1.416365083677493912e-02
-5.231142481924265508e-03
2.284006487739764779e-02
5.686612392432056906e-02
3.179348053863928492e-02
-9.343322687854913045e-03
-3.432238893620529786e-03
-9.819454657599716030e-03
-9.207649363002581855e-02
-1.504907466097786251e-01
-1.026410452536235390e-01
-5.491371392867532703e-02
-8.932662817243819386e-02
-1.142424955930557012e-01
-4.499030855117542443e-02
4.778003175334029351e-02
4.967315150635688570e-02
-6.496592712667292185e-03
3.290367326542278231e-03
6.824616241103233227e-02
8.282109066902501593e-02
4.822666334717305714e-02
3.082381522609020652e-02
4.179339069196730955e-02
6.340691376755169806e-02
6.599634857714080372e-02
2.809497362244895574e-02
1.249216247443484841e-02
6.320672718480445373e-02
7.398964478168174042e-02
-9.041797863982136557e-03
-5.389126563020805311e-02
-1.615075775832624377e-03
4.236938502500164211e-02
4.591377982283728620e-02
7.035689786896250075e-02
7.336463442843517424e-02
-9.894791048737864442e-03
-6.339512790515583474e-02
3.401136294754088241e-03
4.980357964361388501e-02
2.750994571161055613e-03
-1.428084242048784439e-02
1.935578511689005007e-02
-4.710714594721721049e-07
-7.028787534110446378e-02
-1.108775414636414408e-01
-1.037001887197533528e-01
-6.412378761981316067e-02
-4.800384582770472058e-03
1.543977458430363311e-02
-2.884327736513910348e-02
-2.990412256575649547e-02
7.672897278586157666e-02
1.402618404134476082e-01
2.220991611794609355e-02
-1.511466739581909802e-01
-2.027408516428196583e-01
-1.688180258783122389e-01
-1.372430850009047076e-01
-9.311792740915800226e-02
-3.353074804796716407e-02
2.870480713341759874e-02
1.104023758797943733e-01
1.402446799886139517e-01
3.128917157943660043e-02
-9.079190481310631111e-02
-4.610634644400211923e-02
1.022000169894370647e-01
1.773606302097485987e-01
1.418131741569705062e-01
7.812808509131391466e-02
6.632329091297882451e-02
1.034064607876474112e-01
1.169554000042801883e-01
8.715779794302792871e-02
6.694737954024171378e-02
5.523017968890242546e-02
-9.991849548430093569e-03
-9.745767322103862651e-02
-9.418976865438732915e-02
-3.098738731307716654e-02
-4.863426789498251357e-02
-1.334698761374157605e-01
-1.732584069450701370e-01
-1.372325606311286805e-01
-4.489727447077751510e-02
3.863903577839063880e-02
4.226309809802465678e-02
1.116557732618830151e-02
2.203565083899134552e-02
4.823177851654875115e-02
2.598277592184473905e-02
-4.884828026807386259e-02
-1.231495893744984915e-01
-1.367917835732493648e-01
-8.942948371257397611e-02
-4.580629535243381512e-02
-2.807540931044946036e-02
1.477706469650654983e-02
9.284381359172896864e-02
1.614702833720384201e-01
2.136195830759236303e-01
2.742580860728939252e-01
3.196523990809426174e-01
2.832471408989114536e-01
1.738586333718028787e-01
7.782950985493618246e-02
5.138300994601663341e-03
-8.830334553672922193e-02
-1.679127619418628037e-01
-2.060822916714977193e-01
-2.576290498705656740e-01
-3.061304039367576113e-01
-2.483052105320212588e-01
-1.125057327782858219e-01
-6.931298934286732327e-02
-2.010521108306303206e-01
-3.768925200043908297e-01
-3.487965545477946239e-01
-6.190971349400736096e-02
1.808480885357061085e-01
1.303364684754534930e-01
-2.081890363481501971e-02
1.006117283210821584e-02
1.622949334414381939e-01
2.533492345366188947e-01
2.880664305707691941e-01
3.197991517500681780e-01
3.147489390212197535e-01
2.619163700245722426e-01
1.988725307608544823e-01
1.383388855760150082e-01
6.434041990473199357e-02
-2.835521044434845955e-02
-9.699690649915422569e-02
-1.164971851025241728e-01
-1.493822775781764589e-01
-2.049732024629468408e-01
-1.913594976795927327e-01
-1.180697616088403068e-01
-9.203584335921323467e-02
-1.086284922014796317e-01
-5.592743437534510725e-02
8.840708343897465959e-02
1.538786781912219459e-01
2.501240156324821551e-02
-9.455734953294767098e-02
-3.727807213506748041e-02
1.846207374340466667e-02
-3.577146325788665981e-02
-6.332179683781764823e-02
-3.958898098269825194e-02
-4.286789127261630278e-02
-3.360810821484697120e-02
2.727005302877680976e-02
7.533509507570884667e-02
7.643017187683107116e-02
6.074306376835455351e-02
4.259302702363813864e-02
2.723534920304416032e-02
1.502034071132986141e-02
-5.103686298341424121e-03
-1.311224857719766115e-02
4.285458333956318130e-03
1.265908447606824139e-02
-9.626430026867870832e-03
-5.391354169843302901e-02
-8.613241561193381302e-02
-6.225687985663345969e-02
-2.429572144715950316e-02
-5.019734787320945246e-02
-8.413653544063190437e-02
-2.927949001203801124e-02
6.240430078980838818e-02
8.805440132682659793e-02
6.095974999320438736e-02
4.928019898776902358e-02
6.126337334723877537e-02
7.738049955023935944e-02
9.539879327013228716e-02
8.807848036054582996e-02
3.545808811121899107e-02
-1.353527054620472063e-02
-3.376288119423646872e-02
-6.228549441924126351e-02
-8.555522166620346813e-02
-4.787232907122632164e-02
3.906610205257032842e-02
7.895265766051377809e-02
-1.654510523969910524e-03
-1.178398650235037287e-01
-1.238216221785354565e-01
-4.328937758024674343e-02
-8.057288790332907749e-03
-4.272865666918175542e-02
-6.464590097030339932e-02
-1.819507034439082210e-02
5.700560797712084238e-02
8.318921037279464192e-02
4.753064062084463859e-02
7.135024647066648754e-03
1.973495927467067840e-02
7.072022268008819335e-02
6.616581148184241812e-02
-9.342791313526572355e-03
-4.114989356183630653e-02
-8.511517862865440251e-03
-1.012812969731748114e-03
3.300735878480932917e-03
6.631676029152247520e-02
1.183326766267046026e-01
9.479870570293638665e-02
6.853397746664761925e-02
8.430501248894103905e-02
2.826862727106795037e-02
-1.446254342775562529e-01
-2.360715450456336295e-01
-1.238113137030422833e-01
-4.120610284344596724e-04
-3.126511736120546336e-02
-9.133492853070243611e-02
-4.244805538612898138e-02
-2.327443756342738659e-03
-1.420891152480102670e-01
-3.330266211053617420e-01
-2.938649151212856525e-01
-5.839009292900068648e-02
1.364560070658185631e-01
2.441924964789844998e-01
2.748914378286808624e-01
2.013439879593744708e-01
1.288702649226014796e-01
1.201987394721526492e-01
8.744285191388305456e-02
3.421080872337178835e-02
3.519656438031218415e-02
5.137407945416699179e-02
3.893236962625964970e-02
5.064941341961685939e-02
7.638616572031380059e-02
3.077242447142027396e-02
-4.999383689051003360e-02
-7.403401129028291949e-02
-6.809093317956818603e-02
-6.608069216134940249e-02
-3.511308102081184268e-02
3.380257068144740945e-03
-2.005828341223584409e-03
-3.147760013917485361e-02
-4.558564503877407526e-02
-5.146344770727770412e-02
-6.093972277590135184e-02
-5.437771671992554928e-02
-3.187312169960609259e-02
-3.481422411392601918e-02
-6.927870450370643418e-02
-7.996230088448401385e-02
-4.633664317767494101e-02
-2.217876217486568907e-02
-3.590909123300538991e-02
-5.527479293575211783e-02
-5.937011846176568075e-02
-4.630660767236369907e-02
-1.697956827773161245e-02
1.858553588411743576e-02
6.513301981583594080e-02
1.165445785292434644e-01
1.297665530927791799e-01
8.553123006929921890e-02
4.893201348340365901e-03
-6.831304526549718259e-02
-6.640179582839675354e-02
1.924486162296925457e-02
1.254251499538689973e-01
2.535637460162089574e-01
3.994591132319900151e-01
4.083060441110200056e-01
2.328237590029129667e-01
9.009389827872335554e-02
3.320511998858609315e-02
-1.365335470439490440e-01
-3.554682596737276934e-01
-3.814722225784826781e-01
-2.756226997831926484e-01
-2.056866452210939222e-01
-1.643781644086174387e-01
-1.752587556113382738e-01
-2.854015860833933882e-01
-2.919890465293543125e-01
-9.097912261267129125e-03
2.537708614441457344e-01
1.430967180299164143e-01
-9.263583042929900147e-02
-9.931800784452395059e-02
1.679204768366618014e-02
6.441498458519813453e-02
8.377980917832822394e-02
1.513992666669625731e-01
2.331263558386696411e-01
2.498017253687296879e-01
1.961644868621221505e-01
1.452476933494536437e-01
1.326256488906112085e-01
1.183467038752912398e-01
6.668595243674459161e-02
-1.216926673163010869e-02
-8.535366451120010578e-02
-1.155641343868166471e-01
-1.100303195120064803e-01
-1.309496754833490151e-01
-1.724105847066619568e-01
-1.480675132965497964e-01
-6.710171934535355542e-02
-2.486903781317722356e-02
-2.172687352418869317e-02
-2.160272214584363706e-03
1.131859543044255040e-02
-7.540075533552667575e-03
-1.071048112901288804e-02
2.796880349453872983e-02
6.735138201201074093e-02
8.080205060897854841e-02
6.632038761141691163e-02
2.282136962154613161e-02
-7.499373114404630017e-03
-3.757214975289996373e-04
-4.970572574538006071e-03
-2.174636361157461853e-02
-1.584371425910547498e-02
-3.235279500917311729e-02
-8.196412383923516731e-02
-7.710115657167146419e-02
-2.816528093454426923e-03
4.925009873176894315e-02
5.136347331657396820e-02
6.383949698632274128e-02
5.736410492978819692e-02
-3.664631972875312393e-02
-9.436472075083536526e-02
-2.380078509041528428e-03
9.018972331722524549e-02
6.830723819267237040e-02
1.232560973050822808e-02
-2.149718440614863807e-02
-2.231523571176127763e-02
2.116260766614505920e-02
5.052250055399227363e-02
1.437124650938050897e-02
-3.737930879556201902e-02
-5.239980596528213963e-02
-3.681460871148501540e-02
-4.947811288034894422e-03
-2.183369473683629321e-03
-7.340147725823754910e-02
-1.378518323777172261e-01
-7.935723730329476144e-02
5.078172810025304712e-02
1.145021456238369401e-01
1.004881726048516000e-01
8.160907493379429556e-02
7.034075271900772086e-02
4.213293164623848480e-02
-1.745664521370600408e-02
-1.009150683295658713e-01
-1.472446352528132274e-01
-1.104100887919876317e-01
-3.359995368527940451e-02
3.570095203655402477e-02
9.657527896393769407e-02
1.241111242103543205e-01
9.088752540272740377e-02
5.066353478961790890e-02
6.295739901254296389e-02
6.729153490383432690e-02
-6.519459539720519163e-03
-7.457136080090846775e-02
-5.378074693995690825e-02
-1.977194663700579044e-02
-3.649886541728775829e-02
-4.570257017448371012e-02
5.749139283946803902e-04
2.422308071258736858e-02
-7.442745404528140762e-02
-1.882599799278583119e-01
-1.350051435921724163e-01
-4.761194374979654809e-05
3.806629074149714409e-02
3.312549355478251745e-02
7.828448537980203792e-02
1.060896474024244224e-01
7.494618038927862436e-02
4.991926858807604894e-02
3.471264224810121507e-02
-2.469153103094059998e-02
-7.999530287374881365e-02
-6.230440387783168360e-02
-3.117345893670914192e-02
-2.558305763694522159e-02
2.762889805598606544e-02
1.187572943778017059e-01
1.378144759005892339e-01
6.377465856222970519e-02
-3.674174690936923143e-02
-9.501636434253783736e-02
-6.701073372298764486e-02
8.933966286651351743e-03
5.362344761760398648e-02
4.877474058696556342e-02
1.749127132547665525e-02
-4.692692212755957860e-03
3.899900305544960408e-03
1.218479896645730497e-02
-9.901473038209389257e-04
-2.091343291694577194e-02
-5.551580315000572557e-02
-1.026990375702391822e-01
-1.094277556064159468e-01
-5.356112569804817591e-02
-4.496211195832641727e-03
-1.197151644602902597e-02
-1.761799632537316279e-02
1.097935079725712373e-02
2.102872585038900385e-02
3.006684643208456034e-03
-1.943018734346974377e-02
-4.563526426073361703e-02
-4.719702037856765564e-02
-1.680402252378858374e-02
-4.368484831048180528e-03
-1.272428136958240509e-02
-4.976105963532869575e-03
2.448409816507840422e-03
-9.084338512869008508e-03
2.420776688746719904e-02
1.407666959670944851e-01
2.019900746702935068e-01
8.422288182511403209e-02
-3.541858690069675519e-02
7.861145583617948351e-02
3.249519597505168833e-01
4.335986338454052569e-01
3.518451647998139808e-01
2.328598726119335272e-01
1.585294893863273269e-01
5.048981048094988017e-02
-1.352065894504813071e-01
-2.889189092596053388e-01
-3.190225854850250453e-01
-2.923158367200848762e-01
-2.815643675260023904e-01
-2.414437539119275999e-01
-1.819384313574351208e-01
-1.859469705261750372e-01
-1.521503774103540318e-01
-2.412587976358936126e-02
-8.906314996071348911e-02
-3.583171960440101333e-01
-3.462559250679976275e-01
-2.617341490770483045e-02
8.813357009111084939e-02
-6.949023199438569831e-02
-1.192972331181035434e-01
3.977529088448297778e-02
2.007634898999469120e-01
2.208431972273580679e-01
1.292117543985485395e-01
3.405695188796230288e-02
-2.074721855952726263e-02
-1.025061048773746736e-01
-2.357406040267180924e-01
-3.297820470860940434e-01
-3.385181487183716031e-01
-3.058405177965546340e-01
-2.491794059797399208e-01
-1.642119563258112036e-01
-6.602478571114138439e-02
4.243004128750140630e-02
1.404012340719548724e-01
1.892310551559533149e-01
2.383008991907149265e-01
3.583945219077825373e-01
4.719263784186271682e-01
4.893392099827255093e-01
4.877898462091003196e-01
5.347077661147220384e-01
5.784505071689433064e-01
6.215364359598783972e-01
7.049440282046501860e-01
7.618919550848431976e-01
7.597624951910657565e-01
8.349098291792005355e-01
1.032079972163640003e+00
1.113894784102045010e+00
1.045922771917058292e+00
1.288072819649731082e+00
1.713694043717464366e+00
1.468363206729087711e+00
1.398472518685169641e+00
2.558736846938842291e+00
1.630211062292812763e+00
-2.661861010571232811e+00
-4.426526098939208786e+00
-3.997523443725317538e+00
-6.378678668734005797e+00
-4.457900139584601185e+00
4.288776176384976324e+00
4.467659536524884345e+00
-5.800882590623459123e+00
-7.700531857241895040e+00
-5.650410203490241479e-02
-3.647785349913767572e+00
-1.855121907711536977e+01
-1.846843741678174666e+01
2.768467116700876751e-01
1.036701819658779300e+01
2.194856234541082252e+00
-5.037996190104745864e+00
1.247388468283566088e+00
1.137505442792484267e+01
1.210507190415067846e+01
7.310980526216883213e+00
7.983430159078499067e+00
1.196886708841749858e+01
1.254945884161157466e+01
1.053253244173215109e+01
6.516088509389896366e+00
1.079382857549370689e+00
4.639749416413314620e-01
4.480576479473734608e+00
2.996803332581905899e+00
-4.351841970774149360e+00
-8.228779158658960924e+00
-9.199035752294287605e+00
-1.202977780490894233e+01
-1.267003362393361598e+01
-7.525241617147400142e+00
-4.448665900043758392e-01
2.629680844652179772e+00
-8.825323150728556776e-01
-5.991820056487596524e+00
-5.734348939880095308e+00
-1.823762645545742744e+00
3.493367456537757043e-01
8.402642464017828772e-01
6.998562614040917396e-01
-2.983292248347477749e-01
6.700046832516490802e-01
3.756991807095681146e+00
3.169790050002142756e+00
-1.069473644889801456e+00
-2.382234512451085973e+00
-9.637518878209172524e-02
1.893954675536570154e+00
2.654850216994595336e+00
2.974419846224576780e+00
3.194997369152060340e+00
2.989367611412565129e+00
1.807133096761887714e+00
3.237051849772799583e-01
-2.624676540941497938e-01
-4.655280334167077871e-02
7.830191744749936955e-02
-1.205342440472534915e-01
-2.316249171236958171e-01
-1.356597924930921795e-01
-1.444751666913002830e-01
-3.324622775606300706e-01
-3.350326536848788339e-01
2.692596713767636540e-02
3.182985756784449394e-01
2.737985941360728259e-01
2.661645594076714749e-01
-6.649486843941576630e-02
-1.278721753794336502e+00
-1.827378586269028826e+00
-5.803418048260787776e-01
4.445254170027924667e-01
-1.348869609553944027e-01
-5.606526714515873699e-01
4.771318190269091541e-01
1.176562794224698782e+00
-1.616814770529425571e-01
-1.556235905936017128e+00
-9.070890929021532267e-01
1.472203565206549603e-01
2.972260715739264425e-01
1.065461410910912399e+00
2.110399654580693340e+00
7.945296440412245031e-01
-1.643589113761469767e+00
-1.205260007858611537e+00
6.963720965631852167e-01
-3.369635602171039412e-01
-2.323277709329137686e+00
-1.011145712220348436e+00
1.276618702200185362e+00
1.015610344298940149e+00
7.952432512084073313e-02
3.172094889796953643e-01
4.205646535330254815e-02
-1.023554786574529585e+00
-7.781301149042167964e-01
5.886737310009129143e-01
8.084481912239780410e-01
-1.686178056945543680e-01
-5.449737786447435006e-01
-1.007273695626162979e-01
1.237939343633718547e-01
1.098245890555327453e-01
3.932623475087868026e-01
6.808160408587499157e-01
5.030874320520984933e-01
1.360671088702714859e-01
-2.552901091596637695e-02
-9.627083966242443169e-02
-1.997495838680927172e-01
-1.502214308825872424e-01
7.605740707823240021e-02
2.055145485605609779e-01
1.176339887398390321e-01
-2.524465139790532317e-02
-8.599652760031756271e-02
-9.709049562561569702e-02
-1.308989157623097754e-01
-1.693379110972983992e-01
-1.188573323851935259e-01
3.372503080970033762e-02
1.562160130001934710e-01
1.572385790072354239e-01
9.371822658395848049e-02
1.457094870252677483e-02
-9.428172542275752022e-02
-1.860516431642575130e-01
-1.652991792583879405e-01
-2.210043822578440162e-02
1.267214969330731356e-01
1.553838824253275519e-01
7.882893551244918307e-02
-7.810818458819845586e-03
-6.198321062722465108e-02
-4.331444093710720700e-02
4.558822251592061642e-02
8.637996448772386482e-02
3.404533155019436041e-02
-9.440924376364098758e-02
-3.055412357582024674e-01
-4.091360316536345465e-01
-2.322462893579052279e-01
3.901335801059360731e-02
2.403536609248280997e-01
4.033555233558144826e-01
4.274493373641512495e-01
1.997290732558280324e-01
-1.109386836337215854e-01
-2.002837624730094690e-01
-1.620010158445157195e-02
7.963092413547362414e-02
-1.814428376915334651e-01
-4.866018954601019630e-01
-4.486793726468799592e-01
-1.558046677039266747e-01
1.530393899743072439e-01
3.707055214390860831e-01
3.472583107164921579e-01
9.093492441677168692e-03
-3.305993672985797494e-01
-3.166032552844872394e-01
-8.984229134969107244e-02
4.608024296507177292e-02
1.331309931300309612e-01
2.839976253887809832e-01
3.740091269857270806e-01
2.699445800000075946e-01
6.187896332591463072e-02
-6.310901496104892594e-02
-8.403530668200967502e-02
-6.707370055367065098e-02
6.208027263866205958e-02
2.329024557696860454e-01
1.215326023572821518e-01
-1.544242378422729933e-01
-9.550012287997108884e-02
1.830463621934729501e-01
2.450826048622102571e-01
1.704337742838565040e-01
-6.117461218447248911e-02
-6.754455484147062760e-01
-1.077605839566793788e+00
-5.915966591033462452e-01
2.637899726820269741e-01
7.444916691021646882e-01
8.070658493391803523e-01
5.460903920949921053e-01
3.892464260009739774e-02
-4.135429373236580997e-01
-4.695890336290676759e-01
-1.461351374973174910e-01
4.067408729091495645e-02
-6.483972769007799453e-02
8.472808429893850801e-02
3.096869527271611244e-01
-1.479525965376131125e-01
-7.493258241644688011e-01
-5.308708638561262516e-01
9.324409782998296925e-02
3.755180604627400553e-01
3.780703696090989552e-01
3.145775419329985279e-01
1.798470416601133937e-01
2.340690385812489727e-02
-9.092135337962387043e-02
-1.726902217478659407e-01
-1.798031944867661269e-01
-5.770380104769052415e-02
1.085232519265633550e-01
1.980214679679827838e-01
2.114637012897873647e-01
2.018714870547464180e-01
1.634141060673445500e-01
2.304650423298634440e-02
-2.153016728822421400e-01
-3.378057730493189137e-01
-1.953716323395186250e-01
6.778990446826765187e-03
3.920973742707614673e-02
-1.304621625725652448e-02
-6.984146647299805874e-03
2.131582090871782936e-02
1.531551626436045838e-02
2.493967718262458250e-02
9.489635029202669880e-02
1.462576267596200907e-01
7.891322069767152392e-02
-6.661958507146961694e-02
-1.697431782458351801e-01
-1.463976509170803186e-01
-5.160765845283087766e-03
7.647688011138861763e-02
-1.946105867363559852e-02
-8.143139482252867434e-02
1.842315206776327582e-02
7.475221335067781803e-02
5.314443263863300598e-02
9.644439822870269630e-02
1.121472960769821642e-01
9.812748979857163767e-03
-6.959607971098792645e-02
-5.877179298923009693e-02
-4.924742354791258880e-02
-5.993763395038373409e-02
-6.197268589029173574e-02
-9.263075459879767382e-02
-1.177684937898322570e-01
-4.566549958876089249e-02
3.620647250886108864e-02
-1.333419716462336257e-02
-8.683646012695889205e-02
-1.081915949489749285e-02
1.329018471262264911e-01
1.734266259018836243e-01
1.225750503557124227e-01
8.725094837168918815e-02
9.932078524525467245e-02
1.106525615173068050e-01
6.747017752582687433e-02
-3.068108958439939860e-02
-1.264927378326004548e-01
-1.598020170368201764e-01
-1.339770768067262141e-01
-9.393578010938385958e-02
-6.411852614940269368e-02
-5.871964288076039068e-02
-7.512026175135470829e-02
-6.561349751749910586e-02
-1.141891106521870231e-03
8.316866458580510213e-02
1.567598923543443434e-01
2.181397245331869461e-01
2.430243139791530282e-01
2.216006544127712141e-01
1.882217289580215835e-01
1.329246902814794073e-01
4.959122068603150080e-02
1.250070934844092069e-02
-3.400042986038760706e-02
-2.310113518596555171e-01
-4.080329091078646608e-01
-3.174948392891888682e-01
-1.091934084179134734e-01
-5.401273707151645065e-02
-1.751272331613979161e-01
-2.589162687296441279e-01
-8.845087204225496325e-02
1.591536082034383237e-01
1.418162430966138920e-01
-4.147434276944755860e-02
-9.821381246709197377e-02
-1.560774932971020768e-02
8.581258532625192503e-02
1.459446321510935451e-01
1.676680753891382769e-01
1.867614680838513841e-01
1.902862652468570448e-01
1.493777171874514365e-01
1.075504059093602693e-01
9.462347075283372710e-02
5.749958156191325997e-02
-3.557455773201508020e-02
-1.306077161315150337e-01
-1.610442326801876378e-01
-1.189589964610624773e-01
-7.168720450529716959e-02
-9.942607637767139628e-02
-1.269327480831461130e-01
-1.592151966003756483e-02
1.157520254525571668e-01
9.985638972211638431e-02
4.365369112941529239e-02
3.767972718803323101e-02
2.019663077064310502e-02
3.303524240026883309e-03
-5.362766137778126295e-03
-3.358552348588746822e-02
-1.075208841966950740e-02
6.006579791451734096e-02
4.076555572321611393e-02
-6.373403790754662845e-02
-1.149669081414946559e-01
-8.885268451972876125e-02
-4.341188517559041449e-02
-1.569701578870155018e-02
-4.436385621405557894e-02
-6.338436272334312116e-02
5.413020092536047906e-02
1.951139460927696634e-01
1.651725544434059223e-01
4.803312609298844571e-02
-3.747166414241552210e-03
-1.158833246896039462e-02
-2.894505632696824093e-02
-5.692977235683865933e-02
-8.833349251218743092e-02
-9.720150404704058777e-02
-4.752870118184287368e-02
8.353121775862242318e-03
-2.260541796253149813e-02
-4.590966066065077511e-02
6.955720267416298785e-02
1.593759811593095377e-01
7.098429862906931176e-02
-2.489889090836824512e-02
-1.121627902453365550e-02
1.426141078629538164e-02
1.352682699397576675e-02
5.596136836115693861e-03
-2.377499787119757846e-02
-4.430056006759268417e-02
-1.951705490100359014e-02
3.132477249638837558e-02
7.941288809423684147e-02
6.395984724706887947e-02
-6.737995678543945433e-02
-2.027367894105335799e-01
-1.771790441415124207e-01
-3.505433841647315890e-02
4.590715617493550116e-02
1.778934959114973971e-02
-9.158950432831257718e-03
4.164580561234019346e-02
1.036292409815501164e-01
1.000289772283690787e-01
6.802253071124020334e-02
5.988840987634976715e-02
5.592335442019812086e-02
2.056242825324141807e-02
-3.856143706382381131e-02
-6.368801309471155969e-02
-2.348413310074022251e-02
2.304769401141796084e-02
1.612839658727502345e-02
-3.256035564973951135e-02
-6.225927078315172947e-02
-4.752163802422238251e-03
7.724479647063159371e-02
2.845481110447918918e-02
-8.765195857811544644e-02
-6.651653907118366960e-02
5.795940074168072498e-02
9.962125535020760481e-02
2.604105511178249344e-02
-5.791169141918899033e-02
-6.538743037847855044e-02
-2.745497236456408835e-02
-6.319218853908128986e-02
-1.370037854138451971e-01
-6.972091650896788950e-02
5.210093090310288083e-02
-1.144632709719171915e-04
-8.039617725734178599e-02
2.405073824070508293e-02
1.401650420361846561e-01
1.249238471677819595e-01
1.032252660518472448e-01
1.138368909695946229e-01
8.274695325089348463e-02
2.682556039129788128e-02
-1.932324713244635422e-02
-7.680094153442997007e-02
-1.182520831892050761e-01
-1.085940144771382621e-01
-1.135538054377116940e-01
-9.849117319844052920e-02
8.481235401699840915e-02
2.610464777491940946e-01
1.153168147474156469e-01
-1.580327664998287251e-01
-1.623431385312852915e-01
3.441874504778237587e-02
1.336628437944635261e-01
7.528705956257575327e-02
-2.804590118144946465e-02
-9.368268484261528528e-02
-9.777633165805822701e-02
-5.807649700664581360e-02
-2.552596013869175978e-02
-4.020943004765932527e-02
-8.198105444617737048e-02
-1.019370429648385895e-01
-8.559838175604095323e-02
-3.763309191892581784e-02
3.404427141555042835e-02
8.076324919859245721e-02
4.515104570386055394e-02
-3.778938499087242803e-02
-4.719349487558949230e-02
4.504711536821551232e-02
1.199645403709595631e-01
1.762979218472597309e-01
3.424784371463122090e-01
5.030072218050051225e-01
4.341069921233793316e-01
2.124811555999558677e-01
8.413167022558121211e-03
-1.541059592480442664e-01
-2.629439702592289985e-01
-3.099809940833569977e-01
-3.118475582408179458e-01
-2.874168261370098065e-01
-3.081675434602829111e-01
-3.351293796491737198e-01
-1.749573610930605927e-01
9.426466346624394477e-02
1.205112807697485411e-01
-9.059620173278719324e-02
-1.758297269813715036e-01
-6.923831768822863442e-02
3.514397121137761981e-04
1.572751495176314546e-02
1.114161300966420576e-01
2.413700804614578033e-01
2.827688748948891106e-01
2.460176805618452256e-01
1.929009154140102489e-01
1.298595474857815735e-01
7.062806286545174339e-02
3.930224539624049829e-02
-1.206376078001205471e-02
-1.169874585680717172e-01
-1.869325571714502143e-01
-1.450388675913178993e-01
-5.854079525495231584e-02
-2.558064651890351593e-02
-3.586012866438748753e-02
-2.907567060743427440e-02
3.984070760559707373e-03
3.970724761846961687e-02
6.892464982355817060e-02
8.997048654654164757e-02
8.194440078184106468e-02
4.666429963678546400e-02
3.849286660470006838e-02
2.896052851232713832e-02
-6.598174911623368166e-02
-1.409103393142472904e-01
-8.213380094180418312e-02
-2.611615194299928000e-02
-4.413480427720908178e-02
-3.471442755748859604e-02
-1.401441640103389362e-02
-2.246855610454141089e-02
-8.338838712193714919e-03
6.026610196056299620e-03
5.549923228326985800e-03
5.935160666693849868e-02
1.231577440609626095e-01
9.446515586277121068e-02
1.837788950167080354e-02
-9.353707779320784288e-03
1.170008853337716793e-02
1.422495350010581985e-02
-4.023457892801719088e-02
-9.122029372853500406e-02
-8.279472897605133497e-02
-4.702407637589373079e-02
8.946463104998929675e-03
4.606296043488435077e-02
-3.296040299277100405e-02
-1.140915893818480187e-01
-3.198840124329553614e-02
7.866205748445344315e-02
8.957821785738258324e-02
8.738685225449266403e-02
6.648290544879126296e-02
-3.123556403289433694e-02
-7.127820531607513554e-02
3.850497461207563754e-02
1.068682664495392703e-01
-3.816280311640243145e-03
-1.050919170555980747e-01
-5.943411241209815149e-02
-2.697092861218209486e-02
-8.968007483819773196e-02
-9.557211173335741772e-02
6.775223623629731545e-03
7.970446853108253960e-02
3.056953207486161339e-02
-7.652703098329868836e-02
-8.381741714109018637e-02
7.021892444450165971e-02
2.207218530604261875e-01
1.948310924140916334e-01
4.933537686327385541e-02
-6.214270622561314517e-02
-7.908132089242267404e-02
-4.450033836362043971e-02
-3.121579552013580353e-02
-2.069138902517517892e-02
4.243801976722987729e-02
6.680662133149237181e-02
-1.278797541331378601e-02
-4.530349106887040372e-02
7.339814214274743842e-03
-2.882618134041268002e-02
-1.249897546177087398e-01
-1.013039628665165226e-01
1.307086735545975875e-02
1.172346608279706270e-01
1.874398192876089997e-01
1.604956372009713472e-01
3.899836434715672762e-02
-5.635530240261420187e-02
-1.068839336709428572e-01
-1.556675814850763673e-01
-1.463229688454319444e-01
-8.115241837978576234e-02
-6.003281757915440026e-02
-6.281239805855290403e-02
-1.738489930780708417e-02
3.790945861740895734e-02
7.275627592115675724e-02
1.015778735388585263e-01
1.048726055909584981e-01
9.488976697712762920e-02
8.909618385138870500e-02
4.523340759256069821e-02
-8.102655322827126416e-03
7.768850206215545395e-03
3.772949967503954477e-02
-6.178031564495847262e-03
-6.228256660027840091e-02
-4.308872702170807312e-02
2.228621094440482592e-02
6.178886413843554665e-02
6.454402615488982406e-03
-1.542690707214973422e-01
-2.545653070049952449e-01
-1.558883365852025138e-01
-5.151616606879091606e-03
3.409303785156066885e-02
1.005627258759742362e-02
-3.684696764703643962e-02
-6.883894165201387416e-02
3.572029026328914225e-02
1.841508328973837094e-01
1.642960646018473692e-01
7.535778525697214847e-02
7.541112676513352098e-02
7.118092010569584960e-02
1.791327442209164622e-02
-2.073087425544947737e-02
-9.001896063301445539e-02
-1.911834233369193725e-01
-2.016501304973306319e-01
-1.167491640866701597e-01
-2.594055338417480122e-02
7.041160502271502641e-02
1.766945162318347418e-01
2.411062437664808211e-01
2.676894762646448989e-01
2.955654044394027680e-01
2.865779058069192198e-01
1.965551123303092562e-01
8.363894392564102942e-02
-3.779766130149433967e-02
-2.384899405537482253e-01
-4.113552851612623518e-01
-3.805168589675518298e-01
-2.394233919625813334e-01
-1.685405616932393602e-01
-1.657274004145916357e-01
-1.381659737166763546e-01
-5.468586217371464164e-02
8.286943547682938671e-03
-1.292964630848603136e-02
-6.929126632716597900e-02
-9.999689140565089229e-02
-5.023177314075455424e-02
1.097826488416618895e-01
2.313603723095183640e-01
1.904986823773852644e-01
1.401300279080727185e-01
1.723680785976534069e-01
1.489789619818750188e-01
7.233940751619635789e-02
8.854192361197146810e-02
1.436702260301043754e-01
8.196533350117514438e-02
-4.403196507562150142e-02
-8.152685905499489072e-02
-4.127785426787709128e-02
-3.238875233834175027e-02
-7.800462599332928793e-02
-1.125278011654773092e-01
-8.489360587841920935e-02
-2.079912413887897993e-02
2.621428967171343313e-02
3.694963374920335469e-02
2.330320338960367027e-02
1.924669162695531385e-02
2.870585627461130773e-02
2.023418443662948485e-02
2.052655846291135538e-02
2.493810774102511729e-02
-5.364018552632617703e-02
-1.400255731667444659e-01
-9.390303953806986015e-02
-2.186116070582835857e-02
-3.752312717463376912e-02
-4.917945970016021628e-02
-2.008055482654015622e-02
-1.868979714572929773e-02
-3.010678558917845304e-02
1.983394616682638417e-03
5.870984083444007878e-02
9.335829315731974942e-02
9.291432626336580680e-02
6.086543791403307979e-02
1.017070421264317306e-02
-3.104903741034766018e-02
-4.644488412692559381e-02
-5.118958483128836778e-02
-5.762550117792130527e-02
-6.696187504075390429e-02
-8.585704829470269805e-02
-4.644009383383537054e-02
1.110154740655127925e-01
2.147210556566295780e-01
1.231229095920164940e-01
1.892191260590249391e-02
3.807984917175004369e-02
6.964056961202455542e-02
5.783686490115978740e-02
4.132395371539979156e-02
2.227478081632840168e-02
6.511724903886956586e-03
-1.364940414722762979e-02
-6.938653405277618591e-02
-1.082728787528990516e-01
-8.201177615781117536e-02
-9.391861483944249911e-02
-1.825181609048701081e-01
-1.871559597910200656e-01
-6.338262856219854802e-02
3.446142879237325263e-02
5.375306495533391238e-02
6.088265376609335727e-02
5.736757445146067891e-02
2.469441911677069251e-02
1.269296580988229714e-02
5.236624675989611649e-02
9.050287395215221575e-02
9.089218254064052038e-02
7.078067096341773834e-02
2.123187029213460808e-02
-3.895685634821372673e-02
-3.361400225384195833e-02
2.206533925052219305e-02
3.210143610247783580e-02
-1.291673656340993834e-02
-5.096374451693778951e-02
-5.221302570810287813e-02
-2.930348169391717300e-02
-2.310725503926119168e-02
-3.792534533473519015e-02
1.843352225323801425e-03
9.821136193460877628e-02
1.213914133458131872e-01
4.098388640597250276e-02
-2.319969144683313098e-02
-3.137773337585127165e-02
-5.441743338032627164e-02
-9.990784727569076984e-02
-1.015164318322988729e-01
-5.070704126498992020e-02
-7.147168203360171335e-03
1.797129771051793334e-03
1.844708082236155844e-02
8.205186868496963659e-02
1.189187303081276903e-01
3.298375505293624221e-02
-6.887112900081136802e-02
-1.808835250170136300e-02
1.065445140692292264e-01
1.283667041903996386e-01
4.649526258180071425e-02
-6.002998193652324399e-02
-1.432484204370033376e-01
-1.663006403569314284e-01
-1.587024175585093622e-01
-1.190312789395810839e-01
4.709189246592625916e-02
2.417782192617384807e-01
2.193225662005890697e-01
1.441686903299863043e-03
-1.474400860134841285e-01
-7.561952089923662523e-02
5.374881565579767845e-02
5.839600723136276900e-03
-8.421156811190244618e-02
1.691439788970458546e-02
1.604622578124718368e-01
1.625852466778617555e-01
1.080893959086676043e-01
5.834082256836436303e-02
-1.738244312973642389e-02
-7.343605135035172204e-02
-6.853188680010251221e-02
-5.842309164202574151e-02
-5.386510278340061325e-02
-1.282346266812247823e-03
3.731247743228870845e-02
-2.287414526340707244e-02
-9.774958226352754853e-02
-1.052648476833412533e-01
-9.958377128875897655e-02
-1.048280368094762632e-01
-8.139017757489261373e-02
-3.579759001079280134e-02
8.394014945443718095e-03
4.282786742761929277e-02
4.301237170164795565e-02
1.237850647410277879e-02
-1.127438557808266642e-02
-3.788836478528654489e-02
-8.870793533662869879e-02
-1.125298830733245659e-01
-8.171598814998443094e-02
-5.004656584401653147e-02
1.192820765022652336e-02
1.582627917747798929e-01
2.507569407086318036e-01
2.494750610590894813e-01
3.522713877170485230e-01
4.852113439391811389e-01
3.955864446290068837e-01
1.899389546226514514e-01
7.428162499778510897e-02
1.852542203824206202e-03
-1.101434039327060105e-01
-2.386130102626888849e-01
-3.312969850537760275e-01
-3.549707113084825671e-01
-3.178482439999660292e-01
-2.761557077259632620e-01
-2.815462777251042104e-01
-2.599584858186178016e-01
-1.030175222263310097e-01
4.075145104714571198e-02
-4.385444469742010021e-02
-2.077724924158698416e-01
-1.913095802216306651e-01
-4.273960518073099957e-02
8.445640863206048399e-02
1.849654518750343812e-01
2.881467279916256619e-01
3.540867826782376770e-01
3.431702858531553435e-01
2.866014203648888925e-01
2.131970162026702864e-01
9.912888060750690844e-02
-1.098308177727370244e-02
-3.859526387354357546e-02
-3.464010180970425457e-02
-6.329011719867280727e-02
-8.938539979344123365e-02
-1.045802830992229315e-01
-1.187467224384718967e-01
-9.441896054239484748e-02
-4.465292659487359039e-02
-2.914270108966741935e-02
-4.694843602291524920e-02
-5.391456379916848007e-02
-2.488371149217583067e-02
3.545014018445862697e-02
9.721537937150628861e-02
1.193863393306763554e-01
7.918420014424003284e-02
-2.740143254914305382e-03
-7.624893103348111267e-02
-1.137839699029360579e-01
-1.258838825231327618e-01
-1.137177577563117381e-01
-6.504687749837551047e-02
-7.709613087664940120e-03
1.933461250718424701e-02
3.496165215667024900e-02
6.379907024251992020e-02
7.038806699714313109e-02
3.096627271951520044e-02
-6.377373774150386573e-03
4.149585467068178310e-03
3.445640682097277779e-02
3.467506680322005735e-02
2.461545683967856363e-02
2.299025735459398617e-02
-2.698259453993727755e-02
-5.465589070720913017e-02
8.021900513626493978e-02
1.868599161293661437e-01
3.626699586155943816e-02
-1.296066761670202627e-01
-5.826000081109380946e-02
6.075346880177658754e-02
4.429834215497682748e-02
1.536918260313902343e-02
2.530505724525643554e-02
-4.957137395319465012e-02
-1.248485569188445415e-01
-4.132720453617778206e-02
4.756018716795081674e-02
-8.944071632902891172e-03
-8.034541347929485822e-02
-7.296945871193684374e-02
-3.866100663917691055e-02
2.753821217227569312e-03
4.609567582230066768e-02
5.985719277047613085e-02
4.933576590982965970e-02
2.332401842887976001e-02
-4.575204467147391679e-02
-1.086080629024425148e-01
-6.276266292791396473e-02
1.473696288919849884e-05
-7.675336157777926105e-02
-1.404948038673683175e-01
-2.227381829213170850e-03
1.784009338783349441e-01
2.249701320779554370e-01
1.885787988998373632e-01
1.326522142626725964e-01
7.010365082101933931e-02
-5.796249625411194900e-03
-1.015077453797937623e-01
-1.371088408453220997e-01
-8.883656968122702335e-02
-8.438472705803552742e-02
-1.051184808540633620e-01
-9.543786704792481604e-03
8.904826858600976836e-02
4.690501664899279083e-02
2.584558867973940979e-02
1.058624236242505928e-01
9.701599226684864963e-02
-3.025335262381103826e-02
-1.129696310201546150e-01
-1.243304459731314759e-01
-1.077166047562476553e-01
-5.187867773757218193e-02
-8.525963519524401915e-03
-1.880582528348418575e-02
1.441277252579594575e-02
1.229673139452241298e-01
1.424629332812037963e-01
-1.545281654117907494e-02
-1.611588261651210885e-01
-9.542646915420816001e-02
7.306387579104042795e-02
1.154631780913172034e-01
4.736625484733793939e-02
3.010006347572528884e-02
5.625794534582388706e-02
2.003181309996308543e-02
-3.651928658749144935e-02
-6.179972298151471116e-03
6.927548143559521254e-02
7.073310806338034551e-02
6.122445011421084361e-03
-9.198997688686958579e-03
4.411941018613517451e-02
4.929137840676992705e-02
-4.215799883195267550e-02
-1.324902318785047550e-01
-1.421782107711919707e-01
-8.878353184689095901e-02
-2.227623620277307745e-02
8.459273264163198053e-03
-5.337880680460951183e-03
9.371870431337055510e-03
1.000568644515514999e-01
1.640107624821813825e-01
8.453213720041068135e-02
-7.151929611984465807e-02
-1.626146168495823663e-01
-1.795596824812729919e-01
-1.830889835643976227e-01
-1.649156887111190850e-01
-9.958838179107655508e-02
-1.399808490494064590e-02
5.481416088474738713e-02
9.455611978524469663e-02
1.017986701359619717e-01
7.647797537368476728e-02
4.234228863316658042e-02
2.357464942572116973e-02
2.049365756648871550e-02
6.122452568317742622e-02
1.700452031117103691e-01
2.762214699176221977e-01
3.013225487467149910e-01
2.709272445741056634e-01
2.354323214414256182e-01
1.758598223963429852e-01
5.996667222079242465e-02
-6.542951205771016521e-02
-1.400595017248151553e-01
-2.128924754896105997e-01
-3.282823261710519080e-01
-3.814992220659743083e-01
-2.992520078056424837e-01
-1.884494955909656599e-01
-1.436463526743052832e-01
-1.213254520613786386e-01
-7.637587557806413407e-02
-4.414055900067376942e-02
-5.770616359409473650e-02
-9.181199327483341444e-02
-1.249290074713855364e-01
-1.438552238473065348e-01
-5.566852891980428319e-02
1.578120458563427309e-01
2.587800176576325883e-01
1.313065422030735008e-01
6.181063859765337926e-02
2.078697482465113877e-01
3.096893119124646820e-01
2.249328756429206932e-01
1.280057994482493022e-01
1.035556274860781334e-01
6.240608675322764642e-02
-2.596756854037681611e-02
-1.068727503735031337e-01
-1.266860283273736065e-01
-6.896937568641817173e-02
2.014170892855137937e-02
4.855065403816954256e-02
-1.034829337008743959e-02
-5.647186844640152137e-02
-3.147788806248209836e-02
-1.314354949905006606e-02
-3.154157428310896960e-02
-2.996984494716720474e-02
-4.161565182802190802e-03
1.839592645113961172e-02
3.305794346252356047e-02
4.166499495729038965e-02
5.691196303854488547e-02
6.938149847621809252e-02
6.740411155534727083e-02
9.832257279309603026e-02
1.252391177003741862e-01
3.054008557219347816e-02
-6.666638907286775995e-02
2.323620255268408347e-02
1.195325987072378832e-01
-1.975875953775328014e-03
-1.504586634935865530e-01
-1.016293413973550774e-01
5.197952243047291102e-03
-1.561619620199898584e-02
-9.920886120534085084e-02
-1.112629938736831581e-01
-4.066108656423516460e-02
2.810757047316006507e-02
1.903629067360668864e-02
-5.399871125458506615e-02
-1.142694550488834865e-01
-1.123461104136389554e-01
-5.639396686946546167e-02
-1.756886362708847890e-02
-7.920382398235045751e-02
-1.937328273162577108e-01
-2.264472897921958328e-01
-1.952948084826315045e-01
-2.238665197055292044e-01
-2.837893400416424128e-01
-2.748179854426140989e-01
-2.309151216853063959e-01
-2.135586162988665493e-01
-2.120467702855945991e-01
-2.284420570098122938e-01
-2.416990364484494502e-01
-1.790577432001944358e-01
-6.119567453467315149e-02
8.749947514346170796e-03
2.285489618120422478e-02
5.778051239256572907e-02
1.257371256050281716e-01
1.778676913911482471e-01
2.234344180901672028e-01
2.905302086410176954e-01
3.200932872073718460e-01
3.019249548737386046e-01
3.757479126286467630e-01
5.832733502545369708e-01
7.565386111772999245e-01
8.106466802941395544e-01
8.669070277498593935e-01
1.007817196452672093e+00
1.166179418372657040e+00
1.267550979647393383e+00
1.298009041253275209e+00
1.314292770917795838e+00
1.453354237734111321e+00
1.615735260506534265e+00
1.383789673736797399e+00
1.038092279812748098e+00
1.431319372456044903e+00
1.476523411310335154e+00
-5.897195935901781150e-01
-1.823116321354181224e+00
1.685727941455690715e+00
4.625057541634845393e+00
-4.326222468173319680e-01
-6.119960078108428903e+00
-3.010277533306287445e+00
-3.732594484650684663e+00
-1.711413853923342288e+01
-2.172189962245305495e+01
-1.110404638754197215e+01
-8.538470704890045226e+00
-1.176816453713977317e+01
-3.984578702136632788e+00
4.188674978973489615e+00
7.498573053082736806e+00
1.709263090378683358e+01
2.389375061393489119e+01
1.400057058221743134e+01
1.404023229036533316e+00
9.285301461025845526e+00
2.977648310519619912e+01
2.880841502712817359e+01
5.473296025254239083e+00
-3.449825298792807526e+00
4.418764352914795523e+00
-3.941684296096840789e+00
-2.520057542449825050e+01
-2.770246527957687732e+01
-1.852837817526360098e+01
-2.290441002450968000e+01
-2.495791051863020726e+01
-7.098202486219086005e+00
6.392620749036825423e+00
2.390130946109926935e+00
1.000066672573350246e+00
7.369450695206692714e+00
8.947507332839350624e+00
6.376540498910579835e+00
6.604229864238086556e+00
7.958165087255367531e+00
7.236921127780817642e+00
5.696442585720498997e+00
5.169227122650222661e+00
5.112681783159660043e+00
4.282857800102812362e+00
3.209803305846177235e+00
2.724119785337336008e+00
2.124682276377568790e+00
1.240688002933147072e+00
6.859473118626673305e-01
-1.025114517924909929e-01
-1.637535173228671370e+00
-3.535806994330237707e+00
-5.537251400548019120e+00
-6.665525079567125033e+00
-6.010672067347639924e+00
-4.850332397371094117e+00
-4.374954619039787218e+00
-3.875948462062519528e+00
-3.148707374258755465e+00
-2.673048833495549115e+00
-1.972748393488004570e+00
-8.267324437584591124e-01
-3.849173847144982119e-02
2.550147873600461246e-02
-1.762681568000068477e-01
-4.333840228522878313e-02
7.088976644549582762e-01
1.721763629012273533e+00
2.458407075943877196e+00
2.770316848628097350e+00
2.604946928888167257e+00
2.032231391561392542e+00
1.545409673850203447e+00
1.528509633851609317e+00
1.711649687002934073e+00
1.672151971487084055e+00
1.421386917371932457e+00
1.026173547441964429e+00
3.972242599540343200e-01
-2.440712043908498385e-01
-6.440678451876384880e-01
-9.218446887430040704e-01
-1.030999068909466132e+00
-7.455000330103295214e-01
-1.660484163784623490e-01
2.090688385940888128e-01
-1.532188115747361579e-01
-6.269849155749775971e-01
-1.125896338767653215e-01
1.956820619046167331e-01
-8.710192393916323939e-01
-8.065572389527292385e-01
5.107643289502922235e-01
-1.291168114026201463e+00
-2.818912861781020407e+00
3.029422485210792715e+00
8.074666937646171050e+00
2.512774964340670714e+00
-3.822595596901474213e+00
-2.056884095826379433e+00
-3.088181917667682796e-01
-3.221463038594104766e+00
-4.464416742164559082e+00
-1.664627312747097410e+00
1.214511898212170093e+00
1.668907805171505832e+00
2.536336202229382275e-01
-1.127097297718826940e+00
-9.746043602124876415e-01
1.939379161191533418e-01
1.156483174889340271e+00
1.775830068443698062e+00
2.081623529243611159e+00
1.876777997347071958e+00
1.472865410228497485e+00
1.139578171306113497e+00
7.565194715311245321e-01
3.412263070090738593e-01
-5.248191960326947791e-02
-4.591748872402443560e-01
-7.177974447696662263e-01
-7.101649252484146801e-01
-6.630911322944053055e-01
-7.379055058141410495e-01
-7.613445820229722827e-01
-6.607776331718883123e-01
-6.123557080503173600e-01
-5.863410065012706340e-01
-3.667878440291233999e-01
-6.004890468280646432e-02
3.337800940938456806e-02
-3.383027185462250674e-02
2.002281672685457536e-03
9.352826293593488605e-02
4.752406290954247492e-03
-2.373125400033620769e-01
-3.868896925526555397e-01
-3.329223205741215774e-01
-2.710869643611040214e-01
-5.012816458874189696e-01
-9.932810108736447319e-01
-1.380284345977496052e+00
-1.468489836147224947e+00
-1.430809094881561938e+00
-1.440341550139600413e+00
-1.343232688661209817e+00
-8.328080368696936242e-01
4.859971770293229631e-02
8.131670910345745185e-01
1.089386177002368949e+00
9.969940664847511957e-01
8.024113590777824934e-01
5.928656031038967988e-01
4.917595237870795444e-01
6.797737552546417872e-01
9.770304646012331062e-01
1.038424351470959017e+00
1.012299405020739451e+00
1.280931999075925809e+00
1.752311267390463945e+00
2.021755386177272573e+00
2.004174829683539549e+00
2.117956532425502303e+00
2.685831413432499648e+00
3.182624261686490819e+00
2.860856268291186222e+00
1.920328546357658928e+00
9.605488295846715818e-01
2.023982719794294449e-01
-2.470325624471221282e-01
-9.859013255273698650e-01
-2.763156938236026594e+00
-3.798333834319294944e+00
-1.673432003670811685e+00
1.890249884794696911e+00
3.833474311836697623e+00
4.967077260883034029e+00
6.637375880240098169e+00
6.906023767840247629e+00
4.346196796725696032e+00
4.342536312498858631e-01
-3.491925966285169380e+00
-7.372379539580348862e+00
-1.076355376409529185e+01
-1.292654188555424000e+01
-1.425929848431545821e+01
-1.565455410014160265e+01
-1.605257991579192733e+01
-1.261323440508749627e+01
-4.982679312361638857e+00
2.100707652984029394e+00
3.824583676294120327e+00
1.886773647278525701e+00
1.093706886977660275e+00
2.409246304066141597e+00
4.875744108078158945e+00
8.175168185178165459e+00
1.055227290378683058e+01
1.068008280178929326e+01
9.487185122616965671e+00
7.340151748906802887e+00
3.776354837493780536e+00
-5.762240768684367964e-03
-1.705312109730877879e+00
-8.845367540267337070e-01
1.035629264386305870e+00
3.141124094591922322e+00
5.079468020187774435e+00
6.294493982794347353e+00
5.892510190882317644e+00
3.414886352463375019e+00
6.395370688745956045e-01
-1.225385008237250606e+00
-4.200566135472936224e+00
-7.848557605550317007e+00
-8.400561550555016410e+00
-5.827339523329126081e+00
-2.853063032071789795e+00
-1.393858556909078894e-01
2.350389547010797386e+00
4.194979472270346399e+00
5.392040008480176283e+00
5.677902893869789303e+00
4.885689471106854143e+00
3.522430206191084601e+00
1.008527479860220843e+00
-3.229246305557728292e+00
-6.819893526355695457e+00
-7.531536002583757217e+00
-6.946572622712410272e+00
-6.357601909567591747e+00
-3.819537853644407122e+00
3.626605320679385791e-01
2.597541778120562750e+00
2.774293190462838066e+00
3.376096304250030045e+00
4.066538263552566868e+00
3.931079066659119992e+00
3.488360888528253767e+00
2.055136288079945750e+00
-1.058841752651023649e+00
-3.974063998793732289e+00
-5.038596242848056406e+00
-5.256378754577292867e+00
-5.752004234577698938e+00
-6.088942075498203543e+00
-5.776466672018055526e+00
-4.825874815943133278e+00
-3.152992929313604531e+00
-1.020504676834645519e+00
8.805273104992823452e-01
2.331873486365073411e+00
3.434574319976369416e+00
3.955943440585587112e+00
3.809501261256885929e+00
3.406011607013672560e+00
3.054102976164429606e+00
2.710038633619975990e+00
2.298113883053029216e+00
1.817045447715817774e+00
1.319940727521388579e+00
9.163424966656422699e-01
6.732854343913257100e-01
6.417112644321534276e-01
8.286064883644074230e-01
1.009618369314159381e+00
1.011261722789104089e+00
1.033491309780934841e+00
1.215244614615114571e+00
1.334748628830653150e+00
1.187862950255197614e+00
7.770511772498710501e-01
1.883860821073656266e-01
-3.923850418851108079e-01
-7.604005566235952918e-01
-9.304260527372990586e-01
-1.062375343760419533e+00
-1.156419520970633164e+00
-1.100092826012157188e+00
-9.689952921706781463e-01
-9.588717413680261092e-01
-1.050699934199311736e+00
-1.060806998347647356e+00
-9.786742464548356946e-01
-9.417927802294970840e-01
-9.569143802638998553e-01
-9.195294819400094966e-01
-7.945464031415733208e-01
-6.105254882912776182e-01
-3.992218370991355014e-01
-2.042340665993921944e-01
-5.413104307829730288e-02
7.885801434488109996e-02
2.285141385906804268e-01
3.596683937463908687e-01
4.107741243745126614e-01
4.067600666899884310e-01
4.293939564890044691e-01
4.465991785829744876e-01
3.604568870917382317e-01
2.719121556191028688e-01
2.991026240759557808e-01
1.915161787748408118e-01
-1.524203394974393833e-01
-2.592459542766254454e-01
-3.404307074765562657e-02
-7.003351791036567520e-03
-1.645338719794913196e-01
-3.432533727200098861e-02
2.889366606800426451e-01
4.075039423469475897e-01
3.077204615171598157e-01
1.894046345785045937e-01
1.330458680648494429e-01
1.349263064811182522e-01
1.815857995682701176e-01
2.069335531619281854e-01
1.311511181350618616e-01
-1.204247591035503828e-03
-7.815155521172575948e-02
-1.176631951179702151e-01
-1.899213505986668271e-01
-2.247358406115203822e-01
-1.493632384435427674e-01
-4.298889394110980144e-02
3.688510785635604194e-02
1.095234060254108993e-01
1.153536438426180782e-01
1.829578626671857569e-02
-6.032486978386153442e-02
-4.732504094506774506e-02
-2.881479652874535322e-02
-5.232416343656971086e-02
-6.802906238094025282e-02
-7.000084265693680419e-02
-1.004851470069697689e-01
-1.402087210515886861e-01
-1.243881766450622428e-01
-5.502653991433302527e-02
2.090936098745308988e-02
9.360014292927681945e-02
1.285807284148145768e-01
7.567293167843525126e-02
-4.118384433975660203e-03
-2.352884546162075166e-02
-2.458326062057171468e-02
-7.522944042069480697e-02
-1.326889007718778934e-01
-1.347897368516938199e-01
-9.069590188601996117e-02
-2.897701712316635980e-02
2.098138544585407411e-02
3.023122459281646357e-02
5.790545101677424533e-03
-1.373909094198317964e-02
3.200818192222647240e-02
1.681819155158138790e-01
3.125873351518961285e-01
3.719797269571560872e-01
3.680093023598056123e-01
3.589724994954734960e-01
3.086492731855839944e-01
1.651739971365467075e-01
-1.032201263884176962e-02
-1.624511240355353547e-01
-2.996477687636921461e-01
-3.241044479820799351e-01
-1.898175751254045918e-01
-1.100234912423119216e-01
-1.761353886434406379e-01
-2.236555179336602861e-01
-2.289956743764668678e-01
-2.545588292298262001e-01
-2.455096619549902714e-01
-2.018300223786061998e-01
-1.737781641921699038e-01
-1.509244973729036154e-01
-1.294150987704656419e-01
-8.829911379857713349e-02
9.821829909580317985e-03
1.072921086601032609e-01
1.371563745889783359e-01
1.566787166302407719e-01
2.149759761403116087e-01
2.380419139146638108e-01
2.052043735156658943e-01
2.128953564947792254e-01
2.445504947839113041e-01
1.983478210383553542e-01
1.276851054481131509e-01
1.141742375154943118e-01
9.522608137495952585e-02
3.955167242763878849e-02
4.004851973359431494e-03
-2.671121761934994177e-02
-8.724213252296497689e-02
-1.143434476347078843e-01
-8.016807341080078864e-02
-7.856050227430907973e-02
-1.388971898177540909e-01
-1.514265580017697954e-01
-8.449130021618531106e-02
-4.492869851946972026e-02
-5.463352589350545241e-02
-2.944111216400156425e-02
2.501727980271680613e-02
4.910096918857397713e-02
6.642042105441922639e-02
1.083226002590070569e-01
1.411799676262322778e-01
1.421236501188269941e-01
1.245467561016314756e-01
8.999059170135445540e-02
3.725090588759369381e-02
-1.977196540206837411e-02
-8.619821243084188622e-02
-1.732117736094598293e-01
-2.596845123459710081e-01
-3.291173521953600356e-01
-3.618716932142917453e-01
-2.840014332550920839e-01
-6.769586058515046634e-02
1.702281203248973418e-01
2.893014191643094035e-01
2.860084164352544311e-01
2.659787945035382295e-01
2.536817715092994918e-01
1.503303356755399944e-01
-4.553276820315699247e-02
-1.902515336076170960e-01
-2.082982120343693233e-01
-1.499185343851180963e-01
-9.132063640681933880e-02
-6.851093234870848925e-02
-5.449766435899183054e-02
-2.604941588481162265e-02
7.407078313942912565e-04
3.755903117357814458e-02
5.057730956563334657e-02
-3.581179315101361976e-02
-9.361753448661828958e-02
2.288383862534214969e-02
1.437946669474606254e-01
1.333914633645726933e-01
1.215731000649964005e-01
1.641198957179099138e-01
1.853433348042694551e-01
1.591386881684833110e-01
9.339681222525433868e-02
9.954813280752587701e-03
-5.462571099629631721e-02
-1.018626042165923229e-01
-1.668853164174007309e-01
-2.483594462972155692e-01
-2.830185685791785088e-01
-2.328153500085946015e-01
-1.353223749646197405e-01
-1.977915583752724166e-02
1.034659092040046136e-01
1.868142530288453007e-01
2.058558379511049308e-01
1.933752219845812637e-01
1.660245717786305863e-01
1.171777968864013975e-01
6.605526782778424477e-02
3.196453468030995004e-02
-2.369520805606449565e-03
-3.850107236891622126e-02
-4.323520648526596455e-02
-2.449867345752194253e-02
-2.593590405261150811e-02
-4.730500975608303849e-02
-5.792733507454094627e-02
-4.798490824914085351e-02
-3.107363052568458753e-02
-2.242642884667668882e-02
-1.418601078895692993e-02
6.800253019281568556e-04
2.424957281059502215e-02
8.079134978718982563e-02
1.101415685927682464e-01
-6.335574895741682283e-03
-1.786085739256191574e-01
-2.195421388211644120e-01
-1.846844918163728366e-01
-2.112538902569409682e-01
-2.485167759307714275e-01
-2.108350000760010612e-01
-1.317453315525733137e-01
-5.855758096409761221e-02
2.786658506044960987e-02
1.534172171317414735e-01
2.843028660533234442e-01
3.696397284787291682e-01
4.166874690498531542e-01
4.351113522755045149e-01
3.835199219366003387e-01
2.670260039316957879e-01
1.665449646979838827e-01
1.048604824208966002e-01
8.934928080095994041e-03
-1.461408872924397639e-01
-2.895184059439094293e-01
-3.902975037241429579e-01
-4.696819153509569911e-01
-5.146054642943657109e-01
-5.849896108991297083e-01
-7.299740050059031482e-01
-5.077986219671799528e-01
6.604901939223023488e-01
1.947745940256889519e+00
1.370900672582605617e+00
-9.793891865651460638e-01
-2.262989931119235631e+00
-1.132459233930180664e+00
4.576681714277693325e-01
7.252569680823472975e-01
8.972080666727696996e-02
-4.102933885737753972e-01
-2.771464823470147221e-01
4.577703508773922625e-01
1.174733366630433151e+00
1.248154912523931959e+00
8.837241100006867356e-01
5.811032267149414121e-01
2.977641919493991263e-01
-5.194479541528705668e-02
-1.983537640537053059e-01
-1.319639833165932863e-01
-1.645940710914132188e-01
-3.478627227211289474e-01
-5.254757328774442016e-01
-6.217765017605253464e-01
-5.775511726990641970e-01
